3.00117 18311
3.02128 17832
3.0414 17396
3.06151 16795
3.08162 16327
3.10174 16157
3.12185 15463
3.14197 15529
3.16208 14625
3.18219 14423
3.20231 13744
3.22242 13495
3.24253 13081
3.26265 12435
3.28276 12082
3.30288 11758
3.32299 11580
3.3431 11256
3.36322 10682
3.38333 10490
3.40344 10084
3.42356 9517
3.44367 9569
3.46379 9038
3.4839 8761
3.50401 8706
3.52413 8177
3.54424 7763
3.56435 7383
3.58447 7320
3.60458 6880
3.62469 6609
3.64481 6723
3.66492 6068
3.68504 5997
3.70515 5794
3.72526 5483
3.74538 5396
3.76549 5043
3.7856 4808
3.80572 4778
3.82583 4434
3.84595 4351
3.86606 3967
3.88617 3873
3.90629 3693
3.9264 3500
3.94651 3455
3.96663 3165
3.98674 2984
4.00686 3037
4.02697 2798
4.04708 2869
4.0672 2520
4.08731 2550
4.10742 2445
4.12754 2152
4.14765 2246
4.16776 2009
4.18788 1943
4.20799 1980
4.22811 1826
4.24822 1848
4.26833 1575
4.28845 1527
4.30856 1604
4.32867 1493
4.34879 1604
4.3689 1381
4.38902 1365
4.40913 1418
4.42924 1355
4.44936 1321
4.46947 1196
4.48958 1215
4.5097 1214
4.52981 1115
4.54992 1095
4.57004 1072
4.59015 1001
4.61027 1014
4.63038 1080
4.65049 957
4.67061 904
4.69072 911
4.71083 900
4.73095 910
4.75106 846
4.77118 850
4.79129 809
4.8114 806
4.83152 782
4.85163 781
4.87174 756
4.89186 713
4.91197 736
4.93209 742
4.9522 653
4.97231 667
4.99243 660
5.01254 592
5.03265 606
5.05277 555
5.07288 519
5.09299 567
5.11311 566
5.13322 534
5.15334 514
5.17345 523
5.19356 485
5.21368 498
5.23379 513
5.2539 438
5.27402 432
5.29413 399
5.31425 428
5.33436 420
5.35447 415
5.37459 385
5.3947 378
5.41481 367
5.43493 395
5.45504 350
5.47516 362
5.49527 379
5.51538 321
5.5355 340
5.55561 321
5.57572 342
5.59584 321
5.61595 299
5.63606 348
5.65618 240
5.67629 300
5.69641 304
5.71652 237
5.73663 275
5.75675 306
5.77686 303
5.79697 274
5.81709 279
5.8372 279
5.85732 249
5.87743 233
5.89754 256
5.91766 247
5.93777 252
5.95788 216
5.978 236
5.99811 284
6.01823 231
6.03834 230
6.05845 197
6.07857 240
6.09868 202
6.11879 223
6.13891 221
6.15902 206
6.17913 202
6.19925 228
6.21936 201
6.23948 197
6.25959 183
6.2797 194
6.29982 205
6.31993 187
6.34004 219
6.36016 234
6.38027 243
6.40039 225
6.4205 238
6.44061 217
6.46073 197
6.48084 188
6.50095 211
6.52107 199
6.54118 226
6.56129 183
6.58141 168
6.60152 203
6.62164 208
6.64175 176
6.66186 191
6.68198 184
6.70209 179
6.7222 191
6.74232 161
6.76243 192
6.78255 181
6.80266 195
6.82277 209
6.84289 187
6.863 202
6.88311 197
6.90323 202
6.92334 203
6.94346 161
6.96357 189
6.98368 186
7.0038 188
7.02391 190
7.04402 209
7.06414 192
7.08425 195
7.10436 222
7.12448 159
7.14459 172
7.16471 206
7.18482 193
7.20493 187
7.22505 202
7.24516 191
7.26527 195
7.28539 189
7.3055 184
7.32562 184
7.34573 196
7.36584 195
7.38596 178
7.40607 178
7.42618 184
7.4463 180
7.46641 221
7.48653 207
7.50664 206
7.52675 192
7.54687 194
7.56698 165
7.58709 196
7.60721 208
7.62732 197
7.64743 196
7.66755 189
7.68766 193
7.70778 179
7.72789 203
7.748 200
7.76812 193
7.78823 238
7.80834 192
7.82846 192
7.84857 220
7.86869 221
7.8888 195
7.90891 213
7.92903 205
7.94914 176
7.96925 235
7.98937 198
8.00948 201
8.0296 190
8.04971 220
8.06982 206
8.08994 203
8.11005 222
8.13016 231
8.15028 183
8.17039 188
8.1905 204
8.21062 192
8.23073 209
8.25085 233
8.27096 202
8.29107 193
8.31119 217
8.3313 214
8.35141 214
8.37153 205
8.39164 213
8.41176 226
8.43187 185
8.45198 242
8.4721 207
8.49221 233
8.51232 211
8.53244 217
8.55255 232
8.57266 227
8.59278 212
8.61289 200
8.63301 211
8.65312 216
8.67323 218
8.69335 234
8.71346 229
8.73357 206
8.75369 216
8.7738 241
8.79392 250
8.81403 220
8.83414 243
8.85426 256
8.87437 227
8.89448 226
8.9146 219
8.93471 210
8.95483 257
8.97494 225
8.99505 238
9.01517 222
9.03528 205
9.05539 219
9.07551 200
9.09562 204
9.11573 220
9.13585 205
9.15596 205
9.17608 217
9.19619 235
9.2163 223
9.23642 213
9.25653 219
9.27664 195
9.29676 215
9.31687 203
9.33699 235
9.3571 220
9.37721 206
9.39733 190
9.41744 236
9.43755 213
9.45767 181
9.47778 227
9.4979 215
9.51801 222
9.53812 244
9.55824 221
9.57835 230
9.59846 226
9.61858 205
9.63869 202
9.6588 218
9.67892 218
9.69903 236
9.71915 239
9.73926 201
9.75937 201
9.77949 206
9.7996 225
9.81971 250
9.83983 223
9.85994 216
9.88006 209
9.90017 219
9.92028 253
9.9404 209
9.96051 227
9.98062 190
10.00074 195
10.02085 212
10.04097 206
10.06108 220
10.08119 211
10.10131 188
10.12142 215
10.14153 220
10.16165 205
10.18176 223
10.20187 194
10.22199 238
10.2421 210
10.26222 202
10.28233 210
10.30244 219
10.32256 218
10.34267 211
10.36278 209
10.3829 220
10.40301 213
10.42313 222
10.44324 214
10.46335 253
10.48347 226
10.50358 244
10.52369 210
10.54381 211
10.56392 236
10.58403 215
10.60415 213
10.62426 224
10.64438 196
10.66449 197
10.6846 209
10.70472 214
10.72483 183
10.74494 217
10.76506 190
10.78517 207
10.80529 210
10.8254 238
10.84551 225
10.86563 205
10.88574 230
10.90585 223
10.92597 205
10.94608 207
10.9662 230
10.98631 207
11.00642 210
11.02654 223
11.04665 242
11.06676 220
11.08688 181
11.10699 207
11.1271 197
11.14722 167
11.16733 240
11.18745 216
11.20756 214
11.22767 224
11.24779 221
11.2679 217
11.28801 209
11.30813 185
11.32824 220
11.34836 227
11.36847 233
11.38858 219
11.4087 192
11.42881 220
11.44892 195
11.46904 239
11.48915 207
11.50927 207
11.52938 229
11.54949 228
11.56961 243
11.58972 220
11.60983 184
11.62995 213
11.65006 215
11.67017 216
11.69029 219
11.7104 221
11.73052 195
11.75063 242
11.77074 227
11.79086 235
11.81097 230
11.83108 222
11.8512 237
11.87131 207
11.89143 207
11.91154 233
11.93165 185
11.95177 237
11.97188 221
11.99199 214
12.01211 201
12.03222 192
12.05234 233
12.07245 241
12.09256 223
12.11268 248
12.13279 255
12.1529 252
12.17302 236
12.19313 244
12.21324 221
12.23336 244
12.25347 238
12.27359 198
12.2937 216
12.31381 236
12.33393 236
12.35404 239
12.37415 216
12.39427 196
12.41438 192
12.4345 234
12.45461 243
12.47472 218
12.49484 216
12.51495 194
12.53506 213
12.55518 223
12.57529 204
12.5954 185
12.61552 218
12.63563 196
12.65575 195
12.67586 210
12.69597 212
12.71609 180
12.7362 208
12.75631 239
12.77643 196
12.79654 182
12.81666 224
12.83677 215
12.85688 211
12.877 198
12.89711 189
12.91722 230
12.93734 213
12.95745 211
12.97757 196
12.99768 188
13.01779 219
13.03791 190
13.05802 203
13.07813 219
13.09825 196
13.11836 222
13.13847 206
13.15859 222
13.1787 219
13.19882 197
13.21893 187
13.23904 184
13.25916 199
13.27927 222
13.29938 212
13.3195 209
13.33961 230
13.35973 200
13.37984 210
13.39995 175
13.42007 192
13.44018 209
13.46029 196
13.48041 192
13.50052 202
13.52064 240
13.54075 216
13.56086 212
13.58098 215
13.60109 271
13.6212 240
13.64132 241
13.66143 206
13.68154 221
13.70166 213
13.72177 207
13.74189 227
13.762 198
13.78211 212
13.80223 209
13.82234 216
13.84245 203
13.86257 175
13.88268 200
13.9028 219
13.92291 205
13.94302 205
13.96314 206
13.98325 203
14.00336 189
14.02348 203
14.04359 179
14.06371 165
14.08382 181
14.10393 191
14.12405 174
14.14416 182
14.16427 203
14.18439 172
14.2045 193
14.22461 184
14.24473 203
14.26484 186
14.28496 166
14.30507 193
14.32518 173
14.3453 177
14.36541 197
14.38552 180
14.40564 170
14.42575 174
14.44587 172
14.46598 193
14.48609 199
14.50621 186
14.52632 200
14.54643 192
14.56655 194
14.58666 180
14.60677 178
14.62689 159
14.647 177
14.66712 198
14.68723 176
14.70734 187
14.72746 165
14.74757 166
14.76768 173
14.7878 189
14.80791 203
14.82803 192
14.84814 179
14.86825 217
14.88837 201
14.90848 230
14.92859 194
14.94871 207
14.96882 187
14.98894 178
15.00905 198
15.02916 173
15.04928 203
15.06939 185
15.0895 187
15.10962 180
15.12973 182
15.14984 200
15.16996 218
15.19007 191
15.21019 197
15.2303 166
15.25041 173
15.27053 180
15.29064 189
15.31075 190
15.33087 181
15.35098 199
15.3711 181
15.39121 163
15.41132 167
15.43144 186
15.45155 216
15.47166 151
15.49178 149
15.51189 175
15.53201 160
15.55212 182
15.57223 181
15.59235 187
15.61246 167
15.63257 173
15.65269 169
15.6728 180
15.69291 167
15.71303 206
15.73314 159
15.75326 178
15.77337 177
15.79348 168
15.8136 173
15.83371 166
15.85382 174
15.87394 159
15.89405 157
15.91417 168
15.93428 159
15.95439 171
15.97451 182
15.99462 196
16.01473 150
16.03485 173
16.05496 197
16.07508 197
16.09519 171
16.1153 145
16.13542 145
16.15553 150
16.17564 160
16.19576 197
16.21587 157
16.23598 167
16.2561 194
16.27621 188
16.29633 167
16.31644 158
16.33655 181
16.35667 177
16.37678 170
16.39689 156
16.41701 171
16.43712 176
16.45724 178
16.47735 179
16.49746 188
16.51758 188
16.53769 200
16.5578 178
16.57792 151
16.59803 160
16.61814 167
16.63826 156
16.65837 159
16.67849 165
16.6986 156
16.71871 161
16.73883 191
16.75894 171
16.77905 165
16.79917 176
16.81928 164
16.8394 164
16.85951 155
16.87962 176
16.89974 145
16.91985 168
16.93996 190
16.96008 174
16.98019 178
17.00031 164
17.02042 142
17.04053 183
17.06065 164
17.08076 172
17.10087 175
17.12099 165
17.1411 175
17.16121 178
17.18133 158
17.20144 156
17.22156 158
17.24167 195
17.26178 177
17.2819 146
17.30201 192
17.32212 155
17.34224 177
17.36235 172
17.38247 173
17.40258 152
17.42269 170
17.44281 203
17.46292 163
17.48303 170
17.50315 189
17.52326 161
17.54338 166
17.56349 159
17.5836 158
17.60372 155
17.62383 167
17.64394 165
17.66406 175
17.68417 159
17.70428 147
17.7244 150
17.74451 165
17.76463 154
17.78474 161
17.80485 150
17.82497 162
17.84508 176
17.86519 171
17.88531 158
17.90542 143
17.92554 147
17.94565 188
17.96576 156
17.98588 177
18.00599 159
18.0261 146
18.04622 147
18.06633 170
18.08645 155
18.10656 149
18.12667 191
18.14679 164
18.1669 168
18.18701 183
18.20713 158
18.22724 149
18.24735 174
18.26747 149
18.28758 161
18.3077 154
18.32781 203
18.34792 187
18.36804 161
18.38815 177
18.40826 161
18.42838 184
18.44849 181
18.46861 160
18.48872 155
18.50883 163
18.52895 157
18.54906 152
18.56917 160
18.58929 185
18.6094 163
18.62951 151
18.64963 166
18.66974 175
18.68986 156
18.70997 168
18.73008 188
18.7502 172
18.77031 190
18.79042 180
18.81054 174
18.83065 164
18.85077 167
18.87088 161
18.89099 170
18.91111 180
18.93122 155
18.95133 172
18.97145 162
18.99156 169
19.01168 166
19.03179 173
19.0519 174
19.07202 167
19.09213 180
19.11224 177
19.13236 180
19.15247 180
19.17258 160
19.1927 170
19.21281 190
19.23293 192
19.25304 188
19.27315 212
19.29327 172
19.31338 175
19.33349 184
19.35361 215
19.37372 182
19.39384 177
19.41395 194
19.43406 176
19.45418 185
19.47429 182
19.4944 177
19.51452 182
19.53463 184
19.55475 206
19.57486 202
19.59497 199
19.61509 198
19.6352 219
19.65531 195
19.67543 188
19.69554 201
19.71565 213
19.73577 213
19.75588 209
19.776 223
19.79611 225
19.81622 270
19.83634 254
19.85645 241
19.87656 245
19.89668 215
19.91679 255
19.93691 240
19.95702 244
19.97713 222
19.99725 216
20.01736 253
20.03747 225
20.05759 218
20.0777 281
20.09782 257
20.11793 229
20.13804 235
20.15816 273
20.17827 252
20.19838 243
20.2185 270
20.23861 264
20.25872 274
20.27884 259
20.29895 300
20.31907 268
20.33918 277
20.35929 323
20.37941 331
20.39952 315
20.41963 334
20.43975 366
20.45986 357
20.47998 380
20.50009 369
20.5202 414
20.54032 433
20.56043 474
20.58054 596
20.60066 669
20.62077 811
20.64088 1035
20.661 1235
20.68111 1706
20.70123 2095
20.72134 2572
20.74145 3128
20.76157 3692
20.78168 4303
20.80179 4616
20.82191 4814
20.84202 4897
20.86214 4651
20.88225 4131
20.90236 3573
20.92248 2788
20.94259 2154
20.9627 1587
20.98282 1113
21.00293 872
21.02305 728
21.04316 660
21.06327 571
21.08339 530
21.1035 437
21.12361 403
21.14373 354
21.16384 318
21.18395 296
21.20407 285
21.22418 275
21.2443 258
21.26441 284
21.28452 292
21.30464 277
21.32475 265
21.34486 246
21.36498 255
21.38509 254
21.40521 235
21.42532 254
21.44543 248
21.46555 227
21.48566 250
21.50577 239
21.52589 237
21.546 240
21.56612 228
21.58623 217
21.60634 234
21.62646 210
21.64657 225
21.66668 211
21.6868 223
21.70691 220
21.72702 224
21.74714 219
21.76725 213
21.78737 220
21.80748 239
21.82759 266
21.84771 251
21.86782 291
21.88793 280
21.90805 312
21.92816 333
21.94828 312
21.96839 340
21.9885 351
22.00862 309
22.02873 328
22.04884 319
22.06896 280
22.08907 326
22.10919 257
22.1293 293
22.14941 248
22.16953 219
22.18964 261
22.20975 253
22.22987 261
22.24998 259
22.27009 284
22.29021 242
22.31032 272
22.33044 257
22.35055 245
22.37066 236
22.39078 248
22.41089 216
22.431 221
22.45112 224
22.47123 223
22.49135 226
22.51146 228
22.53157 205
22.55169 221
22.5718 226
22.59191 219
22.61203 261
22.63214 206
22.65225 229
22.67237 242
22.69248 207
22.7126 243
22.73271 234
22.75282 216
22.77294 232
22.79305 234
22.81316 213
22.83328 220
22.85339 223
22.87351 238
22.89362 233
22.91373 252
22.93385 248
22.95396 263
22.97407 260
22.99419 239
23.0143 260
23.03442 281
23.05453 330
23.07464 296
23.09476 338
23.11487 336
23.13498 335
23.1551 330
23.17521 355
23.19532 327
23.21544 313
23.23555 312
23.25567 263
23.27578 277
23.29589 260
23.31601 218
23.33612 229
23.35623 244
23.37635 211
23.39646 225
23.41658 263
23.43669 242
23.4568 252
23.47692 246
23.49703 233
23.51714 263
23.53726 250
23.55737 228
23.57749 269
23.5976 280
23.61771 253
23.63783 253
23.65794 262
23.67805 264
23.69817 281
23.71828 230
23.73839 272
23.75851 276
23.77862 292
23.79874 305
23.81885 314
23.83896 326
23.85908 376
23.87919 331
23.8993 370
23.91942 382
23.93953 403
23.95965 409
23.97976 410
23.99987 402
24.01999 373
24.0401 339
24.06021 308
24.08033 307
24.10044 275
24.12056 271
24.14067 256
24.16078 289
24.1809 258
24.20101 283
24.22112 269
24.24124 287
24.26135 313
24.28146 308
24.30158 293
24.32169 292
24.34181 305
24.36192 299
24.38203 259
24.40215 242
24.42226 232
24.44237 243
24.46249 248
24.4826 234
24.50272 244
24.52283 250
24.54294 253
24.56306 237
24.58317 261
24.60328 225
24.6234 208
24.64351 259
24.66362 216
24.68374 244
24.70385 240
24.72397 258
24.74408 269
24.76419 240
24.78431 232
24.80442 245
24.82453 222
24.84465 234
24.86476 266
24.88488 261
24.90499 229
24.9251 235
24.94522 238
24.96533 204
24.98544 224
25.00556 251
25.02567 230
25.04579 227
25.0659 226
25.08601 209
25.10613 220
25.12624 232
25.14635 213
25.16647 226
25.18658 223
25.20669 224
25.22681 199
25.24692 248
25.26704 260
25.28715 252
25.30726 259
25.32738 261
25.34749 250
25.3676 314
25.38772 295
25.40783 356
25.42795 329
25.44806 431
25.46817 407
25.48829 395
25.5084 437
25.52851 432
25.54863 473
25.56874 444
25.58886 478
25.60897 448
25.62908 452
25.6492 435
25.66931 441
25.68942 477
25.70954 419
25.72965 431
25.74976 390
25.76988 414
25.78999 398
25.81011 408
25.83022 409
25.85033 424
25.87045 467
25.89056 473
25.91067 432
25.93079 447
25.9509 460
25.97102 461
25.99113 501
26.01124 526
26.03136 521
26.05147 563
26.07158 557
26.0917 591
26.11181 655
26.13193 700
26.15204 769
26.17215 837
26.19227 864
26.21238 1032
26.23249 1187
26.25261 1289
26.27272 1496
26.29283 1674
26.31295 1997
26.33306 2366
26.35318 2780
26.37329 3449
26.3934 4283
26.41352 5348
26.43363 6778
26.45374 8606
26.47386 10559
26.49397 12947
26.51409 15291
26.5342 17779
26.55431 19629
26.57443 20898
26.59454 21701
26.61465 21853
26.63477 20776
26.65488 18651
26.67499 15825
26.69511 12742
26.71522 9508
26.73534 6946
26.75545 4990
26.77556 3363
26.79568 2299
26.81579 1700
26.8359 1363
26.85602 1226
26.87613 1146
26.89625 1003
26.91636 986
26.93647 938
26.95659 876
26.9767 820
26.99681 827
27.01693 782
27.03704 751
27.05716 732
27.07727 687
27.09738 655
27.1175 694
27.13761 588
27.15772 553
27.17784 591
27.19795 585
27.21806 553
27.23818 609
27.25829 665
27.27841 675
27.29852 731
27.31863 802
27.33875 832
27.35886 804
27.37897 853
27.39909 862
27.4192 874
27.43932 857
27.45943 783
27.47954 739
27.49966 750
27.51977 647
27.53988 572
27.56 511
27.58011 506
27.60023 495
27.62034 465
27.64045 470
27.66057 473
27.68068 482
27.70079 466
27.72091 541
27.74102 547
27.76113 505
27.78125 544
27.80136 537
27.82148 535
27.84159 556
27.8617 556
27.88182 531
27.90193 522
27.92204 484
27.94216 504
27.96227 472
27.98239 420
28.0025 455
28.02261 386
28.04273 391
28.06284 362
28.08295 332
28.10307 310
28.12318 357
28.1433 331
28.16341 290
28.18352 289
28.20364 302
28.22375 303
28.24386 308
28.26398 312
28.28409 285
28.3042 257
28.32432 290
28.34443 286
28.36455 267
28.38466 276
28.40477 262
28.42489 261
28.445 253
28.46511 245
28.48523 240
28.50534 233
28.52546 246
28.54557 243
28.56568 226
28.5858 254
28.60591 251
28.62602 210
28.64614 225
28.66625 221
28.68636 207
28.70648 220
28.72659 234
28.74671 220
28.76682 235
28.78693 204
28.80705 215
28.82716 208
28.84727 223
28.86739 203
28.8875 217
28.90762 212
28.92773 222
28.94784 218
28.96796 232
28.98807 191
29.00818 219
29.0283 207
29.04841 221
29.06853 205
29.08864 201
29.10875 239
29.12887 250
29.14898 238
29.16909 228
29.18921 196
29.20932 212
29.22943 240
29.24955 272
29.26966 234
29.28978 255
29.30989 271
29.33 273
29.35012 268
29.37023 251
29.39034 298
29.41046 293
29.43057 300
29.45069 274
29.4708 279
29.49091 301
29.51103 259
29.53114 243
29.55125 245
29.57137 251
29.59148 248
29.6116 225
29.63171 234
29.65182 261
29.67194 255
29.69205 244
29.71216 248
29.73228 266
29.75239 272
29.7725 231
29.79262 241
29.81273 232
29.83285 258
29.85296 288
29.87307 253
29.89319 248
29.9133 236
29.93341 263
29.95353 249
29.97364 265
29.99376 244
30.01387 278
30.03398 284
30.0541 273
30.07421 296
30.09432 317
30.11444 300
30.13455 334
30.15467 318
30.17478 290
30.19489 328
30.21501 317
30.23512 320
30.25523 307
30.27535 279
30.29546 297
30.31557 302
30.33569 286
30.3558 276
30.37592 279
30.39603 254
30.41614 272
30.43626 285
30.45637 266
30.47648 261
30.4966 246
30.51671 245
30.53683 259
30.55694 231
30.57705 240
30.59717 227
30.61728 243
30.63739 254
30.65751 279
30.67762 275
30.69773 300
30.71785 311
30.73796 290
30.75808 251
30.77819 289
30.7983 287
30.81842 276
30.83853 260
30.85864 246
30.87876 257
30.89887 260
30.91899 214
30.9391 240
30.95921 220
30.97933 207
30.99944 200
31.01955 198
31.03967 218
31.05978 193
31.0799 186
31.10001 200
31.12012 193
31.14024 187
31.16035 177
31.18046 195
31.20058 179
31.22069 205
31.2408 192
31.26092 192
31.28103 189
31.30115 221
31.32126 186
31.34137 206
31.36149 225
31.3816 226
31.40171 213
31.42183 161
31.44194 206
31.46206 220
31.48217 203
31.50228 177
31.5224 210
31.54251 176
31.56262 186
31.58274 177
31.60285 179
31.62297 194
31.64308 182
31.66319 186
31.68331 161
31.70342 154
31.72353 164
31.74365 165
31.76376 181
31.78387 169
31.80399 156
31.8241 166
31.84422 169
31.86433 169
31.88444 215
31.90456 177
31.92467 173
31.94478 196
31.9649 222
31.98501 190
32.00513 183
32.02524 200
32.04535 195
32.06547 189
32.08558 194
32.10569 203
32.12581 202
32.14592 195
32.16604 198
32.18615 210
32.20626 210
32.22638 207
32.24649 203
32.2666 202
32.28672 187
32.30683 187
32.32694 194
32.34706 201
32.36717 234
32.38729 217
32.4074 215
32.42751 232
32.44763 199
32.46774 199
32.48785 205
32.50797 223
32.52808 183
32.5482 198
32.56831 158
32.58842 163
32.60854 167
32.62865 172
32.64876 158
32.66888 156
32.68899 167
32.7091 174
32.72922 138
32.74933 175
32.76945 147
32.78956 158
32.80967 166
32.82979 169
32.8499 154
32.87001 138
32.89013 162
32.91024 139
32.93036 160
32.95047 149
32.97058 150
32.9907 159
33.01081 163
33.03092 146
33.05104 143
33.07115 157
33.09127 150
33.11138 157
33.13149 139
33.15161 158
33.17172 157
33.19183 161
33.21195 157
33.23206 161
33.25217 164
33.27229 128
33.2924 153
33.31252 157
33.33263 152
33.35274 146
33.37286 152
33.39297 165
33.41308 153
33.4332 147
33.45331 158
33.47343 147
33.49354 155
33.51365 159
33.53377 149
33.55388 141
33.57399 181
33.59411 151
33.61422 170
33.63434 160
33.65445 137
33.67456 154
33.69468 169
33.71479 149
33.7349 193
33.75502 148
33.77513 186
33.79524 177
33.81536 177
33.83547 192
33.85559 175
33.8757 190
33.89581 180
33.91593 177
33.93604 166
33.95615 172
33.97627 203
33.99638 191
34.0165 184
34.03661 211
34.05672 200
34.07684 218
34.09695 242
34.11706 224
34.13718 219
34.15729 246
34.17741 254
34.19752 226
34.21763 227
34.23775 253
34.25786 241
34.27797 218
34.29809 221
34.3182 230
34.33831 209
34.35843 195
34.37854 199
34.39866 203
34.41877 183
34.43888 180
34.459 229
34.47911 199
34.49922 185
34.51934 190
34.53945 197
34.55957 200
34.57968 213
34.59979 237
34.61991 208
34.64002 199
34.66013 193
34.68025 221
34.70036 227
34.72047 229
34.74059 225
34.7607 229
34.78082 232
34.80093 215
34.82104 227
34.84116 224
34.86127 223
34.88138 226
34.9015 203
34.92161 256
34.94173 210
34.96184 226
34.98195 187
35.00207 210
35.02218 206
35.04229 202
35.06241 205
35.08252 213
35.10264 228
35.12275 215
35.14286 215
35.16298 245
35.18309 188
35.2032 236
35.22332 249
35.24343 209
35.26354 260
35.28366 239
35.30377 222
35.32389 238
35.344 247
35.36411 230
35.38423 267
35.40434 267
35.42445 248
35.44457 254
35.46468 278
35.4848 251
35.50491 290
35.52502 248
35.54514 249
35.56525 267
35.58536 215
35.60548 229
35.62559 209
35.64571 209
35.66582 216
35.68593 201
35.70605 203
35.72616 187
35.74627 196
35.76639 206
35.7865 198
35.80661 222
35.82673 186
35.84684 197
35.86696 189
35.88707 188
35.90718 193
35.9273 209
35.94741 222
35.96752 192
35.98764 198
36.00775 225
36.02787 215
36.04798 227
36.06809 214
36.08821 260
36.10832 254
36.12843 242
36.14855 297
36.16866 296
36.18878 344
36.20889 361
36.229 384
36.24912 397
36.26923 487
36.28934 542
36.30946 637
36.32957 712
36.34968 869
36.3698 988
36.38991 1062
36.41003 1248
36.43014 1353
36.45025 1541
36.47037 1543
36.49048 1660
36.51059 1562
36.53071 1514
36.55082 1381
36.57094 1262
36.59105 1053
36.61116 938
36.63128 738
36.65139 640
36.6715 521
36.69162 417
36.71173 351
36.73184 277
36.75196 265
36.77207 263
36.79219 251
36.8123 247
36.83241 269
36.85253 250
36.87264 255
36.89275 232
36.91287 211
36.93298 273
36.9531 241
36.97321 225
36.99332 245
37.01344 210
37.03355 208
37.05366 225
37.07378 198
37.09389 226
37.11401 196
37.13412 186
37.15423 212
37.17435 178
37.19446 150
37.21457 174
37.23469 174
37.2548 195
37.27491 188
37.29503 166
37.31514 185
37.33526 172
37.35537 190
37.37548 166
37.3956 200
37.41571 175
37.43582 200
37.45594 197
37.47605 179
37.49617 194
37.51628 198
37.53639 200
37.55651 194
37.57662 163
37.59673 169
37.61685 165
37.63696 194
37.65708 172
37.67719 177
37.6973 159
37.71742 188
37.73753 190
37.75764 171
37.77776 176
37.79787 172
37.81798 165
37.8381 157
37.85821 137
37.87833 155
37.89844 147
37.91855 164
37.93867 160
37.95878 145
37.97889 172
37.99901 177
38.01912 175
38.03924 154
38.05935 177
38.07946 165
38.09958 168
38.11969 164
38.1398 173
38.15992 167
38.18003 169
38.20015 200
38.22026 168
38.24037 155
38.26049 190
38.2806 177
38.30071 183
38.32083 163
38.34094 170
38.36105 183
38.38117 186
38.40128 200
38.4214 177
38.44151 204
38.46162 188
38.48174 197
38.50185 207
38.52196 198
38.54208 210
38.56219 203
38.58231 186
38.60242 182
38.62253 185
38.64265 213
38.66276 193
38.68287 184
38.70299 186
38.7231 173
38.74321 187
38.76333 153
38.78344 175
38.80356 186
38.82367 183
38.84378 198
38.8639 205
38.88401 194
38.90412 208
38.92424 206
38.94435 186
38.96447 211
38.98458 260
39.00469 234
39.02481 238
39.04492 251
39.06503 266
39.08515 277
39.10526 326
39.12538 352
39.14549 367
39.1656 419
39.18572 421
39.20583 549
39.22594 614
39.24606 629
39.26617 796
39.28628 898
39.3064 953
39.32651 1187
39.34663 1266
39.36674 1376
39.38685 1432
39.40697 1519
39.42708 1437
39.44719 1454
39.46731 1399
39.48742 1248
39.50754 1011
39.52765 908
39.54776 718
39.56788 646
39.58799 499
39.6081 425
39.62822 365
39.64833 280
39.66845 272
39.68856 227
39.70867 243
39.72879 223
39.7489 213
39.76901 223
39.78913 219
39.80924 217
39.82935 207
39.84947 236
39.86958 202
39.8897 220
39.90981 235
39.92992 240
39.95004 301
39.97015 272
39.99026 313
40.01038 315
40.03049 350
40.05061 383
40.07072 398
40.09083 488
40.11095 557
40.13106 596
40.15117 704
40.17129 681
40.1914 767
40.21152 781
40.23163 775
40.25174 801
40.27186 773
40.29197 721
40.31208 628
40.3322 608
40.35231 505
40.37242 451
40.39254 386
40.41265 340
40.43277 291
40.45288 282
40.47299 246
40.49311 184
40.51322 188
40.53333 168
40.55345 180
40.57356 176
40.59368 211
40.61379 197
40.6339 186
40.65402 165
40.67413 178
40.69424 164
40.71436 166
40.73447 192
40.75458 200
40.7747 189
40.79481 157
40.81493 156
40.83504 169
40.85515 140
40.87527 189
40.89538 175
40.91549 182
40.93561 177
40.95572 180
40.97584 177
40.99595 172
41.01606 159
41.03618 169
41.05629 177
41.0764 159
41.09652 186
41.11663 205
41.13675 157
41.15686 193
41.17697 155
41.19709 147
41.2172 163
41.23731 186
41.25743 172
41.27754 181
41.29765 167
41.31777 153
41.33788 164
41.358 186
41.37811 181
41.39822 187
41.41834 198
41.43845 172
41.45856 198
41.47868 196
41.49879 173
41.51891 201
41.53902 212
41.55913 218
41.57925 198
41.59936 193
41.61947 227
41.63959 227
41.6597 259
41.67982 247
41.69993 264
41.72004 287
41.74016 285
41.76027 292
41.78038 283
41.8005 256
41.82061 270
41.84072 243
41.86084 241
41.88095 215
41.90107 210
41.92118 234
41.94129 234
41.96141 228
41.98152 236
42.00163 205
42.02175 235
42.04186 253
42.06198 245
42.08209 266
42.1022 303
42.12232 299
42.14243 355
42.16254 358
42.18266 441
42.20277 470
42.22289 522
42.243 615
42.26311 666
42.28323 758
42.30334 853
42.32345 945
42.34357 1076
42.36368 1081
42.38379 1101
42.40391 1089
42.42402 1024
42.44414 1027
42.46425 979
42.48436 783
42.50448 718
42.52459 647
42.5447 547
42.56482 455
42.58493 393
42.60505 356
42.62516 291
42.64527 231
42.66539 240
42.6855 200
42.70561 236
42.72573 215
42.74584 213
42.76595 202
42.78607 226
42.80618 194
42.8263 212
42.84641 203
42.86652 200
42.88664 195
42.90675 182
42.92686 197
42.94698 198
42.96709 197
42.98721 169
43.00732 181
43.02743 169
43.04755 179
43.06766 182
43.08777 154
43.10789 145
43.128 177
43.14812 195
43.16823 178
43.18834 158
43.20846 152
43.22857 168
43.24868 163
43.2688 155
43.28891 186
43.30902 168
43.32914 141
43.34925 123
43.36937 154
43.38948 152
43.40959 158
43.42971 147
43.44982 169
43.46993 167
43.49005 164
43.51016 161
43.53028 158
43.55039 152
43.5705 164
43.59062 162
43.61073 158
43.63084 147
43.65096 155
43.67107 180
43.69119 146
43.7113 152
43.73141 143
43.75153 150
43.77164 135
43.79175 143
43.81187 160
43.83198 163
43.85209 134
43.87221 144
43.89232 159
43.91244 160
43.93255 178
43.95266 157
43.97278 155
43.99289 169
44.013 170
44.03312 163
44.05323 165
44.07335 166
44.09346 164
44.11357 151
44.13369 166
44.1538 162
44.17391 159
44.19403 145
44.21414 173
44.23426 178
44.25437 152
44.27448 163
44.2946 168
44.31471 149
44.33482 161
44.35494 153
44.37505 175
44.39516 161
44.41528 151
44.43539 169
44.45551 173
44.47562 152
44.49573 161
44.51585 174
44.53596 156
44.55607 162
44.57619 165
44.5963 166
44.61642 178
44.63653 167
44.65664 140
44.67676 157
44.69687 156
44.71698 156
44.7371 161
44.75721 193
44.77732 155
44.79744 142
44.81755 169
44.83767 161
44.85778 178
44.87789 152
44.89801 173
44.91812 173
44.93823 161
44.95835 169
44.97846 154
44.99858 157
45.01869 153
45.0388 170
45.05892 168
45.07903 154
45.09914 163
45.11926 167
45.13937 178
45.15949 160
45.1796 182
45.19971 151
45.21983 166
45.23994 176
45.26005 203
45.28017 190
45.30028 207
45.32039 176
45.34051 201
45.36062 231
45.38074 224
45.40085 254
45.42096 234
45.44108 276
45.46119 270
45.4813 310
45.50142 339
45.52153 383
45.54165 377
45.56176 423
45.58187 490
45.60199 576
45.6221 584
45.64221 641
45.66233 706
45.68244 721
45.70256 729
45.72267 794
45.74278 792
45.7629 760
45.78301 751
45.80312 669
45.82324 575
45.84335 575
45.86346 478
45.88358 409
45.90369 364
45.92381 328
45.94392 315
45.96403 256
45.98415 206
46.00426 205
46.02437 192
46.04449 187
46.0646 198
46.08472 166
46.10483 174
46.12494 160
46.14506 189
46.16517 184
46.18528 174
46.2054 168
46.22551 179
46.24563 181
46.26574 175
46.28585 162
46.30597 171
46.32608 166
46.34619 177
46.36631 144
46.38642 157
46.40653 137
46.42665 144
46.44676 142
46.46688 157
46.48699 169
46.5071 148
46.52722 139
46.54733 145
46.56744 161
46.58756 154
46.60767 155
46.62779 135
46.6479 147
46.66801 157
46.68813 137
46.70824 131
46.72835 150
46.74847 153
46.76858 132
46.78869 131
46.80881 136
46.82892 172
46.84904 175
46.86915 162
46.88926 146
46.90938 151
46.92949 152
46.9496 155
46.96972 171
46.98983 156
47.00995 164
47.03006 183
47.05017 159
47.07029 168
47.0904 167
47.11051 178
47.13063 178
47.15074 162
47.17086 173
47.19097 168
47.21108 156
47.2312 166
47.25131 168
47.27142 168
47.29154 185
47.31165 175
47.33176 161
47.35188 161
47.37199 153
47.39211 177
47.41222 150
47.43233 158
47.45245 170
47.47256 164
47.49267 168
47.51279 170
47.5329 161
47.55302 160
47.57313 145
47.59324 160
47.61336 148
47.63347 133
47.65358 141
47.6737 147
47.69381 142
47.71393 133
47.73404 153
47.75415 151
47.77427 132
47.79438 138
47.81449 135
47.83461 150
47.85472 142
47.87483 141
47.89495 150
47.91506 152
47.93518 117
47.95529 141
47.9754 141
47.99552 128
48.01563 136
48.03574 144
48.05586 141
48.07597 134
48.09609 136
48.1162 139
48.13631 135
48.15643 160
48.17654 138
48.19665 151
48.21677 183
48.23688 155
48.257 160
48.27711 146
48.29722 157
48.31734 162
48.33745 141
48.35756 141
48.37768 163
48.39779 154
48.4179 139
48.43802 178
48.45813 159
48.47825 143
48.49836 150
48.51847 140
48.53859 158
48.5587 164
48.57881 171
48.59893 166
48.61904 158
48.63916 141
48.65927 186
48.67938 179
48.6995 180
48.71961 182
48.73972 179
48.75984 175
48.77995 193
48.80006 173
48.82018 167
48.84029 193
48.86041 161
48.88052 191
48.90063 175
48.92075 194
48.94086 179
48.96097 177
48.98109 176
49.0012 209
49.02132 167
49.04143 182
49.06154 211
49.08166 171
49.10177 196
49.12188 179
49.142 186
49.16211 192
49.18223 193
49.20234 177
49.22245 170
49.24257 166
49.26268 167
49.28279 167
49.30291 183
49.32302 174
49.34313 175
49.36325 181
49.38336 163
49.40348 176
49.42359 190
49.4437 209
49.46382 189
49.48393 204
49.50404 180
49.52416 173
49.54427 217
49.56439 230
49.5845 220
49.60461 256
49.62473 267
49.64484 265
49.66495 284
49.68507 342
49.70518 370
49.7253 405
49.74541 450
49.76552 494
49.78564 525
49.80575 608
49.82586 665
49.84598 733
49.86609 823
49.8862 975
49.90632 1065
49.92643 1282
49.94655 1521
49.96666 1643
49.98677 1853
50.00689 2134
50.027 2181
50.04711 2405
50.06723 2454
50.08734 2334
50.10746 2263
50.12757 2289
50.14768 2110
50.1678 1847
50.18791 1583
50.20802 1399
50.22814 1226
50.24825 1028
50.26837 949
50.28848 802
50.30859 616
50.32871 535
50.34882 451
50.36893 407
50.38905 382
50.40916 366
50.42927 352
50.44939 367
50.4695 349
50.48962 332
50.50973 369
50.52984 345
50.54996 304
50.57007 311
50.59018 318
50.6103 305
50.63041 312
50.65053 304
50.67064 246
50.69075 268
50.71087 241
50.73098 224
50.75109 195
50.77121 210
50.79132 232
50.81143 195
50.83155 204
50.85166 185
50.87178 202
50.89189 162
50.912 197
50.93212 175
50.95223 196
50.97234 175
50.99246 154
51.01257 161
51.03269 187
51.0528 168
51.07291 199
51.09303 177
51.11314 149
51.13325 173
51.15337 185
51.17348 174
51.1936 182
51.21371 172
51.23382 158
51.25394 161
51.27405 195
51.29416 143
51.31428 167
51.33439 167
51.3545 152
51.37462 153
51.39473 166
51.41485 169
51.43496 158
51.45507 147
51.47519 143
51.4953 153
51.51541 125
51.53553 150
51.55564 132
51.57576 153
51.59587 147
51.61598 146
51.6361 114
51.65621 114
51.67632 126
51.69644 114
51.71655 131
51.73667 138
51.75678 126
51.77689 141
51.79701 122
51.81712 125
51.83723 139
51.85735 112
51.87746 140
51.89757 129
51.91769 123
51.9378 128
51.95792 121
51.97803 126
51.99814 116
52.01826 113
52.03837 137
52.05848 152
52.0786 120
52.09871 133
52.11883 144
52.13894 146
52.15905 153
52.17917 167
52.19928 164
52.21939 146
52.23951 134
52.25962 149
52.27974 139
52.29985 144
52.31996 143
52.34008 134
52.36019 156
52.3803 156
52.40042 175
52.42053 162
52.44064 161
52.46076 153
52.48087 170
52.50099 140
52.5211 142
52.54121 160
52.56133 164
52.58144 173
52.60155 141
52.62167 148
52.64178 149
52.6619 143
52.68201 142
52.70212 147
52.72224 134
52.74235 157
52.76246 166
52.78258 149
52.80269 154
52.8228 159
52.84292 168
52.86303 167
52.88315 164
52.90326 186
52.92337 168
52.94349 159
52.9636 154
52.98371 131
53.00383 142
53.02394 159
53.04406 163
53.06417 147
53.08428 144
53.1044 146
53.12451 139
53.14462 140
53.16474 161
53.18485 139
53.20497 142
53.22508 173
53.24519 163
53.26531 126
53.28542 151
53.30553 172
53.32565 136
53.34576 147
53.36587 147
53.38599 163
53.4061 135
53.42622 148
53.44633 169
53.46644 164
53.48656 148
53.50667 150
53.52678 139
53.5469 154
53.56701 171
53.58713 132
53.60724 133
53.62735 128
53.64747 138
53.66758 162
53.68769 147
53.70781 156
53.72792 152
53.74804 158
53.76815 149
53.78826 143
53.80838 157
53.82849 139
53.8486 141
53.86872 141
53.88883 154
53.90894 167
53.92906 168
53.94917 156
53.96929 145
53.9894 161
54.00951 131
54.02963 147
54.04974 132
54.06985 177
54.08997 165
54.11008 176
54.1302 194
54.15031 159
54.17042 164
54.19054 157
54.21065 159
54.23076 148
54.25088 150
54.27099 178
54.29111 168
54.31122 161
54.33133 183
54.35145 188
54.37156 170
54.39167 177
54.41179 191
54.4319 212
54.45201 213
54.47213 209
54.49224 223
54.51236 237
54.53247 250
54.55258 304
54.5727 328
54.59281 323
54.61292 413
54.63304 427
54.65315 550
54.67327 543
54.69338 563
54.71349 622
54.73361 710
54.75372 721
54.77383 765
54.79395 833
54.81406 772
54.83417 750
54.85429 750
54.8744 666
54.89452 648
54.91463 638
54.93474 554
54.95486 518
54.97497 458
54.99508 459
55.0152 394
55.03531 408
55.05543 386
55.07554 343
55.09565 332
55.11577 325
55.13588 336
55.15599 382
55.17611 443
55.19622 409
55.21634 407
55.23645 441
55.25656 441
55.27668 450
55.29679 418
55.3169 414
55.33702 386
55.35713 369
55.37724 378
55.39736 298
55.41747 294
55.43759 301
55.4577 253
55.47781 230
55.49793 218
55.51804 209
55.53815 195
55.55827 174
55.57838 174
55.5985 179
55.61861 153
55.63872 180
55.65884 162
55.67895 174
55.69906 142
55.71918 161
55.73929 161
55.75941 162
55.77952 155
55.79963 164
55.81975 159
55.83986 141
55.85997 158
55.88009 137
55.9002 136
55.92031 139
55.94043 153
55.96054 136
55.98066 153
56.00077 137
56.02088 122
56.041 121
56.06111 150
56.08122 127
56.10134 146
56.12145 132
56.14157 121
56.16168 144
56.18179 127
56.20191 144
56.22202 126
56.24213 157
56.26225 139
56.28236 141
56.30248 131
56.32259 131
56.3427 146
56.36282 133
56.38293 124
56.40304 122
56.42316 143
56.44327 138
56.46338 129
56.4835 130
56.50361 152
56.52373 145
56.54384 157
56.56395 129
56.58407 139
56.60418 115
56.62429 141
56.64441 135
56.66452 139
56.68464 138
56.70475 137
56.72486 135
56.74498 127
56.76509 163
56.7852 149
56.80532 165
56.82543 127
56.84554 124
56.86566 132
56.88577 149
56.90589 145
56.926 154
56.94611 126
56.96623 156
56.98634 137
57.00645 150
57.02657 158
57.04668 147
57.0668 178
57.08691 164
57.10702 196
57.12714 159
57.14725 161
57.16736 152
57.18748 162
57.20759 175
57.22771 173
57.24782 167
57.26793 152
57.28805 166
57.30816 171
57.32827 174
57.34839 165
57.3685 182
57.38861 152
57.40873 175
57.42884 138
57.44896 136
57.46907 142
57.48918 144
57.5093 153
57.52941 139
57.54952 119
57.56964 151
57.58975 135
57.60987 118
57.62998 143
57.65009 147
57.67021 167
57.69032 132
57.71043 154
57.73055 134
57.75066 133
57.77078 133
57.79089 133
57.811 131
57.83112 127
57.85123 141
57.87134 124
57.89146 115
57.91157 162
57.93168 142
57.9518 134
57.97191 148
57.99203 154
58.01214 133
58.03225 136
58.05237 123
58.07248 134
58.09259 128
58.11271 151
58.13282 161
58.15294 130
58.17305 148
58.19316 149
58.21328 127
58.23339 141
58.2535 121
58.27362 167
58.29373 137
58.31385 152
58.33396 125
58.35407 135
58.37419 138
58.3943 168
58.41441 149
58.43453 144
58.45464 169
58.47475 152
58.49487 148
58.51498 164
58.5351 140
58.55521 149
58.57532 163
58.59544 154
58.61555 151
58.63566 147
58.65578 135
58.67589 164
58.69601 141
58.71612 167
58.73623 156
58.75635 160
58.77646 164
58.79657 147
58.81669 149
58.8368 146
58.85691 145
58.87703 143
58.89714 124
58.91726 154
58.93737 161
58.95748 162
58.9776 154
58.99771 143
59.01782 140
59.03794 158
59.05805 157
59.07817 139
59.09828 146
59.11839 153
59.13851 171
59.15862 156
59.17873 162
59.19885 177
59.21896 177
59.23908 151
59.25919 146
59.2793 216
59.29942 160
59.31953 179
59.33964 199
59.35976 189
59.37987 222
59.39998 224
59.4201 217
59.44021 235
59.46033 224
59.48044 254
59.50055 270
59.52067 308
59.54078 312
59.56089 384
59.58101 382
59.60112 432
59.62124 529
59.64135 547
59.66146 592
59.68158 604
59.70169 737
59.7218 823
59.74192 959
59.76203 1061
59.78215 1178
59.80226 1329
59.82237 1413
59.84249 1486
59.8626 1577
59.88271 1584
59.90283 1620
59.92294 1537
59.94305 1460
59.96317 1357
59.98328 1208
60.0034 1081
60.02351 945
60.04362 881
60.06374 881
60.08385 707
60.10396 666
60.12408 579
60.14419 462
60.16431 427
60.18442 363
60.20453 258
60.22465 220
60.24476 215
60.26487 226
60.28499 206
60.3051 205
60.32522 189
60.34533 193
60.36544 191
60.38556 168
60.40567 163
60.42578 164
60.4459 161
60.46601 178
60.48612 161
60.50624 174
60.52635 160
60.54647 165
60.56658 143
60.58669 144
60.60681 155
60.62692 156
60.64703 148
60.66715 158
60.68726 152
60.70738 161
60.72749 178
60.7476 168
60.76772 140
60.78783 152
60.80794 167
60.82806 165
60.84817 164
60.86828 152
60.8884 170
60.90851 160
60.92863 154
60.94874 170
60.96885 168
60.98897 172
61.00908 162
61.02919 181
61.04931 169
61.06942 189
61.08954 196
61.10965 181
61.12976 179
61.14988 159
61.16999 170
61.1901 147
61.21022 176
61.23033 170
61.25045 169
61.27056 165
61.29067 167
61.31079 155
61.3309 169
61.35101 149
61.37113 164
61.39124 148
61.41135 124
61.43147 132
61.45158 141
61.4717 144
61.49181 151
61.51192 122
61.53204 141
61.55215 152
61.57226 130
61.59238 148
61.61249 135
61.63261 134
61.65272 167
61.67283 145
61.69295 142
61.71306 146
61.73317 152
61.75329 144
61.7734 134
61.79352 147
61.81363 150
61.83374 148
61.85386 169
61.87397 155
61.89408 122
61.9142 149
61.93431 141
61.95442 134
61.97454 157
61.99465 154
62.01477 146
62.03488 124
62.05499 146
62.07511 164
62.09522 155
62.11533 116
62.13545 158
62.15556 161
62.17568 156
62.19579 146
62.2159 150
62.23602 163
62.25613 165
62.27624 154
62.29636 155
62.31647 148
62.33659 150
62.3567 158
62.37681 160
62.39693 172
62.41704 122
62.43715 146
62.45727 131
62.47738 116
62.49749 160
62.51761 150
62.53772 125
62.55784 137
62.57795 153
62.59806 147
62.61818 150
62.63829 137
62.6584 157
62.67852 158
62.69863 163
62.71875 174
62.73886 172
62.75897 149
62.77909 151
62.7992 146
62.81931 146
62.83943 138
62.85954 125
62.87965 141
62.89977 164
62.91988 153
62.94 146
62.96011 159
62.98022 147
63.00034 164
63.02045 172
63.04056 159
63.06068 175
63.08079 153
63.10091 161
63.12102 155
63.14113 174
63.16125 177
63.18136 161
63.20147 158
63.22159 161
63.2417 151
63.26182 143
63.28193 163
63.30204 154
63.32216 162
63.34227 146
63.36238 169
63.3825 146
63.40261 149
63.42272 153
63.44284 166
63.46295 137
63.48307 154
63.50318 152
63.52329 170
63.54341 163
63.56352 155
63.58363 170
63.60375 193
63.62386 182
63.64398 186
63.66409 184
63.6842 228
63.70432 216
63.72443 213
63.74454 224
63.76466 249
63.78477 296
63.80489 274
63.825 302
63.84511 337
63.86523 385
63.88534 337
63.90545 431
63.92557 417
63.94568 400
63.96579 405
63.98591 456
64.00602 425
64.02614 412
64.04625 332
64.06636 317
64.08648 314
64.10659 301
64.1267 282
64.14682 256
64.16693 242
64.18705 266
64.20716 244
64.22727 211
64.24739 189
64.2675 172
64.28761 163
64.30773 144
64.32784 156
64.34796 153
64.36807 135
64.38818 166
64.4083 147
64.42841 120
64.44852 128
64.46864 122
64.48875 150
64.50886 126
64.52898 130
64.54909 110
64.56921 136
64.58932 125
64.60943 140
64.62955 128
64.64966 130
64.66977 111
64.68989 139
64.71 139
64.73012 123
64.75023 152
64.77034 151
64.79046 131
64.81057 130
64.83068 118
64.8508 144
64.87091 144
64.89102 140
64.91114 157
64.93125 133
64.95137 156
64.97148 150
64.99159 138
65.01171 147
65.03182 155
65.05193 158
65.07205 158
65.09216 146
65.11228 148
65.13239 156
65.1525 158
65.17262 168
65.19273 156
65.21284 162
65.23296 136
65.25307 163
65.27319 162
65.2933 159
65.31341 162
65.33353 160
65.35364 148
65.37375 163
65.39387 157
65.41398 155
65.43409 170
65.45421 164
65.47432 171
65.49444 178
65.51455 183
65.53466 184
65.55478 180
65.57489 181
65.595 194
65.61512 185
65.63523 200
65.65535 229
65.67546 211
65.69557 211
65.71569 206
65.7358 212
65.75591 224
65.77603 190
65.79614 189
65.81626 185
65.83637 194
65.85648 169
65.8766 179
65.89671 164
65.91682 170
65.93694 168
65.95705 171
65.97716 172
65.99728 147
66.01739 171
66.03751 168
66.05762 136
66.07773 152
66.09785 150
66.11796 166
66.13807 155
66.15819 160
66.1783 177
66.19842 162
66.21853 165
66.23864 190
66.25876 145
66.27887 154
66.29898 169
66.3191 130
66.33921 152
66.35933 168
66.37944 168
66.39955 126
66.41967 165
66.43978 132
66.45989 140
66.48001 169
66.50012 136
66.52023 150
66.54035 179
66.56046 161
66.58058 138
66.60069 166
66.6208 160
66.64092 161
66.66103 169
66.68114 144
66.70126 142
66.72137 128
66.74149 139
66.7616 152
66.78171 147
66.80183 168
66.82194 148
66.84205 176
66.86217 153
66.88228 169
66.90239 168
66.92251 174
66.94262 187
66.96274 182
66.98285 189
67.00296 175
67.02308 180
67.04319 183
67.0633 190
67.08342 191
67.10353 169
67.12365 216
67.14376 165
67.16387 198
67.18399 192
67.2041 209
67.22421 231
67.24433 214
67.26444 229
67.28456 272
67.30467 255
67.32478 293
67.3449 279
67.36501 322
67.38512 381
67.40524 378
67.42535 413
67.44546 478
67.46558 469
67.48569 529
67.50581 559
67.52592 685
67.54603 734
67.56615 783
67.58626 873
67.60637 986
67.62649 976
67.6466 1034
67.66672 1060
67.68683 1090
67.70694 1082
67.72706 1093
67.74717 1015
67.76728 902
67.7874 915
67.80751 888
67.82763 875
67.84774 988
67.86785 967
67.88797 992
67.90808 1002
67.92819 1036
67.94831 1143
67.96842 1233
67.98853 1208
68.00865 1270
68.02876 1304
68.04888 1433
68.06899 1471
68.0891 1509
68.10922 1557
68.12933 1523
68.14944 1489
68.16956 1423
68.18967 1375
68.20979 1300
68.2299 1405
68.25001 1221
68.27013 1220
68.29024 1107
68.31035 1006
68.33047 900
68.35058 765
68.3707 688
68.39081 650
68.41092 585
68.43104 526
68.45115 502
68.47126 442
68.49138 389
68.51149 337
68.5316 305
68.55172 314
68.57183 233
68.59195 232
68.61206 225
68.63217 208
68.65229 202
68.6724 157
68.69251 182
68.71263 178
68.73274 169
68.75286 177
68.77297 147
68.79308 174
68.8132 159
68.83331 179
68.85342 164
68.87354 155
68.89365 192
68.91376 172
68.93388 167
68.95399 166
68.97411 150
68.99422 167
69.01433 141
69.03445 146
69.05456 142
69.07467 151
69.09479 161
69.1149 157
69.13502 147
69.15513 154
69.17524 149
69.19536 157
69.21547 145
69.23558 157
69.2557 159
69.27581 142
69.29593 132
69.31604 153
69.33615 156
69.35627 160
69.37638 157
69.39649 170
69.41661 148
69.43672 151
69.45683 132
69.47695 149
69.49706 124
69.51718 164
69.53729 121
69.5574 138
69.57752 154
69.59763 126
69.61774 129
69.63786 148
69.65797 140
69.67809 140
69.6982 146
69.71831 141
69.73843 155
69.75854 140
69.77865 147
69.79877 129
69.81888 144
69.839 164
69.85911 151
69.87922 131
69.89934 138
69.91945 150
69.93956 134
69.95968 144
69.97979 120
69.9999 140
70.02002 138
70.04013 143
70.06025 125
70.08036 151
70.10047 131
70.12059 142
70.1407 112
70.16081 150
70.18093 132
70.20104 147
70.22116 150
70.24127 118
70.26138 128
70.2815 127
70.30161 117
70.32172 124
70.34184 123
70.36195 121
70.38207 141
70.40218 123
70.42229 136
70.44241 123
70.46252 132
70.48263 128
70.50275 145
70.52286 144
70.54297 123
70.56309 119
70.5832 138
70.60332 141
70.62343 126
70.64354 130
70.66366 145
70.68377 153
70.70388 139
70.724 126
70.74411 130
70.76423 139
70.78434 140
70.80445 115
70.82457 137
70.84468 145
70.86479 151
70.88491 143
70.90502 122
70.92513 136
70.94525 145
70.96536 132
70.98548 141
71.00559 139
71.0257 133
71.04582 148
71.06593 136
71.08604 136
71.10616 131
71.12627 121
71.14639 135
71.1665 123
71.18661 148
71.20673 135
71.22684 133
71.24695 129
71.26707 138
71.28718 136
71.3073 156
71.32741 160
71.34752 145
71.36764 148
71.38775 169
71.40786 147
71.42798 152
71.44809 129
71.4682 146
71.48832 146
71.50843 147
71.52855 112
71.54866 140
71.56877 163
71.58889 121
71.609 128
71.62911 126
71.64923 130
71.66934 134
71.68946 124
71.70957 132
71.72968 144
71.7498 148
71.76991 148
71.79002 149
71.81014 134
71.83025 143
71.85037 141
71.87048 140
71.89059 152
71.91071 123
71.93082 132
71.95093 133
71.97105 112
71.99116 146
72.01127 161
72.03139 150
72.0515 149
72.07162 143
72.09173 138
72.11184 154
72.13196 138
72.15207 147
72.17218 147
72.1923 126
72.21241 125
72.23253 182
72.25264 140
72.27275 141
72.29287 135
72.31298 143
72.33309 133
72.35321 136
72.37332 153
72.39344 128
72.41355 146
72.43366 135
72.45378 159
72.47389 133
72.494 138
72.51412 136
72.53423 151
72.55434 139
72.57446 129
72.59457 132
72.61469 127
72.6348 123
72.65491 142
72.67503 142
72.69514 142
72.71525 148
72.73537 135
72.75548 126
72.7756 151
72.79571 154
72.81582 138
72.83594 160
72.85605 157
72.87616 135
72.89628 142
72.91639 168
72.9365 176
72.95662 166
72.97673 151
72.99685 173
73.01696 193
73.03707 174
73.05719 185
73.0773 188
73.09741 214
73.11753 201
73.13764 205
73.15776 232
73.17787 250
73.19798 260
73.2181 266
73.23821 323
73.25832 315
73.27844 332
73.29855 362
73.31867 429
73.33878 417
73.35889 449
73.37901 495
73.39912 448
73.41923 449
73.43935 409
73.45946 407
73.47957 361
73.49969 338
73.5198 311
73.53992 301
73.56003 291
73.58014 295
73.60026 294
73.62037 259
73.64048 268
73.6606 258
73.68071 235
73.70083 200
73.72094 176
73.74105 158
73.76117 166
73.78128 153
73.80139 152
73.82151 146
73.84162 153
73.86174 121
73.88185 150
73.90196 170
73.92208 151
73.94219 160
73.9623 144
73.98242 123
74.00253 149
74.02264 139
74.04276 149
74.06287 118
74.08299 121
74.1031 161
74.12321 152
74.14333 132
74.16344 140
74.18355 131
74.20367 143
74.22378 129
74.2439 147
74.26401 135
74.28412 139
74.30424 128
74.32435 147
74.34446 136
74.36458 130
74.38469 141
74.40481 141
74.42492 151
74.44503 155
74.46515 129
74.48526 169
74.50537 155
74.52549 151
74.5456 141
74.56571 157
74.58583 144
74.60594 151
74.62606 127
74.64617 142
74.66628 131
74.6864 135
74.70651 132
74.72662 142
74.74674 156
74.76685 141
74.78697 142
74.80708 140
74.82719 150
74.84731 132
74.86742 141
74.88753 161
74.90765 141
74.92776 132
74.94787 145
74.96799 156
74.9881 153
75.00822 144
