3.00117 22762
3.02128 22090
3.0414 21603
3.06151 20723
3.08162 20166
3.10174 20058
3.12185 19377
3.14197 18779
3.16208 17887
3.18219 17958
3.20231 17071
3.22242 16539
3.24253 16292
3.26265 15323
3.28276 15288
3.30288 14814
3.32299 14259
3.3431 14006
3.36322 13540
3.38333 12894
3.40344 12787
3.42356 12247
3.44367 11972
3.46379 11213
3.4839 11205
3.50401 10792
3.52413 10420
3.54424 9912
3.56435 9899
3.58447 9610
3.60458 9023
3.62469 8890
3.64481 8391
3.66492 8023
3.68504 7876
3.70515 7532
3.72526 7176
3.74538 7109
3.76549 6707
3.7856 6624
3.80572 6315
3.82583 6048
3.84595 5675
3.86606 5485
3.88617 5471
3.90629 5130
3.9264 4971
3.94651 4883
3.96663 4437
3.98674 4609
4.00686 4345
4.02697 4075
4.04708 3924
4.0672 3736
4.08731 3639
4.10742 3600
4.12754 3400
4.14765 3314
4.16776 3133
4.18788 3067
4.20799 2970
4.22811 2816
4.24822 2765
4.26833 2474
4.28845 2633
4.30856 2592
4.32867 2373
4.34879 2329
4.3689 2342
4.38902 2323
4.40913 2286
4.42924 2117
4.44936 2190
4.46947 2089
4.48958 2026
4.5097 2030
4.52981 1872
4.54992 1898
4.57004 1905
4.59015 1972
4.61027 1809
4.63038 1665
4.65049 1718
4.67061 1680
4.69072 1741
4.71083 1661
4.73095 1617
4.75106 1569
4.77118 1589
4.79129 1495
4.8114 1615
4.83152 1530
4.85163 1491
4.87174 1426
4.89186 1492
4.91197 1533
4.93209 1390
4.9522 1380
4.97231 1388
4.99243 1326
5.01254 1326
5.03265 1226
5.05277 1219
5.07288 1277
5.09299 1277
5.11311 1183
5.13322 1150
5.15334 1216
5.17345 1109
5.19356 1165
5.21368 1070
5.23379 1121
5.2539 1142
5.27402 1068
5.29413 1115
5.31425 1152
5.33436 1097
5.35447 1054
5.37459 1156
5.3947 1020
5.41481 1002
5.43493 1048
5.45504 931
5.47516 1016
5.49527 1006
5.51538 934
5.5355 928
5.55561 978
5.57572 933
5.59584 1008
5.61595 901
5.63606 958
5.65618 877
5.67629 1042
5.69641 888
5.71652 848
5.73663 976
5.75675 884
5.77686 879
5.79697 916
5.81709 884
5.8372 867
5.85732 823
5.87743 876
5.89754 891
5.91766 819
5.93777 893
5.95788 858
5.978 858
5.99811 848
6.01823 826
6.03834 846
6.05845 878
6.07857 796
6.09868 802
6.11879 823
6.13891 800
6.15902 840
6.17913 830
6.19925 832
6.21936 870
6.23948 830
6.25959 790
6.2797 817
6.29982 812
6.31993 777
6.34004 803
6.36016 750
6.38027 741
6.40039 793
6.4205 720
6.44061 735
6.46073 794
6.48084 813
6.50095 809
6.52107 777
6.54118 812
6.56129 762
6.58141 762
6.60152 754
6.62164 724
6.64175 744
6.66186 756
6.68198 777
6.70209 742
6.7222 812
6.74232 752
6.76243 725
6.78255 765
6.80266 735
6.82277 786
6.84289 786
6.863 726
6.88311 782
6.90323 770
6.92334 737
6.94346 766
6.96357 777
6.98368 781
7.0038 708
7.02391 734
7.04402 778
7.06414 817
7.08425 750
7.10436 735
7.12448 798
7.14459 729
7.16471 689
7.18482 686
7.20493 764
7.22505 764
7.24516 745
7.26527 716
7.28539 776
7.3055 737
7.32562 738
7.34573 745
7.36584 721
7.38596 699
7.40607 731
7.42618 734
7.4463 690
7.46641 742
7.48653 756
7.50664 691
7.52675 692
7.54687 698
7.56698 701
7.58709 750
7.60721 768
7.62732 756
7.64743 689
7.66755 657
7.68766 729
7.70778 699
7.72789 732
7.748 675
7.76812 735
7.78823 656
7.80834 755
7.82846 719
7.84857 677
7.86869 707
7.8888 669
7.90891 746
7.92903 737
7.94914 734
7.96925 720
7.98937 672
8.00948 741
8.0296 682
8.04971 730
8.06982 737
8.08994 733
8.11005 683
8.13016 694
8.15028 685
8.17039 743
8.1905 717
8.21062 694
8.23073 697
8.25085 711
8.27096 708
8.29107 689
8.31119 689
8.3313 697
8.35141 687
8.37153 736
8.39164 744
8.41176 706
8.43187 718
8.45198 716
8.4721 710
8.49221 702
8.51232 726
8.53244 689
8.55255 683
8.57266 699
8.59278 725
8.61289 706
8.63301 682
8.65312 645
8.67323 682
8.69335 733
8.71346 738
8.73357 667
8.75369 670
8.7738 704
8.79392 652
8.81403 688
8.83414 673
8.85426 696
8.87437 678
8.89448 675
8.9146 721
8.93471 720
8.95483 669
8.97494 655
8.99505 682
9.01517 635
9.03528 658
9.05539 686
9.07551 743
9.09562 716
9.11573 730
9.13585 642
9.15596 676
9.17608 641
9.19619 698
9.2163 674
9.23642 724
9.25653 675
9.27664 711
9.29676 670
9.31687 679
9.33699 649
9.3571 665
9.37721 663
9.39733 700
9.41744 724
9.43755 656
9.45767 707
9.47778 727
9.4979 680
9.51801 671
9.53812 662
9.55824 666
9.57835 667
9.59846 629
9.61858 664
9.63869 656
9.6588 707
9.67892 708
9.69903 676
9.71915 634
9.73926 649
9.75937 695
9.77949 692
9.7996 665
9.81971 649
9.83983 625
9.85994 693
9.88006 654
9.90017 630
9.92028 613
9.9404 669
9.96051 668
9.98062 603
10.00074 658
10.02085 711
10.04097 632
10.06108 667
10.08119 678
10.10131 661
10.12142 670
10.14153 671
10.16165 631
10.18176 638
10.20187 675
10.22199 669
10.2421 702
10.26222 655
10.28233 680
10.30244 687
10.32256 653
10.34267 624
10.36278 681
10.3829 663
10.40301 694
10.42313 729
10.44324 689
10.46335 670
10.48347 701
10.50358 639
10.52369 661
10.54381 682
10.56392 712
10.58403 663
10.60415 681
10.62426 638
10.64438 635
10.66449 680
10.6846 643
10.70472 664
10.72483 712
10.74494 620
10.76506 658
10.78517 645
10.80529 714
10.8254 697
10.84551 705
10.86563 718
10.88574 695
10.90585 707
10.92597 660
10.94608 643
10.9662 676
10.98631 686
11.00642 706
11.02654 681
11.04665 687
11.06676 682
11.08688 650
11.10699 658
11.1271 641
11.14722 676
11.16733 675
11.18745 661
11.20756 679
11.22767 721
11.24779 695
11.2679 707
11.28801 665
11.30813 700
11.32824 666
11.34836 718
11.36847 618
11.38858 685
11.4087 730
11.42881 755
11.44892 684
11.46904 754
11.48915 686
11.50927 695
11.52938 713
11.54949 683
11.56961 762
11.58972 724
11.60983 801
11.62995 774
11.65006 735
11.67017 750
11.69029 740
11.7104 801
11.73052 750
11.75063 733
11.77074 765
11.79086 803
11.81097 746
11.83108 851
11.8512 839
11.87131 830
11.89143 862
11.91154 857
11.93165 836
11.95177 827
11.97188 867
11.99199 884
12.01211 922
12.03222 912
12.05234 839
12.07245 938
12.09256 928
12.11268 936
12.13279 953
12.1529 946
12.17302 928
12.19313 920
12.21324 992
12.23336 919
12.25347 1018
12.27359 951
12.2937 1010
12.31381 925
12.33393 879
12.35404 912
12.37415 936
12.39427 926
12.41438 844
12.4345 888
12.45461 855
12.47472 814
12.49484 805
12.51495 772
12.53506 817
12.55518 778
12.57529 795
12.5954 760
12.61552 772
12.63563 717
12.65575 721
12.67586 764
12.69597 748
12.71609 718
12.7362 740
12.75631 738
12.77643 707
12.79654 662
12.81666 697
12.83677 730
12.85688 706
12.877 675
12.89711 705
12.91722 685
12.93734 634
12.95745 633
12.97757 629
12.99768 627
13.01779 654
13.03791 651
13.05802 702
13.07813 654
13.09825 700
13.11836 646
13.13847 604
13.15859 639
13.1787 669
13.19882 638
13.21893 627
13.23904 602
13.25916 661
13.27927 629
13.29938 663
13.3195 635
13.33961 589
13.35973 629
13.37984 633
13.39995 626
13.42007 652
13.44018 605
13.46029 594
13.48041 608
13.50052 627
13.52064 584
13.54075 609
13.56086 645
13.58098 613
13.60109 604
13.6212 600
13.64132 605
13.66143 620
13.68154 612
13.70166 620
13.72177 566
13.74189 628
13.762 655
13.78211 678
13.80223 595
13.82234 664
13.84245 622
13.86257 598
13.88268 598
13.9028 612
13.92291 588
13.94302 629
13.96314 638
13.98325 619
14.00336 582
14.02348 562
14.04359 600
14.06371 597
14.08382 584
14.10393 609
14.12405 610
14.14416 594
14.16427 588
14.18439 612
14.2045 627
14.22461 629
14.24473 620
14.26484 606
14.28496 591
14.30507 629
14.32518 617
14.3453 604
14.36541 601
14.38552 625
14.40564 574
14.42575 644
14.44587 597
14.46598 650
14.48609 631
14.50621 607
14.52632 607
14.54643 586
14.56655 589
14.58666 583
14.60677 638
14.62689 607
14.647 549
14.66712 599
14.68723 604
14.70734 575
14.72746 603
14.74757 594
14.76768 641
14.7878 568
14.80791 639
14.82803 602
14.84814 615
14.86825 606
14.88837 605
14.90848 558
14.92859 637
14.94871 607
14.96882 593
14.98894 649
15.00905 588
15.02916 619
15.04928 587
15.06939 598
15.0895 638
15.10962 588
15.12973 608
15.14984 602
15.16996 600
15.19007 628
15.21019 579
15.2303 595
15.25041 595
15.27053 572
15.29064 577
15.31075 617
15.33087 631
15.35098 578
15.3711 598
15.39121 615
15.41132 582
15.43144 580
15.45155 571
15.47166 630
15.49178 592
15.51189 601
15.53201 580
15.55212 601
15.57223 614
15.59235 614
15.61246 627
15.63257 613
15.65269 613
15.6728 607
15.69291 631
15.71303 628
15.73314 590
15.75326 567
15.77337 621
15.79348 614
15.8136 603
15.83371 599
15.85382 598
15.87394 615
15.89405 608
15.91417 604
15.93428 590
15.95439 596
15.97451 600
15.99462 621
16.01473 589
16.03485 636
16.05496 601
16.07508 636
16.09519 611
16.1153 575
16.13542 567
16.15553 605
16.17564 594
16.19576 556
16.21587 616
16.23598 544
16.2561 598
16.27621 591
16.29633 582
16.31644 611
16.33655 631
16.35667 582
16.37678 581
16.39689 572
16.41701 585
16.43712 595
16.45724 548
16.47735 578
16.49746 629
16.51758 590
16.53769 610
16.5578 584
16.57792 595
16.59803 638
16.61814 597
16.63826 600
16.65837 603
16.67849 628
16.6986 626
16.71871 637
16.73883 619
16.75894 587
16.77905 601
16.79917 563
16.81928 565
16.8394 632
16.85951 576
16.87962 625
16.89974 629
16.91985 645
16.93996 608
16.96008 606
16.98019 644
17.00031 656
17.02042 596
17.04053 642
17.06065 651
17.08076 645
17.10087 611
17.12099 602
17.1411 597
17.16121 655
17.18133 643
17.20144 578
17.22156 552
17.24167 603
17.26178 617
17.2819 640
17.30201 581
17.32212 617
17.34224 618
17.36235 576
17.38247 565
17.40258 625
17.42269 633
17.44281 575
17.46292 668
17.48303 599
17.50315 596
17.52326 625
17.54338 621
17.56349 637
17.5836 662
17.60372 622
17.62383 657
17.64394 648
17.66406 637
17.68417 629
17.70428 646
17.7244 636
17.74451 644
17.76463 596
17.78474 638
17.80485 585
17.82497 616
17.84508 582
17.86519 647
17.88531 590
17.90542 607
17.92554 591
17.94565 635
17.96576 607
17.98588 685
18.00599 626
18.0261 632
18.04622 626
18.06633 625
18.08645 649
18.10656 587
18.12667 634
18.14679 641
18.1669 600
18.18701 643
18.20713 608
18.22724 653
18.24735 674
18.26747 709
18.28758 630
18.3077 647
18.32781 661
18.34792 636
18.36804 607
18.38815 684
18.40826 634
18.42838 608
18.44849 662
18.46861 626
18.48872 621
18.50883 649
18.52895 666
18.54906 589
18.56917 621
18.58929 668
18.6094 661
18.62951 664
18.64963 655
18.66974 623
18.68986 630
18.70997 639
18.73008 648
18.7502 591
18.77031 645
18.79042 650
18.81054 618
18.83065 606
18.85077 632
18.87088 635
18.89099 588
18.91111 673
18.93122 633
18.95133 619
18.97145 631
18.99156 674
19.01168 666
19.03179 655
19.0519 605
19.07202 629
19.09213 640
19.11224 651
19.13236 616
19.15247 682
19.17258 623
19.1927 615
19.21281 679
19.23293 647
19.25304 599
19.27315 648
19.29327 659
19.31338 696
19.33349 667
19.35361 621
19.37372 646
19.39384 669
19.41395 658
19.43406 742
19.45418 727
19.47429 783
19.4944 763
19.51452 759
19.53463 796
19.55475 781
19.57486 809
19.59497 839
19.61509 815
19.6352 857
19.65531 916
19.67543 987
19.69554 1034
19.71565 1098
19.73577 1078
19.75588 1104
19.776 1110
19.79611 1291
19.81622 1171
19.83634 1219
19.85645 1226
19.87656 1231
19.89668 1252
19.91679 1214
19.93691 1217
19.95702 1213
19.97713 1202
19.99725 1195
20.01736 1211
20.03747 1209
20.05759 1175
20.0777 1169
20.09782 1182
20.11793 1158
20.13804 1140
20.15816 1074
20.17827 1103
20.19838 1105
20.2185 1186
20.23861 1080
20.25872 1097
20.27884 1082
20.29895 1105
20.31907 1143
20.33918 1082
20.35929 1068
20.37941 1085
20.39952 1046
20.41963 1064
20.43975 1067
20.45986 1084
20.47998 1014
20.50009 1066
20.5202 1058
20.54032 997
20.56043 1015
20.58054 1011
20.60066 1041
20.62077 1005
20.64088 1110
20.661 1074
20.68111 1118
20.70123 1124
20.72134 1146
20.74145 1222
20.76157 1342
20.78168 1401
20.80179 1546
20.82191 1483
20.84202 1367
20.86214 1317
20.88225 1318
20.90236 1194
20.92248 1075
20.94259 1067
20.9627 995
20.98282 1007
21.00293 968
21.02305 919
21.04316 898
21.06327 947
21.08339 1015
21.1035 940
21.12361 972
21.14373 966
21.16384 989
21.18395 988
21.20407 1004
21.22418 928
21.2443 940
21.26441 905
21.28452 873
21.30464 942
21.32475 908
21.34486 986
21.36498 941
21.38509 924
21.40521 934
21.42532 942
21.44543 925
21.46555 890
21.48566 960
21.50577 990
21.52589 879
21.546 874
21.56612 859
21.58623 960
21.60634 973
21.62646 878
21.64657 886
21.66668 885
21.6868 915
21.70691 876
21.72702 890
21.74714 896
21.76725 862
21.78737 817
21.80748 837
21.82759 836
21.84771 837
21.86782 802
21.88793 805
21.90805 882
21.92816 870
21.94828 862
21.96839 836
21.9885 852
22.00862 878
22.02873 866
22.04884 827
22.06896 831
22.08907 889
22.10919 843
22.1293 878
22.14941 807
22.16953 900
22.18964 837
22.20975 776
22.22987 797
22.24998 842
22.27009 813
22.29021 830
22.31032 853
22.33044 756
22.35055 763
22.37066 807
22.39078 792
22.41089 823
22.431 822
22.45112 806
22.47123 800
22.49135 767
22.51146 862
22.53157 790
22.55169 809
22.5718 772
22.59191 842
22.61203 845
22.63214 874
22.65225 815
22.67237 809
22.69248 798
22.7126 782
22.73271 779
22.75282 844
22.77294 850
22.79305 788
22.81316 813
22.83328 806
22.85339 830
22.87351 830
22.89362 787
22.91373 740
22.93385 754
22.95396 822
22.97407 779
22.99419 758
23.0143 786
23.03442 804
23.05453 786
23.07464 759
23.09476 831
23.11487 791
23.13498 832
23.1551 743
23.17521 817
23.19532 794
23.21544 776
23.23555 813
23.25567 804
23.27578 816
23.29589 753
23.31601 763
23.33612 761
23.35623 806
23.37635 750
23.39646 780
23.41658 791
23.43669 834
23.4568 869
23.47692 794
23.49703 829
23.51714 798
23.53726 812
23.55737 817
23.57749 855
23.5976 815
23.61771 773
23.63783 763
23.65794 830
23.67805 806
23.69817 813
23.71828 884
23.73839 855
23.75851 805
23.77862 871
23.79874 849
23.81885 896
23.83896 823
23.85908 834
23.87919 843
23.8993 854
23.91942 841
23.93953 846
23.95965 945
23.97976 894
23.99987 921
24.01999 915
24.0401 906
24.06021 927
24.08033 937
24.10044 910
24.12056 898
24.14067 905
24.16078 955
24.1809 899
24.20101 921
24.22112 966
24.24124 939
24.26135 950
24.28146 869
24.30158 966
24.32169 939
24.34181 914
24.36192 875
24.38203 915
24.40215 868
24.42226 905
24.44237 909
24.46249 939
24.4826 947
24.50272 905
24.52283 919
24.54294 942
24.56306 932
24.58317 905
24.60328 978
24.6234 937
24.64351 990
24.66362 987
24.68374 976
24.70385 913
24.72397 1014
24.74408 1045
24.76419 1028
24.78431 1008
24.80442 1018
24.82453 1026
24.84465 1053
24.86476 1027
24.88488 1073
24.90499 1063
24.9251 1080
24.94522 995
24.96533 1040
24.98544 1015
25.00556 1054
25.02567 1038
25.04579 1066
25.0659 1017
25.08601 1073
25.10613 1020
25.12624 1013
25.14635 1074
25.16647 963
25.18658 1014
25.20669 977
25.22681 1024
25.24692 1013
25.26704 1013
25.28715 978
25.30726 982
25.32738 932
25.34749 874
25.3676 907
25.38772 924
25.40783 893
25.42795 928
25.44806 887
25.46817 925
25.48829 948
25.5084 863
25.52851 891
25.54863 846
25.56874 867
25.58886 855
25.60897 886
25.62908 847
25.6492 873
25.66931 810
25.68942 843
25.70954 778
25.72965 831
25.74976 827
25.76988 801
25.78999 809
25.81011 809
25.83022 854
25.85033 742
25.87045 823
25.89056 828
25.91067 823
25.93079 813
25.9509 802
25.97102 832
25.99113 803
26.01124 804
26.03136 840
26.05147 853
26.07158 772
26.0917 788
26.11181 861
26.13193 863
26.15204 825
26.17215 875
26.19227 857
26.21238 875
26.23249 844
26.25261 815
26.27272 879
26.29283 895
26.31295 847
26.33306 968
26.35318 907
26.37329 989
26.3934 1007
26.41352 1120
26.43363 1147
26.45374 1342
26.47386 1512
26.49397 1775
26.51409 2176
26.5342 2579
26.55431 2787
26.57443 2883
26.59454 3010
26.61465 2789
26.63477 2543
26.65488 2156
26.67499 1813
26.69511 1457
26.71522 1327
26.73534 1097
26.75545 957
26.77556 900
26.79568 890
26.81579 858
26.8359 835
26.85602 805
26.87613 830
26.89625 829
26.91636 800
26.93647 791
26.95659 750
26.9767 823
26.99681 792
27.01693 779
27.03704 770
27.05716 828
27.07727 758
27.09738 759
27.1175 758
27.13761 757
27.15772 755
27.17784 786
27.19795 756
27.21806 693
27.23818 753
27.25829 732
27.27841 841
27.29852 760
27.31863 818
27.33875 764
27.35886 846
27.37897 777
27.39909 828
27.4192 725
27.43932 798
27.45943 707
27.47954 748
27.49966 761
27.51977 772
27.53988 743
27.56 779
27.58011 763
27.60023 730
27.62034 749
27.64045 728
27.66057 738
27.68068 753
27.70079 705
27.72091 752
27.74102 715
27.76113 802
27.78125 724
27.80136 794
27.82148 752
27.84159 801
27.8617 773
27.88182 752
27.90193 756
27.92204 741
27.94216 789
27.96227 722
27.98239 683
28.0025 709
28.02261 740
28.04273 712
28.06284 714
28.08295 737
28.10307 729
28.12318 695
28.1433 660
28.16341 661
28.18352 729
28.20364 699
28.22375 674
28.24386 699
28.26398 676
28.28409 767
28.3042 658
28.32432 737
28.34443 727
28.36455 673
28.38466 671
28.40477 707
28.42489 680
28.445 681
28.46511 701
28.48523 652
28.50534 740
28.52546 670
28.54557 693
28.56568 627
28.5858 671
28.60591 663
28.62602 702
28.64614 667
28.66625 725
28.68636 700
28.70648 700
28.72659 674
28.74671 690
28.76682 710
28.78693 697
28.80705 633
28.82716 634
28.84727 688
28.86739 652
28.8875 673
28.90762 693
28.92773 713
28.94784 646
28.96796 681
28.98807 670
29.00818 718
29.0283 670
29.04841 676
29.06853 634
29.08864 660
29.10875 679
29.12887 645
29.14898 676
29.16909 700
29.18921 703
29.20932 683
29.22943 709
29.24955 682
29.26966 637
29.28978 653
29.30989 624
29.33 677
29.35012 635
29.37023 636
29.39034 678
29.41046 701
29.43057 696
29.45069 695
29.4708 670
29.49091 672
29.51103 654
29.53114 704
29.55125 657
29.57137 724
29.59148 712
29.6116 715
29.63171 699
29.65182 662
29.67194 700
29.69205 683
29.71216 678
29.73228 708
29.75239 734
29.7725 669
29.79262 711
29.81273 680
29.83285 654
29.85296 659
29.87307 703
29.89319 672
29.9133 696
29.93341 665
29.95353 694
29.97364 696
29.99376 656
30.01387 656
30.03398 669
30.0541 672
30.07421 678
30.09432 730
30.11444 743
30.13455 685
30.15467 699
30.17478 750
30.19489 698
30.21501 706
30.23512 726
30.25523 687
30.27535 698
30.29546 716
30.31557 737
30.33569 765
30.3558 666
30.37592 652
30.39603 681
30.41614 713
30.43626 704
30.45637 696
30.47648 685
30.4966 661
30.51671 705
30.53683 695
30.55694 701
30.57705 704
30.59717 683
30.61728 674
30.63739 658
30.65751 647
30.67762 658
30.69773 692
30.71785 661
30.73796 649
30.75808 705
30.77819 677
30.7983 729
30.81842 635
30.83853 661
30.85864 667
30.87876 667
30.89887 643
30.91899 668
30.9391 672
30.95921 668
30.97933 637
30.99944 654
31.01955 633
31.03967 654
31.05978 701
31.0799 640
31.10001 638
31.12012 653
31.14024 627
31.16035 664
31.18046 640
31.20058 642
31.22069 682
31.2408 705
31.26092 685
31.28103 624
31.30115 686
31.32126 656
31.34137 600
31.36149 670
31.3816 658
31.40171 672
31.42183 709
31.44194 662
31.46206 712
31.48217 649
31.50228 667
31.5224 675
31.54251 688
31.56262 662
31.58274 626
31.60285 655
31.62297 672
31.64308 641
31.66319 641
31.68331 648
31.70342 656
31.72353 687
31.74365 669
31.76376 658
31.78387 665
31.80399 644
31.8241 704
31.84422 661
31.86433 662
31.88444 668
31.90456 679
31.92467 691
31.94478 678
31.9649 622
31.98501 684
32.00513 663
32.02524 640
32.04535 660
32.06547 643
32.08558 648
32.10569 655
32.12581 663
32.14592 695
32.16604 697
32.18615 715
32.20626 654
32.22638 708
32.24649 673
32.2666 703
32.28672 773
32.30683 698
32.32694 703
32.34706 692
32.36717 698
32.38729 713
32.4074 702
32.42751 729
32.44763 737
32.46774 709
32.48785 712
32.50797 805
32.52808 745
32.5482 765
32.56831 780
32.58842 726
32.60854 805
32.62865 798
32.64876 837
32.66888 810
32.68899 787
32.7091 817
32.72922 808
32.74933 770
32.76945 842
32.78956 828
32.80967 824
32.82979 834
32.8499 810
32.87001 822
32.89013 840
32.91024 844
32.93036 860
32.95047 869
32.97058 881
32.9907 960
33.01081 923
33.03092 926
33.05104 994
33.07115 996
33.09127 967
33.11138 1023
33.13149 955
33.15161 972
33.17172 922
33.19183 898
33.21195 982
33.23206 924
33.25217 889
33.27229 928
33.2924 919
33.31252 919
33.33263 879
33.35274 875
33.37286 871
33.39297 798
33.41308 822
33.4332 788
33.45331 810
33.47343 797
33.49354 801
33.51365 769
33.53377 744
33.55388 804
33.57399 717
33.59411 754
33.61422 726
33.63434 740
33.65445 701
33.67456 738
33.69468 731
33.71479 725
33.7349 668
33.75502 709
33.77513 724
33.79524 658
33.81536 675
33.83547 663
33.85559 706
33.8757 706
33.89581 725
33.91593 663
33.93604 685
33.95615 683
33.97627 680
33.99638 650
34.0165 643
34.03661 661
34.05672 669
34.07684 694
34.09695 696
34.11706 679
34.13718 670
34.15729 678
34.17741 702
34.19752 682
34.21763 680
34.23775 686
34.25786 680
34.27797 721
34.29809 691
34.3182 747
34.33831 732
34.35843 678
34.37854 763
34.39866 727
34.41877 735
34.43888 739
34.459 731
34.47911 716
34.49922 770
34.51934 736
34.53945 766
34.55957 789
34.57968 814
34.59979 819
34.61991 758
34.64002 802
34.66013 829
34.68025 856
34.70036 870
34.72047 857
34.74059 900
34.7607 880
34.78082 912
34.80093 896
34.82104 903
34.84116 911
34.86127 948
34.88138 927
34.9015 1028
34.92161 939
34.94173 949
34.96184 1021
34.98195 928
35.00207 879
35.02218 902
35.04229 916
35.06241 861
35.08252 902
35.10264 930
35.12275 896
35.14286 947
35.16298 932
35.18309 925
35.2032 954
35.22332 936
35.24343 853
35.26354 881
35.28366 934
35.30377 969
35.32389 1035
35.344 938
35.36411 958
35.38423 974
35.40434 1036
35.42445 1001
35.44457 1043
35.46468 1117
35.4848 1074
35.50491 1120
35.52502 1190
35.54514 1187
35.56525 1188
35.58536 1252
35.60548 1251
35.62559 1256
35.64571 1232
35.66582 1270
35.68593 1222
35.70605 1204
35.72616 1227
35.74627 1214
35.76639 1146
35.7865 1127
35.80661 1213
35.82673 1152
35.84684 1187
35.86696 1116
35.88707 1035
35.90718 1047
35.9273 1045
35.94741 1075
35.96752 985
35.98764 981
36.00775 963
36.02787 968
36.04798 947
36.06809 900
36.08821 855
36.10832 865
36.12843 922
36.14855 878
36.16866 868
36.18878 807
36.20889 897
36.229 818
36.24912 873
36.26923 835
36.28934 847
36.30946 856
36.32957 900
36.34968 866
36.3698 867
36.38991 897
36.41003 918
36.43014 902
36.45025 956
36.47037 947
36.49048 946
36.51059 898
36.53071 944
36.55082 884
36.57094 866
36.59105 904
36.61116 832
36.63128 831
36.65139 815
36.6715 797
36.69162 812
36.71173 834
36.73184 819
36.75196 824
36.77207 810
36.79219 812
36.8123 816
36.83241 765
36.85253 776
36.87264 788
36.89275 802
36.91287 804
36.93298 775
36.9531 720
36.97321 780
36.99332 794
37.01344 787
37.03355 763
37.05366 761
37.07378 753
37.09389 805
37.11401 790
37.13412 765
37.15423 785
37.17435 768
37.19446 807
37.21457 769
37.23469 738
37.2548 828
37.27491 779
37.29503 773
37.31514 824
37.33526 777
37.35537 807
37.37548 825
37.3956 804
37.41571 785
37.43582 795
37.45594 740
37.47605 801
37.49617 796
37.51628 816
37.53639 793
37.55651 802
37.57662 733
37.59673 811
37.61685 815
37.63696 827
37.65708 824
37.67719 811
37.6973 828
37.71742 828
37.73753 841
37.75764 804
37.77776 796
37.79787 795
37.81798 799
37.8381 798
37.85821 839
37.87833 866
37.89844 822
37.91855 827
37.93867 826
37.95878 773
37.97889 794
37.99901 802
38.01912 828
38.03924 826
38.05935 782
38.07946 810
38.09958 838
38.11969 775
38.1398 783
38.15992 823
38.18003 763
38.20015 768
38.22026 834
38.24037 824
38.26049 843
38.2806 827
38.30071 806
38.32083 802
38.34094 834
38.36105 845
38.38117 806
38.40128 834
38.4214 768
38.44151 802
38.46162 812
38.48174 815
38.50185 826
38.52196 786
38.54208 829
38.56219 782
38.58231 814
38.60242 749
38.62253 775
38.64265 759
38.66276 779
38.68287 765
38.70299 756
38.7231 775
38.74321 756
38.76333 724
38.78344 744
38.80356 788
38.82367 788
38.84378 734
38.8639 761
38.88401 782
38.90412 689
38.92424 784
38.94435 732
38.96447 716
38.98458 756
39.00469 767
39.02481 757
39.04492 732
39.06503 782
39.08515 749
39.10526 731
39.12538 746
39.14549 668
39.1656 713
39.18572 751
39.20583 746
39.22594 737
39.24606 762
39.26617 725
39.28628 724
39.3064 837
39.32651 801
39.34663 806
39.36674 844
39.38685 753
39.40697 789
39.42708 854
39.44719 807
39.46731 769
39.48742 780
39.50754 759
39.52765 712
39.54776 690
39.56788 705
39.58799 634
39.6081 706
39.62822 649
39.64833 737
39.66845 690
39.68856 675
39.70867 677
39.72879 671
39.7489 697
39.76901 629
39.78913 682
39.80924 646
39.82935 693
39.84947 689
39.86958 706
39.8897 673
39.90981 654
39.92992 685
39.95004 677
39.97015 650
39.99026 669
40.01038 671
40.03049 683
40.05061 708
40.07072 689
40.09083 735
40.11095 708
40.13106 698
40.15117 683
40.17129 765
40.1914 728
40.21152 800
40.23163 741
40.25174 730
40.27186 724
40.29197 764
40.31208 740
40.3322 681
40.35231 737
40.37242 760
40.39254 672
40.41265 730
40.43277 689
40.45288 718
40.47299 718
40.49311 738
40.51322 677
40.53333 721
40.55345 657
40.57356 742
40.59368 723
40.61379 769
40.6339 755
40.65402 746
40.67413 734
40.69424 757
40.71436 740
40.73447 753
40.75458 791
40.7747 779
40.79481 798
40.81493 777
40.83504 705
40.85515 732
40.87527 783
40.89538 763
40.91549 730
40.93561 816
40.95572 747
40.97584 754
40.99595 830
41.01606 750
41.03618 729
41.05629 700
41.0764 730
41.09652 736
41.11663 745
41.13675 733
41.15686 730
41.17697 699
41.19709 705
41.2172 707
41.23731 721
41.25743 728
41.27754 674
41.29765 654
41.31777 683
41.33788 670
41.358 665
41.37811 630
41.39822 733
41.41834 691
41.43845 597
41.45856 684
41.47868 668
41.49879 657
41.51891 681
41.53902 720
41.55913 617
41.57925 627
41.59936 706
41.61947 694
41.63959 689
41.6597 676
41.67982 705
41.69993 687
41.72004 635
41.74016 645
41.76027 643
41.78038 604
41.8005 650
41.82061 631
41.84072 668
41.86084 595
41.88095 665
41.90107 648
41.92118 635
41.94129 665
41.96141 677
41.98152 655
42.00163 629
42.02175 684
42.04186 630
42.06198 661
42.08209 666
42.1022 637
42.12232 608
42.14243 685
42.16254 645
42.18266 627
42.20277 639
42.22289 667
42.243 669
42.26311 648
42.28323 704
42.30334 727
42.32345 700
42.34357 689
42.36368 755
42.38379 732
42.40391 734
42.42402 733
42.44414 716
42.46425 741
42.48436 678
42.50448 681
42.52459 656
42.5447 675
42.56482 622
42.58493 651
42.60505 656
42.62516 640
42.64527 631
42.66539 642
42.6855 626
42.70561 648
42.72573 583
42.74584 618
42.76595 584
42.78607 594
42.80618 628
42.8263 623
42.84641 634
42.86652 650
42.88664 612
42.90675 672
42.92686 635
42.94698 623
42.96709 638
42.98721 678
43.00732 656
43.02743 602
43.04755 617
43.06766 650
43.08777 630
43.10789 666
43.128 617
43.14812 644
43.16823 639
43.18834 682
43.20846 666
43.22857 631
43.24868 620
43.2688 682
43.28891 677
43.30902 669
43.32914 652
43.34925 683
43.36937 642
43.38948 627
43.40959 627
43.42971 689
43.44982 648
43.46993 619
43.49005 653
43.51016 624
43.53028 646
43.55039 627
43.5705 656
43.59062 662
43.61073 631
43.63084 633
43.65096 615
43.67107 654
43.69119 619
43.7113 648
43.73141 646
43.75153 654
43.77164 655
43.79175 642
43.81187 667
43.83198 680
43.85209 589
43.87221 612
43.89232 670
43.91244 603
43.93255 621
43.95266 602
43.97278 576
43.99289 644
44.013 638
44.03312 639
44.05323 620
44.07335 666
44.09346 643
44.11357 627
44.13369 594
44.1538 654
44.17391 606
44.19403 614
44.21414 594
44.23426 612
44.25437 636
44.27448 625
44.2946 625
44.31471 642
44.33482 623
44.35494 677
44.37505 569
44.39516 660
44.41528 626
44.43539 620
44.45551 653
44.47562 587
44.49573 583
44.51585 566
44.53596 617
44.55607 617
44.57619 588
44.5963 611
44.61642 619
44.63653 612
44.65664 629
44.67676 665
44.69687 632
44.71698 662
44.7371 624
44.75721 618
44.77732 639
44.79744 633
44.81755 618
44.83767 641
44.85778 634
44.87789 662
44.89801 608
44.91812 615
44.93823 596
44.95835 618
44.97846 615
44.99858 599
45.01869 653
45.0388 618
45.05892 637
45.07903 625
45.09914 646
45.11926 663
45.13937 640
45.15949 646
45.1796 646
45.19971 679
45.21983 672
45.23994 652
45.26005 645
45.28017 678
45.30028 612
45.32039 646
45.34051 656
45.36062 710
45.38074 675
45.40085 683
45.42096 687
45.44108 670
45.46119 631
45.4813 694
45.50142 622
45.52153 672
45.54165 676
45.56176 667
45.58187 642
45.60199 684
45.6221 634
45.64221 677
45.66233 661
45.68244 693
45.70256 697
45.72267 713
45.74278 705
45.7629 685
45.78301 750
45.80312 644
45.82324 679
45.84335 663
45.86346 662
45.88358 645
45.90369 674
45.92381 657
45.94392 628
45.96403 640
45.98415 643
46.00426 614
46.02437 651
46.04449 627
46.0646 630
46.08472 640
46.10483 639
46.12494 670
46.14506 630
46.16517 615
46.18528 644
46.2054 613
46.22551 620
46.24563 683
46.26574 666
46.28585 663
46.30597 660
46.32608 652
46.34619 627
46.36631 636
46.38642 612
46.40653 673
46.42665 631
46.44676 620
46.46688 613
46.48699 659
46.5071 621
46.52722 648
46.54733 669
46.56744 651
46.58756 624
46.60767 601
46.62779 647
46.6479 603
46.66801 632
46.68813 608
46.70824 627
46.72835 609
46.74847 635
46.76858 691
46.78869 658
46.80881 613
46.82892 692
46.84904 647
46.86915 627
46.88926 610
46.90938 634
46.92949 617
46.9496 630
46.96972 633
46.98983 641
47.00995 608
47.03006 628
47.05017 636
47.07029 639
47.0904 636
47.11051 598
47.13063 688
47.15074 576
47.17086 582
47.19097 588
47.21108 627
47.2312 596
47.25131 577
47.27142 608
47.29154 637
47.31165 653
47.33176 658
47.35188 644
47.37199 659
47.39211 609
47.41222 612
47.43233 617
47.45245 620
47.47256 651
47.49267 628
47.51279 658
47.5329 626
47.55302 628
47.57313 603
47.59324 636
47.61336 582
47.63347 593
47.65358 631
47.6737 599
47.69381 615
47.71393 594
47.73404 591
47.75415 627
47.77427 655
47.79438 615
47.81449 626
47.83461 644
47.85472 630
47.87483 635
47.89495 629
47.91506 668
47.93518 657
47.95529 636
47.9754 655
47.99552 653
48.01563 596
48.03574 598
48.05586 629
48.07597 658
48.09609 647
48.1162 603
48.13631 594
48.15643 597
48.17654 668
48.19665 668
48.21677 662
48.23688 589
48.257 584
48.27711 651
48.29722 621
48.31734 606
48.33745 593
48.35756 648
48.37768 655
48.39779 559
48.4179 647
48.43802 639
48.45813 667
48.47825 605
48.49836 582
48.51847 613
48.53859 619
48.5587 675
48.57881 616
48.59893 607
48.61904 665
48.63916 587
48.65927 635
48.67938 636
48.6995 622
48.71961 587
48.73972 594
48.75984 616
48.77995 656
48.80006 632
48.82018 640
48.84029 622
48.86041 618
48.88052 651
48.90063 644
48.92075 647
48.94086 621
48.96097 665
48.98109 701
49.0012 619
49.02132 609
49.04143 650
49.06154 653
49.08166 617
49.10177 644
49.12188 650
49.142 652
49.16211 663
49.18223 685
49.20234 661
49.22245 677
49.24257 688
49.26268 691
49.28279 698
49.30291 704
49.32302 665
49.34313 737
49.36325 727
49.38336 704
49.40348 694
49.42359 686
49.4437 666
49.46382 730
49.48393 729
49.50404 744
49.52416 722
49.54427 691
49.56439 721
49.5845 728
49.60461 691
49.62473 643
49.64484 717
49.66495 676
49.68507 716
49.70518 627
49.7253 651
49.74541 683
49.76552 648
49.78564 675
49.80575 668
49.82586 671
49.84598 680
49.86609 669
49.8862 698
49.90632 694
49.92643 685
49.94655 720
49.96666 677
49.98677 777
50.00689 805
50.027 813
50.04711 839
50.06723 801
50.08734 832
50.10746 807
50.12757 803
50.14768 764
50.1678 735
50.18791 712
50.20802 651
50.22814 703
50.24825 665
50.26837 697
50.28848 622
50.30859 586
50.32871 601
50.34882 620
50.36893 642
50.38905 592
50.40916 601
50.42927 598
50.44939 609
50.4695 583
50.48962 589
50.50973 639
50.52984 621
50.54996 599
50.57007 606
50.59018 587
50.6103 598
50.63041 629
50.65053 599
50.67064 594
50.69075 630
50.71087 605
50.73098 564
50.75109 614
50.77121 617
50.79132 591
50.81143 581
50.83155 604
50.85166 621
50.87178 584
50.89189 569
50.912 619
50.93212 588
50.95223 594
50.97234 569
50.99246 581
51.01257 616
51.03269 588
51.0528 589
51.07291 593
51.09303 596
51.11314 605
51.13325 641
51.15337 608
51.17348 607
51.1936 604
51.21371 580
51.23382 543
51.25394 598
51.27405 604
51.29416 579
51.31428 623
51.33439 588
51.3545 568
51.37462 551
51.39473 547
51.41485 553
51.43496 612
51.45507 582
51.47519 555
51.4953 585
51.51541 587
51.53553 584
51.55564 572
51.57576 565
51.59587 568
51.61598 549
51.6361 569
51.65621 602
51.67632 562
51.69644 567
51.71655 573
51.73667 550
51.75678 642
51.77689 543
51.79701 573
51.81712 590
51.83723 595
51.85735 596
51.87746 549
51.89757 575
51.91769 578
51.9378 589
51.95792 581
51.97803 582
51.99814 534
52.01826 543
52.03837 548
52.05848 586
52.0786 614
52.09871 591
52.11883 578
52.13894 563
52.15905 554
52.17917 594
52.19928 582
52.21939 628
52.23951 563
52.25962 580
52.27974 567
52.29985 567
52.31996 549
52.34008 592
52.36019 611
52.3803 588
52.40042 558
52.42053 590
52.44064 598
52.46076 571
52.48087 586
52.50099 606
52.5211 597
52.54121 552
52.56133 622
52.58144 637
52.60155 569
52.62167 558
52.64178 621
52.6619 583
52.68201 568
52.70212 600
52.72224 565
52.74235 625
52.76246 587
52.78258 586
52.80269 623
52.8228 636
52.84292 611
52.86303 609
52.88315 624
52.90326 646
52.92337 595
52.94349 606
52.9636 627
52.98371 643
53.00383 610
53.02394 648
53.04406 605
53.06417 634
53.08428 637
53.1044 600
53.12451 575
53.14462 658
53.16474 652
53.18485 620
53.20497 676
53.22508 657
53.24519 636
53.26531 636
53.28542 627
53.30553 662
53.32565 595
53.34576 651
53.36587 687
53.38599 626
53.4061 690
53.42622 660
53.44633 706
53.46644 643
53.48656 688
53.50667 632
53.52678 653
53.5469 665
53.56701 634
53.58713 686
53.60724 702
53.62735 691
53.64747 712
53.66758 708
53.68769 782
53.70781 766
53.72792 702
53.74804 720
53.76815 686
53.78826 771
53.80838 772
53.82849 831
53.8486 767
53.86872 745
53.88883 757
53.90894 803
53.92906 809
53.94917 829
53.96929 846
53.9894 791
54.00951 854
54.02963 805
54.04974 856
54.06985 840
54.08997 814
54.11008 789
54.1302 781
54.15031 831
54.17042 805
54.19054 882
54.21065 819
54.23076 814
54.25088 852
54.27099 840
54.29111 792
54.31122 759
54.33133 742
54.35145 843
54.37156 808
54.39167 760
54.41179 776
54.4319 791
54.45201 760
54.47213 743
54.49224 778
54.51236 696
54.53247 725
54.55258 740
54.5727 718
54.59281 739
54.61292 711
54.63304 731
54.65315 732
54.67327 642
54.69338 706
54.71349 719
54.73361 752
54.75372 709
54.77383 765
54.79395 749
54.81406 757
54.83417 724
54.85429 739
54.8744 730
54.89452 719
54.91463 765
54.93474 790
54.95486 780
54.97497 695
54.99508 694
55.0152 708
55.03531 647
55.05543 709
55.07554 733
55.09565 694
55.11577 693
55.13588 691
55.15599 673
55.17611 683
55.19622 667
55.21634 686
55.23645 705
55.25656 702
55.27668 726
55.29679 711
55.3169 725
55.33702 679
55.35713 681
55.37724 725
55.39736 687
55.41747 693
55.43759 660
55.4577 657
55.47781 618
55.49793 649
55.51804 684
55.53815 622
55.55827 613
55.57838 628
55.5985 658
55.61861 709
55.63872 617
55.65884 669
55.67895 637
55.69906 633
55.71918 666
55.73929 635
55.75941 657
55.77952 617
55.79963 660
55.81975 611
55.83986 587
55.85997 677
55.88009 611
55.9002 670
55.92031 665
55.94043 621
55.96054 627
55.98066 651
56.00077 630
56.02088 659
56.041 623
56.06111 665
56.08122 635
56.10134 611
56.12145 638
56.14157 653
56.16168 622
56.18179 652
56.20191 622
56.22202 652
56.24213 664
56.26225 618
56.28236 626
56.30248 660
56.32259 654
56.3427 625
56.36282 626
56.38293 617
56.40304 641
56.42316 657
56.44327 592
56.46338 659
56.4835 609
56.50361 620
56.52373 632
56.54384 661
56.56395 632
56.58407 613
56.60418 614
56.62429 636
56.64441 618
56.66452 637
56.68464 680
56.70475 606
56.72486 603
56.74498 618
56.76509 576
56.7852 605
56.80532 586
56.82543 609
56.84554 590
56.86566 653
56.88577 607
56.90589 619
56.926 625
56.94611 655
56.96623 626
56.98634 645
57.00645 649
57.02657 636
57.04668 578
57.0668 595
57.08691 587
57.10702 619
57.12714 639
57.14725 646
57.16736 600
57.18748 634
57.20759 603
57.22771 611
57.24782 650
57.26793 635
57.28805 624
57.30816 625
57.32827 649
57.34839 617
57.3685 666
57.38861 648
57.40873 633
57.42884 635
57.44896 634
57.46907 635
57.48918 685
57.5093 639
57.52941 662
57.54952 610
57.56964 653
57.58975 628
57.60987 621
57.62998 618
57.65009 624
57.67021 618
57.69032 663
57.71043 639
57.73055 617
57.75066 663
57.77078 657
57.79089 625
57.811 620
57.83112 649
57.85123 656
57.87134 607
57.89146 594
57.91157 657
57.93168 596
57.9518 556
57.97191 633
57.99203 589
58.01214 651
58.03225 590
58.05237 614
58.07248 597
58.09259 575
58.11271 579
58.13282 613
58.15294 565
58.17305 578
58.19316 563
58.21328 590
58.23339 634
58.2535 596
58.27362 589
58.29373 614
58.31385 612
58.33396 623
58.35407 614
58.37419 620
58.3943 602
58.41441 568
58.43453 568
58.45464 599
58.47475 603
58.49487 581
58.51498 590
58.5351 593
58.55521 570
58.57532 598
58.59544 547
58.61555 604
58.63566 562
58.65578 588
58.67589 599
58.69601 549
58.71612 608
58.73623 564
58.75635 595
58.77646 586
58.79657 578
58.81669 610
58.8368 569
58.85691 563
58.87703 553
58.89714 604
58.91726 575
58.93737 619
58.95748 589
58.9776 576
58.99771 608
59.01782 584
59.03794 587
59.05805 600
59.07817 567
59.09828 577
59.11839 586
59.13851 571
59.15862 569
59.17873 595
59.19885 582
59.21896 606
59.23908 563
59.25919 610
59.2793 552
59.29942 575
59.31953 572
59.33964 580
59.35976 590
59.37987 611
59.39998 590
59.4201 569
59.44021 618
59.46033 643
59.48044 571
59.50055 603
59.52067 543
59.54078 588
59.56089 600
59.58101 601
59.60112 570
59.62124 593
59.64135 570
59.66146 598
59.68158 586
59.70169 637
59.7218 642
59.74192 662
59.76203 619
59.78215 640
59.80226 661
59.82237 721
59.84249 715
59.8626 671
59.88271 704
59.90283 716
59.92294 675
59.94305 631
59.96317 705
59.98328 663
60.0034 633
60.02351 669
60.04362 623
60.06374 620
60.08385 616
60.10396 586
60.12408 582
60.14419 622
60.16431 603
60.18442 555
60.20453 578
60.22465 597
60.24476 604
60.26487 619
60.28499 612
60.3051 593
60.32522 612
60.34533 564
60.36544 533
60.38556 592
60.40567 589
60.42578 584
60.4459 563
60.46601 546
60.48612 563
60.50624 589
60.52635 561
60.54647 571
60.56658 580
60.58669 592
60.60681 587
60.62692 553
60.64703 591
60.66715 573
60.68726 629
60.70738 587
60.72749 578
60.7476 575
60.76772 601
60.78783 589
60.80794 594
60.82806 601
60.84817 570
60.86828 575
60.8884 574
60.90851 572
60.92863 556
60.94874 596
60.96885 576
60.98897 654
61.00908 575
61.02919 574
61.04931 583
61.06942 550
61.08954 557
61.10965 546
61.12976 574
61.14988 591
61.16999 600
61.1901 606
61.21022 562
61.23033 579
61.25045 606
61.27056 575
61.29067 610
61.31079 615
61.3309 623
61.35101 587
61.37113 665
61.39124 650
61.41135 569
61.43147 620
61.45158 639
61.4717 632
61.49181 626
61.51192 615
61.53204 638
61.55215 668
61.57226 623
61.59238 661
61.61249 624
61.63261 704
61.65272 647
61.67283 663
61.69295 679
61.71306 650
61.73317 673
61.75329 706
61.7734 623
61.79352 669
61.81363 693
61.83374 705
61.85386 725
61.87397 716
61.89408 738
61.9142 704
61.93431 744
61.95442 731
61.97454 802
61.99465 727
62.01477 779
62.03488 741
62.05499 749
62.07511 737
62.09522 746
62.11533 799
62.13545 796
62.15556 750
62.17568 775
62.19579 824
62.2159 825
62.23602 773
62.25613 783
62.27624 831
62.29636 807
62.31647 778
62.33659 753
62.3567 808
62.37681 797
62.39693 813
62.41704 736
62.43715 802
62.45727 698
62.47738 735
62.49749 740
62.51761 772
62.53772 691
62.55784 784
62.57795 707
62.59806 731
62.61818 715
62.63829 709
62.6584 672
62.67852 699
62.69863 710
62.71875 687
62.73886 696
62.75897 734
62.77909 696
62.7992 698
62.81931 696
62.83943 661
62.85954 668
62.87965 686
62.89977 630
62.91988 598
62.94 616
62.96011 713
62.98022 688
63.00034 635
63.02045 631
63.04056 676
63.06068 649
63.08079 643
63.10091 672
63.12102 637
63.14113 646
63.16125 658
63.18136 661
63.20147 630
63.22159 635
63.2417 664
63.26182 665
63.28193 650
63.30204 617
63.32216 620
63.34227 624
63.36238 668
63.3825 626
63.40261 688
63.42272 634
63.44284 640
63.46295 641
63.48307 664
63.50318 636
63.52329 634
63.54341 667
63.56352 620
63.58363 638
63.60375 637
63.62386 625
63.64398 646
63.66409 660
63.6842 663
63.70432 661
63.72443 663
63.74454 645
63.76466 710
63.78477 689
63.80489 690
63.825 679
63.84511 659
63.86523 704
63.88534 707
63.90545 714
63.92557 698
63.94568 672
63.96579 674
63.98591 757
64.00602 731
64.02614 670
64.04625 686
64.06636 651
64.08648 642
64.10659 690
64.1267 644
64.14682 670
64.16693 676
64.18705 663
64.20716 680
64.22727 661
64.24739 619
64.2675 679
64.28761 666
64.30773 644
64.32784 671
64.34796 681
64.36807 630
64.38818 639
64.4083 671
64.42841 576
64.44852 634
64.46864 612
64.48875 573
64.50886 561
64.52898 614
64.54909 579
64.56921 600
64.58932 624
64.60943 606
64.62955 589
64.64966 657
64.66977 572
64.68989 603
64.71 606
64.73012 585
64.75023 584
64.77034 601
64.79046 575
64.81057 566
64.83068 549
64.8508 571
64.87091 543
64.89102 532
64.91114 568
64.93125 560
64.95137 526
64.97148 560
64.99159 560
65.01171 513
65.03182 567
65.05193 577
65.07205 606
65.09216 536
65.11228 580
65.13239 598
65.1525 538
65.17262 539
65.19273 571
65.21284 559
65.23296 595
65.25307 573
65.27319 550
65.2933 564
65.31341 598
65.33353 570
65.35364 571
65.37375 576
65.39387 544
65.41398 543
65.43409 570
65.45421 580
65.47432 560
65.49444 565
65.51455 544
65.53466 567
65.55478 553
65.57489 522
65.595 545
65.61512 516
65.63523 530
65.65535 523
65.67546 562
65.69557 544
65.71569 569
65.7358 550
65.75591 529
65.77603 529
65.79614 579
65.81626 547
65.83637 556
65.85648 554
65.8766 574
65.89671 631
65.91682 559
65.93694 518
65.95705 561
65.97716 525
65.99728 523
66.01739 547
66.03751 539
66.05762 519
66.07773 537
66.09785 573
66.11796 563
66.13807 535
66.15819 548
66.1783 549
66.19842 575
66.21853 533
66.23864 561
66.25876 549
66.27887 542
66.29898 573
66.3191 531
66.33921 545
66.35933 519
66.37944 530
66.39955 582
66.41967 575
66.43978 529
66.45989 550
66.48001 543
66.50012 506
66.52023 520
66.54035 524
66.56046 502
66.58058 541
66.60069 541
66.6208 573
66.64092 577
66.66103 525
66.68114 515
66.70126 520
66.72137 554
66.74149 543
66.7616 597
66.78171 533
66.80183 562
66.82194 563
66.84205 513
66.86217 530
66.88228 518
66.90239 541
66.92251 556
66.94262 551
66.96274 559
66.98285 578
67.00296 546
67.02308 557
67.04319 499
67.0633 585
67.08342 566
67.10353 554
67.12365 571
67.14376 496
67.16387 542
67.18399 520
67.2041 528
67.22421 526
67.24433 527
67.26444 537
67.28456 560
67.30467 509
67.32478 550
67.3449 551
67.36501 552
67.38512 587
67.40524 545
67.42535 553
67.44546 595
67.46558 510
67.48569 578
67.50581 600
67.52592 575
67.54603 553
67.56615 603
67.58626 614
67.60637 608
67.62649 586
67.6466 613
67.66672 591
67.68683 631
67.70694 604
67.72706 594
67.74717 635
67.76728 644
67.7874 577
67.80751 581
67.82763 610
67.84774 591
67.86785 616
67.88797 563
67.90808 626
67.92819 615
67.94831 644
67.96842 618
67.98853 562
68.00865 641
68.02876 629
68.04888 637
68.06899 639
68.0891 645
68.10922 614
68.12933 624
68.14944 632
68.16956 663
68.18967 619
68.20979 637
68.2299 670
68.25001 638
68.27013 641
68.29024 624
68.31035 535
68.33047 608
68.35058 592
68.3707 606
68.39081 601
68.41092 577
68.43104 559
68.45115 573
68.47126 581
68.49138 553
68.51149 625
68.5316 580
68.55172 563
68.57183 563
68.59195 575
68.61206 547
68.63217 530
68.65229 568
68.6724 580
68.69251 516
68.71263 548
68.73274 597
68.75286 522
68.77297 531
68.79308 561
68.8132 533
68.83331 539
68.85342 549
68.87354 588
68.89365 573
68.91376 570
68.93388 539
68.95399 531
68.97411 535
68.99422 524
69.01433 578
69.03445 521
69.05456 550
69.07467 506
69.09479 536
69.1149 516
69.13502 546
69.15513 509
69.17524 538
69.19536 518
69.21547 508
69.23558 527
69.2557 508
69.27581 522
69.29593 545
69.31604 474
69.33615 540
69.35627 571
69.37638 544
69.39649 531
69.41661 560
69.43672 532
69.45683 525
69.47695 541
69.49706 530
69.51718 558
69.53729 540
69.5574 548
69.57752 556
69.59763 526
69.61774 545
69.63786 552
69.65797 517
69.67809 515
69.6982 558
69.71831 570
69.73843 557
69.75854 578
69.77865 554
69.79877 497
69.81888 494
69.839 557
69.85911 570
69.87922 519
69.89934 579
69.91945 567
69.93956 523
69.95968 540
69.97979 561
69.9999 600
70.02002 515
70.04013 500
70.06025 531
70.08036 541
70.10047 558
70.12059 543
70.1407 569
70.16081 542
70.18093 568
70.20104 532
70.22116 560
70.24127 548
70.26138 529
70.2815 496
70.30161 520
70.32172 527
70.34184 536
70.36195 515
70.38207 560
70.40218 554
70.42229 500
70.44241 561
70.46252 506
70.48263 552
70.50275 502
70.52286 542
70.54297 521
70.56309 532
70.5832 511
70.60332 492
70.62343 544
70.64354 507
70.66366 567
70.68377 539
70.70388 502
70.724 527
70.74411 504
70.76423 492
70.78434 550
70.80445 521
70.82457 499
70.84468 552
70.86479 538
70.88491 547
70.90502 506
70.92513 521
70.94525 514
70.96536 483
70.98548 546
71.00559 533
71.0257 568
71.04582 557
71.06593 536
71.08604 509
71.10616 555
71.12627 529
71.14639 527
71.1665 523
71.18661 541
71.20673 576
71.22684 491
71.24695 505
71.26707 527
71.28718 496
71.3073 535
71.32741 508
71.34752 532
71.36764 514
71.38775 509
71.40786 545
71.42798 517
71.44809 538
71.4682 520
71.48832 502
71.50843 530
71.52855 558
71.54866 541
71.56877 529
71.58889 560
71.609 536
71.62911 538
71.64923 538
71.66934 597
71.68946 533
71.70957 548
71.72968 539
71.7498 544
71.76991 554
71.79002 555
71.81014 556
71.83025 526
71.85037 566
71.87048 587
71.89059 533
71.91071 531
71.93082 558
71.95093 562
71.97105 529
71.99116 532
72.01127 497
72.03139 553
72.0515 581
72.07162 527
72.09173 536
72.11184 539
72.13196 580
72.15207 525
72.17218 547
72.1923 496
72.21241 527
72.23253 544
72.25264 540
72.27275 559
72.29287 553
72.31298 565
72.33309 503
72.35321 531
72.37332 525
72.39344 589
72.41355 530
72.43366 550
72.45378 542
72.47389 541
72.494 534
72.51412 569
72.53423 522
72.55434 473
72.57446 530
72.59457 537
72.61469 529
72.6348 537
72.65491 527
72.67503 510
72.69514 505
72.71525 545
72.73537 518
72.75548 505
72.7756 534
72.79571 521
72.81582 516
72.83594 583
72.85605 512
72.87616 562
72.89628 529
72.91639 517
72.9365 544
72.95662 565
72.97673 562
72.99685 564
73.01696 523
73.03707 525
73.05719 475
73.0773 560
73.09741 524
73.11753 556
73.13764 559
73.15776 534
73.17787 579
73.19798 568
73.2181 564
73.23821 540
73.25832 563
73.27844 584
73.29855 567
73.31867 551
73.33878 574
73.35889 566
73.37901 597
73.39912 554
73.41923 569
73.43935 601
73.45946 537
73.47957 552
73.49969 548
73.5198 560
73.53992 587
73.56003 550
73.58014 561
73.60026 541
73.62037 537
73.64048 557
73.6606 561
73.68071 529
73.70083 519
73.72094 546
73.74105 533
73.76117 539
73.78128 496
73.80139 528
73.82151 527
73.84162 521
73.86174 517
73.88185 532
73.90196 513
73.92208 516
73.94219 503
73.9623 534
73.98242 522
74.00253 553
74.02264 528
74.04276 536
74.06287 539
74.08299 516
74.1031 525
74.12321 487
74.14333 525
74.16344 535
74.18355 514
74.20367 571
74.22378 524
74.2439 525
74.26401 547
74.28412 556
74.30424 547
74.32435 559
74.34446 538
74.36458 542
74.38469 547
74.40481 551
74.42492 545
74.44503 526
74.46515 512
74.48526 535
74.50537 507
74.52549 547
74.5456 571
74.56571 543
74.58583 529
74.60594 508
74.62606 524
74.64617 516
74.66628 574
74.6864 533
74.70651 514
74.72662 535
74.74674 529
74.76685 563
74.78697 573
74.80708 552
74.82719 527
74.84731 509
74.86742 479
74.88753 522
74.90765 515
74.92776 526
74.94787 544
74.96799 519
74.9881 524
75.00822 535
