3.00117 19414
3.02128 19336
3.0414 18664
3.06151 18556
3.08162 17798
3.10174 17114
3.12185 16951
3.14197 16081
3.16208 16008
3.18219 15515
3.20231 14934
3.22242 14594
3.24253 14128
3.26265 13645
3.28276 13205
3.30288 12707
3.32299 12661
3.3431 11917
3.36322 11850
3.38333 11481
3.40344 10657
3.42356 10642
3.44367 10089
3.46379 9970
3.4839 9582
3.50401 9084
3.52413 8800
3.54424 8415
3.56435 8486
3.58447 8156
3.60458 7501
3.62469 7502
3.64481 7218
3.66492 6975
3.68504 6677
3.70515 6245
3.72526 6287
3.74538 5855
3.76549 5989
3.7856 5649
3.80572 5160
3.82583 5226
3.84595 4869
3.86606 4635
3.88617 4637
3.90629 4282
3.9264 4189
3.94651 4016
3.96663 3735
3.98674 4041
4.00686 3522
4.02697 3459
4.04708 3289
4.0672 3294
4.08731 3193
4.10742 2905
4.12754 2957
4.14765 2713
4.16776 2753
4.18788 2769
4.20799 2515
4.22811 2441
4.24822 2373
4.26833 2295
4.28845 2339
4.30856 2126
4.32867 2183
4.34879 2142
4.3689 2073
4.38902 2183
4.40913 1889
4.42924 1945
4.44936 1910
4.46947 1912
4.48958 2005
4.5097 1744
4.52981 1825
4.54992 1800
4.57004 1946
4.59015 1841
4.61027 1829
4.63038 1679
4.65049 1807
4.67061 1676
4.69072 1682
4.71083 1601
4.73095 1585
4.75106 1596
4.77118 1563
4.79129 1609
4.8114 1521
4.83152 1488
4.85163 1509
4.87174 1515
4.89186 1462
4.91197 1460
4.93209 1417
4.9522 1438
4.97231 1516
4.99243 1430
5.01254 1327
5.03265 1414
5.05277 1502
5.07288 1388
5.09299 1341
5.11311 1350
5.13322 1374
5.15334 1393
5.17345 1482
5.19356 1404
5.21368 1405
5.23379 1421
5.2539 1378
5.27402 1412
5.29413 1423
5.31425 1377
5.33436 1334
5.35447 1447
5.37459 1456
5.3947 1418
5.41481 1465
5.43493 1478
5.45504 1491
5.47516 1483
5.49527 1516
5.51538 1536
5.5355 1582
5.55561 1570
5.57572 1562
5.59584 1636
5.61595 1645
5.63606 1709
5.65618 1707
5.67629 1848
5.69641 1822
5.71652 1863
5.73663 1828
5.75675 1965
5.77686 1982
5.79697 2017
5.81709 2147
5.8372 2152
5.85732 2182
5.87743 2177
5.89754 2057
5.91766 2231
5.93777 2165
5.95788 2151
5.978 2094
5.99811 2180
6.01823 2008
6.03834 1945
6.05845 1923
6.07857 1779
6.09868 1692
6.11879 1726
6.13891 1624
6.15902 1672
6.17913 1580
6.19925 1555
6.21936 1373
6.23948 1382
6.25959 1348
6.2797 1360
6.29982 1383
6.31993 1300
6.34004 1300
6.36016 1193
6.38027 1133
6.40039 1174
6.4205 1136
6.44061 1094
6.46073 1059
6.48084 1106
6.50095 1022
6.52107 1065
6.54118 984
6.56129 1044
6.58141 997
6.60152 970
6.62164 921
6.64175 926
6.66186 951
6.68198 907
6.70209 886
6.7222 915
6.74232 875
6.76243 881
6.78255 826
6.80266 820
6.82277 794
6.84289 837
6.863 809
6.88311 789
6.90323 792
6.92334 818
6.94346 788
6.96357 787
6.98368 778
7.0038 687
7.02391 733
7.04402 639
7.06414 734
7.08425 805
7.10436 715
7.12448 722
7.14459 720
7.16471 711
7.18482 715
7.20493 703
7.22505 686
7.24516 701
7.26527 693
7.28539 679
7.3055 698
7.32562 653
7.34573 684
7.36584 682
7.38596 616
7.40607 635
7.42618 662
7.4463 644
7.46641 630
7.48653 698
7.50664 660
7.52675 624
7.54687 634
7.56698 612
7.58709 610
7.60721 603
7.62732 609
7.64743 564
7.66755 621
7.68766 586
7.70778 572
7.72789 624
7.748 628
7.76812 604
7.78823 567
7.80834 615
7.82846 615
7.84857 597
7.86869 597
7.8888 590
7.90891 632
7.92903 573
7.94914 584
7.96925 630
7.98937 600
8.00948 598
8.0296 549
8.04971 568
8.06982 570
8.08994 610
8.11005 582
8.13016 542
8.15028 599
8.17039 556
8.1905 585
8.21062 549
8.23073 556
8.25085 576
8.27096 537
8.29107 567
8.31119 621
8.3313 553
8.35141 531
8.37153 570
8.39164 560
8.41176 551
8.43187 532
8.45198 596
8.4721 553
8.49221 551
8.51232 553
8.53244 548
8.55255 491
8.57266 510
8.59278 507
8.61289 536
8.63301 548
8.65312 496
8.67323 559
8.69335 583
8.71346 536
8.73357 533
8.75369 514
8.7738 521
8.79392 570
8.81403 549
8.83414 546
8.85426 554
8.87437 563
8.89448 535
8.9146 552
8.93471 517
8.95483 540
8.97494 594
8.99505 520
9.01517 511
9.03528 506
9.05539 545
9.07551 477
9.09562 519
9.11573 550
9.13585 514
9.15596 528
9.17608 498
9.19619 527
9.2163 528
9.23642 522
9.25653 572
9.27664 536
9.29676 499
9.31687 474
9.33699 520
9.3571 488
9.37721 495
9.39733 497
9.41744 479
9.43755 503
9.45767 481
9.47778 494
9.4979 518
9.51801 515
9.53812 516
9.55824 495
9.57835 469
9.59846 521
9.61858 522
9.63869 539
9.6588 554
9.67892 493
9.69903 488
9.71915 500
9.73926 561
9.75937 538
9.77949 577
9.7996 609
9.81971 545
9.83983 582
9.85994 564
9.88006 546
9.90017 519
9.92028 487
9.9404 485
9.96051 533
9.98062 487
10.00074 512
10.02085 486
10.04097 489
10.06108 535
10.08119 510
10.10131 504
10.12142 539
10.14153 527
10.16165 537
10.18176 410
10.20187 491
10.22199 531
10.2421 497
10.26222 490
10.28233 565
10.30244 502
10.32256 487
10.34267 443
10.36278 481
10.3829 501
10.40301 465
10.42313 525
10.44324 495
10.46335 494
10.48347 503
10.50358 530
10.52369 501
10.54381 527
10.56392 499
10.58403 508
10.60415 497
10.62426 458
10.64438 456
10.66449 496
10.6846 472
10.70472 484
10.72483 510
10.74494 486
10.76506 495
10.78517 502
10.80529 507
10.8254 483
10.84551 491
10.86563 451
10.88574 497
10.90585 493
10.92597 496
10.94608 547
10.9662 529
10.98631 489
11.00642 525
11.02654 529
11.04665 513
11.06676 490
11.08688 528
11.10699 510
11.1271 471
11.14722 499
11.16733 515
11.18745 530
11.20756 500
11.22767 507
11.24779 526
11.2679 475
11.28801 513
11.30813 492
11.32824 530
11.34836 534
11.36847 505
11.38858 494
11.4087 481
11.42881 484
11.44892 464
11.46904 532
11.48915 479
11.50927 486
11.52938 540
11.54949 499
11.56961 482
11.58972 503
11.60983 491
11.62995 520
11.65006 516
11.67017 516
11.69029 544
11.7104 523
11.73052 541
11.75063 577
11.77074 513
11.79086 504
11.81097 510
11.83108 558
11.8512 528
11.87131 499
11.89143 519
11.91154 497
11.93165 534
11.95177 529
11.97188 544
11.99199 526
12.01211 524
12.03222 514
12.05234 510
12.07245 507
12.09256 535
12.11268 465
12.13279 581
12.1529 510
12.17302 491
12.19313 516
12.21324 523
12.23336 489
12.25347 511
12.27359 512
12.2937 490
12.31381 517
12.33393 514
12.35404 508
12.37415 491
12.39427 507
12.41438 534
12.4345 480
12.45461 491
12.47472 448
12.49484 483
12.51495 487
12.53506 491
12.55518 495
12.57529 483
12.5954 495
12.61552 533
12.63563 472
12.65575 443
12.67586 478
12.69597 455
12.71609 488
12.7362 497
12.75631 511
12.77643 464
12.79654 498
12.81666 485
12.83677 468
12.85688 446
12.877 481
12.89711 498
12.91722 461
12.93734 449
12.95745 518
12.97757 474
12.99768 450
13.01779 474
13.03791 513
13.05802 445
13.07813 472
13.09825 503
13.11836 453
13.13847 484
13.15859 442
13.1787 478
13.19882 477
13.21893 488
13.23904 484
13.25916 455
13.27927 479
13.29938 477
13.3195 475
13.33961 475
13.35973 483
13.37984 452
13.39995 469
13.42007 494
13.44018 483
13.46029 494
13.48041 457
13.50052 459
13.52064 479
13.54075 539
13.56086 518
13.58098 534
13.60109 477
13.6212 453
13.64132 507
13.66143 542
13.68154 551
13.70166 493
13.72177 529
13.74189 504
13.762 476
13.78211 461
13.80223 476
13.82234 484
13.84245 493
13.86257 500
13.88268 449
13.9028 453
13.92291 471
13.94302 475
13.96314 486
13.98325 447
14.00336 454
14.02348 463
14.04359 469
14.06371 438
14.08382 479
14.10393 462
14.12405 481
14.14416 416
14.16427 414
14.18439 451
14.2045 404
14.22461 434
14.24473 442
14.26484 464
14.28496 444
14.30507 414
14.32518 452
14.3453 475
14.36541 438
14.38552 438
14.40564 415
14.42575 463
14.44587 445
14.46598 457
14.48609 425
14.50621 420
14.52632 470
14.54643 459
14.56655 441
14.58666 457
14.60677 472
14.62689 467
14.647 424
14.66712 460
14.68723 484
14.70734 470
14.72746 473
14.74757 457
14.76768 480
14.7878 465
14.80791 468
14.82803 439
14.84814 419
14.86825 485
14.88837 466
14.90848 466
14.92859 442
14.94871 463
14.96882 461
14.98894 507
15.00905 479
15.02916 462
15.04928 440
15.06939 457
15.0895 459
15.10962 528
15.12973 439
15.14984 511
15.16996 452
15.19007 493
15.21019 512
15.2303 456
15.25041 465
15.27053 409
15.29064 453
15.31075 461
15.33087 464
15.35098 430
15.3711 413
15.39121 464
15.41132 423
15.43144 473
15.45155 413
15.47166 452
15.49178 451
15.51189 448
15.53201 481
15.55212 453
15.57223 452
15.59235 488
15.61246 465
15.63257 423
15.65269 440
15.6728 474
15.69291 420
15.71303 427
15.73314 483
15.75326 454
15.77337 477
15.79348 462
15.8136 447
15.83371 473
15.85382 452
15.87394 461
15.89405 448
15.91417 440
15.93428 428
15.95439 458
15.97451 458
15.99462 515
16.01473 411
16.03485 443
16.05496 439
16.07508 449
16.09519 438
16.1153 442
16.13542 457
16.15553 426
16.17564 412
16.19576 433
16.21587 481
16.23598 442
16.2561 452
16.27621 495
16.29633 466
16.31644 429
16.33655 462
16.35667 445
16.37678 430
16.39689 436
16.41701 457
16.43712 449
16.45724 469
16.47735 425
16.49746 448
16.51758 454
16.53769 461
16.5578 458
16.57792 475
16.59803 465
16.61814 444
16.63826 453
16.65837 492
16.67849 437
16.6986 494
16.71871 429
16.73883 461
16.75894 452
16.77905 475
16.79917 491
16.81928 471
16.8394 478
16.85951 503
16.87962 473
16.89974 435
16.91985 482
16.93996 436
16.96008 466
16.98019 478
17.00031 441
17.02042 458
17.04053 497
17.06065 487
17.08076 441
17.10087 478
17.12099 458
17.1411 457
17.16121 485
17.18133 450
17.20144 466
17.22156 458
17.24167 463
17.26178 484
17.2819 476
17.30201 476
17.32212 497
17.34224 475
17.36235 462
17.38247 460
17.40258 496
17.42269 430
17.44281 457
17.46292 488
17.48303 464
17.50315 483
17.52326 481
17.54338 471
17.56349 499
17.5836 476
17.60372 483
17.62383 444
17.64394 468
17.66406 508
17.68417 483
17.70428 479
17.7244 485
17.74451 475
17.76463 447
17.78474 473
17.80485 435
17.82497 480
17.84508 507
17.86519 466
17.88531 524
17.90542 493
17.92554 465
17.94565 484
17.96576 483
17.98588 432
18.00599 468
18.0261 448
18.04622 497
18.06633 475
18.08645 455
18.10656 473
18.12667 461
18.14679 485
18.1669 464
18.18701 490
18.20713 520
18.22724 511
18.24735 488
18.26747 412
18.28758 483
18.3077 456
18.32781 451
18.34792 499
18.36804 474
18.38815 438
18.40826 467
18.42838 459
18.44849 500
18.46861 495
18.48872 511
18.50883 455
18.52895 508
18.54906 491
18.56917 459
18.58929 492
18.6094 463
18.62951 476
18.64963 464
18.66974 460
18.68986 495
18.70997 487
18.73008 472
18.7502 498
18.77031 453
18.79042 500
18.81054 454
18.83065 489
18.85077 490
18.87088 539
18.89099 512
18.91111 497
18.93122 537
18.95133 525
18.97145 567
18.99156 537
19.01168 537
19.03179 532
19.0519 535
19.07202 549
19.09213 512
19.11224 496
19.13236 560
19.15247 589
19.17258 550
19.1927 547
19.21281 593
19.23293 581
19.25304 675
19.27315 638
19.29327 671
19.31338 678
19.33349 674
19.35361 653
19.37372 720
19.39384 750
19.41395 705
19.43406 722
19.45418 715
19.47429 702
19.4944 726
19.51452 763
19.53463 771
19.55475 737
19.57486 747
19.59497 755
19.61509 777
19.6352 731
19.65531 793
19.67543 762
19.69554 765
19.71565 792
19.73577 828
19.75588 785
19.776 874
19.79611 907
19.81622 858
19.83634 861
19.85645 816
19.87656 805
19.89668 880
19.91679 875
19.93691 832
19.95702 837
19.97713 809
19.99725 797
20.01736 795
20.03747 800
20.05759 753
20.0777 724
20.09782 766
20.11793 746
20.13804 754
20.15816 775
20.17827 787
20.19838 731
20.2185 734
20.23861 797
20.25872 749
20.27884 735
20.29895 698
20.31907 803
20.33918 738
20.35929 729
20.37941 696
20.39952 734
20.41963 714
20.43975 756
20.45986 705
20.47998 676
20.50009 632
20.5202 776
20.54032 687
20.56043 687
20.58054 646
20.60066 696
20.62077 710
20.64088 698
20.661 703
20.68111 694
20.70123 756
20.72134 701
20.74145 750
20.76157 810
20.78168 796
20.80179 784
20.82191 861
20.84202 793
20.86214 856
20.88225 821
20.90236 873
20.92248 788
20.94259 782
20.9627 695
20.98282 742
21.00293 678
21.02305 718
21.04316 653
21.06327 682
21.08339 688
21.1035 688
21.12361 656
21.14373 672
21.16384 653
21.18395 630
21.20407 614
21.22418 661
21.2443 658
21.26441 628
21.28452 666
21.30464 646
21.32475 605
21.34486 605
21.36498 670
21.38509 679
21.40521 702
21.42532 613
21.44543 639
21.46555 637
21.48566 628
21.50577 605
21.52589 611
21.546 695
21.56612 649
21.58623 620
21.60634 625
21.62646 603
21.64657 654
21.66668 622
21.6868 685
21.70691 639
21.72702 656
21.74714 659
21.76725 707
21.78737 740
21.80748 739
21.82759 780
21.84771 786
21.86782 881
21.88793 931
21.90805 953
21.92816 985
21.94828 967
21.96839 955
21.9885 820
22.00862 758
22.02873 694
22.04884 661
22.06896 612
22.08907 657
22.10919 647
22.1293 659
22.14941 655
22.16953 592
22.18964 601
22.20975 597
22.22987 647
22.24998 656
22.27009 695
22.29021 655
22.31032 657
22.33044 612
22.35055 653
22.37066 644
22.39078 640
22.41089 702
22.431 634
22.45112 655
22.47123 637
22.49135 682
22.51146 618
22.53157 671
22.55169 604
22.5718 650
22.59191 640
22.61203 656
22.63214 644
22.65225 638
22.67237 672
22.69248 717
22.7126 673
22.73271 657
22.75282 681
22.77294 670
22.79305 684
22.81316 694
22.83328 721
22.85339 623
22.87351 606
22.89362 641
22.91373 570
22.93385 626
22.95396 613
22.97407 635
22.99419 608
23.0143 608
23.03442 630
23.05453 616
23.07464 612
23.09476 595
23.11487 624
23.13498 600
23.1551 635
23.17521 619
23.19532 574
23.21544 582
23.23555 558
23.25567 586
23.27578 606
23.29589 646
23.31601 611
23.33612 661
23.35623 651
23.37635 724
23.39646 703
23.41658 716
23.43669 753
23.4568 755
23.47692 763
23.49703 741
23.51714 807
23.53726 801
23.55737 883
23.57749 866
23.5976 944
23.61771 924
23.63783 927
23.65794 910
23.67805 834
23.69817 796
23.71828 738
23.73839 707
23.75851 736
23.77862 764
23.79874 750
23.81885 747
23.83896 738
23.85908 743
23.87919 764
23.8993 723
23.91942 692
23.93953 705
23.95965 657
23.97976 741
23.99987 645
24.01999 677
24.0401 641
24.06021 646
24.08033 688
24.10044 651
24.12056 710
24.14067 659
24.16078 651
24.1809 708
24.20101 705
24.22112 676
24.24124 692
24.26135 725
24.28146 742
24.30158 779
24.32169 758
24.34181 794
24.36192 806
24.38203 815
24.40215 765
24.42226 719
24.44237 705
24.46249 706
24.4826 729
24.50272 659
24.52283 679
24.54294 657
24.56306 700
24.58317 652
24.60328 614
24.6234 603
24.64351 677
24.66362 632
24.68374 598
24.70385 613
24.72397 633
24.74408 599
24.76419 666
24.78431 637
24.80442 632
24.82453 608
24.84465 591
24.86476 601
24.88488 652
24.90499 622
24.9251 666
24.94522 645
24.96533 595
24.98544 670
25.00556 641
25.02567 629
25.04579 608
25.0659 611
25.08601 640
25.10613 611
25.12624 651
25.14635 631
25.16647 603
25.18658 557
25.20669 649
25.22681 575
25.24692 624
25.26704 638
25.28715 618
25.30726 617
25.32738 597
25.34749 573
25.3676 578
25.38772 587
25.40783 595
25.42795 625
25.44806 629
25.46817 638
25.48829 618
25.5084 627
25.52851 642
25.54863 631
25.56874 712
25.58886 708
25.60897 687
25.62908 668
25.6492 669
25.66931 633
25.68942 645
25.70954 615
25.72965 696
25.74976 655
25.76988 681
25.78999 680
25.81011 654
25.83022 633
25.85033 655
25.87045 623
25.89056 633
25.91067 658
25.93079 648
25.9509 661
25.97102 592
25.99113 577
26.01124 639
26.03136 612
26.05147 587
26.07158 563
26.0917 580
26.11181 612
26.13193 599
26.15204 654
26.17215 581
26.19227 559
26.21238 688
26.23249 657
26.25261 591
26.27272 596
26.29283 668
26.31295 638
26.33306 670
26.35318 676
26.37329 730
26.3934 736
26.41352 774
26.43363 746
26.45374 822
26.47386 762
26.49397 834
26.51409 904
26.5342 1070
26.55431 1151
26.57443 1212
26.59454 1278
26.61465 1210
26.63477 1118
26.65488 1067
26.67499 953
26.69511 956
26.71522 820
26.73534 830
26.75545 708
26.77556 760
26.79568 721
26.81579 719
26.8359 694
26.85602 719
26.87613 723
26.89625 720
26.91636 655
26.93647 641
26.95659 616
26.9767 649
26.99681 710
27.01693 682
27.03704 665
27.05716 699
27.07727 607
27.09738 662
27.1175 641
27.13761 624
27.15772 709
27.17784 636
27.19795 650
27.21806 636
27.23818 642
27.25829 691
27.27841 712
27.29852 662
27.31863 659
27.33875 675
27.35886 670
27.37897 729
27.39909 738
27.4192 800
27.43932 795
27.45943 776
27.47954 884
27.49966 926
27.51977 982
27.53988 1039
27.56 1016
27.58011 1066
27.60023 1108
27.62034 1104
27.64045 1144
27.66057 1150
27.68068 1223
27.70079 1334
27.72091 1299
27.74102 1313
27.76113 1268
27.78125 1215
27.80136 1076
27.82148 1080
27.84159 945
27.8617 948
27.88182 965
27.90193 940
27.92204 999
27.94216 1022
27.96227 1072
27.98239 1064
28.0025 1038
28.02261 985
28.04273 861
28.06284 803
28.08295 735
28.10307 685
28.12318 636
28.1433 633
28.16341 668
28.18352 636
28.20364 628
28.22375 613
28.24386 606
28.26398 644
28.28409 607
28.3042 661
28.32432 705
28.34443 746
28.36455 713
28.38466 721
28.40477 676
28.42489 704
28.445 679
28.46511 612
28.48523 608
28.50534 614
28.52546 541
28.54557 577
28.56568 564
28.5858 568
28.60591 536
28.62602 560
28.64614 537
28.66625 583
28.68636 519
28.70648 582
28.72659 542
28.74671 555
28.76682 556
28.78693 567
28.80705 515
28.82716 579
28.84727 568
28.86739 559
28.8875 562
28.90762 592
28.92773 555
28.94784 580
28.96796 580
28.98807 553
29.00818 569
29.0283 575
29.04841 572
29.06853 521
29.08864 575
29.10875 553
29.12887 536
29.14898 525
29.16909 547
29.18921 547
29.20932 547
29.22943 590
29.24955 539
29.26966 523
29.28978 557
29.30989 600
29.33 644
29.35012 598
29.37023 534
29.39034 614
29.41046 606
29.43057 672
29.45069 596
29.4708 669
29.49091 711
29.51103 667
29.53114 680
29.55125 723
29.57137 699
29.59148 717
29.6116 741
29.63171 751
29.65182 746
29.67194 790
29.69205 821
29.71216 809
29.73228 782
29.75239 815
29.7725 817
29.79262 725
29.81273 707
29.83285 685
29.85296 673
29.87307 644
29.89319 632
29.9133 657
29.93341 653
29.95353 674
29.97364 678
29.99376 627
30.01387 624
30.03398 597
30.0541 612
30.07421 626
30.09432 682
30.11444 682
30.13455 656
30.15467 703
30.17478 698
30.19489 692
30.21501 747
30.23512 765
30.25523 806
30.27535 738
30.29546 764
30.31557 742
30.33569 714
30.3558 767
30.37592 718
30.39603 688
30.41614 721
30.43626 728
30.45637 667
30.47648 657
30.4966 689
30.51671 666
30.53683 673
30.55694 670
30.57705 650
30.59717 646
30.61728 670
30.63739 690
30.65751 633
30.67762 669
30.69773 679
30.71785 707
30.73796 689
30.75808 602
30.77819 582
30.7983 626
30.81842 627
30.83853 603
30.85864 563
30.87876 549
30.89887 608
30.91899 511
30.9391 573
30.95921 522
30.97933 571
30.99944 551
31.01955 536
31.03967 558
31.05978 560
31.0799 559
31.10001 506
31.12012 574
31.14024 522
31.16035 546
31.18046 550
31.20058 555
31.22069 531
31.2408 561
31.26092 524
31.28103 537
31.30115 587
31.32126 548
31.34137 597
31.36149 583
31.3816 584
31.40171 599
31.42183 610
31.44194 570
31.46206 578
31.48217 547
31.50228 565
31.5224 525
31.54251 516
31.56262 568
31.58274 580
31.60285 530
31.62297 526
31.64308 516
31.66319 521
31.68331 551
31.70342 540
31.72353 572
31.74365 565
31.76376 600
31.78387 601
31.80399 563
31.8241 573
31.84422 605
31.86433 624
31.88444 611
31.90456 574
31.92467 597
31.94478 576
31.9649 600
31.98501 583
32.00513 511
32.02524 520
32.04535 517
32.06547 531
32.08558 562
32.10569 553
32.12581 551
32.14592 570
32.16604 469
32.18615 568
32.20626 548
32.22638 528
32.24649 540
32.2666 521
32.28672 548
32.30683 560
32.32694 541
32.34706 557
32.36717 573
32.38729 570
32.4074 541
32.42751 552
32.44763 576
32.46774 604
32.48785 625
32.50797 666
32.52808 663
32.5482 695
32.56831 732
32.58842 732
32.60854 822
32.62865 771
32.64876 797
32.66888 760
32.68899 704
32.7091 701
32.72922 688
32.74933 701
32.76945 639
32.78956 670
32.80967 595
32.82979 582
32.8499 552
32.87001 515
32.89013 537
32.91024 582
32.93036 547
32.95047 565
32.97058 570
32.9907 560
33.01081 536
33.03092 573
33.05104 580
33.07115 559
33.09127 519
33.11138 523
33.13149 535
33.15161 521
33.17172 533
33.19183 554
33.21195 520
33.23206 491
33.25217 549
33.27229 536
33.2924 516
33.31252 487
33.33263 505
33.35274 485
33.37286 485
33.39297 517
33.41308 537
33.4332 510
33.45331 510
33.47343 500
33.49354 530
33.51365 529
33.53377 562
33.55388 527
33.57399 513
33.59411 514
33.61422 530
33.63434 561
33.65445 534
33.67456 575
33.69468 539
33.71479 543
33.7349 551
33.75502 574
33.77513 606
33.79524 587
33.81536 545
33.83547 576
33.85559 545
33.8757 568
33.89581 618
33.91593 577
33.93604 556
33.95615 569
33.97627 553
33.99638 588
34.0165 588
34.03661 556
34.05672 554
34.07684 611
34.09695 591
34.11706 607
34.13718 635
34.15729 594
34.17741 595
34.19752 582
34.21763 634
34.23775 616
34.25786 648
34.27797 639
34.29809 632
34.3182 597
34.33831 660
34.35843 662
34.37854 620
34.39866 669
34.41877 684
34.43888 627
34.459 720
34.47911 649
34.49922 606
34.51934 707
34.53945 681
34.55957 652
34.57968 692
34.59979 724
34.61991 747
34.64002 687
34.66013 720
34.68025 806
34.70036 779
34.72047 755
34.74059 768
34.7607 781
34.78082 809
34.80093 821
34.82104 774
34.84116 819
34.86127 778
34.88138 748
34.9015 773
34.92161 755
34.94173 732
34.96184 726
34.98195 738
35.00207 744
35.02218 695
35.04229 720
35.06241 698
35.08252 810
35.10264 710
35.12275 711
35.14286 771
35.16298 779
35.18309 786
35.2032 784
35.22332 829
35.24343 839
35.26354 918
35.28366 910
35.30377 896
35.32389 874
35.344 914
35.36411 872
35.38423 913
35.40434 943
35.42445 974
35.44457 1007
35.46468 973
35.4848 1013
35.50491 1010
35.52502 1016
35.54514 1013
35.56525 977
35.58536 945
35.60548 923
35.62559 883
35.64571 893
35.66582 852
35.68593 839
35.70605 818
35.72616 880
35.74627 854
35.76639 786
35.7865 761
35.80661 728
35.82673 755
35.84684 782
35.86696 675
35.88707 717
35.90718 685
35.9273 652
35.94741 664
35.96752 663
35.98764 646
36.00775 646
36.02787 640
36.04798 655
36.06809 645
36.08821 654
36.10832 654
36.12843 633
36.14855 623
36.16866 623
36.18878 658
36.20889 643
36.229 627
36.24912 667
36.26923 607
36.28934 581
36.30946 612
36.32957 583
36.34968 640
36.3698 663
36.38991 657
36.41003 677
36.43014 681
36.45025 664
36.47037 668
36.49048 659
36.51059 672
36.53071 676
36.55082 608
36.57094 669
36.59105 644
36.61116 634
36.63128 646
36.65139 655
36.6715 636
36.69162 613
36.71173 639
36.73184 610
36.75196 638
36.77207 593
36.79219 560
36.8123 613
36.83241 658
36.85253 576
36.87264 607
36.89275 613
36.91287 590
36.93298 586
36.9531 601
36.97321 663
36.99332 638
37.01344 628
37.03355 623
37.05366 645
37.07378 649
37.09389 662
37.11401 690
37.13412 637
37.15423 630
37.17435 657
37.19446 624
37.21457 631
37.23469 585
37.2548 617
37.27491 608
37.29503 615
37.31514 561
37.33526 585
37.35537 594
37.37548 633
37.3956 633
37.41571 637
37.43582 604
37.45594 606
37.47605 662
37.49617 628
37.51628 590
37.53639 614
37.55651 622
37.57662 655
37.59673 592
37.61685 623
37.63696 583
37.65708 643
37.67719 666
37.6973 617
37.71742 632
37.73753 601
37.75764 587
37.77776 665
37.79787 616
37.81798 592
37.8381 616
37.85821 572
37.87833 583
37.89844 625
37.91855 628
37.93867 568
37.95878 582
37.97889 580
37.99901 539
38.01912 614
38.03924 589
38.05935 589
38.07946 567
38.09958 568
38.11969 554
38.1398 550
38.15992 576
38.18003 630
38.20015 577
38.22026 614
38.24037 565
38.26049 561
38.2806 565
38.30071 566
38.32083 566
38.34094 551
38.36105 536
38.38117 574
38.40128 561
38.4214 527
38.44151 567
38.46162 551
38.48174 599
38.50185 532
38.52196 534
38.54208 586
38.56219 580
38.58231 552
38.60242 573
38.62253 611
38.64265 525
38.66276 560
38.68287 543
38.70299 568
38.7231 549
38.74321 559
38.76333 566
38.78344 576
38.80356 541
38.82367 571
38.84378 525
38.8639 572
38.88401 545
38.90412 569
38.92424 588
38.94435 547
38.96447 589
38.98458 562
39.00469 555
39.02481 550
39.04492 579
39.06503 567
39.08515 510
39.10526 574
39.12538 569
39.14549 550
39.1656 544
39.18572 611
39.20583 584
39.22594 570
39.24606 621
39.26617 573
39.28628 600
39.3064 643
39.32651 612
39.34663 549
39.36674 589
39.38685 620
39.40697 602
39.42708 630
39.44719 622
39.46731 586
39.48742 572
39.50754 598
39.52765 589
39.54776 555
39.56788 552
39.58799 531
39.6081 509
39.62822 586
39.64833 542
39.66845 534
39.68856 599
39.70867 550
39.72879 534
39.7489 570
39.76901 580
39.78913 550
39.80924 535
39.82935 511
39.84947 546
39.86958 530
39.8897 513
39.90981 566
39.92992 572
39.95004 563
39.97015 545
39.99026 551
40.01038 529
40.03049 540
40.05061 562
40.07072 554
40.09083 556
40.11095 542
40.13106 589
40.15117 591
40.17129 526
40.1914 543
40.21152 542
40.23163 565
40.25174 566
40.27186 558
40.29197 622
40.31208 589
40.3322 608
40.35231 582
40.37242 615
40.39254 638
40.41265 587
40.43277 607
40.45288 612
40.47299 570
40.49311 590
40.51322 618
40.53333 570
40.55345 576
40.57356 570
40.59368 566
40.61379 589
40.6339 542
40.65402 589
40.67413 560
40.69424 553
40.71436 573
40.73447 552
40.75458 629
40.7747 555
40.79481 573
40.81493 565
40.83504 578
40.85515 568
40.87527 533
40.89538 556
40.91549 557
40.93561 546
40.95572 547
40.97584 558
40.99595 576
41.01606 541
41.03618 545
41.05629 572
41.0764 528
41.09652 538
41.11663 520
41.13675 549
41.15686 539
41.17697 555
41.19709 527
41.2172 551
41.23731 546
41.25743 558
41.27754 515
41.29765 514
41.31777 492
41.33788 519
41.358 535
41.37811 502
41.39822 467
41.41834 536
41.43845 515
41.45856 512
41.47868 506
41.49879 563
41.51891 504
41.53902 526
41.55913 536
41.57925 554
41.59936 543
41.61947 529
41.63959 559
41.6597 559
41.67982 562
41.69993 553
41.72004 550
41.74016 554
41.76027 581
41.78038 509
41.8005 534
41.82061 528
41.84072 554
41.86084 577
41.88095 518
41.90107 552
41.92118 527
41.94129 556
41.96141 579
41.98152 568
42.00163 525
42.02175 563
42.04186 549
42.06198 558
42.08209 594
42.1022 595
42.12232 568
42.14243 609
42.16254 596
42.18266 599
42.20277 606
42.22289 597
42.243 588
42.26311 592
42.28323 623
42.30334 586
42.32345 566
42.34357 567
42.36368 621
42.38379 617
42.40391 541
42.42402 630
42.44414 597
42.46425 566
42.48436 559
42.50448 537
42.52459 619
42.5447 589
42.56482 530
42.58493 540
42.60505 558
42.62516 542
42.64527 502
42.66539 518
42.6855 529
42.70561 536
42.72573 576
42.74584 538
42.76595 476
42.78607 502
42.80618 507
42.8263 533
42.84641 554
42.86652 555
42.88664 526
42.90675 541
42.92686 542
42.94698 565
42.96709 546
42.98721 523
43.00732 490
43.02743 541
43.04755 560
43.06766 558
43.08777 528
43.10789 502
43.128 523
43.14812 556
43.16823 518
43.18834 538
43.20846 536
43.22857 532
43.24868 523
43.2688 505
43.28891 494
43.30902 499
43.32914 571
43.34925 503
43.36937 481
43.38948 520
43.40959 520
43.42971 496
43.44982 509
43.46993 472
43.49005 494
43.51016 523
43.53028 439
43.55039 525
43.5705 465
43.59062 528
43.61073 522
43.63084 507
43.65096 507
43.67107 502
43.69119 537
43.7113 481
43.73141 495
43.75153 504
43.77164 501
43.79175 526
43.81187 477
43.83198 505
43.85209 497
43.87221 476
43.89232 510
43.91244 441
43.93255 509
43.95266 465
43.97278 490
43.99289 474
44.013 494
44.03312 484
44.05323 492
44.07335 486
44.09346 494
44.11357 492
44.13369 497
44.1538 494
44.17391 515
44.19403 486
44.21414 535
44.23426 512
44.25437 493
44.27448 508
44.2946 504
44.31471 446
44.33482 534
44.35494 529
44.37505 510
44.39516 517
44.41528 499
44.43539 503
44.45551 481
44.47562 464
44.49573 484
44.51585 512
44.53596 501
44.55607 508
44.57619 499
44.5963 537
44.61642 487
44.63653 501
44.65664 480
44.67676 489
44.69687 479
44.71698 505
44.7371 479
44.75721 544
44.77732 484
44.79744 551
44.81755 505
44.83767 499
44.85778 524
44.87789 522
44.89801 521
44.91812 539
44.93823 480
44.95835 475
44.97846 496
44.99858 522
45.01869 517
45.0388 508
45.05892 504
45.07903 498
45.09914 509
45.11926 502
45.13937 496
45.15949 470
45.1796 492
45.19971 478
45.21983 461
45.23994 523
45.26005 518
45.28017 482
45.30028 511
45.32039 515
45.34051 516
45.36062 511
45.38074 495
45.40085 544
45.42096 532
45.44108 505
45.46119 485
45.4813 520
45.50142 510
45.52153 528
45.54165 521
45.56176 455
45.58187 477
45.60199 471
45.6221 495
45.64221 482
45.66233 500
45.68244 482
45.70256 475
45.72267 507
45.74278 480
45.7629 445
45.78301 488
45.80312 484
45.82324 489
45.84335 522
45.86346 490
45.88358 538
45.90369 502
45.92381 522
45.94392 476
45.96403 513
45.98415 480
46.00426 508
46.02437 480
46.04449 503
46.0646 531
46.08472 482
46.10483 514
46.12494 475
46.14506 511
46.16517 473
46.18528 446
46.2054 459
46.22551 500
46.24563 469
46.26574 483
46.28585 477
46.30597 517
46.32608 489
46.34619 465
46.36631 473
46.38642 489
46.40653 486
46.42665 472
46.44676 459
46.46688 503
46.48699 532
46.5071 453
46.52722 484
46.54733 456
46.56744 430
46.58756 481
46.60767 520
46.62779 494
46.6479 518
46.66801 508
46.68813 476
46.70824 499
46.72835 490
46.74847 444
46.76858 474
46.78869 468
46.80881 475
46.82892 510
46.84904 516
46.86915 489
46.88926 495
46.90938 518
46.92949 494
46.9496 474
46.96972 528
46.98983 508
47.00995 489
47.03006 499
47.05017 491
47.07029 496
47.0904 522
47.11051 472
47.13063 496
47.15074 511
47.17086 522
47.19097 509
47.21108 491
47.2312 491
47.25131 464
47.27142 502
47.29154 457
47.31165 432
47.33176 490
47.35188 484
47.37199 482
47.39211 438
47.41222 462
47.43233 418
47.45245 493
47.47256 512
47.49267 438
47.51279 458
47.5329 495
47.55302 453
47.57313 486
47.59324 449
47.61336 468
47.63347 441
47.65358 484
47.6737 465
47.69381 514
47.71393 465
47.73404 453
47.75415 459
47.77427 445
47.79438 475
47.81449 464
47.83461 454
47.85472 441
47.87483 462
47.89495 447
47.91506 475
47.93518 477
47.95529 454
47.9754 492
47.99552 432
48.01563 477
48.03574 475
48.05586 417
48.07597 497
48.09609 500
48.1162 481
48.13631 501
48.15643 467
48.17654 457
48.19665 453
48.21677 486
48.23688 448
48.257 481
48.27711 469
48.29722 523
48.31734 488
48.33745 471
48.35756 460
48.37768 508
48.39779 482
48.4179 518
48.43802 468
48.45813 473
48.47825 489
48.49836 491
48.51847 492
48.53859 466
48.5587 500
48.57881 488
48.59893 457
48.61904 525
48.63916 470
48.65927 462
48.67938 485
48.6995 469
48.71961 500
48.73972 514
48.75984 539
48.77995 511
48.80006 550
48.82018 509
48.84029 537
48.86041 516
48.88052 530
48.90063 546
48.92075 538
48.94086 550
48.96097 551
48.98109 479
49.0012 540
49.02132 501
49.04143 534
49.06154 566
49.08166 525
49.10177 526
49.12188 524
49.142 497
49.16211 511
49.18223 531
49.20234 546
49.22245 545
49.24257 504
49.26268 501
49.28279 526
49.30291 483
49.32302 510
49.34313 513
49.36325 479
49.38336 509
49.40348 460
49.42359 469
49.4437 488
49.46382 496
49.48393 538
49.50404 481
49.52416 506
49.54427 475
49.56439 496
49.5845 549
49.60461 515
49.62473 509
49.64484 503
49.66495 531
49.68507 508
49.70518 491
49.7253 538
49.74541 492
49.76552 541
49.78564 529
49.80575 503
49.82586 493
49.84598 494
49.86609 510
49.8862 513
49.90632 507
49.92643 534
49.94655 526
49.96666 504
49.98677 537
50.00689 510
50.027 512
50.04711 537
50.06723 528
50.08734 543
50.10746 559
50.12757 493
50.14768 507
50.1678 488
50.18791 493
50.20802 511
50.22814 489
50.24825 493
50.26837 452
50.28848 448
50.30859 465
50.32871 456
50.34882 466
50.36893 478
50.38905 492
50.40916 458
50.42927 442
50.44939 463
50.4695 496
50.48962 487
50.50973 504
50.52984 497
50.54996 472
50.57007 451
50.59018 462
50.6103 505
50.63041 500
50.65053 520
50.67064 520
50.69075 549
50.71087 558
50.73098 512
50.75109 561
50.77121 514
50.79132 543
50.81143 483
50.83155 468
50.85166 484
50.87178 505
50.89189 489
50.912 481
50.93212 528
50.95223 492
50.97234 505
50.99246 485
51.01257 466
51.03269 476
51.0528 488
51.07291 476
51.09303 474
51.11314 486
51.13325 512
51.15337 468
51.17348 479
51.1936 502
51.21371 498
51.23382 518
51.25394 498
51.27405 505
51.29416 498
51.31428 489
51.33439 513
51.3545 549
51.37462 558
51.39473 511
51.41485 517
51.43496 514
51.45507 505
51.47519 505
51.4953 509
51.51541 506
51.53553 480
51.55564 482
51.57576 485
51.59587 474
51.61598 445
51.6361 481
51.65621 477
51.67632 456
51.69644 453
51.71655 461
51.73667 424
51.75678 495
51.77689 465
51.79701 431
51.81712 435
51.83723 467
51.85735 452
51.87746 458
51.89757 457
51.91769 467
51.9378 510
51.95792 484
51.97803 447
51.99814 461
52.01826 515
52.03837 487
52.05848 493
52.0786 512
52.09871 498
52.11883 493
52.13894 433
52.15905 481
52.17917 470
52.19928 485
52.21939 531
52.23951 518
52.25962 480
52.27974 479
52.29985 527
52.31996 440
52.34008 475
52.36019 538
52.3803 468
52.40042 427
52.42053 493
52.44064 467
52.46076 483
52.48087 462
52.50099 495
52.5211 488
52.54121 425
52.56133 483
52.58144 474
52.60155 506
52.62167 462
52.64178 480
52.6619 469
52.68201 498
52.70212 442
52.72224 508
52.74235 525
52.76246 517
52.78258 483
52.80269 507
52.8228 491
52.84292 484
52.86303 493
52.88315 510
52.90326 487
52.92337 491
52.94349 484
52.9636 510
52.98371 534
53.00383 498
53.02394 583
53.04406 542
53.06417 550
53.08428 548
53.1044 570
53.12451 630
53.14462 576
53.16474 581
53.18485 585
53.20497 612
53.22508 661
53.24519 580
53.26531 599
53.28542 568
53.30553 563
53.32565 596
53.34576 581
53.36587 589
53.38599 563
53.4061 553
53.42622 567
53.44633 585
53.46644 554
53.48656 522
53.50667 563
53.52678 581
53.5469 563
53.56701 569
53.58713 526
53.60724 511
53.62735 538
53.64747 530
53.66758 530
53.68769 531
53.70781 504
53.72792 498
53.74804 492
53.76815 546
53.78826 492
53.80838 501
53.82849 510
53.8486 516
53.86872 486
53.88883 506
53.90894 484
53.92906 492
53.94917 506
53.96929 554
53.9894 497
54.00951 544
54.02963 485
54.04974 507
54.06985 498
54.08997 469
54.11008 490
54.1302 489
54.15031 499
54.17042 497
54.19054 481
54.21065 507
54.23076 519
54.25088 527
54.27099 484
54.29111 530
54.31122 501
54.33133 542
54.35145 506
54.37156 504
54.39167 553
54.41179 481
54.4319 504
54.45201 515
54.47213 529
54.49224 501
54.51236 453
54.53247 491
54.55258 509
54.5727 513
54.59281 535
54.61292 508
54.63304 505
54.65315 513
54.67327 508
54.69338 542
54.71349 481
54.73361 545
54.75372 501
54.77383 504
54.79395 544
54.81406 523
54.83417 525
54.85429 505
54.8744 481
54.89452 496
54.91463 518
54.93474 517
54.95486 540
54.97497 527
54.99508 504
55.0152 503
55.03531 517
55.05543 525
55.07554 541
55.09565 501
55.11577 509
55.13588 461
55.15599 501
55.17611 462
55.19622 511
55.21634 524
55.23645 494
55.25656 497
55.27668 547
55.29679 465
55.3169 491
55.33702 523
55.35713 519
55.37724 512
55.39736 487
55.41747 468
55.43759 469
55.4577 450
55.47781 471
55.49793 462
55.51804 476
55.53815 511
55.55827 523
55.57838 498
55.5985 489
55.61861 477
55.63872 510
55.65884 489
55.67895 510
55.69906 484
55.71918 501
55.73929 489
55.75941 479
55.77952 471
55.79963 510
55.81975 442
55.83986 480
55.85997 493
55.88009 475
55.9002 477
55.92031 488
55.94043 488
55.96054 470
55.98066 496
56.00077 502
56.02088 478
56.041 476
56.06111 478
56.08122 460
56.10134 490
56.12145 510
56.14157 483
56.16168 476
56.18179 506
56.20191 589
56.22202 493
56.24213 528
56.26225 525
56.28236 482
56.30248 502
56.32259 537
56.3427 563
56.36282 515
56.38293 510
56.40304 535
56.42316 526
56.44327 522
56.46338 472
56.4835 532
56.50361 513
56.52373 500
56.54384 513
56.56395 502
56.58407 520
56.60418 464
56.62429 487
56.64441 488
56.66452 494
56.68464 523
56.70475 489
56.72486 518
56.74498 455
56.76509 418
56.7852 487
56.80532 458
56.82543 480
56.84554 478
56.86566 477
56.88577 488
56.90589 518
56.926 517
56.94611 498
56.96623 497
56.98634 497
57.00645 501
57.02657 474
57.04668 512
57.0668 476
57.08691 489
57.10702 444
57.12714 504
57.14725 500
57.16736 484
57.18748 511
57.20759 458
57.22771 542
57.24782 475
57.26793 459
57.28805 480
57.30816 499
57.32827 469
57.34839 478
57.3685 466
57.38861 447
57.40873 428
57.42884 465
57.44896 468
57.46907 461
57.48918 472
57.5093 486
57.52941 443
57.54952 458
57.56964 457
57.58975 446
57.60987 434
57.62998 489
57.65009 464
57.67021 456
57.69032 457
57.71043 458
57.73055 449
57.75066 465
57.77078 454
57.79089 457
57.811 436
57.83112 459
57.85123 454
57.87134 452
57.89146 494
57.91157 481
57.93168 469
57.9518 463
57.97191 454
57.99203 466
58.01214 464
58.03225 464
58.05237 433
58.07248 428
58.09259 470
58.11271 445
58.13282 459
58.15294 480
58.17305 444
58.19316 458
58.21328 471
58.23339 440
58.2535 458
58.27362 505
58.29373 406
58.31385 453
58.33396 443
58.35407 477
58.37419 455
58.3943 467
58.41441 470
58.43453 447
58.45464 444
58.47475 465
58.49487 460
58.51498 463
58.5351 453
58.55521 437
58.57532 436
58.59544 440
58.61555 453
58.63566 466
58.65578 439
58.67589 471
58.69601 455
58.71612 444
58.73623 454
58.75635 450
58.77646 406
58.79657 440
58.81669 448
58.8368 428
58.85691 488
58.87703 471
58.89714 459
58.91726 456
58.93737 443
58.95748 484
58.9776 437
58.99771 445
59.01782 482
59.03794 443
59.05805 447
59.07817 456
59.09828 447
59.11839 453
59.13851 411
59.15862 502
59.17873 430
59.19885 460
59.21896 471
59.23908 454
59.25919 438
59.2793 441
59.29942 476
59.31953 466
59.33964 426
59.35976 449
59.37987 450
59.39998 453
59.4201 440
59.44021 409
59.46033 480
59.48044 466
59.50055 442
59.52067 481
59.54078 490
59.56089 468
59.58101 481
59.60112 501
59.62124 458
59.64135 465
59.66146 452
59.68158 481
59.70169 452
59.7218 466
59.74192 493
59.76203 518
59.78215 485
59.80226 500
59.82237 552
59.84249 483
59.8626 494
59.88271 489
59.90283 534
59.92294 506
59.94305 499
59.96317 504
59.98328 517
60.0034 528
60.02351 495
60.04362 509
60.06374 528
60.08385 510
60.10396 528
60.12408 490
60.14419 527
60.16431 525
60.18442 570
60.20453 527
60.22465 561
60.24476 546
60.26487 551
60.28499 564
60.3051 533
60.32522 527
60.34533 514
60.36544 539
60.38556 564
60.40567 573
60.42578 560
60.4459 557
60.46601 513
60.48612 545
60.50624 500
60.52635 535
60.54647 548
60.56658 545
60.58669 570
60.60681 545
60.62692 539
60.64703 539
60.66715 487
60.68726 541
60.70738 549
60.72749 525
60.7476 512
60.76772 538
60.78783 514
60.80794 514
60.82806 540
60.84817 533
60.86828 554
60.8884 564
60.90851 515
60.92863 517
60.94874 499
60.96885 570
60.98897 526
61.00908 556
61.02919 532
61.04931 522
61.06942 556
61.08954 532
61.10965 509
61.12976 538
61.14988 514
61.16999 505
61.1901 527
61.21022 555
61.23033 514
61.25045 517
61.27056 514
61.29067 525
61.31079 534
61.3309 541
61.35101 515
61.37113 569
61.39124 542
61.41135 595
61.43147 543
61.45158 549
61.4717 510
61.49181 595
61.51192 511
61.53204 561
61.55215 578
61.57226 508
61.59238 596
61.61249 537
61.63261 524
61.65272 520
61.67283 546
61.69295 550
61.71306 576
61.73317 555
61.75329 552
61.7734 570
61.79352 533
61.81363 537
61.83374 548
61.85386 570
61.87397 519
61.89408 544
61.9142 538
61.93431 509
61.95442 550
61.97454 542
61.99465 559
62.01477 527
62.03488 533
62.05499 541
62.07511 550
62.09522 551
62.11533 507
62.13545 516
62.15556 549
62.17568 506
62.19579 525
62.2159 530
62.23602 593
62.25613 531
62.27624 507
62.29636 533
62.31647 535
62.33659 541
62.3567 548
62.37681 533
62.39693 536
62.41704 522
62.43715 542
62.45727 520
62.47738 565
62.49749 510
62.51761 501
62.53772 513
62.55784 539
62.57795 504
62.59806 511
62.61818 532
62.63829 524
62.6584 490
62.67852 496
62.69863 524
62.71875 519
62.73886 500
62.75897 499
62.77909 547
62.7992 517
62.81931 516
62.83943 473
62.85954 518
62.87965 500
62.89977 461
62.91988 435
62.94 510
62.96011 463
62.98022 496
63.00034 471
63.02045 472
63.04056 522
63.06068 471
63.08079 497
63.10091 487
63.12102 465
63.14113 438
63.16125 450
63.18136 480
63.20147 418
63.22159 503
63.2417 489
63.26182 457
63.28193 512
63.30204 549
63.32216 468
63.34227 512
63.36238 512
63.3825 495
63.40261 467
63.42272 471
63.44284 497
63.46295 492
63.48307 478
63.50318 512
63.52329 492
63.54341 487
63.56352 489
63.58363 478
63.60375 505
63.62386 486
63.64398 441
63.66409 505
63.6842 501
63.70432 521
63.72443 490
63.74454 492
63.76466 508
63.78477 465
63.80489 538
63.825 495
63.84511 457
63.86523 460
63.88534 493
63.90545 489
63.92557 473
63.94568 451
63.96579 479
63.98591 474
64.00602 467
64.02614 491
64.04625 440
64.06636 443
64.08648 484
64.10659 453
64.1267 441
64.14682 496
64.16693 475
64.18705 472
64.20716 471
64.22727 455
64.24739 420
64.2675 450
64.28761 408
64.30773 426
64.32784 416
64.34796 427
64.36807 445
64.38818 426
64.4083 416
64.42841 444
64.44852 442
64.46864 441
64.48875 424
64.50886 472
64.52898 468
64.54909 432
64.56921 408
64.58932 452
64.60943 440
64.62955 478
64.64966 435
64.66977 454
64.68989 424
64.71 435
64.73012 436
64.75023 439
64.77034 431
64.79046 472
64.81057 449
64.83068 435
64.8508 446
64.87091 427
64.89102 395
64.91114 410
64.93125 433
64.95137 408
64.97148 462
64.99159 458
65.01171 424
65.03182 444
65.05193 410
65.07205 407
65.09216 406
65.11228 433
65.13239 419
65.1525 450
65.17262 432
65.19273 418
65.21284 398
65.23296 401
65.25307 414
65.27319 456
65.2933 445
65.31341 388
65.33353 473
65.35364 457
65.37375 438
65.39387 428
65.41398 441
65.43409 462
65.45421 448
65.47432 420
65.49444 476
65.51455 441
65.53466 440
65.55478 476
65.57489 421
65.595 444
65.61512 456
65.63523 439
65.65535 447
65.67546 454
65.69557 467
65.71569 431
65.7358 390
65.75591 472
65.77603 450
65.79614 458
65.81626 461
65.83637 432
65.85648 450
65.8766 452
65.89671 441
65.91682 464
65.93694 431
65.95705 437
65.97716 434
65.99728 436
66.01739 437
66.03751 455
66.05762 428
66.07773 446
66.09785 448
66.11796 467
66.13807 453
66.15819 463
66.1783 458
66.19842 421
66.21853 443
66.23864 460
66.25876 442
66.27887 442
66.29898 447
66.3191 436
66.33921 438
66.35933 464
66.37944 423
66.39955 440
66.41967 451
66.43978 424
66.45989 461
66.48001 414
66.50012 391
66.52023 389
66.54035 436
66.56046 411
66.58058 441
66.60069 476
66.6208 398
66.64092 413
66.66103 436
66.68114 478
66.70126 415
66.72137 438
66.74149 409
66.7616 427
66.78171 445
66.80183 403
66.82194 427
66.84205 445
66.86217 441
66.88228 461
66.90239 438
66.92251 434
66.94262 453
66.96274 462
66.98285 402
67.00296 450
67.02308 431
67.04319 436
67.0633 418
67.08342 435
67.10353 426
67.12365 419
67.14376 458
67.16387 384
67.18399 439
67.2041 456
67.22421 455
67.24433 489
67.26444 427
67.28456 419
67.30467 449
67.32478 409
67.3449 432
67.36501 452
67.38512 391
67.40524 425
67.42535 433
67.44546 442
67.46558 421
67.48569 433
67.50581 419
67.52592 455
67.54603 468
67.56615 417
67.58626 427
67.60637 483
67.62649 450
67.6466 475
67.66672 447
67.68683 492
67.70694 461
67.72706 448
67.74717 494
67.76728 444
67.7874 456
67.80751 434
67.82763 426
67.84774 447
67.86785 444
67.88797 460
67.90808 453
67.92819 470
67.94831 434
67.96842 467
67.98853 441
68.00865 469
68.02876 467
68.04888 427
68.06899 453
68.0891 497
68.10922 443
68.12933 450
68.14944 462
68.16956 488
68.18967 491
68.20979 430
68.2299 440
68.25001 438
68.27013 482
68.29024 478
68.31035 441
68.33047 473
68.35058 424
68.3707 479
68.39081 438
68.41092 436
68.43104 426
68.45115 414
68.47126 461
68.49138 427
68.51149 434
68.5316 415
68.55172 452
68.57183 399
68.59195 381
68.61206 444
68.63217 406
68.65229 415
68.6724 448
68.69251 448
68.71263 419
68.73274 397
68.75286 421
68.77297 418
68.79308 438
68.8132 451
68.83331 412
68.85342 400
68.87354 464
68.89365 474
68.91376 447
68.93388 431
68.95399 473
68.97411 456
68.99422 421
69.01433 441
69.03445 403
69.05456 406
69.07467 425
69.09479 407
69.1149 422
69.13502 421
69.15513 462
69.17524 423
69.19536 408
69.21547 432
69.23558 421
69.2557 402
69.27581 404
69.29593 445
69.31604 485
69.33615 428
69.35627 429
69.37638 480
69.39649 426
69.41661 437
69.43672 462
69.45683 399
69.47695 465
69.49706 462
69.51718 412
69.53729 398
69.5574 456
69.57752 450
69.59763 450
69.61774 411
69.63786 432
69.65797 455
69.67809 464
69.6982 436
69.71831 380
69.73843 444
69.75854 408
69.77865 410
69.79877 443
69.81888 427
69.839 404
69.85911 412
69.87922 374
69.89934 434
69.91945 420
69.93956 410
69.95968 418
69.97979 406
69.9999 405
70.02002 402
70.04013 424
70.06025 436
70.08036 401
70.10047 441
70.12059 430
70.1407 419
70.16081 423
70.18093 414
70.20104 413
70.22116 429
70.24127 414
70.26138 414
70.2815 461
70.30161 454
70.32172 467
70.34184 415
70.36195 411
70.38207 497
70.40218 452
70.42229 445
70.44241 428
70.46252 420
70.48263 417
70.50275 425
70.52286 465
70.54297 454
70.56309 397
70.5832 478
70.60332 413
70.62343 430
70.64354 414
70.66366 419
70.68377 429
70.70388 437
70.724 389
70.74411 452
70.76423 436
70.78434 445
70.80445 445
70.82457 443
70.84468 435
70.86479 415
70.88491 394
70.90502 445
70.92513 431
70.94525 412
70.96536 418
70.98548 424
71.00559 456
71.0257 444
71.04582 442
71.06593 391
71.08604 458
71.10616 405
71.12627 446
71.14639 417
71.1665 409
71.18661 446
71.20673 454
71.22684 442
71.24695 426
71.26707 468
71.28718 424
71.3073 444
71.32741 405
71.34752 429
71.36764 458
71.38775 427
71.40786 483
71.42798 457
71.44809 443
71.4682 427
71.48832 419
71.50843 434
71.52855 430
71.54866 437
71.56877 431
71.58889 440
71.609 404
71.62911 425
71.64923 430
71.66934 434
71.68946 420
71.70957 397
71.72968 422
71.7498 404
71.76991 437
71.79002 430
71.81014 403
71.83025 401
71.85037 456
71.87048 428
71.89059 459
71.91071 478
71.93082 461
71.95093 443
71.97105 423
71.99116 429
72.01127 473
72.03139 440
72.0515 407
72.07162 436
72.09173 444
72.11184 442
72.13196 455
72.15207 435
72.17218 455
72.1923 440
72.21241 410
72.23253 437
72.25264 406
72.27275 440
72.29287 427
72.31298 419
72.33309 449
72.35321 438
72.37332 441
72.39344 452
72.41355 413
72.43366 446
72.45378 392
72.47389 400
72.494 390
72.51412 455
72.53423 397
72.55434 465
72.57446 445
72.59457 448
72.61469 423
72.6348 435
72.65491 405
72.67503 391
72.69514 431
72.71525 443
72.73537 405
72.75548 425
72.7756 439
72.79571 393
72.81582 417
72.83594 441
72.85605 437
72.87616 424
72.89628 427
72.91639 430
72.9365 450
72.95662 429
72.97673 431
72.99685 430
73.01696 441
73.03707 462
73.05719 442
73.0773 429
73.09741 444
73.11753 436
73.13764 426
73.15776 433
73.17787 418
73.19798 419
73.2181 498
73.23821 455
73.25832 474
73.27844 444
73.29855 447
73.31867 431
73.33878 450
73.35889 480
73.37901 405
73.39912 432
73.41923 437
73.43935 425
73.45946 411
73.47957 453
73.49969 405
73.5198 405
73.53992 417
73.56003 446
73.58014 462
73.60026 424
73.62037 460
73.64048 389
73.6606 451
73.68071 411
73.70083 403
73.72094 466
73.74105 456
73.76117 436
73.78128 409
73.80139 412
73.82151 452
73.84162 439
73.86174 414
73.88185 436
73.90196 450
73.92208 420
73.94219 443
73.9623 421
73.98242 425
74.00253 424
74.02264 408
74.04276 421
74.06287 454
74.08299 436
74.1031 397
74.12321 392
74.14333 436
74.16344 448
74.18355 431
74.20367 419
74.22378 405
74.2439 426
74.26401 426
74.28412 423
74.30424 419
74.32435 420
74.34446 450
74.36458 422
74.38469 418
74.40481 428
74.42492 423
74.44503 434
74.46515 423
74.48526 416
74.50537 411
74.52549 411
74.5456 441
74.56571 423
74.58583 414
74.60594 449
74.62606 425
74.64617 476
74.66628 417
74.6864 423
74.70651 438
74.72662 454
74.74674 431
74.76685 419
74.78697 443
74.80708 418
74.82719 434
74.84731 409
74.86742 412
74.88753 437
74.90765 412
74.92776 358
74.94787 428
74.96799 467
74.9881 370
75.00822 412
