3.00117 19481
3.02128 19056
3.0414 18653
3.06151 17617
3.08162 17550
3.10174 16967
3.12185 16421
3.14197 16223
3.16208 15548
3.18219 15222
3.20231 14723
3.22242 14071
3.24253 14083
3.26265 13336
3.28276 12966
3.30288 12481
3.32299 12074
3.3431 11846
3.36322 11190
3.38333 11047
3.40344 10528
3.42356 10198
3.44367 9864
3.46379 9557
3.4839 9203
3.50401 9056
3.52413 8622
3.54424 8336
3.56435 7928
3.58447 7591
3.60458 7371
3.62469 7225
3.64481 6869
3.66492 6478
3.68504 6308
3.70515 6205
3.72526 5679
3.74538 5562
3.76549 5352
3.7856 5197
3.80572 4900
3.82583 4715
3.84595 4627
3.86606 4407
3.88617 4254
3.90629 4145
3.9264 3699
3.94651 3575
3.96663 3268
3.98674 3373
4.00686 3233
4.02697 2935
4.04708 3035
4.0672 2724
4.08731 2632
4.10742 2703
4.12754 2419
4.14765 2340
4.16776 2234
4.18788 2136
4.20799 2232
4.22811 2024
4.24822 1948
4.26833 1803
4.28845 1873
4.30856 1813
4.32867 1647
4.34879 1569
4.3689 1584
4.38902 1523
4.40913 1530
4.42924 1367
4.44936 1364
4.46947 1346
4.48958 1332
4.5097 1314
4.52981 1230
4.54992 1282
4.57004 1172
4.59015 1234
4.61027 1298
4.63038 1128
4.65049 1184
4.67061 1082
4.69072 1087
4.71083 1119
4.73095 936
4.75106 980
4.77118 1017
4.79129 998
4.8114 1022
4.83152 843
4.85163 828
4.87174 832
4.89186 862
4.91197 841
4.93209 774
4.9522 755
4.97231 747
4.99243 739
5.01254 717
5.03265 686
5.05277 661
5.07288 720
5.09299 667
5.11311 665
5.13322 637
5.15334 639
5.17345 598
5.19356 581
5.21368 611
5.23379 509
5.2539 522
5.27402 551
5.29413 504
5.31425 551
5.33436 487
5.35447 527
5.37459 473
5.3947 509
5.41481 489
5.43493 455
5.45504 460
5.47516 446
5.49527 475
5.51538 389
5.5355 449
5.55561 420
5.57572 408
5.59584 399
5.61595 394
5.63606 391
5.65618 375
5.67629 373
5.69641 390
5.71652 352
5.73663 331
5.75675 363
5.77686 370
5.79697 337
5.81709 322
5.8372 305
5.85732 322
5.87743 310
5.89754 295
5.91766 268
5.93777 318
5.95788 282
5.978 343
5.99811 305
6.01823 292
6.03834 298
6.05845 330
6.07857 314
6.09868 265
6.11879 256
6.13891 285
6.15902 260
6.17913 315
6.19925 300
6.21936 267
6.23948 275
6.25959 272
6.2797 268
6.29982 279
6.31993 276
6.34004 266
6.36016 282
6.38027 265
6.40039 271
6.4205 282
6.44061 265
6.46073 237
6.48084 253
6.50095 260
6.52107 256
6.54118 260
6.56129 257
6.58141 258
6.60152 238
6.62164 272
6.64175 275
6.66186 275
6.68198 256
6.70209 274
6.7222 272
6.74232 242
6.76243 261
6.78255 265
6.80266 247
6.82277 270
6.84289 258
6.863 234
6.88311 233
6.90323 243
6.92334 271
6.94346 247
6.96357 226
6.98368 238
7.0038 264
7.02391 229
7.04402 292
7.06414 282
7.08425 277
7.10436 241
7.12448 287
7.14459 267
7.16471 242
7.18482 268
7.20493 262
7.22505 271
7.24516 253
7.26527 286
7.28539 235
7.3055 224
7.32562 261
7.34573 298
7.36584 253
7.38596 265
7.40607 240
7.42618 291
7.4463 271
7.46641 288
7.48653 292
7.50664 245
7.52675 264
7.54687 226
7.56698 286
7.58709 279
7.60721 232
7.62732 290
7.64743 249
7.66755 250
7.68766 280
7.70778 254
7.72789 264
7.748 227
7.76812 238
7.78823 259
7.80834 272
7.82846 285
7.84857 256
7.86869 277
7.8888 255
7.90891 268
7.92903 256
7.94914 235
7.96925 257
7.98937 248
8.00948 286
8.0296 269
8.04971 257
8.06982 293
8.08994 252
8.11005 253
8.13016 298
8.15028 230
8.17039 275
8.1905 262
8.21062 223
8.23073 262
8.25085 261
8.27096 264
8.29107 267
8.31119 285
8.3313 297
8.35141 298
8.37153 281
8.39164 273
8.41176 240
8.43187 293
8.45198 282
8.4721 270
8.49221 288
8.51232 273
8.53244 278
8.55255 300
8.57266 300
8.59278 262
8.61289 259
8.63301 261
8.65312 273
8.67323 299
8.69335 276
8.71346 258
8.73357 263
8.75369 247
8.7738 264
8.79392 280
8.81403 271
8.83414 306
8.85426 250
8.87437 293
8.89448 297
8.9146 248
8.93471 277
8.95483 286
8.97494 267
8.99505 307
9.01517 300
9.03528 285
9.05539 294
9.07551 288
9.09562 261
9.11573 235
9.13585 266
9.15596 290
9.17608 266
9.19619 263
9.2163 280
9.23642 283
9.25653 273
9.27664 287
9.29676 285
9.31687 287
9.33699 286
9.3571 245
9.37721 263
9.39733 235
9.41744 252
9.43755 238
9.45767 249
9.47778 253
9.4979 266
9.51801 284
9.53812 266
9.55824 279
9.57835 255
9.59846 282
9.61858 302
9.63869 280
9.6588 270
9.67892 310
9.69903 270
9.71915 266
9.73926 297
9.75937 265
9.77949 257
9.7996 283
9.81971 252
9.83983 270
9.85994 287
9.88006 270
9.90017 254
9.92028 274
9.9404 277
9.96051 308
9.98062 278
10.00074 274
10.02085 279
10.04097 288
10.06108 289
10.08119 300
10.10131 261
10.12142 251
10.14153 278
10.16165 310
10.18176 297
10.20187 280
10.22199 262
10.2421 259
10.26222 283
10.28233 289
10.30244 250
10.32256 266
10.34267 285
10.36278 281
10.3829 292
10.40301 275
10.42313 253
10.44324 275
10.46335 279
10.48347 282
10.50358 253
10.52369 308
10.54381 300
10.56392 264
10.58403 266
10.60415 296
10.62426 335
10.64438 249
10.66449 265
10.6846 296
10.70472 264
10.72483 277
10.74494 289
10.76506 261
10.78517 281
10.80529 273
10.8254 280
10.84551 280
10.86563 307
10.88574 283
10.90585 254
10.92597 275
10.94608 269
10.9662 275
10.98631 282
11.00642 277
11.02654 289
11.04665 258
11.06676 315
11.08688 302
11.10699 278
11.1271 296
11.14722 290
11.16733 258
11.18745 247
11.20756 293
11.22767 284
11.24779 278
11.2679 250
11.28801 304
11.30813 310
11.32824 260
11.34836 297
11.36847 277
11.38858 274
11.4087 262
11.42881 334
11.44892 318
11.46904 296
11.48915 331
11.50927 307
11.52938 282
11.54949 273
11.56961 282
11.58972 308
11.60983 333
11.62995 267
11.65006 274
11.67017 318
11.69029 335
11.7104 322
11.73052 326
11.75063 310
11.77074 303
11.79086 311
11.81097 316
11.83108 327
11.8512 330
11.87131 345
11.89143 300
11.91154 388
11.93165 314
11.95177 324
11.97188 423
11.99199 389
12.01211 386
12.03222 428
12.05234 388
12.07245 427
12.09256 478
12.11268 544
12.13279 498
12.1529 539
12.17302 581
12.19313 631
12.21324 615
12.23336 710
12.25347 659
12.27359 737
12.2937 797
12.31381 786
12.33393 784
12.35404 722
12.37415 738
12.39427 616
12.41438 624
12.4345 551
12.45461 539
12.47472 478
12.49484 415
12.51495 436
12.53506 398
12.55518 383
12.57529 389
12.5954 333
12.61552 363
12.63563 361
12.65575 310
12.67586 306
12.69597 340
12.71609 289
12.7362 297
12.75631 306
12.77643 310
12.79654 274
12.81666 285
12.83677 266
12.85688 270
12.877 266
12.89711 255
12.91722 305
12.93734 307
12.95745 307
12.97757 293
12.99768 259
13.01779 288
13.03791 311
13.05802 255
13.07813 270
13.09825 266
13.11836 312
13.13847 314
13.15859 298
13.1787 261
13.19882 287
13.21893 285
13.23904 238
13.25916 269
13.27927 260
13.29938 256
13.3195 281
13.33961 265
13.35973 251
13.37984 263
13.39995 252
13.42007 242
13.44018 245
13.46029 243
13.48041 262
13.50052 274
13.52064 231
13.54075 218
13.56086 250
13.58098 243
13.60109 252
13.6212 246
13.64132 238
13.66143 289
13.68154 251
13.70166 251
13.72177 255
13.74189 224
13.762 246
13.78211 288
13.80223 257
13.82234 256
13.84245 240
13.86257 272
13.88268 232
13.9028 271
13.92291 258
13.94302 242
13.96314 242
13.98325 235
14.00336 232
14.02348 210
14.04359 250
14.06371 221
14.08382 266
14.10393 216
14.12405 244
14.14416 244
14.16427 229
14.18439 281
14.2045 244
14.22461 243
14.24473 213
14.26484 220
14.28496 241
14.30507 215
14.32518 234
14.3453 273
14.36541 220
14.38552 248
14.40564 231
14.42575 231
14.44587 241
14.46598 256
14.48609 230
14.50621 256
14.52632 221
14.54643 247
14.56655 233
14.58666 245
14.60677 253
14.62689 211
14.647 245
14.66712 225
14.68723 224
14.70734 267
14.72746 253
14.74757 249
14.76768 248
14.7878 231
14.80791 242
14.82803 225
14.84814 231
14.86825 231
14.88837 228
14.90848 248
14.92859 217
14.94871 227
14.96882 218
14.98894 251
15.00905 266
15.02916 236
15.04928 256
15.06939 221
15.0895 261
15.10962 215
15.12973 234
15.14984 238
15.16996 262
15.19007 200
15.21019 247
15.2303 248
15.25041 215
15.27053 271
15.29064 242
15.31075 229
15.33087 221
15.35098 193
15.3711 214
15.39121 228
15.41132 216
15.43144 224
15.45155 219
15.47166 250
15.49178 213
15.51189 238
15.53201 222
15.55212 222
15.57223 212
15.59235 261
15.61246 209
15.63257 235
15.65269 253
15.6728 216
15.69291 222
15.71303 195
15.73314 246
15.75326 245
15.77337 249
15.79348 215
15.8136 213
15.83371 251
15.85382 237
15.87394 212
15.89405 203
15.91417 250
15.93428 200
15.95439 223
15.97451 219
15.99462 206
16.01473 258
16.03485 221
16.05496 241
16.07508 255
16.09519 235
16.1153 203
16.13542 225
16.15553 220
16.17564 232
16.19576 219
16.21587 239
16.23598 232
16.2561 237
16.27621 219
16.29633 214
16.31644 220
16.33655 186
16.35667 231
16.37678 224
16.39689 231
16.41701 243
16.43712 222
16.45724 229
16.47735 233
16.49746 236
16.51758 219
16.53769 232
16.5578 211
16.57792 221
16.59803 245
16.61814 256
16.63826 237
16.65837 240
16.67849 204
16.6986 245
16.71871 196
16.73883 248
16.75894 168
16.77905 226
16.79917 218
16.81928 195
16.8394 181
16.85951 206
16.87962 230
16.89974 226
16.91985 240
16.93996 222
16.96008 234
16.98019 202
17.00031 226
17.02042 238
17.04053 244
17.06065 211
17.08076 231
17.10087 200
17.12099 205
17.1411 222
17.16121 232
17.18133 234
17.20144 222
17.22156 229
17.24167 213
17.26178 234
17.2819 216
17.30201 205
17.32212 219
17.34224 216
17.36235 211
17.38247 237
17.40258 210
17.42269 211
17.44281 219
17.46292 227
17.48303 249
17.50315 216
17.52326 222
17.54338 240
17.56349 202
17.5836 238
17.60372 220
17.62383 201
17.64394 216
17.66406 213
17.68417 263
17.70428 239
17.7244 225
17.74451 226
17.76463 227
17.78474 248
17.80485 216
17.82497 217
17.84508 212
17.86519 223
17.88531 233
17.90542 207
17.92554 206
17.94565 221
17.96576 221
17.98588 223
18.00599 221
18.0261 233
18.04622 196
18.06633 281
18.08645 197
18.10656 198
18.12667 217
18.14679 194
18.1669 202
18.18701 220
18.20713 209
18.22724 216
18.24735 227
18.26747 207
18.28758 205
18.3077 222
18.32781 198
18.34792 223
18.36804 215
18.38815 207
18.40826 214
18.42838 223
18.44849 200
18.46861 230
18.48872 201
18.50883 234
18.52895 198
18.54906 229
18.56917 235
18.58929 219
18.6094 229
18.62951 216
18.64963 248
18.66974 250
18.68986 222
18.70997 214
18.73008 228
18.7502 196
18.77031 227
18.79042 225
18.81054 209
18.83065 228
18.85077 226
18.87088 206
18.89099 198
18.91111 222
18.93122 218
18.95133 228
18.97145 220
18.99156 202
19.01168 245
19.03179 213
19.0519 208
19.07202 218
19.09213 253
19.11224 223
19.13236 207
19.15247 213
19.17258 240
19.1927 231
19.21281 224
19.23293 222
19.25304 225
19.27315 237
19.29327 241
19.31338 243
19.33349 250
19.35361 215
19.37372 269
19.39384 241
19.41395 230
19.43406 253
19.45418 237
19.47429 223
19.4944 257
19.51452 268
19.53463 264
19.55475 259
19.57486 275
19.59497 276
19.61509 278
19.6352 286
19.65531 293
19.67543 290
19.69554 341
19.71565 343
19.73577 400
19.75588 426
19.776 480
19.79611 463
19.81622 528
19.83634 544
19.85645 580
19.87656 615
19.89668 548
19.91679 608
19.93691 551
19.95702 523
19.97713 574
19.99725 545
20.01736 514
20.03747 501
20.05759 550
20.0777 535
20.09782 530
20.11793 521
20.13804 509
20.15816 531
20.17827 519
20.19838 522
20.2185 528
20.23861 514
20.25872 491
20.27884 512
20.29895 521
20.31907 496
20.33918 530
20.35929 544
20.37941 509
20.39952 550
20.41963 552
20.43975 534
20.45986 545
20.47998 530
20.50009 619
20.5202 613
20.54032 547
20.56043 624
20.58054 662
20.60066 632
20.62077 708
20.64088 784
20.661 836
20.68111 1044
20.70123 1319
20.72134 1847
20.74145 2582
20.76157 3501
20.78168 4623
20.80179 5874
20.82191 6512
20.84202 6532
20.86214 5894
20.88225 4406
20.90236 3239
20.92248 2171
20.94259 1437
20.9627 967
20.98282 768
21.00293 703
21.02305 669
21.04316 641
21.06327 630
21.08339 612
21.1035 582
21.12361 546
21.14373 552
21.16384 514
21.18395 545
21.20407 535
21.22418 498
21.2443 507
21.26441 524
21.28452 520
21.30464 532
21.32475 498
21.34486 507
21.36498 524
21.38509 473
21.40521 479
21.42532 486
21.44543 473
21.46555 466
21.48566 422
21.50577 445
21.52589 429
21.546 403
21.56612 409
21.58623 409
21.60634 436
21.62646 410
21.64657 372
21.66668 412
21.6868 370
21.70691 424
21.72702 423
21.74714 370
21.76725 370
21.78737 425
21.80748 408
21.82759 311
21.84771 413
21.86782 345
21.88793 380
21.90805 370
21.92816 349
21.94828 370
21.96839 372
21.9885 362
22.00862 338
22.02873 375
22.04884 349
22.06896 340
22.08907 365
22.10919 356
22.1293 349
22.14941 356
22.16953 347
22.18964 329
22.20975 366
22.22987 347
22.24998 376
22.27009 358
22.29021 335
22.31032 367
22.33044 338
22.35055 290
22.37066 322
22.39078 347
22.41089 317
22.431 385
22.45112 320
22.47123 333
22.49135 325
22.51146 317
22.53157 288
22.55169 341
22.5718 321
22.59191 324
22.61203 303
22.63214 293
22.65225 310
22.67237 322
22.69248 352
22.7126 355
22.73271 338
22.75282 328
22.77294 289
22.79305 330
22.81316 324
22.83328 286
22.85339 346
22.87351 334
22.89362 334
22.91373 317
22.93385 317
22.95396 285
22.97407 310
22.99419 289
23.0143 312
23.03442 338
23.05453 289
23.07464 298
23.09476 328
23.11487 312
23.13498 323
23.1551 310
23.17521 312
23.19532 292
23.21544 321
23.23555 301
23.25567 313
23.27578 279
23.29589 287
23.31601 294
23.33612 269
23.35623 295
23.37635 296
23.39646 310
23.41658 308
23.43669 303
23.4568 317
23.47692 283
23.49703 309
23.51714 297
23.53726 316
23.55737 302
23.57749 325
23.5976 359
23.61771 300
23.63783 301
23.65794 274
23.67805 328
23.69817 346
23.71828 301
23.73839 329
23.75851 314
23.77862 312
23.79874 297
23.81885 323
23.83896 325
23.85908 320
23.87919 351
23.8993 364
23.91942 381
23.93953 349
23.95965 400
23.97976 375
23.99987 411
24.01999 386
24.0401 353
24.06021 339
24.08033 340
24.10044 345
24.12056 354
24.14067 349
24.16078 340
24.1809 368
24.20101 353
24.22112 328
24.24124 353
24.26135 347
24.28146 323
24.30158 349
24.32169 324
24.34181 350
24.36192 320
24.38203 341
24.40215 363
24.42226 341
24.44237 350
24.46249 363
24.4826 353
24.50272 400
24.52283 358
24.54294 408
24.56306 417
24.58317 418
24.60328 426
24.6234 455
24.64351 478
24.66362 448
24.68374 517
24.70385 543
24.72397 577
24.74408 588
24.76419 646
24.78431 653
24.80442 624
24.82453 663
24.84465 600
24.86476 612
24.88488 629
24.90499 613
24.9251 579
24.94522 574
24.96533 473
24.98544 468
25.00556 465
25.02567 421
25.04579 452
25.0659 392
25.08601 408
25.10613 412
25.12624 418
25.14635 405
25.16647 410
25.18658 422
25.20669 486
25.22681 428
25.24692 395
25.26704 467
25.28715 404
25.30726 400
25.32738 388
25.34749 364
25.3676 367
25.38772 350
25.40783 341
25.42795 360
25.44806 350
25.46817 365
25.48829 334
25.5084 379
25.52851 395
25.54863 346
25.56874 381
25.58886 381
25.60897 367
25.62908 388
25.6492 387
25.66931 408
25.68942 442
25.70954 461
25.72965 482
25.74976 466
25.76988 439
25.78999 449
25.81011 451
25.83022 520
25.85033 470
25.87045 491
25.89056 503
25.91067 489
25.93079 499
25.9509 481
25.97102 510
25.99113 528
26.01124 512
26.03136 536
26.05147 560
26.07158 567
26.0917 546
26.11181 610
26.13193 679
26.15204 744
26.17215 718
26.19227 778
26.21238 782
26.23249 868
26.25261 914
26.27272 951
26.29283 1042
26.31295 1041
26.33306 1211
26.35318 1304
26.37329 1491
26.3934 1765
26.41352 2146
26.43363 2827
26.45374 3766
26.47386 5228
26.49397 7494
26.51409 10842
26.5342 15083
26.55431 20084
26.57443 25752
26.59454 29788
26.61465 30883
26.63477 27880
26.65488 22839
26.67499 17579
26.69511 13228
26.71522 8516
26.73534 5220
26.75545 3018
26.77556 2035
26.79568 1595
26.81579 1425
26.8359 1178
26.85602 1148
26.87613 1138
26.89625 979
26.91636 893
26.93647 806
26.95659 811
26.9767 668
26.99681 682
27.01693 638
27.03704 651
27.05716 577
27.07727 539
27.09738 520
27.1175 492
27.13761 495
27.15772 498
27.17784 441
27.19795 437
27.21806 473
27.23818 453
27.25829 424
27.27841 468
27.29852 423
27.31863 458
27.33875 448
27.35886 453
27.37897 415
27.39909 450
27.4192 481
27.43932 488
27.45943 454
27.47954 450
27.49966 378
27.51977 370
27.53988 374
27.56 375
27.58011 386
27.60023 346
27.62034 381
27.64045 366
27.66057 339
27.68068 359
27.70079 385
27.72091 363
27.74102 347
27.76113 366
27.78125 371
27.80136 343
27.82148 340
27.84159 308
27.8617 322
27.88182 336
27.90193 331
27.92204 338
27.94216 334
27.96227 290
27.98239 322
28.0025 306
28.02261 342
28.04273 332
28.06284 305
28.08295 299
28.10307 315
28.12318 309
28.1433 295
28.16341 322
28.18352 337
28.20364 315
28.22375 297
28.24386 290
28.26398 293
28.28409 317
28.3042 314
28.32432 301
28.34443 260
28.36455 312
28.38466 272
28.40477 329
28.42489 303
28.445 298
28.46511 306
28.48523 301
28.50534 280
28.52546 253
28.54557 285
28.56568 276
28.5858 264
28.60591 281
28.62602 307
28.64614 274
28.66625 308
28.68636 268
28.70648 307
28.72659 274
28.74671 298
28.76682 292
28.78693 266
28.80705 283
28.82716 314
28.84727 287
28.86739 310
28.8875 279
28.90762 261
28.92773 283
28.94784 274
28.96796 286
28.98807 254
29.00818 266
29.0283 301
29.04841 256
29.06853 261
29.08864 276
29.10875 295
29.12887 265
29.14898 285
29.16909 285
29.18921 262
29.20932 292
29.22943 254
29.24955 289
29.26966 257
29.28978 290
29.30989 263
29.33 288
29.35012 277
29.37023 275
29.39034 270
29.41046 280
29.43057 284
29.45069 274
29.4708 302
29.49091 285
29.51103 303
29.53114 286
29.55125 261
29.57137 270
29.59148 278
29.6116 274
29.63171 249
29.65182 260
29.67194 232
29.69205 253
29.71216 278
29.73228 291
29.75239 299
29.7725 257
29.79262 302
29.81273 269
29.83285 283
29.85296 239
29.87307 258
29.89319 256
29.9133 262
29.93341 262
29.95353 273
29.97364 256
29.99376 239
30.01387 264
30.03398 260
30.0541 260
30.07421 239
30.09432 268
30.11444 267
30.13455 281
30.15467 281
30.17478 265
30.19489 269
30.21501 310
30.23512 293
30.25523 260
30.27535 278
30.29546 313
30.31557 287
30.33569 268
30.3558 259
30.37592 272
30.39603 268
30.41614 256
30.43626 248
30.45637 264
30.47648 269
30.4966 287
30.51671 257
30.53683 258
30.55694 279
30.57705 263
30.59717 254
30.61728 258
30.63739 237
30.65751 222
30.67762 257
30.69773 246
30.71785 267
30.73796 259
30.75808 232
30.77819 262
30.7983 299
30.81842 277
30.83853 235
30.85864 256
30.87876 265
30.89887 252
30.91899 241
30.9391 266
30.95921 246
30.97933 235
30.99944 238
31.01955 261
31.03967 255
31.05978 269
31.0799 248
31.10001 222
31.12012 250
31.14024 243
31.16035 240
31.18046 259
31.20058 241
31.22069 253
31.2408 256
31.26092 265
31.28103 256
31.30115 234
31.32126 237
31.34137 250
31.36149 244
31.3816 254
31.40171 240
31.42183 225
31.44194 270
31.46206 248
31.48217 263
31.50228 250
31.5224 232
31.54251 259
31.56262 235
31.58274 221
31.60285 250
31.62297 222
31.64308 224
31.66319 283
31.68331 267
31.70342 265
31.72353 253
31.74365 252
31.76376 245
31.78387 223
31.80399 226
31.8241 233
31.84422 234
31.86433 259
31.88444 261
31.90456 255
31.92467 248
31.94478 243
31.9649 271
31.98501 245
32.00513 244
32.02524 207
32.04535 254
32.06547 283
32.08558 231
32.10569 245
32.12581 251
32.14592 230
32.16604 225
32.18615 256
32.20626 228
32.22638 203
32.24649 256
32.2666 231
32.28672 257
32.30683 235
32.32694 237
32.34706 222
32.36717 246
32.38729 220
32.4074 223
32.42751 221
32.44763 256
32.46774 220
32.48785 234
32.50797 231
32.52808 237
32.5482 246
32.56831 239
32.58842 214
32.60854 260
32.62865 257
32.64876 253
32.66888 247
32.68899 252
32.7091 273
32.72922 236
32.74933 263
32.76945 260
32.78956 249
32.80967 254
32.82979 286
32.8499 292
32.87001 297
32.89013 269
32.91024 293
32.93036 294
32.95047 276
32.97058 290
32.9907 286
33.01081 310
33.03092 309
33.05104 306
33.07115 306
33.09127 321
33.11138 357
33.13149 310
33.15161 294
33.17172 323
33.19183 304
33.21195 323
33.23206 310
33.25217 265
33.27229 317
33.2924 312
33.31252 293
33.33263 297
33.35274 243
33.37286 280
33.39297 246
33.41308 288
33.4332 307
33.45331 292
33.47343 276
33.49354 292
33.51365 262
33.53377 255
33.55388 273
33.57399 249
33.59411 263
33.61422 271
33.63434 269
33.65445 229
33.67456 223
33.69468 228
33.71479 235
33.7349 226
33.75502 238
33.77513 238
33.79524 219
33.81536 248
33.83547 226
33.85559 259
33.8757 256
33.89581 228
33.91593 245
33.93604 250
33.95615 241
33.97627 199
33.99638 228
34.0165 210
34.03661 214
34.05672 214
34.07684 241
34.09695 244
34.11706 231
34.13718 234
34.15729 245
34.17741 238
34.19752 239
34.21763 239
34.23775 231
34.25786 212
34.27797 243
34.29809 226
34.3182 227
34.33831 240
34.35843 248
34.37854 247
34.39866 258
34.41877 276
34.43888 253
34.459 220
34.47911 250
34.49922 256
34.51934 244
34.53945 250
34.55957 250
34.57968 285
34.59979 295
34.61991 241
34.64002 270
34.66013 307
34.68025 264
34.70036 328
34.72047 315
34.74059 294
34.7607 318
34.78082 305
34.80093 340
34.82104 355
34.84116 324
34.86127 363
34.88138 372
34.9015 387
34.92161 429
34.94173 401
34.96184 379
34.98195 362
35.00207 416
35.02218 334
35.04229 393
35.06241 393
35.08252 333
35.10264 357
35.12275 364
35.14286 349
35.16298 321
35.18309 319
35.2032 312
35.22332 312
35.24343 299
35.26354 275
35.28366 316
35.30377 341
35.32389 345
35.344 333
35.36411 360
35.38423 337
35.40434 348
35.42445 366
35.44457 350
35.46468 363
35.4848 405
35.50491 426
35.52502 390
35.54514 368
35.56525 399
35.58536 452
35.60548 438
35.62559 453
35.64571 413
35.66582 444
35.68593 454
35.70605 466
35.72616 433
35.74627 403
35.76639 375
35.7865 400
35.80661 409
35.82673 403
35.84684 413
35.86696 376
35.88707 427
35.90718 383
35.9273 354
35.94741 370
35.96752 367
35.98764 332
36.00775 353
36.02787 326
36.04798 373
36.06809 335
36.08821 325
36.10832 339
36.12843 356
36.14855 362
36.16866 379
36.18878 374
36.20889 379
36.229 384
36.24912 355
36.26923 418
36.28934 427
36.30946 463
36.32957 491
36.34968 635
36.3698 715
36.38991 896
36.41003 1057
36.43014 1328
36.45025 1679
36.47037 1950
36.49048 1982
36.51059 2049
36.53071 1877
36.55082 1621
36.57094 1418
36.59105 1190
36.61116 1135
36.63128 900
36.65139 667
36.6715 513
36.69162 417
36.71173 402
36.73184 356
36.75196 382
36.77207 380
36.79219 353
36.8123 338
36.83241 340
36.85253 330
36.87264 364
36.89275 355
36.91287 330
36.93298 349
36.9531 340
36.97321 335
36.99332 317
37.01344 310
37.03355 313
37.05366 311
37.07378 291
37.09389 291
37.11401 281
37.13412 320
37.15423 310
37.17435 293
37.19446 299
37.21457 287
37.23469 294
37.2548 295
37.27491 277
37.29503 290
37.31514 295
37.33526 285
37.35537 310
37.37548 286
37.3956 294
37.41571 291
37.43582 281
37.45594 302
37.47605 321
37.49617 296
37.51628 321
37.53639 326
37.55651 319
37.57662 311
37.59673 336
37.61685 332
37.63696 341
37.65708 289
37.67719 329
37.6973 316
37.71742 315
37.73753 301
37.75764 301
37.77776 322
37.79787 310
37.81798 278
37.8381 278
37.85821 326
37.87833 274
37.89844 324
37.91855 294
37.93867 289
37.95878 319
37.97889 321
37.99901 324
38.01912 305
38.03924 348
38.05935 307
38.07946 316
38.09958 335
38.11969 342
38.1398 364
38.15992 344
38.18003 336
38.20015 327
38.22026 335
38.24037 325
38.26049 385
38.2806 381
38.30071 378
38.32083 418
38.34094 416
38.36105 366
38.38117 400
38.40128 371
38.4214 398
38.44151 381
38.46162 392
38.48174 382
38.50185 414
38.52196 369
38.54208 366
38.56219 347
38.58231 372
38.60242 357
38.62253 332
38.64265 360
38.66276 349
38.68287 374
38.70299 324
38.7231 328
38.74321 339
38.76333 337
38.78344 352
38.80356 315
38.82367 358
38.84378 355
38.8639 330
38.88401 312
38.90412 298
38.92424 306
38.94435 330
38.96447 344
38.98458 342
39.00469 323
39.02481 315
39.04492 337
39.06503 343
39.08515 325
39.10526 347
39.12538 344
39.14549 390
39.1656 348
39.18572 411
39.20583 423
39.22594 482
39.24606 482
39.26617 559
39.28628 657
39.3064 844
39.32651 939
39.34663 1194
39.36674 1443
39.38685 1717
39.40697 1918
39.42708 2024
39.44719 1955
39.46731 1601
39.48742 1399
39.50754 1199
39.52765 1141
39.54776 1026
39.56788 786
39.58799 620
39.6081 444
39.62822 377
39.64833 363
39.66845 319
39.68856 321
39.70867 300
39.72879 317
39.7489 290
39.76901 288
39.78913 250
39.80924 301
39.82935 271
39.84947 253
39.86958 269
39.8897 263
39.90981 293
39.92992 280
39.95004 271
39.97015 298
39.99026 279
40.01038 338
40.03049 305
40.05061 315
40.07072 377
40.09083 399
40.11095 425
40.13106 575
40.15117 587
40.17129 676
40.1914 822
40.21152 921
40.23163 1057
40.25174 1070
40.27186 972
40.29197 889
40.31208 764
40.3322 673
40.35231 641
40.37242 608
40.39254 530
40.41265 409
40.43277 330
40.45288 326
40.47299 302
40.49311 292
40.51322 272
40.53333 273
40.55345 262
40.57356 270
40.59368 244
40.61379 236
40.6339 269
40.65402 251
40.67413 269
40.69424 272
40.71436 250
40.73447 243
40.75458 242
40.7747 313
40.79481 277
40.81493 285
40.83504 284
40.85515 303
40.87527 287
40.89538 271
40.91549 302
40.93561 272
40.95572 290
40.97584 272
40.99595 281
41.01606 287
41.03618 275
41.05629 287
41.0764 288
41.09652 291
41.11663 267
41.13675 260
41.15686 283
41.17697 258
41.19709 272
41.2172 243
41.23731 264
41.25743 270
41.27754 253
41.29765 273
41.31777 242
41.33788 250
41.358 263
41.37811 230
41.39822 224
41.41834 263
41.43845 272
41.45856 235
41.47868 228
41.49879 260
41.51891 240
41.53902 251
41.55913 239
41.57925 249
41.59936 264
41.61947 216
41.63959 256
41.6597 272
41.67982 231
41.69993 248
41.72004 255
41.74016 246
41.76027 242
41.78038 227
41.8005 255
41.82061 236
41.84072 237
41.86084 235
41.88095 240
41.90107 240
41.92118 243
41.94129 254
41.96141 256
41.98152 261
42.00163 261
42.02175 267
42.04186 266
42.06198 241
42.08209 284
42.1022 280
42.12232 254
42.14243 308
42.16254 300
42.18266 344
42.20277 328
42.22289 393
42.243 433
42.26311 495
42.28323 539
42.30334 704
42.32345 880
42.34357 1103
42.36368 1200
42.38379 1407
42.40391 1508
42.42402 1353
42.44414 1180
42.46425 1074
42.48436 951
42.50448 858
42.52459 801
42.5447 677
42.56482 555
42.58493 398
42.60505 348
42.62516 288
42.64527 283
42.66539 266
42.6855 287
42.70561 262
42.72573 250
42.74584 240
42.76595 226
42.78607 253
42.80618 249
42.8263 243
42.84641 256
42.86652 232
42.88664 207
42.90675 235
42.92686 216
42.94698 202
42.96709 192
42.98721 241
43.00732 228
43.02743 231
43.04755 244
43.06766 232
43.08777 230
43.10789 225
43.128 250
43.14812 220
43.16823 240
43.18834 222
43.20846 195
43.22857 222
43.24868 223
43.2688 231
43.28891 191
43.30902 212
43.32914 201
43.34925 215
43.36937 224
43.38948 218
43.40959 225
43.42971 223
43.44982 226
43.46993 209
43.49005 239
43.51016 220
43.53028 215
43.55039 228
43.5705 212
43.59062 208
43.61073 193
43.63084 222
43.65096 198
43.67107 216
43.69119 233
43.7113 207
43.73141 203
43.75153 195
43.77164 230
43.79175 219
43.81187 246
43.83198 200
43.85209 206
43.87221 194
43.89232 199
43.91244 197
43.93255 218
43.95266 216
43.97278 219
43.99289 204
44.013 215
44.03312 217
44.05323 231
44.07335 219
44.09346 225
44.11357 229
44.13369 235
44.1538 210
44.17391 213
44.19403 223
44.21414 227
44.23426 210
44.25437 226
44.27448 217
44.2946 260
44.31471 205
44.33482 247
44.35494 217
44.37505 205
44.39516 218
44.41528 214
44.43539 198
44.45551 222
44.47562 213
44.49573 185
44.51585 215
44.53596 198
44.55607 217
44.57619 208
44.5963 226
44.61642 222
44.63653 217
44.65664 215
44.67676 215
44.69687 202
44.71698 211
44.7371 196
44.75721 222
44.77732 221
44.79744 222
44.81755 197
44.83767 232
44.85778 223
44.87789 218
44.89801 222
44.91812 212
44.93823 246
44.95835 214
44.97846 196
44.99858 197
45.01869 235
45.0388 205
45.05892 242
45.07903 200
45.09914 196
45.11926 269
45.13937 240
45.15949 230
45.1796 215
45.19971 248
45.21983 264
45.23994 238
45.26005 251
45.28017 259
45.30028 245
45.32039 270
45.34051 254
45.36062 274
45.38074 283
45.40085 291
45.42096 242
45.44108 276
45.46119 274
45.4813 272
45.50142 258
45.52153 333
45.54165 349
45.56176 390
45.58187 384
45.60199 425
45.6221 503
45.64221 524
45.66233 638
45.68244 750
45.70256 875
45.72267 1040
45.74278 1051
45.7629 1025
45.78301 883
45.80312 780
45.82324 655
45.84335 618
45.86346 637
45.88358 612
45.90369 507
45.92381 384
45.94392 300
45.96403 304
45.98415 270
46.00426 276
46.02437 251
46.04449 254
46.0646 241
46.08472 231
46.10483 239
46.12494 247
46.14506 251
46.16517 230
46.18528 229
46.2054 239
46.22551 226
46.24563 222
46.26574 220
46.28585 220
46.30597 225
46.32608 219
46.34619 214
46.36631 234
46.38642 218
46.40653 221
46.42665 254
46.44676 218
46.46688 212
46.48699 228
46.5071 214
46.52722 225
46.54733 255
46.56744 224
46.58756 202
46.60767 232
46.62779 204
46.6479 209
46.66801 231
46.68813 235
46.70824 225
46.72835 229
46.74847 229
46.76858 218
46.78869 217
46.80881 234
46.82892 211
46.84904 223
46.86915 214
46.88926 216
46.90938 226
46.92949 258
46.9496 244
46.96972 209
46.98983 233
47.00995 230
47.03006 196
47.05017 242
47.07029 220
47.0904 224
47.11051 215
47.13063 213
47.15074 237
47.17086 215
47.19097 213
47.21108 211
47.2312 205
47.25131 212
47.27142 247
47.29154 243
47.31165 222
47.33176 223
47.35188 189
47.37199 205
47.39211 204
47.41222 231
47.43233 200
47.45245 217
47.47256 240
47.49267 226
47.51279 225
47.5329 211
47.55302 207
47.57313 201
47.59324 243
47.61336 211
47.63347 232
47.65358 222
47.6737 214
47.69381 222
47.71393 214
47.73404 226
47.75415 221
47.77427 225
47.79438 229
47.81449 213
47.83461 257
47.85472 221
47.87483 208
47.89495 245
47.91506 236
47.93518 233
47.95529 244
47.9754 225
47.99552 239
48.01563 251
48.03574 226
48.05586 225
48.07597 230
48.09609 213
48.1162 214
48.13631 233
48.15643 247
48.17654 244
48.19665 216
48.21677 216
48.23688 228
48.257 223
48.27711 203
48.29722 199
48.31734 203
48.33745 220
48.35756 188
48.37768 244
48.39779 227
48.4179 183
48.43802 210
48.45813 210
48.47825 236
48.49836 241
48.51847 226
48.53859 265
48.5587 215
48.57881 227
48.59893 259
48.61904 240
48.63916 187
48.65927 245
48.67938 239
48.6995 243
48.71961 225
48.73972 234
48.75984 215
48.77995 226
48.80006 204
48.82018 224
48.84029 222
48.86041 204
48.88052 231
48.90063 168
48.92075 244
48.94086 212
48.96097 239
48.98109 223
49.0012 248
49.02132 239
49.04143 265
49.06154 229
49.08166 226
49.10177 231
49.12188 251
49.142 270
49.16211 232
49.18223 272
49.20234 232
49.22245 250
49.24257 238
49.26268 247
49.28279 248
49.30291 259
49.32302 248
49.34313 245
49.36325 261
49.38336 244
49.40348 260
49.42359 233
49.4437 235
49.46382 256
49.48393 252
49.50404 256
49.52416 241
49.54427 282
49.56439 300
49.5845 278
49.60461 274
49.62473 305
49.64484 272
49.66495 285
49.68507 278
49.70518 301
49.7253 333
49.74541 334
49.76552 331
49.78564 373
49.80575 358
49.82586 384
49.84598 416
49.86609 486
49.8862 559
49.90632 637
49.92643 746
49.94655 869
49.96666 1125
49.98677 1396
50.00689 1682
50.027 2040
50.04711 2480
50.06723 2855
50.08734 3028
50.10746 2893
50.12757 2473
50.14768 2054
50.1678 1805
50.18791 1697
50.20802 1555
50.22814 1541
50.24825 1374
50.26837 1049
50.28848 770
50.30859 599
50.32871 439
50.34882 349
50.36893 330
50.38905 325
50.40916 345
50.42927 333
50.44939 318
50.4695 304
50.48962 323
50.50973 321
50.52984 322
50.54996 314
50.57007 328
50.59018 296
50.6103 280
50.63041 303
50.65053 286
50.67064 288
50.69075 284
50.71087 282
50.73098 262
50.75109 257
50.77121 253
50.79132 252
50.81143 217
50.83155 232
50.85166 231
50.87178 250
50.89189 231
50.912 229
50.93212 224
50.95223 236
50.97234 240
50.99246 236
51.01257 225
51.03269 244
51.0528 225
51.07291 217
51.09303 221
51.11314 217
51.13325 206
51.15337 207
51.17348 219
51.1936 227
51.21371 200
51.23382 216
51.25394 213
51.27405 206
51.29416 229
51.31428 207
51.33439 232
51.3545 217
51.37462 203
51.39473 216
51.41485 218
51.43496 214
51.45507 200
51.47519 186
51.4953 232
51.51541 206
51.53553 194
51.55564 242
51.57576 224
51.59587 218
51.61598 198
51.6361 192
51.65621 219
51.67632 209
51.69644 187
51.71655 188
51.73667 201
51.75678 211
51.77689 215
51.79701 209
51.81712 214
51.83723 169
51.85735 206
51.87746 190
51.89757 156
51.91769 182
51.9378 173
51.95792 211
51.97803 200
51.99814 194
52.01826 203
52.03837 198
52.05848 207
52.0786 205
52.09871 171
52.11883 200
52.13894 221
52.15905 215
52.17917 168
52.19928 201
52.21939 210
52.23951 208
52.25962 196
52.27974 213
52.29985 200
52.31996 198
52.34008 195
52.36019 201
52.3803 207
52.40042 186
52.42053 217
52.44064 212
52.46076 212
52.48087 196
52.50099 207
52.5211 191
52.54121 191
52.56133 178
52.58144 213
52.60155 225
52.62167 188
52.64178 202
52.6619 186
52.68201 230
52.70212 208
52.72224 195
52.74235 192
52.76246 172
52.78258 201
52.80269 228
52.8228 217
52.84292 224
52.86303 204
52.88315 238
52.90326 193
52.92337 220
52.94349 209
52.9636 189
52.98371 189
53.00383 236
53.02394 210
53.04406 240
53.06417 206
53.08428 224
53.1044 220
53.12451 220
53.14462 200
53.16474 214
53.18485 214
53.20497 186
53.22508 235
53.24519 221
53.26531 209
53.28542 266
53.30553 239
53.32565 252
53.34576 223
53.36587 230
53.38599 242
53.4061 259
53.42622 249
53.44633 272
53.46644 238
53.48656 215
53.50667 280
53.52678 242
53.5469 242
53.56701 220
53.58713 270
53.60724 264
53.62735 258
53.64747 257
53.66758 254
53.68769 238
53.70781 257
53.72792 251
53.74804 246
53.76815 255
53.78826 238
53.80838 269
53.82849 296
53.8486 254
53.86872 290
53.88883 275
53.90894 272
53.92906 225
53.94917 307
53.96929 272
53.9894 261
54.00951 278
54.02963 281
54.04974 303
54.06985 265
54.08997 276
54.11008 297
54.1302 263
54.15031 291
54.17042 274
54.19054 289
54.21065 301
54.23076 281
54.25088 267
54.27099 279
54.29111 292
54.31122 278
54.33133 305
54.35145 278
54.37156 297
54.39167 293
54.41179 289
54.4319 309
54.45201 324
54.47213 305
54.49224 289
54.51236 306
54.53247 311
54.55258 349
54.5727 338
54.59281 317
54.61292 327
54.63304 371
54.65315 393
54.67327 467
54.69338 534
54.71349 631
54.73361 656
54.75372 792
54.77383 909
54.79395 1013
54.81406 1126
54.83417 1102
54.85429 1030
54.8744 806
54.89452 751
54.91463 686
54.93474 699
54.95486 706
54.97497 688
54.99508 679
55.0152 551
55.03531 458
55.05543 384
55.07554 389
55.09565 361
55.11577 383
55.13588 389
55.15599 385
55.17611 471
55.19622 488
55.21634 551
55.23645 609
55.25656 618
55.27668 650
55.29679 638
55.3169 568
55.33702 498
55.35713 456
55.37724 426
55.39736 475
55.41747 434
55.43759 428
55.4577 436
55.47781 361
55.49793 298
55.51804 277
55.53815 273
55.55827 291
55.57838 269
55.5985 267
55.61861 277
55.63872 273
55.65884 253
55.67895 252
55.69906 265
55.71918 274
55.73929 225
55.75941 262
55.77952 224
55.79963 249
55.81975 245
55.83986 237
55.85997 257
55.88009 232
55.9002 250
55.92031 258
55.94043 255
55.96054 237
55.98066 232
56.00077 234
56.02088 210
56.041 229
56.06111 227
56.08122 230
56.10134 252
56.12145 214
56.14157 225
56.16168 243
56.18179 226
56.20191 250
56.22202 209
56.24213 232
56.26225 225
56.28236 252
56.30248 193
56.32259 243
56.3427 253
56.36282 246
56.38293 230
56.40304 235
56.42316 238
56.44327 227
56.46338 240
56.4835 244
56.50361 240
56.52373 216
56.54384 236
56.56395 205
56.58407 234
56.60418 242
56.62429 230
56.64441 223
56.66452 213
56.68464 224
56.70475 211
56.72486 235
56.74498 205
56.76509 216
56.7852 223
56.80532 224
56.82543 209
56.84554 203
56.86566 241
56.88577 212
56.90589 236
56.926 211
56.94611 211
56.96623 224
56.98634 235
57.00645 252
57.02657 257
57.04668 221
57.0668 228
57.08691 246
57.10702 270
57.12714 242
57.14725 269
57.16736 256
57.18748 224
57.20759 245
57.22771 238
57.24782 220
57.26793 231
57.28805 245
57.30816 252
57.32827 225
57.34839 247
57.3685 225
57.38861 208
57.40873 216
57.42884 207
57.44896 182
57.46907 228
57.48918 216
57.5093 216
57.52941 212
57.54952 230
57.56964 202
57.58975 210
57.60987 230
57.62998 230
57.65009 205
57.67021 209
57.69032 205
57.71043 210
57.73055 222
57.75066 205
57.77078 207
57.79089 225
57.811 222
57.83112 197
57.85123 236
57.87134 213
57.89146 218
57.91157 232
57.93168 232
57.9518 216
57.97191 231
57.99203 207
58.01214 208
58.03225 209
58.05237 231
58.07248 203
58.09259 223
58.11271 211
58.13282 201
58.15294 212
58.17305 188
58.19316 227
58.21328 215
58.23339 231
58.2535 223
58.27362 208
58.29373 207
58.31385 211
58.33396 215
58.35407 200
58.37419 201
58.3943 206
58.41441 208
58.43453 205
58.45464 211
58.47475 228
58.49487 227
58.51498 206
58.5351 226
58.55521 214
58.57532 223
58.59544 226
58.61555 198
58.63566 197
58.65578 222
58.67589 202
58.69601 225
58.71612 202
58.73623 191
58.75635 206
58.77646 216
58.79657 177
58.81669 221
58.8368 212
58.85691 227
58.87703 190
58.89714 227
58.91726 192
58.93737 249
58.95748 246
58.9776 207
58.99771 199
59.01782 216
59.03794 199
59.05805 228
59.07817 195
59.09828 203
59.11839 247
59.13851 229
59.15862 221
59.17873 226
59.19885 219
59.21896 234
59.23908 217
59.25919 217
59.2793 222
59.29942 244
59.31953 235
59.33964 242
59.35976 215
59.37987 254
59.39998 245
59.4201 235
59.44021 237
59.46033 251
59.48044 243
59.50055 290
59.52067 255
59.54078 292
59.56089 335
59.58101 295
59.60112 325
59.62124 291
59.64135 366
59.66146 393
59.68158 425
59.70169 442
59.7218 550
59.74192 567
59.76203 742
59.78215 873
59.80226 1081
59.82237 1333
59.84249 1505
59.8626 1638
59.88271 1863
59.90283 1888
59.92294 1773
59.94305 1538
59.96317 1331
59.98328 1097
60.0034 1031
60.02351 1084
60.04362 1053
60.06374 1053
60.08385 947
60.10396 874
60.12408 614
60.14419 499
60.16431 406
60.18442 330
60.20453 273
60.22465 282
60.24476 277
60.26487 274
60.28499 245
60.3051 251
60.32522 270
60.34533 232
60.36544 250
60.38556 220
60.40567 218
60.42578 221
60.4459 235
60.46601 211
60.48612 231
60.50624 215
60.52635 219
60.54647 240
60.56658 218
60.58669 217
60.60681 220
60.62692 221
60.64703 219
60.66715 181
60.68726 208
60.70738 199
60.72749 232
60.7476 205
60.76772 196
60.78783 203
60.80794 188
60.82806 217
60.84817 181
60.86828 208
60.8884 208
60.90851 203
60.92863 188
60.94874 210
60.96885 213
60.98897 204
61.00908 188
61.02919 185
61.04931 229
61.06942 219
61.08954 187
61.10965 210
61.12976 207
61.14988 202
61.16999 243
61.1901 197
61.21022 211
61.23033 201
61.25045 204
61.27056 202
61.29067 201
61.31079 218
61.3309 201
61.35101 210
61.37113 204
61.39124 214
61.41135 210
61.43147 194
61.45158 232
61.4717 224
61.49181 254
61.51192 213
61.53204 197
61.55215 219
61.57226 224
61.59238 190
61.61249 241
61.63261 227
61.65272 209
61.67283 189
61.69295 217
61.71306 246
61.73317 235
61.75329 219
61.7734 234
61.79352 201
61.81363 230
61.83374 268
61.85386 234
61.87397 233
61.89408 227
61.9142 231
61.93431 246
61.95442 230
61.97454 262
61.99465 263
62.01477 277
62.03488 296
62.05499 303
62.07511 287
62.09522 314
62.11533 330
62.13545 319
62.15556 348
62.17568 327
62.19579 356
62.2159 346
62.23602 357
62.25613 331
62.27624 379
62.29636 353
62.31647 350
62.33659 336
62.3567 289
62.37681 346
62.39693 332
62.41704 291
62.43715 312
62.45727 294
62.47738 293
62.49749 273
62.51761 293
62.53772 247
62.55784 276
62.57795 269
62.59806 242
62.61818 253
62.63829 225
62.6584 247
62.67852 224
62.69863 206
62.71875 223
62.73886 225
62.75897 221
62.77909 200
62.7992 226
62.81931 236
62.83943 208
62.85954 213
62.87965 189
62.89977 235
62.91988 221
62.94 213
62.96011 204
62.98022 196
63.00034 207
63.02045 216
63.04056 203
63.06068 202
63.08079 196
63.10091 213
63.12102 187
63.14113 197
63.16125 213
63.18136 221
63.20147 221
63.22159 198
63.2417 235
63.26182 183
63.28193 229
63.30204 210
63.32216 215
63.34227 214
63.36238 199
63.3825 200
63.40261 231
63.42272 205
63.44284 224
63.46295 217
63.48307 210
63.50318 221
63.52329 236
63.54341 213
63.56352 222
63.58363 224
63.60375 216
63.62386 228
63.64398 245
63.66409 228
63.6842 232
63.70432 226
63.72443 242
63.74454 252
63.76466 261
63.78477 255
63.80489 283
63.825 322
63.84511 337
63.86523 370
63.88534 396
63.90545 433
63.92557 487
63.94568 536
63.96579 557
63.98591 558
64.00602 498
64.02614 473
64.04625 438
64.06636 398
64.08648 398
64.10659 389
64.1267 396
64.14682 408
64.16693 352
64.18705 346
64.20716 331
64.22727 281
64.24739 279
64.2675 235
64.28761 244
64.30773 232
64.32784 218
64.34796 219
64.36807 209
64.38818 194
64.4083 224
64.42841 205
64.44852 231
64.46864 180
64.48875 196
64.50886 210
64.52898 178
64.54909 211
64.56921 209
64.58932 201
64.60943 196
64.62955 203
64.64966 200
64.66977 166
64.68989 179
64.71 187
64.73012 169
64.75023 185
64.77034 191
64.79046 205
64.81057 191
64.83068 180
64.8508 205
64.87091 209
64.89102 159
64.91114 214
64.93125 181
64.95137 211
64.97148 172
64.99159 201
65.01171 188
65.03182 193
65.05193 217
65.07205 198
65.09216 198
65.11228 208
65.13239 190
65.1525 195
65.17262 206
65.19273 188
65.21284 180
65.23296 197
65.25307 217
65.27319 189
65.2933 211
65.31341 211
65.33353 184
65.35364 210
65.37375 187
65.39387 210
65.41398 207
65.43409 195
65.45421 225
65.47432 184
65.49444 216
65.51455 221
65.53466 222
65.55478 203
65.57489 210
65.595 203
65.61512 248
65.63523 230
65.65535 251
65.67546 282
65.69557 277
65.71569 253
65.7358 267
65.75591 261
65.77603 273
65.79614 234
65.81626 196
65.83637 221
65.85648 214
65.8766 238
65.89671 227
65.91682 235
65.93694 222
65.95705 224
65.97716 220
65.99728 189
66.01739 201
66.03751 206
66.05762 191
66.07773 197
66.09785 191
66.11796 200
66.13807 199
66.15819 196
66.1783 177
66.19842 189
66.21853 208
66.23864 204
66.25876 202
66.27887 196
66.29898 179
66.3191 188
66.33921 199
66.35933 178
66.37944 197
66.39955 197
66.41967 183
66.43978 179
66.45989 223
66.48001 180
66.50012 198
66.52023 168
66.54035 198
66.56046 192
66.58058 220
66.60069 188
66.6208 209
66.64092 186
66.66103 188
66.68114 189
66.70126 192
66.72137 222
66.74149 200
66.7616 174
66.78171 215
66.80183 198
66.82194 193
66.84205 209
66.86217 196
66.88228 203
66.90239 177
66.92251 187
66.94262 212
66.96274 220
66.98285 189
67.00296 199
67.02308 197
67.04319 216
67.0633 216
67.08342 245
67.10353 207
67.12365 196
67.14376 186
67.16387 239
67.18399 254
67.2041 215
67.22421 233
67.24433 217
67.26444 260
67.28456 255
67.30467 301
67.32478 251
67.3449 251
67.36501 296
67.38512 305
67.40524 292
67.42535 296
67.44546 312
67.46558 345
67.48569 355
67.50581 388
67.52592 456
67.54603 537
67.56615 626
67.58626 743
67.60637 834
67.62649 920
67.6466 1070
67.66672 1183
67.68683 1171
67.70694 1031
67.72706 1038
67.74717 887
67.76728 765
67.7874 714
67.80751 717
67.82763 735
67.84774 813
67.86785 835
67.88797 854
67.90808 839
67.92819 826
67.94831 795
67.96842 870
67.98853 916
68.00865 1052
68.02876 1150
68.04888 1289
68.06899 1446
68.0891 1460
68.10922 1486
68.12933 1391
68.14944 1294
68.16956 1213
68.18967 1240
68.20979 1326
68.2299 1330
68.25001 1467
68.27013 1421
68.29024 1283
68.31035 1169
68.33047 961
68.35058 764
68.3707 658
68.39081 664
68.41092 659
68.43104 621
68.45115 586
68.47126 542
68.49138 438
68.51149 378
68.5316 335
68.55172 308
68.57183 278
68.59195 275
68.61206 270
68.63217 226
68.65229 241
68.6724 233
68.69251 235
68.71263 248
68.73274 217
68.75286 213
68.77297 222
68.79308 199
68.8132 238
68.83331 235
68.85342 232
68.87354 200
68.89365 209
68.91376 189
68.93388 219
68.95399 220
68.97411 216
68.99422 237
69.01433 206
69.03445 208
69.05456 221
69.07467 200
69.09479 210
69.1149 209
69.13502 209
69.15513 218
69.17524 202
69.19536 192
69.21547 211
69.23558 195
69.2557 169
69.27581 188
69.29593 186
69.31604 212
69.33615 171
69.35627 195
69.37638 210
69.39649 172
69.41661 197
69.43672 183
69.45683 189
69.47695 165
69.49706 197
69.51718 208
69.53729 209
69.5574 190
69.57752 182
69.59763 189
69.61774 221
69.63786 191
69.65797 187
69.67809 189
69.6982 191
69.71831 186
69.73843 177
69.75854 190
69.77865 206
69.79877 167
69.81888 181
69.839 170
69.85911 188
69.87922 209
69.89934 183
69.91945 189
69.93956 195
69.95968 190
69.97979 185
69.9999 194
70.02002 161
70.04013 209
70.06025 186
70.08036 179
70.10047 180
70.12059 193
70.1407 175
70.16081 189
70.18093 165
70.20104 200
70.22116 195
70.24127 198
70.26138 201
70.2815 162
70.30161 202
70.32172 183
70.34184 197
70.36195 182
70.38207 191
70.40218 171
70.42229 183
70.44241 191
70.46252 201
70.48263 196
70.50275 177
70.52286 173
70.54297 179
70.56309 182
70.5832 177
70.60332 174
70.62343 182
70.64354 167
70.66366 181
70.68377 193
70.70388 167
70.724 161
70.74411 167
70.76423 171
70.78434 177
70.80445 212
70.82457 192
70.84468 183
70.86479 183
70.88491 177
70.90502 180
70.92513 182
70.94525 175
70.96536 178
70.98548 197
71.00559 161
71.0257 195
71.04582 210
71.06593 178
71.08604 198
71.10616 166
71.12627 183
71.14639 172
71.1665 147
71.18661 199
71.20673 181
71.22684 198
71.24695 212
71.26707 189
71.28718 187
71.3073 183
71.32741 204
71.34752 174
71.36764 181
71.38775 169
71.40786 176
71.42798 180
71.44809 206
71.4682 195
71.48832 180
71.50843 180
71.52855 189
71.54866 185
71.56877 195
71.58889 182
71.609 170
71.62911 172
71.64923 194
71.66934 172
71.68946 180
71.70957 182
71.72968 208
71.7498 190
71.76991 187
71.79002 199
71.81014 172
71.83025 223
71.85037 159
71.87048 173
71.89059 177
71.91071 199
71.93082 205
71.95093 195
71.97105 190
71.99116 196
72.01127 171
72.03139 191
72.0515 186
72.07162 166
72.09173 196
72.11184 211
72.13196 167
72.15207 196
72.17218 190
72.1923 190
72.21241 189
72.23253 205
72.25264 170
72.27275 184
72.29287 200
72.31298 187
72.33309 199
72.35321 173
72.37332 202
72.39344 179
72.41355 183
72.43366 182
72.45378 168
72.47389 187
72.494 200
72.51412 192
72.53423 193
72.55434 194
72.57446 168
72.59457 171
72.61469 188
72.6348 220
72.65491 180
72.67503 187
72.69514 187
72.71525 183
72.73537 192
72.75548 187
72.7756 189
72.79571 191
72.81582 180
72.83594 197
72.85605 181
72.87616 174
72.89628 173
72.91639 196
72.9365 213
72.95662 189
72.97673 182
72.99685 182
73.01696 215
73.03707 215
73.05719 192
73.0773 185
73.09741 212
73.11753 208
73.13764 206
73.15776 219
73.17787 253
73.19798 229
73.2181 287
73.23821 260
73.25832 291
73.27844 323
73.29855 341
73.31867 348
73.33878 383
73.35889 461
73.37901 509
73.39912 558
73.41923 530
73.43935 487
73.45946 427
73.47957 395
73.49969 360
73.5198 313
73.53992 341
73.56003 337
73.58014 343
73.60026 386
73.62037 351
73.64048 370
73.6606 343
73.68071 309
73.70083 273
73.72094 227
73.74105 238
73.76117 226
73.78128 237
73.80139 205
73.82151 201
73.84162 183
73.86174 193
73.88185 208
73.90196 187
73.92208 197
73.94219 208
73.9623 170
73.98242 177
74.00253 179
74.02264 204
74.04276 188
74.06287 199
74.08299 212
74.1031 198
74.12321 178
74.14333 176
74.16344 172
74.18355 182
74.20367 188
74.22378 169
74.2439 194
74.26401 208
74.28412 195
74.30424 182
74.32435 172
74.34446 178
74.36458 171
74.38469 171
74.40481 192
74.42492 207
74.44503 166
74.46515 160
74.48526 185
74.50537 180
74.52549 163
74.5456 167
74.56571 175
74.58583 187
74.60594 158
74.62606 206
74.64617 201
74.66628 187
74.6864 181
74.70651 180
74.72662 180
74.74674 184
74.76685 190
74.78697 198
74.80708 190
74.82719 196
74.84731 177
74.86742 207
74.88753 185
74.90765 178
74.92776 193
74.94787 208
74.96799 173
74.9881 209
75.00822 189
