3.00117 20508.5919287854
3.02128 20042.6016003075
3.0414 19406
3.06151 19109.8852576554
3.08162 18659.1781291469
3.10174 17722.7579329154
3.12185 17380.2740149203
3.14197 16663.7485646384
3.16208 16530.0306138501
3.18219 16266.2818424475
3.20231 15595.7492037667
3.22242 15120.1524159518
3.24253 14170.455798487
3.26265 14363.1018125056
3.28276 13898.227740309
3.30288 13383.5063459413
3.32299 12833.2684624931
3.3431 12366
3.36322 12121.9419588651
3.38333 11944.0354330157
3.40344 11117.2614725912
3.42356 11141.5525169579
3.44367 10482.6310717972
3.46379 10401.1262990768
3.4839 9825
3.50401 9610.00589460288
3.52413 9539.44738918331
3.54424 8897.67376805378
3.56435 8473.39682449974
3.58447 8371.40825891865
3.60458 7947.32140443094
3.62469 7692.23481345341
3.64481 7095.83028598196
3.66492 7117.11224581984
3.68504 6974.05610098602
3.70515 6486.7336537335
3.72526 6571.60837087885
3.74538 5883.4769557557
3.76549 5861.95277095184
3.7856 5742
3.80572 5419.87510059963
3.82583 5384.63524941234
3.84595 4916.99321670373
3.86606 4778.90426427659
3.88617 4781.29189712683
3.90629 4461.10851184365
3.9264 4329
3.94651 3904.85205801762
3.96663 3844.03470171512
3.98674 3793.7432507501
4.00686 3666.07956031547
4.02697 3636.27369544176
4.04708 3274.39907247974
4.0672 3047
4.08731 3144.96560930983
4.10742 2939.93469916421
4.12754 3000.80136985609
4.14765 2673.82762830949
4.16776 2558.78684577812
4.18788 2682.07030401554
4.20799 2449.07636313643
4.22811 2461.01059922558
4.24822 2346.76289394151
4.26833 2161.04762732282
4.28845 2324.1067167811
4.30856 2181.28461595721
4.32867 2129.08212063766
4.34879 2027.04911043096
4.3689 1965
4.38902 1929.97619183349
4.40913 1943.10743602819
4.42924 1983.79699458419
4.44936 1790.24112029789
4.46947 1800.94111829798
4.48958 1811.9708704855
4.5097 1861
4.52981 1808.93453308909
4.54992 1660.90348571468
4.57004 1661.1514699612
4.59015 1717.09847237779
4.61027 1610.10575446737
4.63038 1582.08184215145
4.65049 1469.01136812073
4.67061 1567.06385662037
4.69072 1595.89058821841
4.71083 1474.04809237027
4.73095 1615.09708140979
4.75106 1503.20114734906
4.77118 1490.00921577029
4.79129 1438.02831539251
4.8114 1417
4.83152 1438.98815675386
4.85163 1382.89165470211
4.87174 1327.93895222949
4.89186 1328.93368016596
4.91197 1362.00086268362
4.93209 1331.01228908419
4.9522 1326
4.97231 1300.9846245755
4.99243 1305.1035423329
5.01254 1392.05315262044
5.03265 1332.23539475664
5.05277 1258.07418174478
5.07288 1274.87852389749
5.09299 1398.00950465442
5.11311 1262.95963656889
5.13322 1295.03493152672
5.15334 1252.82160440039
5.17345 1209.16330729805
5.19356 1316.96278771344
5.21368 1241.04489866124
5.23379 1289.95988883511
5.2539 1324
5.27402 1262.95254747816
5.29413 1297.20693821027
5.31425 1422.93330256627
5.33436 1294.0801854468
5.35447 1396.83501489473
5.37459 1401.04011198427
5.3947 1339
5.41481 1457.04750675645
5.43493 1456.9006948473
5.45504 1415.08887376655
5.47516 1501.95556182745
5.49527 1486.87882539119
5.51538 1639.93419618031
5.5355 1578
5.55561 1597.04650588637
5.57572 1699.06089787338
5.59584 1729.11453860002
5.61595 1812.87630034579
5.63606 1831.89704858316
5.65618 1918.93940826525
5.67629 1944.97820424893
5.69641 2028.04517536709
5.71652 2098.05162526894
5.73663 2130.01126543149
5.75675 2127.01194608204
5.77686 2164.84542781817
5.79697 2292.72868164202
5.81709 2440.98862385929
5.8372 2362
5.85732 2392.09341546418
5.87743 2489.10659364342
5.89754 2493.85268376837
5.91766 2421.95217923907
5.93777 2517.92466341225
5.95788 2443.16147816918
5.978 2283
5.99811 2196.92429439286
6.01823 2021.89793252223
6.03834 2047.95953580343
6.05845 1941.2293105188
6.07857 1910.03614436067
6.09868 1842.10738008851
6.11879 1712.06860876858
6.13891 1611.98487831744
6.15902 1582.87311762291
6.17913 1406.88820494667
6.19925 1459.13962269351
6.21936 1418.23106676052
6.23948 1303.05902471646
6.25959 1298.0034395404
6.2797 1253
6.29982 1196.9562598385
6.31993 1164.96257680432
6.34004 1143.97074231066
6.36016 1129.04742839534
6.38027 1099.03686561869
6.40039 1073.02259394153
6.4205 998
6.44061 927.998440820203
6.46073 971.042136100238
6.48084 946.894129155845
6.50095 889.150986129823
6.52107 834.062966291285
6.54118 825.95993208408
6.56129 881.987624546629
6.58141 860.982753873252
6.60152 815.916211152034
6.62164 733.981129987132
6.64175 788.096936805026
6.66186 757.153369488615
6.68198 712.955764958584
6.70209 802.981696395417
6.7222 757
6.74232 726.973228829232
6.76243 700.99859573337
6.78255 711.964636000478
6.80266 655.158361399171
6.82277 604.981966048667
6.84289 639.008583293115
6.863 588
6.88311 639.998061825751
6.90323 573.951385625558
6.92334 614.113022440858
6.94346 623.094592131592
6.96357 567.01169793694
6.98368 629.901110453342
7.0038 678
7.02391 574.981669676242
7.04402 611.003439659162
7.06414 553.919887656057
7.08425 558.995608645502
7.10436 542.005036875367
7.12448 557.994877863274
7.14459 534.020891288277
7.16471 513.013885609217
7.18482 546.969525318858
7.20493 487.02443271621
7.22505 575.123705956979
7.24516 535.141713666039
7.26527 483.060810773459
7.28539 478.96713495509
7.3055 559
7.32562 480.923167962376
7.34573 478.092512359472
7.36584 539.006907737373
7.38596 484.114252916132
7.40607 472.957370877057
7.42618 501.006038300172
7.4463 467
7.46641 472.003679004652
7.48653 456.943895836075
7.50664 426.009845522327
7.52675 463.904292418239
7.54687 460.085116569866
7.56698 397.010957040131
7.58709 437.982704052134
7.60721 434.993024333554
7.62732 435.012331754536
7.64743 449.009661407894
7.66755 448.001622310864
7.68766 442.059467760553
7.70778 404.012877114253
7.72789 411.005707982478
7.748 389
7.76812 432.018775056487
7.78823 410.964745959929
7.80834 409.013399457729
7.82846 412.00062187535
7.84857 404.030599632458
7.86869 388.9933316913
7.8888 421
7.90891 411.992203224068
7.92903 401.981919113636
7.94914 400.056070867337
7.96925 429.048860903264
7.98937 379.018821189713
8.00948 408.990267792628
8.0296 393
8.04971 421.983379294626
8.06982 348.985922305687
8.08994 403.066346148247
8.11005 376.910892708764
8.13016 375.942504703082
8.15028 403.001641601333
8.17039 395.981178198826
8.1905 448
8.21062 378.970645529507
8.23073 411.033170783028
8.25085 391.948624101132
8.27096 390.998998500732
8.29107 379.030142459503
8.31119 380.97497599463
8.3313 432
8.35141 351.975763153778
8.37153 369.042058050063
8.39164 375.009634930679
8.41176 394.940016411944
8.43187 406.048627595494
8.45198 364.989586424603
8.4721 407
8.49221 356.996010846698
8.51232 406.035688467389
8.53244 395.962864904165
8.55255 395.978159987624
8.57266 395.038492343479
8.59278 362.033040283217
8.61289 345.99743631711
8.63301 359.00174974788
8.65312 346.983801174969
8.67323 348.042795930053
8.69335 388.061483172107
8.71346 388.015338358389
8.73357 382.017906238462
8.75369 365.006590416248
8.7738 364
8.79392 380.014242086404
8.81403 393.027989254428
8.83414 395.917609217607
8.85426 331.076676153847
8.87437 336.971428149197
8.89448 346.990143244208
8.9146 354
8.93471 344.006075450631
8.95483 371.0148495554
8.97494 355.967698444868
8.99505 356.967811364976
9.01517 372.976902817781
9.03528 381.002804153591
9.05539 369.008029974494
9.07551 351.990243464549
9.09562 339.004579176002
9.11573 353.0063742459
9.13585 342.975641807868
9.15596 351.936835033571
9.17608 383.994322361362
9.19619 356.021099354123
9.2163 327
9.23642 348.04629554619
9.25653 392.023772722176
9.27664 373.935275018427
9.29676 360.957808872731
9.31687 392.992723406309
9.33699 384.984306551265
9.3571 434
9.37721 372.982591209085
9.39733 407.100459600173
9.41744 447.981393253397
9.43755 406.081181991622
9.45767 428.87609223909
9.47778 500.01769698763
9.4979 414
9.51801 416.997097280934
9.53812 372.956753445819
9.55824 366.053462967662
9.57835 390.975423746416
9.59846 354.046126608783
9.61858 358.993195573489
9.63869 361.990151527916
9.6588 409
9.67892 444.973503295277
9.69903 393.996091117902
9.71915 447.108320501883
9.73926 469.889078855811
9.75937 539.98221631196
9.77949 504.998930796696
9.7996 566
9.81971 594.017434200563
9.83983 628.987079657742
9.85994 592.992574170224
9.88006 632.929877802212
9.90017 601.169143596188
9.92028 470.070042878262
9.9404 471
9.96051 437.978263036204
9.98062 404.972446347535
10.00074 369.901336147273
10.02085 322.055888888713
10.04097 330.965849831838
10.06108 336.026974037605
10.08119 299.005117609938
10.10131 325.017495407757
10.12142 343.001532896244
10.14153 340.005413513171
10.16165 345.98251527274
10.18176 327.02862706667
10.20187 336.94377258092
10.22199 378.990302044011
10.2421 371
10.26222 346.939141194578
10.28233 277.968874377637
10.30244 314.091667765825
10.32256 332.99725214386
10.34267 336.9745568864
10.36278 355.003630920588
10.3829 326
10.40301 309.003455508305
10.42313 326.011257994118
10.44324 326.027452676779
10.46335 343.029263147914
10.48347 324.954888987651
10.50358 384.983562819882
10.52369 336.031347846769
10.54381 311.006755484279
10.56392 338.014643366178
10.58403 327.967800142183
10.60415 318.028928385758
10.62426 334.013776254033
10.64438 312.00199426377
10.66449 328.001568238518
10.6846 307
10.70472 339.037291986794
10.72483 361.018396205247
10.74494 356.934514203756
10.76506 316.030518644447
10.78517 329.979633527916
10.80529 326.004571211334
10.8254 328
10.84551 349.004787004174
10.86563 354.03340415928
10.88574 385.017853824194
10.90585 365.062472155741
10.92597 350.020007699609
10.94608 338.999294904126
10.9662 343
10.98631 329.005626075822
11.00642 377.067043459272
11.02654 413.948303579668
11.04665 358.050172352146
11.06676 393.906738038691
11.08688 415.993293485531
11.10699 431.979976546667
11.1271 476
11.14722 454.98007193489
11.16733 436.926799960365
11.18745 378.970416908646
11.20756 405.992465309399
11.22767 361.085352600165
11.24779 329.003000163432
11.2679 332
11.28801 320.001075738403
11.30813 333.000219984097
11.32824 324.018185078042
11.34836 344.007563018628
11.36847 326.977739125169
11.38858 362.999116753863
11.4087 319
11.42881 315.011980176704
11.44892 340.008854880815
11.46904 326.952639421081
11.48915 319.934714710357
11.50927 354.000310309526
11.52938 314.042900114169
11.54949 305.98575728611
11.56961 341.004709107135
11.58972 317.969547212278
11.60983 312.038886184414
11.62995 348.041096868803
11.65006 335.04606128029
11.67017 325.984968237523
11.69029 344.993676878692
11.7104 353
11.73052 378.005838593728
11.75063 361.975060135724
11.77074 353.978151202259
11.79086 339.016316635735
11.81097 332.032889467603
11.83108 310.987632212951
11.8512 352
11.87131 366.011997997175
11.89143 382.946812472125
11.91154 318.954390120456
11.93165 349.929899161722
11.95177 347.008639944791
11.97188 351.001998776666
11.99199 337.008025514833
12.01211 336.010723955212
12.03222 361.001907632772
12.05234 333.929588517516
12.07245 316.011758346366
12.09256 339.931785866034
12.11268 361.007051142058
12.13279 334.011829487291
12.1529 326
12.17302 321.999032883239
12.19313 312.951751176235
12.21324 281.014350508663
12.23336 328.898484467965
12.25347 340.05169732118
12.27359 301.996584014153
12.2937 342
12.31381 312.986992165813
12.33393 321.04272266115
12.35404 338.979350038351
12.37415 312.034697334048
12.39427 326.954825813714
12.41438 346.005171210362
12.4345 324
12.45461 322.00326688962
12.47472 322.989105068048
12.49484 304.9725161936
12.51495 299.014112841021
12.53506 296.974907821515
12.55518 315.993945906986
12.57529 304.007897579539
12.5954 300
12.61552 313.005129351816
12.63563 303.972945861697
12.65575 291.00339597108
12.67586 310.933408443016
12.69597 336.996148439518
12.71609 325.000787796602
12.7362 339
12.75631 333.994826140844
12.77643 333.020737542687
12.79654 352.017703169326
12.81666 350.991141969863
12.83677 360.004113112391
12.85688 348.999336483121
12.877 357
12.89711 338.001148863975
12.91722 354.993833240663
12.93734 336.032697481749
12.95745 381.9473249548
12.97757 362.034791820048
12.99768 364.979057779522
13.01779 380.003457199237
13.03791 355.989963566849
13.05802 353.006678625875
13.07813 353.981065772949
13.09825 328.930150336848
13.11836 315.977849995888
13.13847 345.948235213711
13.15859 367.996945093568
13.1787 355
13.19882 325.996700675513
13.21893 349.041225260688
13.23904 373.067311830094
13.25916 398.03204095082
13.27927 366.981614080651
13.29938 408.0035005505
13.3195 356
13.33961 366.000658704925
13.35973 348.002395072356
13.37984 376.044780700313
13.39995 370.063489285925
13.42007 349.002083249834
13.44018 370.966244576659
13.46029 386.011605069262
13.48041 347.995288879913
13.50052 374.02521224398
13.52064 380.008031988636
13.54075 377.926571783715
13.56086 339.017380389336
13.58098 363.977371172918
13.60109 366.999118956502
13.6212 362
13.64132 318.997607918997
13.66143 349.009957037198
13.68154 318.951105498353
13.70166 324.961098125583
13.72177 333.017263603261
13.74189 314.003047879137
13.762 324
13.78211 323.999963552384
13.80223 318.964500556489
13.82234 303.06407502169
13.84245 357.970991503558
13.86257 316.059747092856
13.88268 312.986674171545
13.9028 327
13.92291 339.995037756959
13.94302 312.978561223958
13.96314 305.988508175123
13.98325 305.941458081985
14.00336 335.002900613171
14.02348 308.011277305564
14.04359 327.987209769349
14.06371 331.990283902401
14.08382 309.998419429907
14.10393 322.998476256602
14.12405 295.909150837689
14.14416 280.957810821056
14.16427 319.964354915671
14.18439 309.016188379279
14.2045 291
14.22461 329.007496814518
14.24473 319.00644292069
14.26484 335.977741124781
14.28496 291.085784641399
14.30507 283.958234556002
14.32518 316.991093022131
14.3453 302
14.36541 310.00428158422
14.38552 307.993206547471
14.40564 302.995435685002
14.42575 298.034514804306
14.44587 284.994178198747
14.46598 298.001838884404
14.48609 290.989270673458
14.50621 324.99823655163
14.52632 294.001491644853
14.54643 329.01454745441
14.56655 303.973288929257
14.58666 334.898635805052
14.60677 353.068896625371
14.62689 278.018294014649
14.647 308
14.66712 336.981035246801
14.68723 290.95055683314
14.70734 290.021487754385
14.72746 294.996187573203
14.74757 300.978462872707
14.76768 320.98179324868
14.7878 324
14.80791 296.992111522714
14.82803 300.015047467727
14.84814 313.046869467243
14.86825 335.991267401719
14.88837 329.980271487664
14.90848 354.002498489241
14.92859 333.995536940433
14.94871 368.004230670048
14.96882 351.00786158372
14.98894 376.974056805698
15.00905 327.937224965749
15.02916 348.940406682898
15.04928 363.986646797699
15.06939 378.996819350424
15.0895 371
15.10962 342.957675664692
15.12973 315.030084477733
15.14984 361.032254041632
15.16996 332.067181962539
15.19007 330.956800556786
15.21019 355.006574209619
15.2303 313
15.25041 314.005074670734
15.27053 321.01968233564
15.29064 326.952304683262
15.31075 292.010230610645
15.33087 318.975296342357
15.35098 305.022861089961
15.3711 297
15.39121 310.000217694337
15.41132 303.006815638725
15.43144 317.992434158047
15.45155 299.00889268815
15.47166 315.975869289475
15.49178 311.008766291509
15.51189 311.994461571297
15.53201 325.003106104083
15.55212 327.008832609568
15.57223 333.977987381384
15.59235 307.982610201555
15.61246 327.950983463394
15.63257 334.020335347931
15.65269 318.998503583973
15.6728 345
15.69291 370.00585331
15.71303 379.030438450498
15.73314 412.06522897266
15.75326 450.872977698431
15.77337 527.91157584538
15.79348 548.009534590379
15.8136 536
15.83371 524.963979597336
15.85382 424.953516599766
15.87394 442.021077342756
15.89405 405.137365607216
15.91417 362.043858348643
15.93428 350.989432872302
15.95439 383.973743794554
15.97451 405.971720418839
15.99462 316.973620011795
16.01473 350.997394061492
16.03485 301.970564423825
16.05496 338.973881099485
16.07508 309.019593593051
16.09519 315.003181790619
16.1153 299
16.13542 337.011048347586
16.15553 308.955259909183
16.17564 305.02576940265
16.19576 319.978006686627
16.21587 328.978140083165
16.23598 339.012593122532
16.2561 319
16.27621 341.998597676357
16.29633 307.95833240816
16.31644 306.013323050946
16.33655 310.974942453007
16.35667 329.962898586521
16.37678 342.016425335821
16.39689 309.010783963484
16.41701 316.01252761372
16.43712 328.980992999128
16.45724 302.018276585418
16.47735 342.054188875879
16.49746 339.965349632295
16.51758 373.995700425519
16.53769 345.009723600474
16.5578 350
16.57792 334.982304662991
16.59803 335.036414503146
16.61814 365.020495915909
16.63826 345.070415349542
16.65837 318.014319174322
16.67849 321.997707224974
16.6986 332
16.71871 373.007855160882
16.73883 354.959113592922
16.75894 355.079504810949
16.77905 400.98681696469
16.79917 378.984232337695
16.81928 423.97891654277
16.8394 414
16.85951 439.993717128962
16.87962 394.983630631226
16.89974 405.953336241161
16.91985 351.053180291021
16.93996 371.985591001712
16.96008 339.04307568124
16.98019 316.00100788987
17.00031 324.003146886883
17.02042 326.00666782758
17.04053 342.031221998982
17.06065 349.954083789317
17.08076 320.025724424936
17.10087 339.939754458342
17.12099 371.996342565223
17.1411 363
17.16121 367.991764782582
17.18133 346.02378467862
17.20144 396.073931849377
17.22156 395.035006304966
17.24167 394.955179396687
17.26178 428.003698238642
17.2819 392
17.30201 393.998738333931
17.32212 385.012981690899
17.34224 413.01476956021
17.36235 391.061150972244
17.38247 377.025327992864
17.40258 360.000529646798
17.42269 379.986072393876
17.44281 389.989307530214
17.46292 359.997959941352
17.48303 378.995267181975
17.50315 361.043835479864
17.52326 398.020522576768
17.54338 346.021365497219
17.56349 371.99101962806
17.5836 357
17.60372 372.052584767333
17.62383 418.988555096027
17.64394 374.973023644261
17.66406 392.037858224973
17.68417 338.031722793828
17.70428 369.962501266596
17.7244 378
17.74451 363.991169763273
17.76463 356.021665696554
17.78474 388.063398618111
17.80485 407.965780891757
17.82497 394.103118671801
17.84508 323.989120439887
17.86519 391.99059409581
17.88531 345.989874143501
17.90542 380.026612553572
17.92554 365.946636150638
17.94565 358.036400439276
17.96576 371.033104874238
17.98588 336.014038584974
18.00599 344.003993925179
18.0261 318
18.04622 327.990972967106
18.06633 307.016286189329
18.08645 352.093780773225
18.10656 352.053350027939
18.12667 337.959170595025
18.14679 377.003954533333
18.1669 336
18.18701 388.023279906933
18.20713 390.96888459096
18.22724 382.037070509761
18.24735 401.05873563825
18.26747 353.016567221184
18.28758 388.968464413783
18.3077 375
18.32781 342.012838250435
18.34792 395.006427797558
18.36804 342.902598973192
18.38815 335.968904460202
18.40826 342.007530663437
18.42838 335.997284720322
18.44849 336.012517303465
18.46861 311.011459237466
18.48872 369.031995711353
18.50883 347.938906628722
18.52895 316.939244003809
18.54906 311.939033343729
18.56917 342.034378129428
18.58929 297.990074132791
18.6094 373
18.62951 332.970462890751
18.64963 314.036613762256
18.66974 352.036689540355
18.68986 339.046154644471
18.70997 328.991993333914
18.73008 344.980486183672
18.7502 349
18.77031 310.98691636865
18.79042 322.047887125648
18.81054 369.015530478136
18.83065 348.003462405886
18.85077 369.003449458675
18.87088 341.010130577147
18.89099 359.992083284454
18.91111 369.015206453982
18.93122 419.03870960246
18.95133 426.981593213688
18.97145 428.093222386764
18.99156 486.916530179402
19.01168 493.010763816537
19.03179 492.990341628807
19.0519 517
19.07202 489.951378861709
19.09213 468.064864587223
19.11224 533.008659195168
19.13236 477.066686052807
19.15247 490.993991546606
19.17258 466.015369721301
19.1927 485
19.21281 508.992880293273
19.23293 473.976926086148
19.25304 493.056603255012
19.27315 513.946775370022
19.29327 528.013962583455
19.31338 508.001800523049
19.33349 533.982850740809
19.35361 546.990489043074
19.37372 526.017908223704
19.39384 563.996466801487
19.41395 512.874425372451
19.43406 514.887343899016
19.45418 581.969104029241
19.47429 574.001801150908
19.4944 576
19.51452 529.007010480807
19.53463 583.041388800261
19.55475 566.989368628777
19.57486 611.849043968776
19.59497 663.017221698386
19.61509 606.023462569155
19.6352 606
19.65531 638.013098513276
19.67543 642.9647887629
19.69554 622.039751691483
19.71565 666.961661303313
19.73577 633.07276025159
19.75588 624.946673356771
19.776 698
19.79611 655.961817468734
19.81622 602.993075011167
19.83634 632.065275691446
19.85645 628.122062945534
19.87656 582.967149806307
19.89668 633.002624430895
19.91679 574.016266777895
19.93691 593.006623109271
19.95702 570.970434585908
19.97713 549.96502699018
19.99725 533.023619625749
20.01736 568.916111202515
20.03747 585.033454348063
20.05759 558.991149757935
20.0777 585
20.09782 490.973863867694
20.11793 556.100750515516
20.13804 563.950064606585
20.15816 542.017907983753
20.17827 536.033748886903
20.19838 513.984534140518
20.2185 568
20.23861 593.999793796002
20.25872 573.963585020056
20.27884 552.041549036904
20.29895 586.027286384132
20.31907 544.00152997155
20.33918 574.021111439204
20.35929 514.001900230829
20.37941 570.012072493837
20.39952 528.951727838852
20.41963 525.052203787895
20.43975 557.989244017376
20.45986 537.957984218243
20.47998 591.978312839822
20.50009 574.998577881961
20.5202 615
20.54032 622.998274618359
20.56043 621.98841244176
20.58054 597.915764185356
20.60066 548.08815510323
20.62077 506.083264946729
20.64088 463.984587823565
20.661 502
20.68111 437.990342736109
20.70123 495.112508831369
20.72134 518.921529497565
20.74145 466.011004827173
20.76157 510.950257761684
20.78168 519.966962696546
20.80179 573.988694946537
20.82191 544.975623968217
20.84202 514.996376427331
20.86214 527.019227788157
20.88225 530.024669115809
20.90236 559.901992988114
20.92248 597.006256572874
20.94259 565.004414994227
20.9627 584
20.98282 552.962185827499
21.00293 520.940812235661
21.02305 471.884465342567
21.04316 453.950983290328
21.06327 500.947574474043
21.08339 497.017888577455
21.1035 464
21.12361 476.992369758162
21.14373 444.005256547458
21.16384 487.062944738489
21.18395 483.03252471661
21.20407 465.067770347953
21.22418 417.003122055235
21.2443 459
21.26441 460.988250893392
21.28452 439.997817827132
21.30464 444.969003991975
21.32475 422.966364499694
21.34486 463.963220524292
21.36498 442.029937248192
21.38509 438.986618001347
21.40521 461.991227847845
21.42532 425.001548314504
21.44543 465.030802466823
21.46555 451.991693297699
21.48566 458.055858403912
21.50577 405.037661107352
21.52589 433.971804228591
21.546 474
21.56612 444.954887806434
21.58623 425.043357963257
21.60634 473.026662662895
21.62646 437.092173352905
21.64657 404.05198282483
21.66668 387.961606048418
21.6868 454
21.70691 432.987933357911
21.72702 434.0069066683
21.74714 445.06474706607
21.76725 479.005727959575
21.78737 442.048436311741
21.80748 455.937330642155
21.82759 506.013770402948
21.84771 428.983597808129
21.86782 475.066526250127
21.88793 519.052927697718
21.90805 545.002967822382
21.92816 527.032240918058
21.94828 525.993321573943
21.96839 529.002331539768
21.9885 519
22.00862 494.938712140152
22.02873 436.009361507322
22.04884 499.097590209469
22.06896 490.080292682274
22.08907 469.962352029769
22.10919 506.00642073353
22.1293 459
22.14941 516.034279132185
22.16953 556.032531370547
22.18964 571.017591466705
22.20975 587.904283061531
22.22987 631.970313040162
22.24998 642.953120521262
22.27009 713.981364808704
22.29021 701.990137422687
22.31032 718.053721984984
22.33044 780.075474854959
22.35055 762.82280430608
22.37066 696.009179222963
22.39078 742.969876040116
22.41089 721.020593090892
22.431 690
22.45112 668.980077552958
22.47123 643.948826180899
22.49135 597.860861420869
22.51146 554.022864554795
22.53157 566.985946286774
22.55169 550.018946346378
22.5718 521
22.59191 542.998553084636
22.61203 515.987463124797
22.63214 536.031374096362
22.65225 534.994337788135
22.67237 544.99702841033
22.69248 541.989242664579
22.7126 563
22.73271 549.989292657095
22.75282 545.023349464186
22.77294 564.945550019971
22.79305 521.957585493297
22.81316 569.057101355094
22.83328 475.042125119107
22.85339 517.977727540998
22.87351 521.000636356171
22.89362 542.022105082285
22.91373 561.044546064392
22.93385 595.043382551779
22.95396 607.918537870661
22.97407 669.935160073857
22.99419 687.987312856938
23.0143 735
23.03442 750.965348104309
23.05453 694.954595373476
23.07464 696.989611145965
23.09476 675.016892730534
23.11487 661.102337361972
23.13498 561.058534783719
23.1551 558
23.17521 514.971346686028
23.19532 481.004840950878
23.21544 490.932672171538
23.23555 433.032778930221
23.25567 476.933223852478
23.27578 481.021613785656
23.29589 461.002855735757
23.31601 467.001308565406
23.33612 468.016120334067
23.35623 503.060705852318
23.37635 522.96511809905
23.39646 493.028805686662
23.41658 501.99091073419
23.43669 506.990090312821
23.4568 525
23.47692 490.008536214131
23.49703 537.032554508993
23.51714 508.921994735596
23.53726 501.940397565625
23.55737 520.070732583119
23.57749 453.991965104098
23.5976 533
23.61771 483.993738366718
23.63783 527.016188387265
23.65794 484.943717630353
23.67805 494.984312440402
23.69817 479.022005377541
23.71828 484.977491389461
23.73839 500.006370181973
23.75851 472.996370535949
23.77862 488.006045239452
23.79874 474.977922099927
23.81885 463.916244714628
23.83896 430.972338569148
23.85908 487.950021564533
23.87919 502.999391154764
23.8993 497
23.91942 461.988213632363
23.93953 476.018854161775
23.95965 468.955706081432
23.97976 453.020380022421
23.99987 449.997058852657
24.01999 452.998843414143
24.0401 456
24.06021 457.992904523726
24.08033 448.039347827299
24.10044 484.980090833503
24.12056 434.055658889247
24.14067 447.983220111379
24.16078 442.989986534278
24.1809 466
24.20101 443.991716203124
24.22112 448.010222745469
24.24124 453.005056651245
24.26135 470.880159312135
24.28146 517.007049620001
24.30158 469.039210780181
24.32169 464.997449437939
24.34181 469.009397248791
24.36192 483.976434285607
24.38203 445.005551131076
24.40215 491.074999860874
24.42226 480.038647115709
24.44237 471.018709140493
24.46249 448.013126901939
24.4826 437
24.50272 477.048756787083
24.52283 484.898080759644
24.54294 395.961774140146
24.56306 440.974099360559
24.58317 402.022346261028
24.60328 431.980502476239
24.6234 410
24.64351 393.010288489381
24.66362 435.031482619863
24.68374 440.993299679656
24.70385 439.015273141854
24.72397 425.029815202109
24.74408 410.000925174313
24.76419 426.985270848574
24.78431 458.01316646237
24.80442 482.029378123265
24.82453 493.945321183598
24.84465 441.992122170712
24.86476 487.93788117375
24.88488 482.001898416344
24.90499 495.999794248087
24.9251 470
24.94522 460.034321852161
24.96533 493.95491456733
24.98544 444.075672538985
25.00556 538.975077350517
25.02567 451.101039725314
25.04579 454.997067777548
25.0659 426
25.08601 427.016901919867
25.10613 464.013496182583
25.12624 439.937432204215
25.14635 419.04475376237
25.16647 418.939281884214
25.18658 463.012919533298
25.20669 395.030053319287
25.22681 403.037125512347
25.24692 487.037722632498
25.26704 469.949127642271
25.28715 461.973844185405
25.30726 437.061786852785
25.32738 437.937389169192
25.34749 510.000964993774
25.3676 450
25.38772 491.02059272487
25.40783 461.957968642261
25.42795 450.930418419001
25.44806 414.007417631034
25.46817 452.926695146813
25.48829 474.006331213975
25.5084 446
25.52851 445.001063388069
25.54863 450.033693035329
25.56874 472.983335754471
25.58886 456.936687622461
25.60897 521.958087354732
25.62908 496.026625263014
25.6492 499
25.66931 493.990590826226
25.68942 476.999753623589
25.70954 492.027836098601
25.72965 496.989591246122
25.74976 506.971891106267
25.76988 526.970879561443
25.78999 541.014531765831
25.81011 515.025758256179
25.83022 628.082916251688
25.85033 633.9574803971
25.87045 633.113720225758
25.89056 708.860860115189
25.91067 743.989846276156
25.93079 749.987034154055
25.9509 791
25.97102 771.92063324353
25.99113 665.871585267156
26.01124 625.972636007984
26.03136 597.129946086541
26.05147 514.090352592407
26.07158 497.989874849263
26.0917 519
26.11181 538.987037698626
26.13193 489.973854982538
26.15204 503.982972364603
26.17215 473.990378320201
26.19227 516.952196312162
26.21238 502.047582045157
26.23249 455.013235280127
26.25261 451.000579406016
26.27272 446.997919565776
26.29283 450.006305051328
26.31295 445.955567814088
26.33306 428.991457485179
26.35318 437.026026051151
26.37329 396.997768539675
26.3934 445
26.41352 444.008144688665
26.43363 472.024352309867
26.45374 486.104480727643
26.47386 549.985781121337
26.49397 508.023368472947
26.51409 559.957650446208
26.5342 624
26.55431 648.04321982753
26.57443 754.029041187818
26.59454 689.921351212362
26.61465 715.939010973664
26.63477 709.99761542724
26.65488 717.027797049209
26.67499 660.019728137711
26.69511 660.007708506366
26.71522 651.953806323316
26.73534 604.004358987999
26.75545 636.982945525138
26.77556 575.121993554271
26.79568 561.972625414801
26.81579 582.013901470031
26.8359 529
26.85602 542.969423440573
26.87613 472.954066817877
26.89625 489.988029045368
26.91636 450.037435682615
26.93647 461.010009315995
26.95659 435.998092240596
26.9767 471
26.99681 466.000442903196
27.01693 474.980781444196
27.03704 451.010875287058
27.05716 490.923130430963
27.07727 494.04667047149
27.09738 465.988413141297
27.1175 496
27.13761 448.987847839953
27.15772 464.011327944622
27.17784 472.095339114405
27.19795 521.079949118359
27.21806 433.072480145705
27.23818 471.970093705299
27.25829 460.999890324028
27.27841 485.003980626716
27.29852 465.982749331789
27.31863 461.988669971461
27.33875 444.96179299962
27.35886 440.987855999625
27.37897 467.910526609099
27.39909 525.995587052538
27.4192 488
27.43932 484.006347506495
27.45943 494.041480139103
27.47954 539.094745848959
27.49966 558.052494825465
27.51977 527.963262325536
27.53988 603.934883456652
27.56 621
27.58011 618.002830368471
27.60023 639.057555974343
27.62034 682.063946687045
27.64045 665.220539918126
27.66057 577.983769496991
27.68068 659.970736970791
27.70079 610.015998776104
27.72091 644.02544853351
27.74102 657.971525580664
27.76113 618.98239616846
27.78125 633.002499231735
27.80136 603.079522192126
27.82148 575.014819745938
27.84159 575.990822106124
27.8617 597
27.88182 577.959522321026
27.90193 558.057827109464
27.92204 640.143556341268
27.94216 663.025143028021
27.96227 639.037336258514
27.98239 637.98126538488
28.0025 674
28.02261 617.992686456479
28.04273 653.024832238916
28.06284 609.848119891587
28.08295 534.167706231083
28.10307 488.028388563506
28.12318 487.994752718989
28.1433 485
28.16341 466.98810359566
28.18352 444.986807708055
28.20364 447.03389740427
28.22375 456.953063554268
28.24386 427.002925016334
28.26398 450.993109024828
28.28409 435.999580239563
28.3042 448
28.32432 413.007582585777
28.34443 475.104790480258
28.36455 500.938490584659
28.38466 454.067737191095
28.40477 460.938429215927
28.42489 502.99214178638
28.445 494
28.46511 502.001338975014
28.48523 503.03226675141
28.50534 517.918144896969
28.52546 455.995450150296
28.54557 519.942649679557
28.56568 495.038450780178
28.5858 468
28.60591 420.988031657768
28.62602 438.045945841199
28.64614 465.948800345065
28.66625 419.000244048132
28.68636 461.971595343416
28.70648 437.999568378581
28.72659 483.975192086728
28.74671 489.978144931865
28.76682 436.984917879995
28.78693 458.013100531728
28.80705 449.039648712538
28.82716 482.99528890777
28.84727 463.971121398577
28.86739 511.996582950245
28.8875 481
28.90762 525.015005352147
28.92773 506.015188411195
28.94784 542.996939436799
28.96796 504.019513602023
28.98807 539.952342974828
29.00818 540.009746817348
29.0283 549
29.04841 593.015737308591
29.06853 590.947868881918
29.08864 565.047863822096
29.10875 631.848051990502
29.12887 665.949211124682
29.14898 718.936544699519
29.16909 775.979680081464
29.18921 843.072123387699
29.20932 1056.21840881623
29.22943 1226.18778583499
29.24955 1340.32102402782
29.26966 1534.43878373209
29.28978 1902.57338730731
29.30989 2352.77281250677
29.33 2736
29.35012 2914.25072767925
29.37023 3206.23704421695
29.39034 3170.76554196473
29.41046 3051.30054832749
29.43057 2822.48193399769
29.45069 2475.14163412334
29.4708 2233
29.49091 1845.81076941024
29.51103 1518.52993449068
29.53114 1234.61652302123
29.55125 1132.18221824068
29.57137 1022.22573030262
29.59148 887.056296062166
29.6116 887
29.63171 800.955338965863
29.65182 777.056928586329
29.67194 850.015991572966
29.69205 811.029736054734
29.71216 882.914903084673
29.73228 867.015332009631
29.75239 886.984638684934
29.7725 900
29.79262 879.984741710602
29.81273 858.921584819197
29.83285 797.948723033258
29.85296 814.993584255737
29.87307 772.104639369282
29.89319 727.991870344547
29.9133 764
29.93341 694.981287997183
29.95353 715.034360027456
29.97364 709.980720539855
29.99376 709.99855589335
30.01387 701.030051225307
30.03398 665.054800538598
30.0541 631
30.07421 715.041247891497
30.09432 733.946901445064
30.11444 676.026849811493
30.13455 738.964722484074
30.15467 672.122702072919
30.17478 646.961539626656
30.19489 699.994381486635
30.21501 661.980757644941
30.23512 640.966683391223
30.25523 605.002358132966
30.27535 650.135628623467
30.29546 672.037624240205
30.31557 640.013772001126
30.33569 655.996227365076
30.3558 633
30.37592 612.028806938601
30.39603 659.00666286283
30.41614 612.911968659526
30.43626 622.872179074369
30.45637 693.954858858163
30.47648 681.010781946004
30.4966 691
30.51671 685.003303097343
30.53683 694.972211116482
30.55694 658.979359493477
30.57705 669.044131100633
30.59717 614.079644765564
30.61728 580.035663007211
30.63739 539.014058058968
30.65751 531.000910316718
30.67762 523.976016090539
30.69773 506.0292347847
30.71785 538.977360009697
30.73796 493.043872804791
30.75808 523.947774635345
30.77819 543.018899454148
30.7983 498
30.81842 567.023232989887
30.83853 516.91268886026
30.85864 489.959816085334
30.87876 478.949578771627
30.89887 509.035890171443
30.91899 440.022710690603
30.9391 450
30.95921 471.009999836442
30.97933 472.938637212594
30.99944 417.970422962961
31.01955 437.018225386119
31.03967 406.983067887205
31.05978 443.020228102987
31.0799 380
31.10001 425.004455228904
31.12012 385.992711221476
31.14024 426.046896569047
31.16035 411.029732265367
31.18046 425.952031752877
31.20058 435.012415910575
31.22069 420.99457180884
31.2408 455
31.26092 471.023929105354
31.28103 495.997129931529
31.30115 456.854080385359
31.32126 426.940823484515
31.34137 479.986489182853
31.36149 438.016166954324
31.3816 444
31.40171 442.997829283544
31.42183 436.975345098496
31.44194 421.008768820931
31.46206 431.037887044394
31.48217 398.991440384283
31.50228 439.977345486545
31.5224 414
31.54251 383.006441958872
31.56262 413.999913906463
31.58274 376.938727116732
31.60285 368.036001617331
31.62297 349.988071418688
31.64308 384.966881120087
31.66319 388.013471205
31.68331 368.012016998431
31.70342 426.044354706326
31.72353 439.015490059046
31.74365 441.905028297313
31.76376 391.002901814969
31.78387 451.88909614395
31.80399 493.993412830758
31.8241 476
31.84422 432.021435659654
31.86433 487.003374370035
31.88444 452.057778493465
31.90456 526.003626190257
31.92467 449.046542036458
31.94478 492.973077983116
31.9649 463
31.98501 452.996256842706
32.00513 435.976016233058
32.02524 420.951879267737
32.04535 396.017334292931
32.06547 403.002608121838
32.08558 388.009918584356
32.10569 385.006175538062
32.12581 371.004313906671
32.14592 397.013725009346
32.16604 382.944301962607
32.18615 365.005453087802
32.20626 381.967861721227
32.22638 387.000913665538
32.24649 385.001711620389
32.2666 386
32.28672 398.998682217352
32.30683 374.941018164069
32.32694 348.012784408585
32.34706 384.913523057353
32.36717 411.98300231409
32.38729 401.020331870316
32.4074 357
32.42751 373.004058723805
32.44763 365.006213790013
32.46774 380.998643055318
32.48785 360.0404756873
32.50797 363.977850184677
32.52808 383.971328393599
32.5482 406
32.56831 381.990943797096
32.58842 379.999017391345
32.60854 371.984331913111
32.62865 378.927089752495
32.64876 398.062534590342
32.66888 342.014005053522
32.68899 373.992282384519
32.7091 364
32.72922 409.017060431496
32.74933 399.027072222689
32.76945 441.01612015371
32.78956 399.087301456744
32.80967 382.011544422057
32.82979 380.989676126658
32.8499 405
32.87001 373.991829720128
32.89013 391.044948271696
32.91024 402.965900662307
32.93036 365.077963973571
32.95047 349.977284195808
32.97058 374.991951370141
32.9907 361
33.01081 366.011336258373
33.03092 382.989348344783
33.05104 356.985970570015
33.07115 378.93349745614
33.09127 386.01937538919
33.11138 369.004643884856
33.13149 377.996231700322
33.15161 378.00068626169
33.17172 380.995941528505
33.19183 370.99089338604
33.21195 373.011301001024
33.23206 373.0120402295
33.25217 372.970711665639
33.27229 404.98836386764
33.2924 413
33.31252 418.9913150485
33.33263 400.988077540895
33.35274 400.973648284537
33.37286 393.920742264815
33.39297 447.012072146678
33.41308 387.027814734038
33.4332 420
33.45331 430.001128302638
33.47343 428.969039603889
33.49354 409.035114203424
33.51365 449.967864372489
33.53377 406.11697033133
33.55388 352.990317676276
33.57399 406.979054671839
33.59411 405.990501417313
33.61422 383.965466351938
33.63434 360.039770232019
33.65445 404.037700013431
33.67456 380.040978824315
33.69468 378.010680617087
33.71479 363.992264017784
33.7349 400
33.75502 391.007644088252
33.77513 418.013381222413
33.79524 399.966648970595
33.81536 398.997784749014
33.83547 385.048586696213
33.85559 368.980493888064
33.8757 434
33.89581 400.983329853912
33.91593 409.054611400732
33.93604 443.026251074188
33.95615 431.057897920228
33.97627 412.019424280179
33.99638 408.990780885306
34.0165 421
34.03661 425.013535783811
34.05672 457.999309145012
34.07684 427.968989969851
34.09695 436.00716884201
34.11706 435.898242663478
34.13718 503.998190944188
34.15729 445.015456524328
34.17741 478.022063818223
34.19752 485.976624846158
34.21763 463.006828384525
34.23775 497.095621357799
34.25786 515.999208848301
34.27797 505.024346746905
34.29809 487.011002349238
34.3182 486
34.33831 547.005437353968
34.35843 518.006618086358
34.37854 571.087125514194
34.39866 562.094359114887
34.41877 527.974892737858
34.43888 580.96346614047
34.459 572
34.47911 548.996791019304
34.49922 560.021292320811
34.51934 562.925885458114
34.53945 521.965870794761
34.55957 577.959048091048
34.57968 566.988300139136
34.59979 611.986379559399
34.61991 591.977006710577
34.64002 552.980641351967
34.66013 563.05552143521
34.68025 595.999212146759
34.70036 573.011889467388
34.72047 595.963771537708
34.74059 596.010976539205
34.7607 579
34.78082 603.9938008393
34.80093 568.972627524142
34.82104 585.045459314114
34.84116 610.895499617638
34.86127 651.052626177961
34.88138 580.003897548174
34.9015 645
34.92161 614.989531026774
34.94173 625.992204047284
34.96184 593.957587072305
34.98195 598.976394976197
35.00207 592.033605146864
35.02218 576.985421527614
35.04229 600.006087220654
35.06241 560.99325060595
35.08252 574.991663733322
35.10264 535.944146237113
35.12275 545.077128052288
35.14286 559.053527517893
35.16298 518.004478307538
35.18309 556.980744297772
35.2032 566
35.22332 557.989623456001
35.24343 560.044896066552
35.26354 597.014392277439
35.28366 572.04545641116
35.30377 580.94592073129
35.32389 612.001128400173
35.344 593
35.36411 639.023667998908
35.38423 658.998048133262
35.40434 655.011135401562
35.42445 678.904019099127
35.44457 706.010770218638
35.46468 676.018361489632
35.4848 697
35.50491 745.004798743273
35.52502 729.003392729245
35.54514 758.03150969017
35.56525 728.172404607837
35.58536 664.040325170412
35.60548 681.988221390802
35.62559 677.992575246197
35.64571 703.9972009841
35.66582 656.944706522303
35.68593 632.017955158577
35.70605 669.108716490675
35.72616 703.942988763849
35.74627 713.039936157444
35.76639 676.002655963512
35.7865 699
35.80661 690.011528148526
35.82673 742.045256127448
35.84684 728.944635122284
35.86696 722.952419234786
35.88707 755.980209437067
35.90718 768.939133707516
35.9273 857
35.94741 825.965547479758
35.96752 775.989363292222
35.98764 784.978361456391
36.00775 746.088162289321
36.02787 731.013522223095
36.04798 713.027209135422
36.06809 676.023135888863
36.08821 629.982286659528
36.10832 594.946193938724
36.12843 541.981911092789
36.14855 551.934728512176
36.16866 500.017354781218
36.18878 529.007523926433
36.20889 486.001428691052
36.229 520
36.24912 458.954411691481
36.26923 466.044262937161
36.28934 476.962483174941
36.30946 450.004166435606
36.32957 479.945665989146
36.34968 487.032310445387
36.3698 440
36.38991 454.019245753041
36.41003 484.00523255147
36.43014 468.984275991025
36.45025 478.967633083965
36.47037 486.985347575049
36.49048 496.998294132287
36.51059 492.000809730251
36.53071 497.002379224481
36.55082 492.985538002679
36.57094 486.040589610652
36.59105 505.930534657933
36.61116 445.062388269954
36.63128 462.975364855946
36.65139 467.999367828945
36.6715 478
36.69162 493.012974180074
36.71173 497.989005852701
36.73184 470.901037141198
36.75196 429.99475734637
36.77207 454.016933646988
36.79219 420.991998477288
36.8123 487
36.83241 479.988665834173
36.85253 473.004871299808
36.87264 482.031404661515
36.89275 493.016034708452
36.91287 476.011998007097
36.93298 483.988543185445
36.9531 487
36.97321 479.998307136372
36.99332 478.994668974359
37.01344 490.10932406581
37.03355 542.063629014658
37.05366 463.067233041207
37.07378 474.043679049566
37.09389 392.001688617103
37.11401 469.02097735981
37.13412 446.999449991908
37.15423 483.003346843639
37.17435 428.843695896845
37.19446 406.957477001452
37.21457 448.943740843063
37.23469 458.009474991356
37.2548 433
37.27491 430.987909639503
37.29503 405.033831078061
37.31514 449.98196797074
37.33526 396.02609094464
37.35537 437.961488241851
37.37548 411.044623250079
37.3956 392
37.41571 426.01354812914
37.43582 436.007339389247
37.45594 441.982567064567
37.47605 425.013018245542
37.49617 439.964570877062
37.51628 453.005723892342
37.53639 431.013740907332
37.55651 428.020536288282
37.57662 471.985585295852
37.59673 413.96177143063
37.61685 445.090426313763
37.63696 448.035596042734
37.65708 430.009903621804
37.67719 434.990723700019
37.6973 447
37.71742 417.985142144856
37.73753 429.029189594328
37.75764 435.981402185287
37.77776 426.976509888949
37.79787 440.0384785343
37.81798 394.007352530428
37.8381 422
37.85821 387.992566342558
37.87833 414.051954782622
37.89844 415.919396786376
37.91855 374.974210475523
37.93867 420.978839455293
37.95878 396.003802591087
37.97889 412.012943149513
37.99901 364.006010298713
38.01912 430.031746994928
38.03924 400.94229409102
38.05935 407.038321090048
38.07946 416.969677815882
38.09958 436.986638228605
38.11969 432.011891653832
38.1398 402
38.15992 395.003951223064
38.18003 398.99684420775
38.20015 396.018591404355
38.22026 406.013469061198
38.24037 383.028990113251
38.26049 388.983393489401
38.2806 410
38.30071 351.994233858859
38.32083 402.083142015063
38.34094 405.901331709975
38.36105 355.987935048998
38.38117 397.990400638979
38.40128 354.036087310323
38.4214 360
38.44151 383.012462159271
38.46162 393.97733662395
38.48174 365.02392663523
38.50185 411.929420738612
38.52196 400.041248979216
38.54208 397.987538247643
38.56219 401.013149620019
38.58231 364.997174955975
38.60242 391.019167458159
38.62253 381.969385791286
38.64265 369.999519120857
38.66276 370.02900426754
38.68287 369.912741036026
38.70299 445.995899030401
38.7231 378
38.74321 367.011928032831
38.76333 392.019960457008
38.78344 391.994844282651
38.80356 392.005980382404
38.82367 391.97818804594
38.84378 404.019433237446
38.8639 371
38.88401 407.01279904538
38.90412 409.010264258402
38.92424 433.022021412655
38.94435 423.031211189394
38.96447 412.035591092973
38.98458 394.976139787617
39.00469 439.994172646377
39.02481 410.988703733157
39.04492 423.028115652629
39.06503 444.012943774461
39.08515 441.984963285627
39.10526 443.969299979042
39.12538 467.977840418214
39.14549 482.993780609849
39.1656 491
39.18572 497.042416622324
39.20583 559.055078306325
39.22594 557.984995392324
39.24606 581.877048921138
39.26617 645.964042357659
39.28628 650.951098578442
39.3064 735
39.32651 744.022747832186
39.34663 833.097271582829
39.36674 860.082059629671
39.38685 923.895116368039
39.40697 908.098980488893
39.42708 828.064200599482
39.44719 788.01776247436
39.46731 743.977772412638
39.48742 714.995489609495
39.50754 702.880136115481
39.52765 622.923082954873
39.54776 624.104314823072
39.56788 524.055573567294
39.58799 528.006166351105
39.6081 495
39.62822 550.004369891176
39.64833 480.882819794405
39.66845 444.98727924422
39.68856 449.987894555876
39.70867 443.037592056179
39.72879 411.011041885764
39.7489 410
39.76901 427.005169356344
39.78913 420.964827503208
39.80924 405.035566563338
39.82935 441.963098619547
39.84947 417.061698225354
39.86958 400.972567071778
39.8897 445
39.90981 417.982178120416
39.92992 405.008512918174
39.95004 414.98531503996
39.97015 393.036990787851
39.99026 396.974178761431
40.01038 400.015986837395
40.03049 378.002792745592
40.05061 398.016154804925
40.07072 410.974777544177
40.09083 372.990759911109
40.11095 402.058194371249
40.13106 394.048518433055
40.15117 381.978990302924
40.17129 404.999569282398
40.1914 382
40.21152 380.997127611895
40.23163 382.043339291679
40.25174 409.94789058178
40.27186 349.045475288066
40.29197 376.971555328128
40.31208 370.987315522684
40.3322 403
40.35231 379.991539827462
40.37242 385.006250252724
40.39254 381.995710730645
40.41265 374.07569866069
40.43277 357.922340422875
40.45288 436.989218156814
40.47299 381.012920251902
40.49311 405.999951745706
40.51322 361.969316821097
40.53333 373.036791747968
40.55345 390.040379871839
40.57356 399.023162654335
40.59368 379.999740312499
40.61379 394.002236163298
40.6339 373
40.65402 398.029262149712
40.67413 401.958895563959
40.69424 367.981330807909
40.71436 392.924736302817
40.73447 419.979271029407
40.75458 409.044996141694
40.7747 363
40.79481 404.022624434823
40.81493 426.01617476968
40.83504 436.014240691336
40.85515 426.097567861998
40.87527 386.995592833785
40.89538 424.976043305496
40.91549 410.014994007044
40.93561 401.012210605239
40.95572 423.974085401167
40.97584 373.997040032399
40.99595 423.073720492294
41.01606 413.994521225248
41.03618 426.031665451006
41.05629 367.008085482123
41.0764 396
41.09652 361.974566915368
41.11663 378.06235988871
41.13675 410.006044465644
41.15686 388.042692918418
41.17697 380.009659829474
41.19709 377.991375060199
41.2172 404
41.23731 389.991221339157
41.25743 380.98884858158
41.27754 377.017011588323
41.29765 386.029094752549
41.31777 365.992142483374
41.33788 394.982649845559
41.358 388
41.37811 386.997142022699
41.39822 380.00784871125
41.41834 388.96057898102
41.43845 352.03086874559
41.45856 374.945066531371
41.47868 385.995985878956
41.49879 389.000843376886
41.51891 390.007349718965
41.53902 403.987667013351
41.55913 377.998067542059
41.57925 396.991882173554
41.59936 374.989446434242
41.61947 406.981942143272
41.63959 376.025098828565
41.6597 343
41.67982 369.038104887317
41.69993 394.002937765144
41.72004 376.955521094048
41.74016 363.010744142235
41.76027 367.974441342413
41.78038 385.994202315913
41.8005 376
41.82061 367.001299251075
41.84072 369.987966670617
41.86084 349.989498593829
41.88095 372.895731581685
41.90107 406.987520058102
41.92118 396.006125543598
41.94129 400.002375003869
41.96141 383.994670780025
41.98152 392.023572460837
42.00163 401.955093436673
42.02175 355.97135958518
42.04186 388.926281248717
42.06198 400.004804374642
42.08209 394.001313233615
42.1022 400
42.12232 397.953290218349
42.14243 348.024344226186
42.16254 417.078036703063
42.18266 394.069711460653
42.20277 394.94796232282
42.22289 434.99088187238
42.243 429
42.26311 434.001588953242
42.28323 427.985558824505
42.30334 433.064860605673
42.32345 457.083740544722
42.34357 396.013256642423
42.36368 441.976349025693
42.38379 425.998027804483
42.40391 447.989185166883
42.42402 392.983928436989
42.44414 422.017041231498
42.46425 385.901542002238
42.48436 375.97633192935
42.50448 405.948078809828
42.52459 444.008309246321
42.5447 395
42.56482 416.005496115463
42.58493 392.98495385785
42.60505 414.072180985772
42.62516 425.020091231083
42.64527 400.045921966481
42.66539 380.00090457149
42.6855 384
42.70561 374.011891043283
42.72573 414.006591633181
42.74584 380.958348381726
42.76595 392.959604954823
42.78607 391.020824028082
42.80618 392.960591653405
42.8263 446
42.84641 416.975685876145
42.86652 385.995259687969
42.88664 402.045883242962
42.90675 422.942227896412
42.92686 440.998516277495
42.94698 432.996042229405
42.96709 464.972505825245
42.98721 509.001425149157
43.00732 506.055971779663
43.02743 594.040835424852
43.04755 571.071899957719
43.06766 665.85598460999
43.08777 685.96145035258
43.10789 747.965091299793
43.128 771
43.14812 713.031072674663
43.16823 812.074814546231
43.18834 769.87775672341
43.20846 730.099159321058
43.22857 660.10219850849
43.24868 622.000378653808
43.2688 625
43.28891 559.977732828791
43.30902 544.974462710295
43.32914 498.929015292743
43.34925 488.005975736268
43.36937 469.066249795756
43.38948 427.999903477566
43.40959 444.015526631563
43.42971 366.971104331198
43.44982 370.041559211137
43.46993 412.038912149226
43.49005 401.874784954779
43.51016 351.014743048508
43.53028 379.985648572801
43.55039 361.010055903825
43.5705 359
43.59062 366.021395876788
43.61073 387.996397451358
43.63084 360.946133865671
43.65096 352.988484971129
43.67107 368.958143004278
43.69119 392.000518106132
43.7113 364
43.73141 340.000166447953
43.75153 366.065010067538
43.77164 383.915067551668
43.79175 310.100140679225
43.81187 338.896848065335
43.83198 391.990478262554
43.85209 361.020464735668
43.87221 345.006972484724
43.89232 366.00008575042
43.91244 346.983171664986
43.93255 366.084614587915
43.95266 381.050969419528
43.97278 335.024538750327
43.99289 353.978543334741
44.013 374
44.03312 314.963812136836
44.05323 327.053264134597
44.07335 348.989031347235
44.09346 337.970539281475
44.11357 368.992256006858
44.13369 341.013077858433
44.1538 325
44.17391 299.014116973231
44.19403 365.057582165904
44.21414 341.892147383296
44.23426 309.973324709666
44.25437 353.944900753138
44.27448 362.004917151685
44.2946 365
44.31471 375.991687589664
44.33482 342.984952899916
44.35494 349.998615997403
44.37505 333.029771238182
44.39516 338.968928841983
44.41528 353.987618146114
44.43539 355.008637051459
44.45551 335.000036925979
44.47562 355.017050461135
44.49573 362.018407736087
44.51585 366.924060534527
44.53596 328.978407023359
44.55607 377.969606679693
44.57619 355.006952031153
44.5963 373
44.61642 375.994765535208
44.63653 373.000749998787
44.65664 369.970627357213
44.67676 363.937428204151
44.69687 401.026841801376
44.71698 339.033877100965
44.7371 354
44.75721 349.006066141848
44.77732 384.028210252553
44.79744 371.886939206162
44.81755 327.922802516852
44.83767 417.894474009506
44.85778 406.079153069175
44.87789 328.011048196322
44.89801 363.019495248306
44.91812 364.976417186653
44.93823 343.997897282795
44.95835 360.036040527342
44.97846 354.052660075021
44.99858 333.986668829852
45.01869 363.000145449617
45.0388 336
45.05892 358.009791745131
45.07903 340.97254570027
45.09914 330.965737082594
45.11926 320.945778587627
45.13937 357.020452041618
45.15949 312.998002330882
45.1796 368
45.19971 339.977475637154
45.21983 327.041290399854
45.23994 369.043404397908
45.26005 351.106232506423
45.28017 318.005751917271
45.30028 333.993142080582
45.32039 325.001318658342
45.34051 339.009297109887
45.36062 345.990898151941
45.38074 336.017698255495
45.40085 352.986888422838
45.42096 326.035168836094
45.44108 329.992908433462
45.46119 332.994956935135
45.4813 345
45.50142 327.985723553246
45.52153 330.022654672704
45.54165 338.966708295648
45.56176 317.995257251401
45.58187 345.962756624754
45.60199 346.009009165681
45.6221 328
45.64221 337.008414219421
45.66233 347.998167804466
45.68244 337.98190768678
45.70256 331.026407470238
45.72267 316.005518078968
45.74278 324.990096729868
45.7629 340
45.78301 377.001220510979
45.80312 352.993249337239
45.82324 379.061384189961
45.84335 391.999454070299
45.86346 379.063434822205
45.88358 342.022422490642
45.90369 338.000530253897
45.92381 330.996911862406
45.94392 335.016846962426
45.96403 358.029147533498
45.98415 362.972257374728
46.00426 338.068941563321
46.02437 334.901625603927
46.04449 413.002256735354
46.0646 335
46.08472 358.029711341319
46.10483 357.995437459584
46.12494 357.96492921923
46.14506 339.961017310955
46.16517 385.96516083169
46.18528 365.037502565398
46.2054 337
46.22551 342.023274074492
46.24563 384.964655470238
46.26574 324.993029078838
46.28585 381.929384961715
46.30597 350.052382706458
46.32608 347.99007353555
46.34619 353.996445567971
46.36631 355.992750706959
46.38642 339.006098997389
46.40653 358.99873108226
46.42665 335.970394593753
46.44676 349.957400339707
46.46688 360.001768541665
46.48699 350.007077790597
46.5071 351
46.52722 381.983433663732
46.54733 330.962168967853
46.56744 353.062479012644
46.58756 362.014542065084
46.60767 354.994564166388
46.62779 364.999181399269
46.6479 359
46.66801 363.994121349217
46.68813 339.982769182132
46.70824 346.008268624793
46.72835 346.960645728947
46.74847 378.953180126482
46.76858 392.006224263973
46.78869 378.00460197747
46.80881 380.003602344278
46.82892 381.992301416012
46.84904 381.053228397104
46.86915 413.992352850194
46.88926 371.08791413125
46.90938 368.955160070104
46.92949 418.996177222578
46.9496 395
46.96972 433.02486663138
46.98983 431.008248766134
47.00995 449.00242898935
47.03006 448.911994468288
47.05017 522.934499334327
47.07029 504.027065181172
47.0904 462
47.11051 481.010904424031
47.13063 500.052937925761
47.15074 539.020477099043
47.17086 507.10999142188
47.19097 468.002873342366
47.21108 486.000308069552
47.2312 475
47.25131 526.011500940054
47.27142 497.952316191171
47.29154 468.995311620747
47.31165 495.873107225628
47.33176 551.906605318184
47.35188 582.977707417052
47.37199 607.98432880085
47.39211 651.027655175403
47.41222 704.033970533054
47.43233 705.959223099199
47.45245 688.067536716748
47.47256 733.994811191386
47.49267 694.029661588394
47.51279 703.008139459053
47.5329 648
47.55302 618.975112052227
47.57313 593.986096732698
47.59324 596.992822905808
47.61336 577.053722038113
47.63347 548.052472701497
47.65358 517.012291968008
47.6737 520
47.69381 494.972381850235
47.71393 440.977071818292
47.73404 462.036438178938
47.75415 458.017094659216
47.77427 445.062463306634
47.79438 395.014465452793
47.81449 411.999604202225
47.83461 387.995239140563
47.85472 397.995594074142
47.87483 376.99132139153
47.89495 394.039442232915
47.91506 393.019198654451
47.93518 381.016225226287
47.95529 365.004531443809
47.9754 369
47.99552 389.01414173611
48.01563 381.948241624556
48.03574 342.972918567497
48.05586 357.966069123093
48.07597 371.951780774742
48.09609 408.996733240323
48.1162 380
48.13631 368.004217587796
48.15643 381.005362670031
48.17654 370.972203627305
48.19665 376.900370159181
48.21677 420.994668232752
48.23688 399.985123859703
48.257 448
48.27711 431.004240135574
48.29722 475.029499521263
48.31734 482.051335490644
48.33745 521.013391051547
48.35756 497.004765113337
48.37768 541.933194279246
48.39779 610.962339467217
48.4179 672
48.43802 676.038989242895
48.45813 732.005037463055
48.47825 690.979969486005
48.49836 724.984319859958
48.51847 670.128980707392
48.53859 629.973677872652
48.5587 706
48.57881 603.969684906446
48.59893 619.000594478335
48.61904 572.932212092671
48.63916 565.051443592182
48.65927 516.049513763718
48.67938 506.018523850087
48.6995 468
48.71961 449.997903061563
48.73972 444.984216941228
48.75984 414.925538127714
48.77995 390.990645692538
48.80006 399.050418937121
48.82018 357.00402879293
48.84029 389.992865083194
48.86041 362.982463851421
48.88052 343.988791006044
48.90063 337.003490230888
48.92075 346.019837214022
48.94086 348.002561267845
48.96097 338.040057736598
48.98109 308.005586047112
49.0012 328
49.02132 360.000325378698
49.04143 340.993798673831
49.06154 344.943056120376
49.08166 309.94878747562
49.10177 385.927121594049
49.12188 366.052418576876
49.142 328
49.16211 329.996274879617
49.18223 313.999861748237
49.20234 336.051848338238
49.22245 349.990774984892
49.24257 340.043351550835
49.26268 313.995440258926
49.28279 336.000720218301
49.30291 309.99467934511
49.32302 320.999325906672
49.34313 310.019911388543
49.36325 343.03352236489
49.38336 327.03237169643
49.40348 332.978518541356
49.42359 348.003563648777
49.4437 326
49.46382 329.00562586364
49.48393 329.000325562613
49.50404 329.992992779945
49.52416 333.942878167216
49.54427 365.009525836395
49.56439 322.01931322623
49.5845 316
49.60461 332.004997418145
49.62473 330.985220885455
49.64484 332.058921905432
49.66495 364.024047791596
49.68507 322.031358667452
49.70518 344.963687504919
49.7253 365
49.74541 356.991819891807
49.76552 341.992817686195
49.78564 339.988743726855
49.80575 329.984546147401
49.82586 330.992975741133
49.84598 336.986962118964
49.86609 343.009931411597
49.8862 312
49.90632 328.00761370321
49.92643 329.0425363492
49.94655 370.011107535596
49.96666 327.103701971125
49.98677 306.977224432739
50.00689 335.991143167913
50.027 332
50.04711 331.006488386262
50.06723 348.010877494741
50.08734 344.999417752225
50.10746 342.047727756877
50.12757 319.968221460914
50.14768 362.00149622396
50.1678 313
50.18791 322.012687885919
50.20802 332.993950765996
50.22814 318.9796257731
50.24825 320.972602043999
50.26837 337.965455619778
50.28848 349.01949880009
50.30859 315.006766656866
50.32871 330.008421378856
50.34882 324.975920573247
50.36893 312.03864742785
50.38905 359.056797250866
50.40916 341.060165592109
50.42927 318.037068801703
50.44939 306.986279168454
50.4695 355
50.48962 347.993811114686
50.50973 348.972439859626
50.52984 313.956068035711
50.54996 326.919218526606
50.57007 364.981182506318
50.59018 352.01571694697
50.6103 347
50.63041 337.993784583324
50.65053 338.03949584655
50.67064 357.933702040518
50.69075 294.061589373359
50.71087 333.90955277637
50.73098 367.995758222046
50.75109 353.010193878052
50.77121 337.993886642574
50.79132 342.036503058115
50.81143 380.991947421076
50.83155 331.886884461479
50.85166 328.937525806798
50.87178 362.987029066406
50.89189 349.011649351422
50.912 336
50.93212 342.003769256633
50.95223 333.968852258607
50.97234 317.009298562856
50.99246 336.97802238958
51.01257 318.068555974288
51.03269 288.985648894662
51.0528 349
51.07291 315.979387919973
51.09303 305.015566220416
51.11314 311.975595371487
51.13325 291.008106908028
51.15337 305.988994892374
51.17348 310.966372001493
51.1936 360
51.21371 336.983653117068
51.23382 325.007202062942
51.25394 340.025796116053
51.27405 341.027588536286
51.29416 320.056850598161
51.31428 308.970776434787
51.33439 357.987621313005
51.3545 333
51.37462 299.02541006674
51.39473 359.049140230615
51.41485 345.958783823054
51.43496 342.034726677719
51.45507 317.000659378712
51.47519 343.987575602527
51.4953 344
51.51541 328.000471685141
51.53553 337.995058989779
51.55564 326.01231156901
51.57576 350.965490932313
51.59587 348.014539342288
51.61598 349.981462864934
51.6361 357
51.65621 300.9929825596
51.67632 335.028296354637
51.69644 328.96855419268
51.71655 323.995470059274
51.73667 321.022929565102
51.75678 304.000290998574
51.77689 312.005251054138
51.79701 298.012242008363
51.81712 340.999210435887
51.83723 300.981084336526
51.85735 326.016809677985
51.87746 308.981061091685
51.89757 338.013196585987
51.91769 299.001882514428
51.9378 335
51.95792 311.98319082578
51.97803 316.998211467473
51.99814 319.084949223393
52.01826 376.980120875842
52.03837 331.07030112357
52.05848 321.986755643698
52.0786 333
52.09871 329.004321057552
52.11883 348.015705984361
52.13894 341.976286905816
52.15905 332.026688949203
52.17917 318.025356549545
52.19928 307.993349993674
52.21939 331.984002351196
52.23951 342.984895881204
52.25962 309.020170503891
52.27974 372.072634686325
52.29985 356.943219243936
52.31996 346.045716566393
52.34008 329.966186040952
52.36019 390.989157204866
52.3803 356
52.40042 336.988474662535
52.42053 331.021477039192
52.44064 359.04013270854
52.46076 371.944988715504
52.48087 398.020869465683
52.50099 342.03051403864
52.5211 330
52.54121 401.00834571306
52.56133 354.928913665279
52.58144 334.95215595124
52.60155 306.007296575741
52.62167 334.946448011933
52.64178 350.008550278617
52.6619 336
52.68201 344.993580556073
52.70212 321.004930237378
52.72224 349.010340428311
52.74235 325.033933541215
52.76246 328.026980654811
52.78258 306.986002022967
52.80269 347.991485930734
52.8228 329
52.84292 336.012647402951
52.86303 337.988876419492
52.88315 338.057552225683
52.90326 372.960891320307
52.92337 366.026939876142
52.94349 348.011140202923
52.9636 328
52.98371 346.020843954419
53.00383 378.987647341852
53.02394 332.904176530956
53.04406 322.934476008688
53.06417 370.954334336191
53.08428 372.00807717629
53.1044 374
53.12451 378.99277349398
53.14462 353.987229871151
53.16474 367.059699626847
53.18485 388.013204029571
53.20497 365.022236172393
53.22508 364.007131729612
53.24519 359.985775751555
53.26531 391.98838327393
53.28542 323.956859150998
53.30553 331.02095266956
53.32565 342.102580891214
53.34576 395.968864789118
53.36587 364.057093129011
53.38599 357.988398820275
53.4061 372
53.42622 323.999286644659
53.44633 370.042259508144
53.46644 357.978443347933
53.48656 358.041544226821
53.50667 323.015696823003
53.52678 349.961507250575
53.5469 363
53.56701 322.988757650361
53.58713 348.104199406756
53.60724 403.972873407641
53.62735 342.081942002942
53.64747 358.984126984583
53.66758 351.979662389403
53.68769 389.00126361733
53.70781 353.997952806469
53.72792 384.004128209382
53.74804 350.95690352565
53.76815 355.996934037682
53.78826 345.977001446331
53.80838 371.997051632227
53.82849 351.004127311357
53.8486 374
53.86872 397.001504344469
53.88883 381.972636502373
53.90894 372.999737433572
53.92906 363.075342139245
53.94917 324.988455602354
53.96929 362.996760896626
53.9894 346
54.00951 399.993717297622
54.02963 326.946459493016
54.04974 353.031195457739
54.06985 339.969846715629
54.08997 369.024422969964
54.11008 320.006307193386
54.1302 361
54.15031 339.998318435222
54.17042 370.023094560048
54.19054 361.953014729809
54.21065 347.98676555182
54.23076 373.923610690914
54.25088 398.008872172302
54.27099 361.020662795443
54.29111 356.024425132659
54.31122 407.986222395689
54.33133 344.959660986672
54.35145 374.050648638738
54.37156 348.090005579939
54.39167 328.961734377881
54.41179 373.989891819328
54.4319 357
54.45201 353.00407023442
54.47213 353.971795794003
54.49224 327.98467971337
54.51236 340.978847654781
54.53247 347.962549984327
54.55258 378.997135174019
54.5727 346
54.59281 324.000933685521
54.61292 342.022847190522
54.63304 357.010435046162
54.65315 355.012313177764
54.67327 353.991727471908
54.69338 360.002250316891
54.71349 339.020612606324
54.73361 305.001532880103
54.75372 347.05296939842
54.77383 372.981905576365
54.79395 349.002748128992
54.81406 374.972835616727
54.83417 365.011690648195
54.85429 363.009138681298
54.8744 342
54.89452 376.007904104519
54.91463 345.951700556254
54.93474 340.027162769302
54.95486 354.990703136806
54.97497 358.963478475358
54.99508 388.003666834627
55.0152 364
55.03531 385.987935728579
55.05543 326.970838418732
55.07554 355.019618160226
55.09565 326.056394750696
55.11577 331.982298095397
55.13588 337.988868901317
55.15599 353.995342168621
55.17611 347.990735925174
55.19622 327.98718983982
55.21634 325.002331915018
55.23645 336.080276693287
55.25656 359.056230230336
55.27668 300.027190323335
55.29679 325.980902795378
55.3169 343
55.33702 335.98071893659
55.35713 321.013084598647
55.37724 346.02881319763
55.39736 337.037019879563
55.41747 330.977709143694
55.43759 353.99517577945
55.4577 348
55.47781 349.994572744911
55.49793 335.010960443947
55.51804 364.047255643827
55.53815 363.045550199828
55.55827 341.02912551788
55.57838 326.014582886186
55.5985 325
55.61861 362.001026455301
55.63872 331.982598927942
55.65884 349.057825172366
55.67895 365.992359984218
55.69906 347.094464738527
55.71918 303.001950206749
55.73929 339.983045131397
55.75941 349.001820267518
55.77952 355.999321406977
55.79963 341.967161358196
55.81975 335.064129715456
55.83986 369.000451324488
55.85997 331.05535098729
55.88009 326.988819336576
55.9002 346
55.92031 317.991124955345
55.94043 323.015408327269
55.96054 333.042862398018
55.98066 355.99538900604
56.00077 336.03283948652
56.02088 336.971506360482
56.041 366
56.06111 328.979172094398
56.08122 318.026115923902
56.10134 356.035742600574
56.12145 338.09433418124
56.14157 316.974886644827
56.16168 353.981756716693
56.18179 338.013447290991
56.20191 340.023803851606
56.22202 391.997664195464
56.24213 349.986993065876
56.26225 396.12340437472
56.28236 395.108796096757
56.30248 336.010908106791
56.32259 368.989916443935
56.3427 358
56.36282 375.013954133198
56.38293 384.038695502279
56.40304 416.010664588331
56.42316 391.052067677663
56.44327 386.981414688793
56.46338 407.972903831263
56.4835 438
56.50361 454.993723742479
56.52373 422.960939130643
56.54384 421.030810662664
56.56395 440.955117806558
56.58407 442.037069251873
56.60418 403.032334731051
56.62429 401.982713497588
56.64441 448.014120941754
56.66452 437.959788269886
56.68464 395.95469723917
56.70475 392.991831156783
56.72486 384.000068282705
56.74498 393.993580764312
56.76509 392.000872719824
56.7852 392
56.80532 383.999511280128
56.82543 387.993190583943
56.84554 372.971447787457
56.86566 369.984122017409
56.88577 380.990317646398
56.90589 376.00789616551
56.926 369
56.94611 406.010799748843
56.96623 394.955273604202
56.98634 364.950498678872
57.00645 349.020623956855
57.02657 352.966823486771
57.04668 376.996755772558
57.0668 372
57.08691 406.999640078922
57.10702 376.995960443489
57.12714 405.022113918318
57.14725 381.07018241321
57.16736 377.95862434887
57.18748 406.977289789254
57.20759 407.012455621687
57.22771 390.013150922723
57.24782 441.021282977717
57.26793 414.944406862353
57.28805 415.123930083193
57.30816 486.893811633505
57.32827 487.071546174521
57.34839 446.990695938443
57.3685 495
57.38861 454.007168853783
57.40873 532.084361664016
57.42884 505.830588012338
57.44896 424.078033138575
57.46907 432.964314963874
57.48918 438.014384945726
57.5093 423
57.52941 437.99918029507
57.54952 418.990560161732
57.56964 431.03721824614
57.58975 434.050442202905
57.60987 397.058979293435
57.62998 366.025525157638
57.65009 349.999458246393
57.67021 368.013555635942
57.69032 376.97100209598
57.71043 332.976419708534
57.73055 352.043809710601
57.75066 350.007422369895
57.77078 350.008739189874
57.79089 337.998558486756
57.811 351
57.83112 343.011481169004
57.85123 369.01165502286
57.87134 343.92034970271
57.89146 316.012784174177
57.91157 335.937277526555
57.93168 365.014691444582
57.9518 336
57.97191 379.99529794414
57.99203 308.909485817987
58.01214 311.090548413681
58.03225 359.922377905572
58.05237 363.022081887898
58.07248 337.040662520282
58.09259 303.999346721463
58.11271 338.019153840207
58.13282 347.976691244533
58.15294 307.930529585478
58.17305 298.033056358046
58.19316 324.935287993522
58.21328 345.999672414701
58.23339 333.004836340186
58.2535 329
58.27362 314.00255520609
58.29373 324.985460036137
58.31385 295.955827984744
58.33396 302.970513782375
58.35407 304.026043570742
58.37419 290.990494250826
58.3943 333
58.41441 327.990104946774
58.43453 314.996485602176
58.45464 324.034638116527
58.47475 340.97376243324
58.49487 338.026496442427
58.51498 320.999447829414
58.5351 330
58.55521 306.995896922334
58.57532 315.999622218795
58.59544 309.031339123054
58.61555 336.006764758436
58.63566 310.997943782622
58.65578 342.980870218808
58.67589 320.025299306636
58.69601 284.003631727158
58.71612 320.021636832791
58.73623 301.939583387132
58.75635 283.072810164094
58.77646 330.979629320364
58.79657 296.047076439918
58.81669 299.988655277367
58.8368 313
58.85691 301.007579113649
58.87703 332.007208424918
58.89714 305.96051041559
58.91726 310.977073524747
58.93737 313.007738911348
58.95748 303.014649783295
58.9776 302
58.99771 344.006607816168
59.01782 324.984749953155
59.03794 320.95832323292
59.05805 294.977110796567
59.07817 322.01909588161
59.09828 279.005705386099
59.11839 318.98681861529
59.13851 301.984479353656
59.15862 295.026268464159
59.17873 336.041361984874
59.19885 328.911672050037
59.21896 297.004947614069
59.23908 319.98135050215
59.25919 317.006199297874
59.2793 310
59.29942 319.013880492655
59.31953 327.995600669116
59.33964 317.989577194419
59.35976 324.970531957369
59.37987 339.982186977047
59.39998 334.035298294342
59.4201 289
59.44021 307.022872369309
59.46033 340.992388358907
59.48044 303.930569327366
59.50055 307.886826779486
59.52067 360.964480736125
59.54078 343.035233909544
59.56089 316.008503578484
59.58101 307.999378845732
59.60112 318.027974282833
59.62124 343.993595371757
59.64135 324.006195747234
59.66146 346.995561067949
59.68158 324.011408754371
59.70169 337.991754450589
59.7218 337
59.74192 323.001801314884
59.76203 332.995016604127
59.78215 321.013619814616
59.80226 343.971484530949
59.82237 342.995458151762
59.84249 352.99978064069
59.8626 343
59.88271 355.012306124654
59.90283 372.993745913593
59.92294 353.977844100456
59.94305 362.953664891088
59.96317 375.996149319777
59.98328 372.001855039906
60.0034 370
60.02351 355.001713978902
60.04362 384.041232831512
60.06374 403.955602541052
60.08385 365.022383308635
60.10396 405.871872530751
60.12408 444.011573099171
60.14419 399.019197320183
60.16431 396.010928039271
60.18442 416.001687948221
60.20453 415.042103894595
60.22465 456.013899133216
60.24476 425.040865723822
60.26487 435.975125178517
60.28499 437.005034727124
60.3051 421
60.32522 410.013668782996
60.34533 443.048239775074
60.36544 455.989776733921
60.38556 436.064746376955
60.40567 411.994772135922
60.42578 436.978809992026
60.4459 439
60.46601 431.997163242883
60.48612 431.006430497086
60.50624 433.971804424823
60.52635 422.935033940763
60.54647 479.929063928153
60.56658 490.015016590196
60.58669 480.992068266165
60.60681 507.001103194958
60.62692 481.978193453753
60.64703 487.038164254129
60.66715 505.979188297955
60.68726 469.091131023094
60.70738 442.000095776555
60.72749 453.000977085962
60.7476 443
60.76772 473.017887123445
60.78783 462.965574458738
60.80794 462.082341504205
60.82806 510.003494955213
60.84817 465.03843080198
60.86828 474.003450717937
60.8884 443
60.90851 432.992821404206
60.92863 432.076216209745
60.94874 491.974907188801
60.96885 425.053024560268
60.98897 468.956738832965
61.00908 438.055151410807
61.02919 408.993635047546
61.04931 435.999050939812
61.06942 412.003723747497
61.08954 442.010068833211
61.10965 419.999171938504
61.12976 443.995528265054
61.14988 410.038470695288
61.16999 408.976416265075
61.1901 465
61.21022 429.960183755496
61.23033 415.998972021701
61.25045 427.084319723055
61.27056 451.059485157877
61.29067 393.02459581326
61.31079 426.988371244465
61.3309 411
61.35101 413.013349175746
61.37113 442.012981198333
61.39124 438.026328047112
61.41135 466.96729874776
61.43147 449.049132334818
61.45158 431.986473915522
61.4717 449
61.49181 403.994507572833
61.51192 436.026792162252
61.53204 428.956572960375
61.55215 424.932161945268
61.57226 456.012456348285
61.59238 416.02863346373
61.61249 420.991888535021
61.63261 420.98931019734
61.65272 399.003627771141
61.67283 412.974608383751
61.69295 376.995623806992
61.71306 400.029391104961
61.73317 359.985341155617
61.75329 421.979610372407
61.7734 407
61.79352 394.006064722667
61.81363 408.017054935618
61.83374 394.902575566367
61.85386 344.014294414016
61.87397 379.950508778052
61.89408 378.023215540376
61.9142 357
61.93431 365.009582301304
61.95442 372.979755521139
61.97454 338.968245813865
61.99465 354.925259177834
62.01477 372.007911109724
62.03488 360.990738366153
62.05499 382.99952301628
62.07511 359.992009342402
62.09522 357.988413369804
62.11533 347.035265479623
62.13545 382.980748850252
62.15556 336.05080119869
62.17568 353.977024324886
62.19579 358.000432515815
62.2159 357
62.23602 333.971403164079
62.25613 337.098061008197
62.27624 408.982410275492
62.29636 334.07734128149
62.31647 367.937683187342
62.33659 368.012971069376
62.3567 334
62.37681 318.016691230376
62.39693 373.033107718179
62.41704 363.024664816036
62.43715 396.999858618868
62.45727 361.027816640447
62.47738 377.982760343016
62.49749 372.008772552504
62.51761 356.995146304508
62.53772 352.999675347965
62.55784 355.010107108427
62.57795 361.010027045965
62.59806 365.976751708299
62.61818 381.987931688549
62.63829 378.01202072142
62.6584 340
62.67852 321.018819981275
62.69863 355.016248152453
62.71875 336.963475020645
62.73886 346.952683975418
62.75897 364.994711793661
62.77909 356.005383354086
62.7992 352
62.81931 355.002384428199
62.83943 364.024015880577
62.85954 369.951850766616
62.87965 333.0299751672
62.89977 348.985676072476
62.91988 342.996302651588
62.94 365
62.96011 373.997710686873
62.98022 361.98599288767
63.00034 352.99588876912
63.02045 356.981818069831
63.04056 354.048063270685
63.06068 323.012429440509
63.08079 341.981092451361
63.10091 371.002188156729
63.12102 344.953541300963
63.14113 308.99460113814
63.16125 334.07068819192
63.18136 338.045925909538
63.20147 312.998822018974
63.22159 332.99766931479
63.2417 316
63.26182 327.019274208285
63.28193 340.007452510145
63.30204 326.921443625799
63.32216 295.958092017281
63.34227 346.976868420877
63.36238 313.031533927811
63.3825 307
63.40261 297.009378839867
63.42272 333.01138456147
63.44284 310.954650564009
63.46295 309.973257256006
63.48307 312.025523075692
63.50318 298.975370896456
63.52329 340.997563897446
63.54341 311.997419324019
63.56352 338.006955993832
63.58363 317.992648814972
63.60375 334.002127142179
63.62386 317.002999967856
63.64398 324.024649277346
63.66409 287.993167865628
63.6842 338
63.70432 298.97264801402
63.72443 316.048558237659
63.74454 325.956745183396
63.76466 293.028534712301
63.78477 312.93978128738
63.80489 351.985160899772
63.825 356
63.84511 314.990907766449
63.86523 314.971278871075
63.88534 286.016128440754
63.90545 328.929083269099
63.92557 315.052680893607
63.94568 299.974353953109
63.96579 343.990552611161
63.98591 330.995703317316
64.00602 335.991672425148
64.02614 311.970228638099
64.04625 319.043368372331
64.06636 331.989823142481
64.08648 328.010992400447
64.10659 310.013371612661
64.1267 286
64.14682 296.014475113354
64.16693 305.009246705155
64.18705 321.088895759101
64.20716 355.992818041081
64.22727 319.084235125868
64.24739 285.993920039223
64.2675 327
64.28761 329.997052665339
64.30773 326.988478176875
64.32784 322.02547160138
64.34796 337.026875285389
64.36807 309.992355700558
64.38818 345.980364123557
64.4083 326
64.42841 316.016938790336
64.44852 367.022671227464
64.46864 351.965412193569
64.48875 346.039975440309
64.50886 327.980382756391
64.52898 364.966872797558
64.54909 379.993539188323
64.56921 403.014312919954
64.58932 419.991936014916
64.60943 402.000845373727
64.62955 419.007388831483
64.64966 405.006895537561
64.66977 416.99265824234
64.68989 403.011000393164
64.71 393
64.73012 409.996827470827
64.75023 383.961257787695
64.77034 380.034126949864
64.79046 401.977747901323
64.81057 393.034436047049
64.83068 374.999825034447
64.8508 386
64.87091 369.989936687449
64.89102 353.983746769014
64.91114 332.949336900276
64.93125 316.981850848175
64.95137 340.969617760727
64.97148 345.004644899447
64.99159 342.997835216545
65.01171 353.005593398838
65.03182 356.992687804613
65.05193 343.98673138126
65.07205 340.987440616594
65.09216 325.055086053552
65.11228 304.992065436282
65.13239 332.990231418309
65.1525 322
65.17262 299.020310111577
65.19273 348.047826864753
65.21284 342.96644860562
65.23296 328.048546800229
65.25307 302.012395771721
65.27319 311.995300761796
65.2933 310
65.31341 310.003254574805
65.33353 315.995995104277
65.35364 306.990296554467
65.37375 311.974800657037
65.39387 320.990575862481
65.41398 326.990417995617
65.43409 337.996941363134
65.45421 339.000893777529
65.47432 355.037526424747
65.49444 383.964773782596
65.51455 331.909480645019
65.53466 345.902157863157
65.55478 401.950606700464
65.57489 414.021717450055
65.595 346
65.61512 355.037968362438
65.63523 378.983844736801
65.65535 343.930120461787
65.67546 345.951765363111
65.69557 366.004144198506
65.71569 341.013891052161
65.7358 327
65.75591 335.009930230699
65.77603 353.000968595532
65.79614 344.008613551667
65.81626 363.970445859551
65.83637 365.996865920291
65.85648 371.99926622966
65.8766 360
65.89671 337.994693584682
65.91682 346.02361284492
65.93694 356.945626299378
65.95705 322.958652950516
65.97716 372.982265443687
65.99728 336.012645620506
66.01739 357.003073644108
66.03751 315.988824836471
66.05762 337.036019848373
66.07773 357.000914035185
66.09785 345.970716989295
66.11796 343.985069481359
66.13807 347.022632324795
66.15819 323.004823128488
66.1783 327
66.19842 318.01898072003
66.21853 359.038716044418
66.23864 341.898236769496
66.25876 291.049537239175
66.27887 298.966765852915
66.29898 315.989298061315
66.3191 320
66.33921 304.98271270632
66.35933 271.995936843929
66.37944 303.079486027297
66.39955 317.054970528932
66.41967 293.96819954614
66.43978 332.018327013265
66.45989 263.020051432689
66.48001 293.031116309336
66.50012 335.005983323749
66.52023 313.964520158898
66.54035 300.967969246397
66.56046 288.999227820115
66.58058 299.991620433721
66.60069 306.990085556861
66.6208 326
66.64092 289.969934709024
66.66103 276.976341889535
66.68114 270.066992326495
66.70126 324.95080299841
66.72137 303.050768914076
66.74149 286.002804476207
66.7616 288
66.78171 300.000771772353
66.80183 289.982457286014
66.82194 287.012976830408
66.84205 291.02805302618
66.86217 282.960313728051
66.88228 329.978443318765
66.90239 309.017447976525
66.92251 282.988884757509
66.94262 263.989492306844
66.96274 266.027177550572
66.98285 280.009903904285
67.00296 276.993345532173
67.02308 298.960634462895
67.04319 325.00878682154
67.0633 281
67.08342 286.994816967081
67.10353 270.015698354487
67.12365 308.065568405267
67.14376 303.033918433377
67.16387 295.991460555759
67.18399 305.998477323815
67.2041 297
67.22421 290.004359680488
67.24433 306.010310317719
67.26444 305.016953766009
67.28456 317.015989861612
67.30467 298.991732132917
67.32478 324.990372809088
67.3449 305
67.36501 300.009875776307
67.38512 328.01565946489
67.40524 313.918478060132
67.42535 275.026215326094
67.44546 294.947432192433
67.46558 303.011042930365
67.48569 286.004437651018
67.50581 297.014308693049
67.52592 317.989894219926
67.54603 298.022050856346
67.56615 338.02804372458
67.58626 304.083010732351
67.60637 296.951158713518
67.62649 331.004211760099
67.6466 285
67.66672 298.048316524692
67.68683 341.012720201706
67.70694 313.930421279507
67.72706 297.995030373318
67.74717 303.011582215341
67.76728 291.98942391864
67.7874 315
67.80751 290.99101462592
67.82763 302.048111719899
67.84774 319.952400467032
67.86785 279.013322200011
67.88797 311.9679589988
67.90808 298.023266852877
67.92819 300.980563254063
67.94831 331.984550452436
67.96842 264.977130600381
67.98853 302.049735911482
68.00865 298.978796163208
68.02876 301.004367058087
68.04888 290.00957260673
68.06899 293.990219311202
68.0891 314
68.10922 296.977704636514
68.12933 281.986168129396
68.14944 276.999042491736
68.16956 278.99564867724
68.18967 281.989983536461
68.20979 293.992073298657
68.2299 305
68.25001 301.005427408209
68.27013 312.972825720725
68.29024 275.973531370136
68.31035 300.912471550908
68.33047 308.047051897935
68.35058 268.007784337152
68.3707 298
68.39081 304.994199459257
68.41092 300.019955407897
68.43104 329.006937637398
68.45115 300.921963768827
68.47126 294.960126021167
68.49138 313.012582737534
68.51149 286.996671661004
68.5316 310
68.55172 262.011204577078
68.57183 329.053077283747
68.59195 299.900581906535
68.61206 283.026623463194
68.63217 272.980862669003
68.65229 295.999554001255
68.6724 285
68.69251 316.991804802924
68.71263 274.019763773953
68.73274 330.005936424441
68.75286 273.055315844537
68.77297 302.958959910365
68.79308 293.02195446317
68.8132 280
68.83331 282.010876916835
68.85342 311.013701651295
68.87354 303.978004514016
68.89365 304.969155156064
68.91376 323.957383909684
68.93388 331.019931625503
68.95399 297.011018227504
68.97411 300.007752450358
68.99422 316.016715854561
69.01433 320.970400327571
69.03445 293.991137961903
69.05456 314.9680618453
69.07467 312.010039915026
69.09479 314.994599890696
69.1149 322
69.13502 299.97116554046
69.15513 294.057817939261
69.17524 348.036320928519
69.19536 327.025274505017
69.21547 333.01849579879
69.23558 303.009520710892
69.2557 321
69.27581 314.993757024714
69.29593 312.013004958137
69.31604 313.949624549351
69.33615 282.985858244201
69.35627 324.946833008262
69.37638 329.010028940738
69.39649 325.996145822178
69.41661 327.988077847938
69.43672 290.98314531581
69.45683 293.984833875883
69.47695 276.031174291954
69.49706 313.960473578449
69.51718 296.032040886271
69.53729 280.99501958292
69.5574 303
69.57752 289.964795079163
69.59763 269.039530874823
69.61774 319.033274482996
69.63786 299.006679804057
69.65797 317.013835575095
69.67809 281.006609678683
69.6982 299
69.71831 290.003357182441
69.73843 315.018895560719
69.75854 301.957010157558
69.77865 291.988022011752
69.79877 302.991874308472
69.81888 293.023404603676
69.839 281
69.85911 314.99932070763
69.87922 282.988711935043
69.89934 306.039618008032
69.91945 306.001278840138
69.93956 310.019777795919
69.95968 293.996735709458
69.97979 315.99267805937
69.9999 305
70.02002 287.014788588183
70.04013 318.01313991781
70.06025 300.979411649126
70.08036 310.993352614396
70.10047 307.976266183775
70.12059 336.994588807556
70.1407 327
70.16081 334.996333022184
70.18093 307.962404270267
70.20104 310.066299156479
70.22116 337.0421010983
70.24127 293.995412809169
70.26138 338.9856101765
70.2815 312
70.30161 329.992696333655
70.32172 288.99634199887
70.34184 332.070885429167
70.36195 327.061726372209
70.38207 304.030479439519
70.40218 301.968728226026
70.42229 339.00022357949
70.44241 306.992793228334
70.46252 320.001506486148
70.48263 303.99900576798
70.50275 315.973242031016
70.52286 293.972854453974
70.54297 332.989157042865
70.56309 308.000185755729
70.5832 336
70.60332 309.993635621817
70.62343 327.9978551718
70.64354 309.017873343538
70.66366 342.979554606447
70.68377 319.030274128555
70.70388 319.00121586166
70.724 316
70.74411 336.995230516433
70.76423 296.947875112865
70.78434 297.058781727699
70.80445 319.042903422382
70.82457 282.008359062153
70.84468 309.987664964998
70.86479 296.999441978456
70.88491 317.002014595636
70.90502 307.012549581071
70.92513 327.968019131706
70.94525 295.091978412192
70.96536 372.983415946133
70.98548 298.061361596776
71.00559 309.975492861004
71.0257 331
71.04582 270.979863749211
71.06593 301.04142608498
71.08604 306.028004603805
71.10616 324.03011596877
71.12627 291.993508983546
71.14639 326.996823352351
71.1665 297
71.18661 317.011461341907
71.20673 318.983035010286
71.22684 326.098533073589
71.24695 379.017358669908
71.26707 312.095141835271
71.28718 296.984224564648
71.3073 315
71.32741 318.005192362273
71.34752 332.000087018181
71.36764 309.930531452649
71.38775 289.965995289524
71.40786 320.973405188796
71.42798 313.994906051386
71.44809 318.021327415412
71.4682 269
71.48832 352.018670092789
71.50843 291.943166076166
71.52855 321.101980502432
71.54866 327.041769273003
71.56877 300.030162956152
71.58889 299.989683793044
71.609 325
71.62911 315.989289068429
71.64923 295.980494570293
71.66934 299.045616062089
71.68946 323.989691674258
71.70957 319.971530778125
71.72968 349.006611864969
71.7498 318
71.76991 344.993875569546
71.79002 298.990441431101
71.81014 330.011794966895
71.83025 303.99773954599
71.85037 336.983085293466
71.87048 318.004042294853
71.89059 335.999095905533
71.91071 315.9954545291
71.93082 322.995824530101
71.95093 304.989318203706
71.97105 311.999817186599
71.99116 301.008995483562
72.01127 309.981809523608
72.03139 316.998126580114
72.0515 320
72.07162 315.982250019897
72.09173 296.999351686592
72.11184 315.033316879348
72.13196 319.001203020417
72.15207 319.999151796047
72.17218 319.99867101302
72.1923 321
72.21241 317.00067023099
72.23253 326.018737274862
72.25264 340.034726903564
72.27275 344.070329562242
72.29287 306.009350446485
72.31298 327.99494216663
72.33309 306.006941002287
72.35321 307.995362823194
72.37332 297.024087325762
72.39344 336.999134729684
72.41355 290.897946966204
72.43366 300.887783809625
72.45378 347.016467918466
72.47389 287.015852388114
72.494 318
72.51412 350.996106282054
72.53423 316.933655256423
72.55434 298.045448627693
72.57446 348.903298793682
72.59457 360.047286521709
72.61469 309.02066314656
72.6348 295
72.65491 313.021041569071
72.67503 348.985007962139
72.69514 311.98919416093
72.71525 345.94389738601
72.73537 347.965516148432
72.75548 379.016008924077
72.7756 318
72.79571 322.019373669491
72.81582 363.027539625457
72.83594 377.030400911621
72.85605 390.019549937249
72.87616 359.075273248486
72.89628 331.017740712798
72.91639 335.980070545032
72.9365 373
72.95662 323.990109916344
72.97673 358.017273422793
72.99685 339.020993382854
73.01696 372.00664299835
73.03707 332.024183684246
73.05719 359.984150166423
73.0773 362
73.09741 337.993683658278
73.11753 332.977724897599
73.13764 318.024577959492
73.15776 346.985409290096
73.17787 323.040090615624
73.19798 313.998930584025
73.2181 310
73.23821 300.011390730249
73.25832 338.008904923936
73.27844 312.960464222649
73.29855 319.958975903179
73.31867 319.04182510374
73.33878 295.976368304315
73.35889 343.996130474664
73.37901 310.995175499146
73.39912 334.001155271383
73.41923 307.993878677887
73.43935 337.06091119609
73.45946 335.025724553707
73.47957 324.017706022987
73.49969 316.996825709873
73.5198 333
73.53992 338.003382568297
73.56003 340.99567429099
73.58014 330.974394797859
73.60026 317.03468355537
73.62037 301.010769034453
73.64048 310.97195457823
73.6606 333
73.68071 309.002160382865
73.70083 340.019861789264
73.72094 324.980439489211
73.74105 334.972816626898
73.76117 335.005775516496
73.78128 326.022290631217
73.80139 310.989290074898
73.82151 354.010025777727
73.84162 336.975842922783
73.86174 322.968134898626
73.88185 309.010750077684
73.90196 328.966933383003
73.92208 333.995960625884
73.94219 328.01782290979
73.9623 284
73.98242 322.060241074369
74.00253 349.949784950304
74.02264 296.997481282869
74.04276 332.030472608665
74.06287 286.951686901619
74.08299 380.984032313487
74.1031 324
74.12321 323.997808372769
74.14333 292.961516854285
74.16344 297.053258652996
74.18355 319.008402795221
74.20367 295.028901756599
74.22378 301.970397061725
74.2439 322
74.26401 284.997170542998
74.28412 311.008561403027
74.30424 296.008296987813
74.32435 319.995920812786
74.34446 293.039261939572
74.36458 297.988949736859
74.38469 302.997379373604
74.40481 311.003393682289
74.42492 315.003418509393
74.44503 312.978225557419
74.46515 294.987254698785
74.48526 306.966101981126
74.50537 312.018005697401
74.52549 290.009770974927
74.5456 284
74.56571 291.999560789821
74.58583 286.004329684598
74.60594 301.032612066554
74.62606 303.034678867004
74.64617 284.992132815507
74.66628 299.015744246115
74.6864 258
74.70651 269.008452443874
74.72662 282.026674334179
74.74674 315.027474731355
74.76685 300.069445587915
74.78697 285.983687549283
74.80708 311.980094982828
74.82719 306.015364095014
74.84731 273.994835376107
74.86742 286.012422003531
74.88753 284.990126500767
74.90765 284.019899895215
74.92776 296.979090254334
74.94787 298.01216186419
74.96799 280.014345873369
74.9881 258
75.00822 291.047499488586
