3.00117 21105
3.02128 20630
3.0414 20195
3.06151 19905
3.08162 18955
3.10174 18697
3.12185 18371
3.14197 17796
3.16208 17245
3.18219 16698
3.20231 16247
3.22242 15868
3.24253 14942
3.26265 14898
3.28276 14344
3.30288 13895
3.32299 13652
3.3431 13103
3.36322 13094
3.38333 12232
3.40344 11987
3.42356 11573
3.44367 11132
3.46379 10790
3.4839 10486
3.50401 10128
3.52413 9824
3.54424 9523
3.56435 9163
3.58447 8519
3.60458 8604
3.62469 8369
3.64481 7859
3.66492 7840
3.68504 7470
3.70515 7134
3.72526 7021
3.74538 6682
3.76549 6525
3.7856 5964
3.80572 6001
3.82583 5700
3.84595 5354
3.86606 5180
3.88617 4966
3.90629 4745
3.9264 4671
3.94651 4545
3.96663 4488
3.98674 4037
4.00686 4040
4.02697 3917
4.04708 3642
4.0672 3599
4.08731 3348
4.10742 3195
4.12754 3267
4.14765 2956
4.16776 3094
4.18788 2759
4.20799 2756
4.22811 2731
4.24822 2514
4.26833 2621
4.28845 2272
4.30856 2375
4.32867 2292
4.34879 2220
4.3689 2254
4.38902 2053
4.40913 2083
4.42924 2065
4.44936 1970
4.46947 2016
4.48958 1795
4.5097 1810
4.52981 1873
4.54992 1853
4.57004 1831
4.59015 1733
4.61027 1689
4.63038 1681
4.65049 1686
4.67061 1647
4.69072 1622
4.71083 1488
4.73095 1494
4.75106 1458
4.77118 1460
4.79129 1418
4.8114 1451
4.83152 1396
4.85163 1435
4.87174 1359
4.89186 1350
4.91197 1294
4.93209 1300
4.9522 1275
4.97231 1235
4.99243 1191
5.01254 1210
5.03265 1302
5.05277 1143
5.07288 1152
5.09299 1144
5.11311 1189
5.13322 1097
5.15334 1084
5.17345 1081
5.19356 1010
5.21368 998
5.23379 1036
5.2539 1104
5.27402 1019
5.29413 1010
5.31425 929
5.33436 968
5.35447 943
5.37459 999
5.3947 966
5.41481 947
5.43493 948
5.45504 935
5.47516 807
5.49527 858
5.51538 956
5.5355 886
5.55561 914
5.57572 856
5.59584 827
5.61595 842
5.63606 866
5.65618 823
5.67629 780
5.69641 771
5.71652 764
5.73663 747
5.75675 801
5.77686 762
5.79697 816
5.81709 725
5.8372 781
5.85732 766
5.87743 753
5.89754 755
5.91766 762
5.93777 718
5.95788 762
5.978 744
5.99811 703
6.01823 752
6.03834 744
6.05845 696
6.07857 731
6.09868 700
6.11879 698
6.13891 714
6.15902 668
6.17913 749
6.19925 712
6.21936 684
6.23948 679
6.25959 673
6.2797 714
6.29982 673
6.31993 690
6.34004 701
6.36016 705
6.38027 680
6.40039 653
6.4205 652
6.44061 599
6.46073 643
6.48084 618
6.50095 607
6.52107 616
6.54118 694
6.56129 625
6.58141 662
6.60152 607
6.62164 647
6.64175 664
6.66186 629
6.68198 599
6.70209 612
6.7222 609
6.74232 629
6.76243 648
6.78255 633
6.80266 635
6.82277 591
6.84289 606
6.863 608
6.88311 625
6.90323 626
6.92334 587
6.94346 574
6.96357 581
6.98368 564
7.0038 578
7.02391 593
7.04402 559
7.06414 631
7.08425 613
7.10436 591
7.12448 610
7.14459 557
7.16471 568
7.18482 590
7.20493 589
7.22505 625
7.24516 573
7.26527 525
7.28539 575
7.3055 614
7.32562 538
7.34573 548
7.36584 569
7.38596 585
7.40607 563
7.42618 582
7.4463 567
7.46641 539
7.48653 563
7.50664 588
7.52675 548
7.54687 594
7.56698 534
7.58709 551
7.60721 567
7.62732 611
7.64743 523
7.66755 554
7.68766 607
7.70778 544
7.72789 578
7.748 519
7.76812 549
7.78823 535
7.80834 540
7.82846 567
7.84857 560
7.86869 519
7.8888 541
7.90891 552
7.92903 518
7.94914 570
7.96925 579
7.98937 568
8.00948 547
8.0296 553
8.04971 559
8.06982 552
8.08994 518
8.11005 553
8.13016 521
8.15028 552
8.17039 561
8.1905 558
8.21062 593
8.23073 524
8.25085 558
8.27096 493
8.29107 523
8.31119 534
8.3313 512
8.35141 515
8.37153 533
8.39164 533
8.41176 531
8.43187 539
8.45198 543
8.4721 529
8.49221 590
8.51232 503
8.53244 510
8.55255 539
8.57266 559
8.59278 534
8.61289 557
8.63301 604
8.65312 581
8.67323 556
8.69335 519
8.71346 517
8.73357 591
8.75369 573
8.7738 552
8.79392 509
8.81403 510
8.83414 547
8.85426 530
8.87437 492
8.89448 506
8.9146 536
8.93471 494
8.95483 499
8.97494 472
8.99505 484
9.01517 463
9.03528 489
9.05539 507
9.07551 448
9.09562 502
9.11573 487
9.13585 501
9.15596 508
9.17608 461
9.19619 469
9.2163 440
9.23642 470
9.25653 479
9.27664 467
9.29676 457
9.31687 455
9.33699 479
9.3571 482
9.37721 458
9.39733 469
9.41744 488
9.43755 448
9.45767 441
9.47778 452
9.4979 419
9.51801 441
9.53812 440
9.55824 478
9.57835 453
9.59846 465
9.61858 413
9.63869 426
9.6588 438
9.67892 420
9.69903 440
9.71915 467
9.73926 452
9.75937 462
9.77949 484
9.7996 443
9.81971 433
9.83983 453
9.85994 461
9.88006 427
9.90017 434
9.92028 451
9.9404 455
9.96051 419
9.98062 441
10.00074 464
10.02085 456
10.04097 429
10.06108 416
10.08119 434
10.10131 397
10.12142 416
10.14153 384
10.16165 489
10.18176 432
10.20187 458
10.22199 405
10.2421 460
10.26222 406
10.28233 438
10.30244 435
10.32256 438
10.34267 452
10.36278 405
10.3829 455
10.40301 410
10.42313 408
10.44324 434
10.46335 390
10.48347 434
10.50358 434
10.52369 441
10.54381 445
10.56392 396
10.58403 398
10.60415 428
10.62426 448
10.64438 450
10.66449 417
10.6846 419
10.70472 446
10.72483 425
10.74494 400
10.76506 444
10.78517 438
10.80529 406
10.8254 439
10.84551 420
10.86563 435
10.88574 376
10.90585 405
10.92597 388
10.94608 432
10.9662 429
10.98631 363
11.00642 396
11.02654 399
11.04665 419
11.06676 389
11.08688 393
11.10699 425
11.1271 416
11.14722 441
11.16733 428
11.18745 411
11.20756 437
11.22767 426
11.24779 394
11.2679 433
11.28801 397
11.30813 413
11.32824 403
11.34836 407
11.36847 415
11.38858 396
11.4087 435
11.42881 429
11.44892 412
11.46904 436
11.48915 356
11.50927 421
11.52938 379
11.54949 405
11.56961 381
11.58972 440
11.60983 399
11.62995 433
11.65006 439
11.67017 416
11.69029 406
11.7104 438
11.73052 388
11.75063 379
11.77074 414
11.79086 364
11.81097 410
11.83108 394
11.8512 397
11.87131 395
11.89143 431
11.91154 407
11.93165 414
11.95177 413
11.97188 444
11.99199 421
12.01211 406
12.03222 439
12.05234 428
12.07245 408
12.09256 387
12.11268 469
12.13279 422
12.1529 411
12.17302 404
12.19313 399
12.21324 412
12.23336 398
12.25347 386
12.27359 393
12.2937 432
12.31381 423
12.33393 404
12.35404 409
12.37415 481
12.39427 425
12.41438 376
12.4345 436
12.45461 424
12.47472 392
12.49484 380
12.51495 388
12.53506 410
12.55518 399
12.57529 379
12.5954 381
12.61552 393
12.63563 408
12.65575 389
12.67586 414
12.69597 359
12.71609 387
12.7362 405
12.75631 404
12.77643 404
12.79654 380
12.81666 378
12.83677 405
12.85688 408
12.877 369
12.89711 402
12.91722 345
12.93734 405
12.95745 409
12.97757 407
12.99768 376
13.01779 372
13.03791 353
13.05802 379
13.07813 373
13.09825 382
13.11836 428
13.13847 378
13.15859 405
13.1787 410
13.19882 362
13.21893 372
13.23904 409
13.25916 394
13.27927 342
13.29938 374
13.3195 415
13.33961 362
13.35973 365
13.37984 367
13.39995 372
13.42007 353
13.44018 422
13.46029 396
13.48041 405
13.50052 373
13.52064 401
13.54075 406
13.56086 429
13.58098 463
13.60109 448
13.6212 455
13.64132 456
13.66143 390
13.68154 415
13.70166 391
13.72177 393
13.74189 432
13.762 414
13.78211 430
13.80223 439
13.82234 427
13.84245 383
13.86257 407
13.88268 408
13.9028 413
13.92291 368
13.94302 420
13.96314 413
13.98325 374
14.00336 411
14.02348 390
14.04359 371
14.06371 387
14.08382 375
14.10393 422
14.12405 386
14.14416 378
14.16427 351
14.18439 349
14.2045 372
14.22461 410
14.24473 391
14.26484 409
14.28496 425
14.30507 365
14.32518 363
14.3453 364
14.36541 404
14.38552 394
14.40564 379
14.42575 356
14.44587 384
14.46598 324
14.48609 344
14.50621 367
14.52632 379
14.54643 398
14.56655 361
14.58666 413
14.60677 371
14.62689 401
14.647 372
14.66712 381
14.68723 387
14.70734 369
14.72746 339
14.74757 403
14.76768 393
14.7878 412
14.80791 394
14.82803 356
14.84814 374
14.86825 406
14.88837 394
14.90848 413
14.92859 441
14.94871 355
14.96882 412
14.98894 391
15.00905 393
15.02916 423
15.04928 416
15.06939 417
15.0895 384
15.10962 397
15.12973 390
15.14984 451
15.16996 400
15.19007 421
15.21019 433
15.2303 404
15.25041 389
15.27053 403
15.29064 406
15.31075 411
15.33087 381
15.35098 422
15.3711 395
15.39121 390
15.41132 363
15.43144 343
15.45155 373
15.47166 398
15.49178 351
15.51189 386
15.53201 394
15.55212 391
15.57223 440
15.59235 377
15.61246 388
15.63257 397
15.65269 426
15.6728 430
15.69291 409
15.71303 393
15.73314 397
15.75326 427
15.77337 409
15.79348 384
15.8136 395
15.83371 374
15.85382 393
15.87394 380
15.89405 409
15.91417 370
15.93428 382
15.95439 369
15.97451 430
15.99462 380
16.01473 391
16.03485 388
16.05496 389
16.07508 392
16.09519 395
16.1153 383
16.13542 383
16.15553 368
16.17564 383
16.19576 349
16.21587 412
16.23598 370
16.2561 396
16.27621 392
16.29633 376
16.31644 432
16.33655 390
16.35667 368
16.37678 424
16.39689 417
16.41701 401
16.43712 389
16.45724 382
16.47735 405
16.49746 431
16.51758 408
16.53769 397
16.5578 397
16.57792 371
16.59803 426
16.61814 406
16.63826 388
16.65837 385
16.67849 399
16.6986 400
16.71871 409
16.73883 379
16.75894 464
16.77905 421
16.79917 381
16.81928 432
16.8394 441
16.85951 402
16.87962 427
16.89974 395
16.91985 443
16.93996 391
16.96008 464
16.98019 394
17.00031 446
17.02042 371
17.04053 410
17.06065 440
17.08076 396
17.10087 391
17.12099 409
17.1411 415
17.16121 408
17.18133 450
17.20144 444
17.22156 423
17.24167 461
17.26178 409
17.2819 401
17.30201 409
17.32212 441
17.34224 458
17.36235 403
17.38247 454
17.40258 390
17.42269 421
17.44281 419
17.46292 418
17.48303 412
17.50315 448
17.52326 415
17.54338 418
17.56349 446
17.5836 407
17.60372 393
17.62383 459
17.64394 461
17.66406 432
17.68417 461
17.70428 440
17.7244 442
17.74451 453
17.76463 481
17.78474 472
17.80485 448
17.82497 452
17.84508 471
17.86519 462
17.88531 413
17.90542 477
17.92554 477
17.94565 456
17.96576 434
17.98588 423
18.00599 436
18.0261 467
18.04622 397
18.06633 427
18.08645 474
18.10656 458
18.12667 461
18.14679 459
18.1669 484
18.18701 439
18.20713 451
18.22724 427
18.24735 429
18.26747 469
18.28758 433
18.3077 442
18.32781 400
18.34792 476
18.36804 457
18.38815 466
18.40826 492
18.42838 409
18.44849 526
18.46861 473
18.48872 470
18.50883 477
18.52895 449
18.54906 456
18.56917 489
18.58929 466
18.6094 474
18.62951 486
18.64963 479
18.66974 487
18.68986 488
18.70997 469
18.73008 486
18.7502 488
18.77031 450
18.79042 469
18.81054 503
18.83065 476
18.85077 510
18.87088 538
18.89099 482
18.91111 515
18.93122 553
18.95133 492
18.97145 506
18.99156 506
19.01168 528
19.03179 519
19.0519 547
19.07202 526
19.09213 545
19.11224 572
19.13236 590
19.15247 552
19.17258 573
19.1927 586
19.21281 563
19.23293 592
19.25304 552
19.27315 593
19.29327 634
19.31338 610
19.33349 608
19.35361 602
19.37372 647
19.39384 639
19.41395 694
19.43406 701
19.45418 640
19.47429 659
19.4944 690
19.51452 786
19.53463 777
19.55475 818
19.57486 834
19.59497 853
19.61509 813
19.6352 812
19.65531 842
19.67543 828
19.69554 866
19.71565 898
19.73577 855
19.75588 940
19.776 959
19.79611 936
19.81622 1011
19.83634 887
19.85645 865
19.87656 854
19.89668 911
19.91679 889
19.93691 901
19.95702 870
19.97713 856
19.99725 856
20.01736 782
20.03747 879
20.05759 831
20.0777 768
20.09782 844
20.11793 793
20.13804 836
20.15816 810
20.17827 818
20.19838 790
20.2185 784
20.23861 833
20.25872 773
20.27884 798
20.29895 810
20.31907 778
20.33918 799
20.35929 761
20.37941 726
20.39952 780
20.41963 843
20.43975 762
20.45986 770
20.47998 742
20.50009 790
20.5202 804
20.54032 791
20.56043 880
20.58054 846
20.60066 833
20.62077 890
20.64088 973
20.661 1024
20.68111 1133
20.70123 1247
20.72134 1300
20.74145 1590
20.76157 1744
20.78168 1968
20.80179 2168
20.82191 2217
20.84202 2156
20.86214 1757
20.88225 1630
20.90236 1325
20.92248 1102
20.94259 984
20.9627 908
20.98282 888
21.00293 822
21.02305 811
21.04316 753
21.06327 783
21.08339 788
21.1035 820
21.12361 808
21.14373 743
21.16384 708
21.18395 786
21.20407 745
21.22418 709
21.2443 730
21.26441 690
21.28452 727
21.30464 687
21.32475 668
21.34486 724
21.36498 746
21.38509 692
21.40521 744
21.42532 734
21.44543 793
21.46555 776
21.48566 814
21.50577 758
21.52589 813
21.546 832
21.56612 851
21.58623 864
21.60634 851
21.62646 817
21.64657 774
21.66668 788
21.6868 746
21.70691 769
21.72702 786
21.74714 702
21.76725 790
21.78737 717
21.80748 767
21.82759 792
21.84771 819
21.86782 799
21.88793 843
21.90805 860
21.92816 851
21.94828 928
21.96839 990
21.9885 920
22.00862 861
22.02873 858
22.04884 782
22.06896 757
22.08907 815
22.10919 719
22.1293 726
22.14941 696
22.16953 671
22.18964 705
22.20975 710
22.22987 713
22.24998 734
22.27009 679
22.29021 716
22.31032 724
22.33044 669
22.35055 759
22.37066 733
22.39078 629
22.41089 668
22.431 673
22.45112 680
22.47123 724
22.49135 690
22.51146 639
22.53157 656
22.55169 708
22.5718 711
22.59191 689
22.61203 675
22.63214 672
22.65225 701
22.67237 713
22.69248 654
22.7126 701
22.73271 710
22.75282 711
22.77294 787
22.79305 713
22.81316 721
22.83328 777
22.85339 764
22.87351 765
22.89362 758
22.91373 781
22.93385 726
22.95396 744
22.97407 722
22.99419 720
23.0143 702
23.03442 679
23.05453 691
23.07464 755
23.09476 711
23.11487 707
23.13498 699
23.1551 676
23.17521 666
23.19532 708
23.21544 672
23.23555 711
23.25567 715
23.27578 668
23.29589 732
23.31601 723
23.33612 701
23.35623 724
23.37635 720
23.39646 802
23.41658 773
23.43669 707
23.4568 830
23.47692 825
23.49703 805
23.51714 866
23.53726 867
23.55737 894
23.57749 832
23.5976 799
23.61771 878
23.63783 813
23.65794 819
23.67805 813
23.69817 828
23.71828 800
23.73839 771
23.75851 787
23.77862 779
23.79874 776
23.81885 724
23.83896 755
23.85908 780
23.87919 780
23.8993 789
23.91942 770
23.93953 769
23.95965 746
23.97976 708
23.99987 707
24.01999 725
24.0401 707
24.06021 722
24.08033 691
24.10044 773
24.12056 746
24.14067 712
24.16078 720
24.1809 698
24.20101 750
24.22112 778
24.24124 789
24.26135 766
24.28146 754
24.30158 690
24.32169 730
24.34181 690
24.36192 710
24.38203 703
24.40215 687
24.42226 754
24.44237 695
24.46249 644
24.4826 650
24.50272 670
24.52283 695
24.54294 636
24.56306 634
24.58317 643
24.60328 666
24.6234 623
24.64351 613
24.66362 610
24.68374 661
24.70385 660
24.72397 656
24.74408 684
24.76419 582
24.78431 645
24.80442 626
24.82453 641
24.84465 645
24.86476 611
24.88488 652
24.90499 634
24.9251 645
24.94522 621
24.96533 607
24.98544 657
25.00556 685
25.02567 682
25.04579 610
25.0659 683
25.08601 621
25.10613 693
25.12624 657
25.14635 665
25.16647 678
25.18658 657
25.20669 617
25.22681 616
25.24692 641
25.26704 650
25.28715 701
25.30726 740
25.32738 672
25.34749 713
25.3676 646
25.38772 657
25.40783 653
25.42795 705
25.44806 725
25.46817 727
25.48829 736
25.5084 711
25.52851 719
25.54863 747
25.56874 752
25.58886 762
25.60897 756
25.62908 796
25.6492 748
25.66931 781
25.68942 709
25.70954 744
25.72965 780
25.74976 745
25.76988 790
25.78999 704
25.81011 738
25.83022 706
25.85033 685
25.87045 737
25.89056 708
25.91067 671
25.93079 679
25.9509 717
25.97102 748
25.99113 668
26.01124 683
26.03136 702
26.05147 653
26.07158 776
26.0917 734
26.11181 725
26.13193 766
26.15204 748
26.17215 837
26.19227 815
26.21238 883
26.23249 910
26.25261 919
26.27272 975
26.29283 1022
26.31295 1093
26.33306 1215
26.35318 1351
26.37329 1421
26.3934 1724
26.41352 1924
26.43363 2219
26.45374 2669
26.47386 3212
26.49397 3897
26.51409 4785
26.5342 5768
26.55431 6531
26.57443 7055
26.59454 7211
26.61465 6818
26.63477 5922
26.65488 4736
26.67499 3729
26.69511 2834
26.71522 2084
26.73534 1530
26.75545 1204
26.77556 1026
26.79568 1042
26.81579 934
26.8359 886
26.85602 867
26.87613 869
26.89625 834
26.91636 766
26.93647 791
26.95659 831
26.9767 810
26.99681 819
27.01693 782
27.03704 739
27.05716 722
27.07727 733
27.09738 756
27.1175 735
27.13761 713
27.15772 688
27.17784 695
27.19795 686
27.21806 740
27.23818 747
27.25829 742
27.27841 719
27.29852 806
27.31863 890
27.33875 910
27.35886 977
27.37897 999
27.39909 1031
27.4192 1115
27.43932 1104
27.45943 1048
27.47954 1041
27.49966 957
27.51977 997
27.53988 967
27.56 904
27.58011 950
27.60023 905
27.62034 979
27.64045 1005
27.66057 1011
27.68068 1109
27.70079 1128
27.72091 1157
27.74102 1202
27.76113 1134
27.78125 1155
27.80136 1151
27.82148 1144
27.84159 1080
27.8617 1082
27.88182 1070
27.90193 1028
27.92204 940
27.94216 949
27.96227 963
27.98239 838
28.0025 781
28.02261 755
28.04273 732
28.06284 710
28.08295 668
28.10307 655
28.12318 633
28.1433 625
28.16341 704
28.18352 617
28.20364 628
28.22375 578
28.24386 658
28.26398 631
28.28409 651
28.3042 588
28.32432 596
28.34443 568
28.36455 618
28.38466 536
28.40477 546
28.42489 514
28.445 530
28.46511 572
28.48523 551
28.50534 516
28.52546 536
28.54557 555
28.56568 495
28.5858 512
28.60591 470
28.62602 539
28.64614 463
28.66625 534
28.68636 487
28.70648 512
28.72659 513
28.74671 539
28.76682 460
28.78693 522
28.80705 501
28.82716 519
28.84727 491
28.86739 476
28.8875 561
28.90762 511
28.92773 526
28.94784 484
28.96796 475
28.98807 521
29.00818 504
29.0283 458
29.04841 495
29.06853 493
29.08864 533
29.10875 462
29.12887 501
29.14898 508
29.16909 516
29.18921 504
29.20932 505
29.22943 482
29.24955 493
29.26966 480
29.28978 514
29.30989 455
29.33 491
29.35012 466
29.37023 503
29.39034 500
29.41046 462
29.43057 538
29.45069 500
29.4708 518
29.49091 508
29.51103 480
29.53114 461
29.55125 477
29.57137 483
29.59148 528
29.6116 552
29.63171 481
29.65182 507
29.67194 531
29.69205 495
29.71216 526
29.73228 534
29.75239 548
29.7725 550
29.79262 543
29.81273 565
29.83285 588
29.85296 568
29.87307 543
29.89319 495
29.9133 560
29.93341 582
29.95353 603
29.97364 545
29.99376 584
30.01387 530
30.03398 544
30.0541 552
30.07421 510
30.09432 561
30.11444 531
30.13455 502
30.15467 540
30.17478 531
30.19489 515
30.21501 523
30.23512 523
30.25523 536
30.27535 517
30.29546 565
30.31557 578
30.33569 555
30.3558 576
30.37592 556
30.39603 576
30.41614 637
30.43626 549
30.45637 584
30.47648 565
30.4966 570
30.51671 528
30.53683 535
30.55694 520
30.57705 492
30.59717 471
30.61728 506
30.63739 532
30.65751 511
30.67762 553
30.69773 515
30.71785 530
30.73796 530
30.75808 549
30.77819 525
30.7983 498
30.81842 526
30.83853 496
30.85864 512
30.87876 500
30.89887 481
30.91899 469
30.9391 450
30.95921 463
30.97933 445
30.99944 424
31.01955 511
31.03967 442
31.05978 460
31.0799 435
31.10001 471
31.12012 458
31.14024 429
31.16035 444
31.18046 444
31.20058 473
31.22069 489
31.2408 489
31.26092 472
31.28103 490
31.30115 506
31.32126 502
31.34137 492
31.36149 454
31.3816 467
31.40171 468
31.42183 428
31.44194 446
31.46206 466
31.48217 405
31.50228 425
31.5224 429
31.54251 410
31.56262 450
31.58274 456
31.60285 440
31.62297 424
31.64308 446
31.66319 413
31.68331 458
31.70342 424
31.72353 454
31.74365 429
31.76376 449
31.78387 448
31.80399 406
31.8241 429
31.84422 406
31.86433 399
31.88444 448
31.90456 469
31.92467 441
31.94478 423
31.9649 488
31.98501 427
32.00513 455
32.02524 442
32.04535 432
32.06547 442
32.08558 405
32.10569 436
32.12581 461
32.14592 470
32.16604 460
32.18615 443
32.20626 424
32.22638 444
32.24649 434
32.2666 447
32.28672 421
32.30683 476
32.32694 428
32.34706 443
32.36717 407
32.38729 423
32.4074 409
32.42751 427
32.44763 415
32.46774 408
32.48785 422
32.50797 399
32.52808 427
32.5482 404
32.56831 397
32.58842 432
32.60854 450
32.62865 402
32.64876 416
32.66888 412
32.68899 416
32.7091 430
32.72922 408
32.74933 414
32.76945 408
32.78956 447
32.80967 429
32.82979 422
32.8499 406
32.87001 397
32.89013 418
32.91024 413
32.93036 429
32.95047 418
32.97058 402
32.9907 421
33.01081 464
33.03092 406
33.05104 442
33.07115 447
33.09127 434
33.11138 411
33.13149 379
33.15161 414
33.17172 440
33.19183 429
33.21195 412
33.23206 406
33.25217 387
33.27229 425
33.2924 401
33.31252 393
33.33263 377
33.35274 408
33.37286 389
33.39297 349
33.41308 406
33.4332 426
33.45331 398
33.47343 410
33.49354 446
33.51365 390
33.53377 423
33.55388 383
33.57399 418
33.59411 403
33.61422 420
33.63434 408
33.65445 377
33.67456 411
33.69468 421
33.71479 412
33.7349 403
33.75502 420
33.77513 416
33.79524 421
33.81536 417
33.83547 420
33.85559 423
33.8757 444
33.89581 428
33.91593 474
33.93604 418
33.95615 404
33.97627 436
33.99638 471
34.0165 443
34.03661 453
34.05672 482
34.07684 466
34.09695 454
34.11706 497
34.13718 486
34.15729 454
34.17741 520
34.19752 477
34.21763 462
34.23775 516
34.25786 481
34.27797 521
34.29809 542
34.3182 499
34.33831 537
34.35843 559
34.37854 488
34.39866 525
34.41877 499
34.43888 561
34.459 579
34.47911 547
34.49922 604
34.51934 545
34.53945 499
34.55957 559
34.57968 551
34.59979 560
34.61991 559
34.64002 584
34.66013 574
34.68025 577
34.70036 602
34.72047 578
34.74059 597
34.7607 614
34.78082 551
34.80093 595
34.82104 538
34.84116 596
34.86127 610
34.88138 560
34.9015 650
34.92161 616
34.94173 551
34.96184 605
34.98195 568
35.00207 591
35.02218 578
35.04229 578
35.06241 607
35.08252 621
35.10264 604
35.12275 580
35.14286 611
35.16298 641
35.18309 589
35.2032 594
35.22332 553
35.24343 572
35.26354 617
35.28366 595
35.30377 544
35.32389 518
35.344 535
35.36411 539
35.38423 552
35.40434 507
35.42445 523
35.44457 540
35.46468 553
35.4848 539
35.50491 521
35.52502 500
35.54514 521
35.56525 528
35.58536 511
35.60548 492
35.62559 508
35.64571 520
35.66582 508
35.68593 465
35.70605 481
35.72616 467
35.74627 466
35.76639 497
35.7865 488
35.80661 473
35.82673 494
35.84684 492
35.86696 499
35.88707 444
35.90718 516
35.9273 467
35.94741 499
35.96752 417
35.98764 470
36.00775 452
36.02787 505
36.04798 492
36.06809 464
36.08821 525
36.10832 470
36.12843 481
36.14855 508
36.16866 513
36.18878 497
36.20889 513
36.229 520
36.24912 523
36.26923 551
36.28934 549
36.30946 529
36.32957 608
36.34968 633
36.3698 650
36.38991 711
36.41003 722
36.43014 764
36.45025 852
36.47037 912
36.49048 920
36.51059 914
36.53071 821
36.55082 746
36.57094 727
36.59105 628
36.61116 601
36.63128 595
36.65139 529
36.6715 491
36.69162 474
36.71173 509
36.73184 536
36.75196 493
36.77207 461
36.79219 488
36.8123 450
36.83241 491
36.85253 490
36.87264 470
36.89275 481
36.91287 507
36.93298 498
36.9531 489
36.97321 458
36.99332 459
37.01344 489
37.03355 468
37.05366 501
37.07378 477
37.09389 489
37.11401 476
37.13412 466
37.15423 485
37.17435 446
37.19446 456
37.21457 477
37.23469 483
37.2548 417
37.27491 449
37.29503 484
37.31514 459
37.33526 464
37.35537 450
37.37548 420
37.3956 464
37.41571 485
37.43582 506
37.45594 421
37.47605 458
37.49617 494
37.51628 459
37.53639 431
37.55651 457
37.57662 452
37.59673 485
37.61685 443
37.63696 446
37.65708 489
37.67719 435
37.6973 437
37.71742 450
37.73753 430
37.75764 436
37.77776 481
37.79787 436
37.81798 409
37.8381 373
37.85821 391
37.87833 430
37.89844 456
37.91855 422
37.93867 391
37.95878 389
37.97889 446
37.99901 413
38.01912 427
38.03924 378
38.05935 412
38.07946 411
38.09958 445
38.11969 396
38.1398 447
38.15992 405
38.18003 440
38.20015 433
38.22026 396
38.24037 383
38.26049 443
38.2806 415
38.30071 414
38.32083 437
38.34094 394
38.36105 390
38.38117 420
38.40128 418
38.4214 436
38.44151 413
38.46162 454
38.48174 423
38.50185 433
38.52196 445
38.54208 426
38.56219 439
38.58231 394
38.60242 435
38.62253 388
38.64265 408
38.66276 399
38.68287 395
38.70299 418
38.7231 419
38.74321 402
38.76333 430
38.78344 383
38.80356 421
38.82367 405
38.84378 409
38.8639 412
38.88401 374
38.90412 414
38.92424 425
38.94435 418
38.96447 389
38.98458 417
39.00469 446
39.02481 371
39.04492 426
39.06503 427
39.08515 412
39.10526 412
39.12538 429
39.14549 439
39.1656 491
39.18572 476
39.20583 478
39.22594 472
39.24606 492
39.26617 480
39.28628 554
39.3064 578
39.32651 652
39.34663 681
39.36674 741
39.38685 772
39.40697 810
39.42708 723
39.44719 703
39.46731 670
39.48742 600
39.50754 582
39.52765 558
39.54776 516
39.56788 455
39.58799 425
39.6081 453
39.62822 391
39.64833 417
39.66845 438
39.68856 414
39.70867 389
39.72879 393
39.7489 442
39.76901 382
39.78913 407
39.80924 405
39.82935 376
39.84947 383
39.86958 405
39.8897 395
39.90981 426
39.92992 404
39.95004 454
39.97015 446
39.99026 387
40.01038 426
40.03049 447
40.05061 382
40.07072 461
40.09083 472
40.11095 464
40.13106 509
40.15117 539
40.17129 543
40.1914 504
40.21152 548
40.23163 572
40.25174 528
40.27186 569
40.29197 533
40.31208 508
40.3322 465
40.35231 462
40.37242 426
40.39254 444
40.41265 408
40.43277 396
40.45288 379
40.47299 357
40.49311 386
40.51322 407
40.53333 377
40.55345 397
40.57356 406
40.59368 377
40.61379 380
40.6339 368
40.65402 364
40.67413 408
40.69424 389
40.71436 399
40.73447 409
40.75458 414
40.7747 375
40.79481 385
40.81493 405
40.83504 351
40.85515 398
40.87527 397
40.89538 387
40.91549 375
40.93561 398
40.95572 386
40.97584 362
40.99595 414
41.01606 365
41.03618 353
41.05629 378
41.0764 384
41.09652 424
41.11663 419
41.13675 396
41.15686 375
41.17697 398
41.19709 350
41.2172 374
41.23731 406
41.25743 385
41.27754 381
41.29765 407
41.31777 380
41.33788 375
41.358 360
41.37811 378
41.39822 368
41.41834 389
41.43845 385
41.45856 357
41.47868 357
41.49879 426
41.51891 405
41.53902 411
41.55913 435
41.57925 400
41.59936 421
41.61947 416
41.63959 408
41.6597 467
41.67982 421
41.69993 428
41.72004 417
41.74016 429
41.76027 415
41.78038 416
41.8005 420
41.82061 367
41.84072 403
41.86084 395
41.88095 395
41.90107 374
41.92118 391
41.94129 370
41.96141 384
41.98152 373
42.00163 373
42.02175 371
42.04186 364
42.06198 417
42.08209 377
42.1022 395
42.12232 408
42.14243 389
42.16254 440
42.18266 430
42.20277 448
42.22289 451
42.243 502
42.26311 539
42.28323 526
42.30334 571
42.32345 597
42.34357 661
42.36368 688
42.38379 627
42.40391 649
42.42402 632
42.44414 566
42.46425 584
42.48436 534
42.50448 489
42.52459 495
42.5447 443
42.56482 434
42.58493 437
42.60505 430
42.62516 410
42.64527 382
42.66539 429
42.6855 408
42.70561 359
42.72573 386
42.74584 393
42.76595 355
42.78607 381
42.80618 375
42.8263 376
42.84641 385
42.86652 353
42.88664 388
42.90675 385
42.92686 359
42.94698 362
42.96709 377
42.98721 376
43.00732 361
43.02743 368
43.04755 380
43.06766 340
43.08777 380
43.10789 370
43.128 358
43.14812 397
43.16823 424
43.18834 354
43.20846 327
43.22857 352
43.24868 349
43.2688 348
43.28891 318
43.30902 362
43.32914 347
43.34925 333
43.36937 341
43.38948 349
43.40959 351
43.42971 373
43.44982 367
43.46993 353
43.49005 319
43.51016 341
43.53028 385
43.55039 366
43.5705 362
43.59062 370
43.61073 351
43.63084 369
43.65096 373
43.67107 358
43.69119 368
43.7113 331
43.73141 334
43.75153 320
43.77164 364
43.79175 334
43.81187 322
43.83198 338
43.85209 369
43.87221 340
43.89232 362
43.91244 350
43.93255 350
43.95266 351
43.97278 376
43.99289 368
44.013 377
44.03312 367
44.05323 375
44.07335 366
44.09346 354
44.11357 375
44.13369 371
44.1538 344
44.17391 364
44.19403 356
44.21414 357
44.23426 329
44.25437 317
44.27448 357
44.2946 357
44.31471 358
44.33482 338
44.35494 350
44.37505 328
44.39516 360
44.41528 344
44.43539 370
44.45551 347
44.47562 361
44.49573 344
44.51585 356
44.53596 382
44.55607 346
44.57619 327
44.5963 364
44.61642 356
44.63653 372
44.65664 345
44.67676 346
44.69687 325
44.71698 368
44.7371 356
44.75721 401
44.77732 351
44.79744 348
44.81755 345
44.83767 355
44.85778 389
44.87789 349
44.89801 397
44.91812 352
44.93823 349
44.95835 341
44.97846 369
44.99858 371
45.01869 343
45.0388 373
45.05892 348
45.07903 398
45.09914 336
45.11926 371
45.13937 390
45.15949 328
45.1796 359
45.19971 352
45.21983 329
45.23994 386
45.26005 355
45.28017 368
45.30028 365
45.32039 369
45.34051 352
45.36062 380
45.38074 334
45.40085 356
45.42096 404
45.44108 374
45.46119 357
45.4813 378
45.50142 397
45.52153 418
45.54165 421
45.56176 414
45.58187 450
45.60199 416
45.6221 431
45.64221 483
45.66233 472
45.68244 504
45.70256 530
45.72267 500
45.74278 533
45.7629 504
45.78301 511
45.80312 458
45.82324 439
45.84335 416
45.86346 429
45.88358 435
45.90369 416
45.92381 380
45.94392 375
45.96403 374
45.98415 337
46.00426 363
46.02437 328
46.04449 368
46.0646 340
46.08472 368
46.10483 355
46.12494 341
46.14506 361
46.16517 382
46.18528 380
46.2054 346
46.22551 325
46.24563 335
46.26574 351
46.28585 330
46.30597 334
46.32608 348
46.34619 356
46.36631 333
46.38642 340
46.40653 341
46.42665 319
46.44676 356
46.46688 324
46.48699 348
46.5071 365
46.52722 348
46.54733 323
46.56744 351
46.58756 357
46.60767 351
46.62779 345
46.6479 351
46.66801 322
46.68813 364
46.70824 345
46.72835 324
46.74847 327
46.76858 352
46.78869 346
46.80881 363
46.82892 336
46.84904 411
46.86915 339
46.88926 359
46.90938 350
46.92949 375
46.9496 373
46.96972 342
46.98983 342
47.00995 328
47.03006 342
47.05017 343
47.07029 358
47.0904 334
47.11051 347
47.13063 325
47.15074 350
47.17086 339
47.19097 316
47.21108 329
47.2312 347
47.25131 365
47.27142 331
47.29154 345
47.31165 360
47.33176 344
47.35188 337
47.37199 350
47.39211 361
47.41222 372
47.43233 361
47.45245 321
47.47256 340
47.49267 340
47.51279 331
47.5329 326
47.55302 369
47.57313 312
47.59324 333
47.61336 338
47.63347 342
47.65358 334
47.6737 318
47.69381 333
47.71393 339
47.73404 304
47.75415 361
47.77427 325
47.79438 301
47.81449 305
47.83461 320
47.85472 335
47.87483 340
47.89495 352
47.91506 348
47.93518 328
47.95529 344
47.9754 335
47.99552 360
48.01563 337
48.03574 323
48.05586 327
48.07597 348
48.09609 363
48.1162 306
48.13631 332
48.15643 364
48.17654 322
48.19665 336
48.21677 324
48.23688 345
48.257 339
48.27711 369
48.29722 342
48.31734 331
48.33745 320
48.35756 363
48.37768 330
48.39779 332
48.4179 348
48.43802 319
48.45813 343
48.47825 347
48.49836 339
48.51847 345
48.53859 359
48.5587 351
48.57881 368
48.59893 297
48.61904 356
48.63916 346
48.65927 353
48.67938 321
48.6995 330
48.71961 331
48.73972 305
48.75984 350
48.77995 362
48.80006 310
48.82018 354
48.84029 309
48.86041 340
48.88052 321
48.90063 337
48.92075 355
48.94086 327
48.96097 356
48.98109 340
49.0012 372
49.02132 327
49.04143 349
49.06154 328
49.08166 367
49.10177 348
49.12188 361
49.142 343
49.16211 355
49.18223 366
49.20234 352
49.22245 312
49.24257 304
49.26268 372
49.28279 325
49.30291 358
49.32302 335
49.34313 337
49.36325 375
49.38336 344
49.40348 345
49.42359 307
49.4437 320
49.46382 336
49.48393 347
49.50404 363
49.52416 373
49.54427 354
49.56439 378
49.5845 376
49.60461 395
49.62473 386
49.64484 396
49.66495 378
49.68507 369
49.70518 425
49.7253 428
49.74541 430
49.76552 384
49.78564 443
49.80575 450
49.82586 506
49.84598 520
49.86609 525
49.8862 513
49.90632 553
49.92643 599
49.94655 630
49.96666 718
49.98677 766
50.00689 805
50.027 880
50.04711 946
50.06723 960
50.08734 936
50.10746 813
50.12757 776
50.14768 718
50.1678 681
50.18791 642
50.20802 613
50.22814 558
50.24825 534
50.26837 464
50.28848 393
50.30859 375
50.32871 370
50.34882 406
50.36893 361
50.38905 334
50.40916 388
50.42927 367
50.44939 390
50.4695 351
50.48962 386
50.50973 392
50.52984 388
50.54996 376
50.57007 382
50.59018 387
50.6103 341
50.63041 363
50.65053 350
50.67064 352
50.69075 420
50.71087 366
50.73098 404
50.75109 370
50.77121 363
50.79132 334
50.81143 371
50.83155 380
50.85166 384
50.87178 341
50.89189 384
50.912 362
50.93212 346
50.95223 401
50.97234 362
50.99246 320
51.01257 365
51.03269 380
51.0528 336
51.07291 352
51.09303 326
51.11314 326
51.13325 327
51.15337 332
51.17348 314
51.1936 319
51.21371 334
51.23382 375
51.25394 336
51.27405 330
51.29416 299
51.31428 303
51.33439 308
51.3545 323
51.37462 318
51.39473 326
51.41485 297
51.43496 337
51.45507 315
51.47519 293
51.4953 307
51.51541 302
51.53553 311
51.55564 279
51.57576 297
51.59587 318
51.61598 317
51.6361 325
51.65621 301
51.67632 321
51.69644 302
51.71655 304
51.73667 289
51.75678 307
51.77689 280
51.79701 262
51.81712 338
51.83723 304
51.85735 299
51.87746 293
51.89757 311
51.91769 294
51.9378 306
51.95792 293
51.97803 292
51.99814 291
52.01826 343
52.03837 315
52.05848 306
52.0786 317
52.09871 311
52.11883 348
52.13894 289
52.15905 286
52.17917 278
52.19928 322
52.21939 274
52.23951 301
52.25962 323
52.27974 323
52.29985 291
52.31996 303
52.34008 281
52.36019 323
52.3803 322
52.40042 312
52.42053 311
52.44064 329
52.46076 312
52.48087 300
52.50099 325
52.5211 300
52.54121 301
52.56133 294
52.58144 353
52.60155 336
52.62167 311
52.64178 296
52.6619 321
52.68201 336
52.70212 325
52.72224 333
52.74235 336
52.76246 337
52.78258 326
52.80269 341
52.8228 336
52.84292 313
52.86303 305
52.88315 314
52.90326 331
52.92337 320
52.94349 310
52.9636 339
52.98371 337
53.00383 327
53.02394 308
53.04406 315
53.06417 334
53.08428 333
53.1044 360
53.12451 297
53.14462 321
53.16474 309
53.18485 310
53.20497 328
53.22508 333
53.24519 354
53.26531 347
53.28542 335
53.30553 347
53.32565 339
53.34576 363
53.36587 341
53.38599 350
53.4061 344
53.42622 334
53.44633 338
53.46644 345
53.48656 362
53.50667 327
53.52678 346
53.5469 319
53.56701 332
53.58713 364
53.60724 352
53.62735 348
53.64747 375
53.66758 316
53.68769 366
53.70781 362
53.72792 340
53.74804 330
53.76815 320
53.78826 386
53.80838 342
53.82849 330
53.8486 350
53.86872 331
53.88883 340
53.90894 347
53.92906 322
53.94917 344
53.96929 376
53.9894 351
54.00951 360
54.02963 316
54.04974 368
54.06985 342
54.08997 378
54.11008 327
54.1302 337
54.15031 358
54.17042 342
54.19054 350
54.21065 338
54.23076 374
54.25088 353
54.27099 349
54.29111 341
54.31122 371
54.33133 379
54.35145 372
54.37156 359
54.39167 356
54.41179 349
54.4319 378
54.45201 319
54.47213 335
54.49224 366
54.51236 346
54.53247 388
54.55258 424
54.5727 390
54.59281 362
54.61292 416
54.63304 385
54.65315 434
54.67327 376
54.69338 462
54.71349 477
54.73361 465
54.75372 529
54.77383 506
54.79395 498
54.81406 502
54.83417 505
54.85429 517
54.8744 443
54.89452 426
54.91463 417
54.93474 446
54.95486 423
54.97497 440
54.99508 418
55.0152 401
55.03531 390
55.05543 388
55.07554 379
55.09565 350
55.11577 406
55.13588 403
55.15599 386
55.17611 354
55.19622 412
55.21634 408
55.23645 421
55.25656 397
55.27668 409
55.29679 402
55.3169 394
55.33702 364
55.35713 387
55.37724 410
55.39736 375
55.41747 359
55.43759 335
55.4577 385
55.47781 337
55.49793 328
55.51804 351
55.53815 310
55.55827 337
55.57838 339
55.5985 353
55.61861 356
55.63872 315
55.65884 361
55.67895 345
55.69906 327
55.71918 304
55.73929 333
55.75941 328
55.77952 305
55.79963 316
55.81975 334
55.83986 319
55.85997 326
55.88009 334
55.9002 333
55.92031 313
55.94043 333
55.96054 324
55.98066 332
56.00077 308
56.02088 293
56.041 320
56.06111 352
56.08122 302
56.10134 317
56.12145 304
56.14157 323
56.16168 323
56.18179 349
56.20191 323
56.22202 323
56.24213 285
56.26225 323
56.28236 307
56.30248 343
56.32259 307
56.3427 289
56.36282 311
56.38293 338
56.40304 311
56.42316 329
56.44327 293
56.46338 324
56.4835 320
56.50361 315
56.52373 352
56.54384 310
56.56395 313
56.58407 335
56.60418 331
56.62429 365
56.64441 318
56.66452 329
56.68464 360
56.70475 301
56.72486 311
56.74498 351
56.76509 309
56.7852 288
56.80532 317
56.82543 318
56.84554 329
56.86566 309
56.88577 308
56.90589 306
56.926 335
56.94611 316
56.96623 325
56.98634 340
57.00645 313
57.02657 316
57.04668 329
57.0668 325
57.08691 307
57.10702 352
57.12714 318
57.14725 325
57.16736 324
57.18748 347
57.20759 366
57.22771 323
57.24782 311
57.26793 310
57.28805 281
57.30816 339
57.32827 323
57.34839 342
57.3685 312
57.38861 287
57.40873 341
57.42884 296
57.44896 313
57.46907 300
57.48918 313
57.5093 302
57.52941 296
57.54952 312
57.56964 311
57.58975 322
57.60987 331
57.62998 306
57.65009 321
57.67021 293
57.69032 316
57.71043 310
57.73055 308
57.75066 308
57.77078 301
57.79089 260
57.811 303
57.83112 285
57.85123 277
57.87134 302
57.89146 328
57.91157 301
57.93168 328
57.9518 301
57.97191 302
57.99203 301
58.01214 310
58.03225 298
58.05237 308
58.07248 283
58.09259 314
58.11271 327
58.13282 324
58.15294 290
58.17305 302
58.19316 291
58.21328 293
58.23339 281
58.2535 299
58.27362 339
58.29373 293
58.31385 343
58.33396 310
58.35407 305
58.37419 320
58.3943 294
58.41441 305
58.43453 322
58.45464 304
58.47475 304
58.49487 317
58.51498 323
58.5351 336
58.55521 299
58.57532 273
58.59544 321
58.61555 309
58.63566 321
58.65578 312
58.67589 333
58.69601 304
58.71612 315
58.73623 306
58.75635 301
58.77646 304
58.79657 300
58.81669 342
58.8368 307
58.85691 288
58.87703 272
58.89714 327
58.91726 296
58.93737 338
58.95748 289
58.9776 292
58.99771 328
59.01782 313
59.03794 317
59.05805 295
59.07817 303
59.09828 339
59.11839 283
59.13851 296
59.15862 324
59.17873 330
59.19885 340
59.21896 307
59.23908 310
59.25919 300
59.2793 343
59.29942 328
59.31953 341
59.33964 308
59.35976 340
59.37987 354
59.39998 335
59.4201 333
59.44021 322
59.46033 305
59.48044 349
59.50055 330
59.52067 352
59.54078 349
59.56089 374
59.58101 338
59.60112 379
59.62124 400
59.64135 361
59.66146 411
59.68158 409
59.70169 467
59.7218 436
59.74192 478
59.76203 526
59.78215 551
59.80226 592
59.82237 632
59.84249 654
59.8626 661
59.88271 661
59.90283 677
59.92294 682
59.94305 572
59.96317 545
59.98328 504
60.0034 462
60.02351 516
60.04362 489
60.06374 479
60.08385 465
60.10396 402
60.12408 390
60.14419 351
60.16431 349
60.18442 349
60.20453 343
60.22465 285
60.24476 312
60.26487 341
60.28499 322
60.3051 336
60.32522 330
60.34533 303
60.36544 346
60.38556 333
60.40567 317
60.42578 312
60.4459 312
60.46601 361
60.48612 333
60.50624 318
60.52635 322
60.54647 368
60.56658 311
60.58669 356
60.60681 306
60.62692 348
60.64703 342
60.66715 328
60.68726 294
60.70738 337
60.72749 327
60.7476 356
60.76772 299
60.78783 349
60.80794 317
60.82806 328
60.84817 326
60.86828 323
60.8884 335
60.90851 386
60.92863 323
60.94874 329
60.96885 339
60.98897 333
61.00908 368
61.02919 354
61.04931 354
61.06942 324
61.08954 362
61.10965 370
61.12976 331
61.14988 339
61.16999 378
61.1901 339
61.21022 402
61.23033 354
61.25045 374
61.27056 354
61.29067 390
61.31079 383
61.3309 367
61.35101 371
61.37113 395
61.39124 381
61.41135 368
61.43147 385
61.45158 409
61.4717 366
61.49181 382
61.51192 367
61.53204 401
61.55215 379
61.57226 416
61.59238 375
61.61249 392
61.63261 406
61.65272 403
61.67283 362
61.69295 354
61.71306 416
61.73317 361
61.75329 381
61.7734 380
61.79352 378
61.81363 388
61.83374 362
61.85386 392
61.87397 390
61.89408 370
61.9142 388
61.93431 356
61.95442 385
61.97454 377
61.99465 395
62.01477 394
62.03488 393
62.05499 381
62.07511 352
62.09522 370
62.11533 343
62.13545 388
62.15556 371
62.17568 384
62.19579 360
62.2159 368
62.23602 368
62.25613 384
62.27624 332
62.29636 340
62.31647 356
62.33659 355
62.3567 396
62.37681 343
62.39693 355
62.41704 319
62.43715 331
62.45727 330
62.47738 302
62.49749 347
62.51761 277
62.53772 328
62.55784 297
62.57795 337
62.59806 329
62.61818 303
62.63829 298
62.6584 305
62.67852 331
62.69863 318
62.71875 315
62.73886 319
62.75897 332
62.77909 309
62.7992 351
62.81931 303
62.83943 311
62.85954 305
62.87965 287
62.89977 321
62.91988 333
62.94 332
62.96011 287
62.98022 305
63.00034 314
63.02045 285
63.04056 302
63.06068 307
63.08079 297
63.10091 298
63.12102 298
63.14113 342
63.16125 295
63.18136 316
63.20147 283
63.22159 291
63.2417 286
63.26182 291
63.28193 295
63.30204 299
63.32216 314
63.34227 311
63.36238 285
63.3825 275
63.40261 294
63.42272 310
63.44284 320
63.46295 307
63.48307 299
63.50318 304
63.52329 308
63.54341 307
63.56352 322
63.58363 302
63.60375 344
63.62386 303
63.64398 321
63.66409 331
63.6842 342
63.70432 322
63.72443 314
63.74454 293
63.76466 377
63.78477 317
63.80489 350
63.825 333
63.84511 364
63.86523 373
63.88534 397
63.90545 349
63.92557 356
63.94568 381
63.96579 402
63.98591 344
64.00602 362
64.02614 337
64.04625 353
64.06636 330
64.08648 332
64.10659 380
64.1267 304
64.14682 315
64.16693 326
64.18705 320
64.20716 320
64.22727 316
64.24739 301
64.2675 299
64.28761 311
64.30773 285
64.32784 314
64.34796 295
64.36807 291
64.38818 286
64.4083 307
64.42841 273
64.44852 273
64.46864 291
64.48875 284
64.50886 289
64.52898 287
64.54909 286
64.56921 267
64.58932 271
64.60943 303
64.62955 310
64.64966 291
64.66977 302
64.68989 290
64.71 292
64.73012 321
64.75023 276
64.77034 262
64.79046 294
64.81057 302
64.83068 291
64.8508 285
64.87091 297
64.89102 292
64.91114 287
64.93125 273
64.95137 290
64.97148 287
64.99159 297
65.01171 282
65.03182 279
65.05193 314
65.07205 272
65.09216 339
65.11228 307
65.13239 301
65.1525 303
65.17262 281
65.19273 283
65.21284 310
65.23296 289
65.25307 280
65.27319 303
65.2933 286
65.31341 281
65.33353 297
65.35364 277
65.37375 281
65.39387 283
65.41398 296
65.43409 305
65.45421 298
65.47432 294
65.49444 312
65.51455 306
65.53466 340
65.55478 309
65.57489 268
65.595 288
65.61512 288
65.63523 308
65.65535 313
65.67546 302
65.69557 307
65.71569 284
65.7358 317
65.75591 302
65.77603 292
65.79614 282
65.81626 302
65.83637 304
65.85648 308
65.8766 290
65.89671 297
65.91682 300
65.93694 283
65.95705 275
65.97716 261
65.99728 280
66.01739 271
66.03751 295
66.05762 280
66.07773 289
66.09785 276
66.11796 287
66.13807 313
66.15819 284
66.1783 289
66.19842 289
66.21853 313
66.23864 310
66.25876 301
66.27887 295
66.29898 286
66.3191 249
66.33921 286
66.35933 280
66.37944 289
66.39955 278
66.41967 297
66.43978 293
66.45989 282
66.48001 259
66.50012 267
66.52023 292
66.54035 285
66.56046 289
66.58058 305
66.60069 287
66.6208 275
66.64092 278
66.66103 299
66.68114 274
66.70126 269
66.72137 293
66.74149 310
66.7616 271
66.78171 293
66.80183 257
66.82194 273
66.84205 250
66.86217 302
66.88228 302
66.90239 273
66.92251 291
66.94262 334
66.96274 287
66.98285 258
67.00296 294
67.02308 272
67.04319 278
67.0633 278
67.08342 275
67.10353 288
67.12365 302
67.14376 273
67.16387 313
67.18399 292
67.2041 305
67.22421 306
67.24433 290
67.26444 309
67.28456 316
67.30467 327
67.32478 315
67.3449 340
67.36501 355
67.38512 318
67.40524 359
67.42535 343
67.44546 348
67.46558 328
67.48569 395
67.50581 399
67.52592 420
67.54603 414
67.56615 422
67.58626 493
67.60637 506
67.62649 499
67.6466 550
67.66672 564
67.68683 496
67.70694 494
67.72706 485
67.74717 488
67.76728 483
67.7874 469
67.80751 446
67.82763 446
67.84774 467
67.86785 489
67.88797 524
67.90808 507
67.92819 482
67.94831 485
67.96842 519
67.98853 530
68.00865 563
68.02876 578
68.04888 590
68.06899 635
68.0891 658
68.10922 605
68.12933 595
68.14944 582
68.16956 569
68.18967 569
68.20979 589
68.2299 550
68.25001 524
68.27013 564
68.29024 496
68.31035 478
68.33047 412
68.35058 395
68.3707 380
68.39081 393
68.41092 375
68.43104 364
68.45115 358
68.47126 329
68.49138 337
68.51149 330
68.5316 296
68.55172 282
68.57183 317
68.59195 298
68.61206 320
68.63217 295
68.65229 311
68.6724 290
68.69251 284
68.71263 314
68.73274 279
68.75286 285
68.77297 282
68.79308 296
68.8132 283
68.83331 277
68.85342 275
68.87354 246
68.89365 314
68.91376 281
68.93388 273
68.95399 308
68.97411 264
68.99422 254
69.01433 286
69.03445 280
69.05456 282
69.07467 276
69.09479 251
69.1149 276
69.13502 284
69.15513 296
69.17524 295
69.19536 303
69.21547 299
69.23558 304
69.2557 279
69.27581 299
69.29593 302
69.31604 267
69.33615 278
69.35627 312
69.37638 296
69.39649 308
69.41661 277
69.43672 280
69.45683 305
69.47695 287
69.49706 303
69.51718 284
69.53729 279
69.5574 299
69.57752 255
69.59763 264
69.61774 263
69.63786 289
69.65797 289
69.67809 279
69.6982 275
69.71831 300
69.73843 274
69.75854 300
69.77865 303
69.79877 315
69.81888 295
69.839 264
69.85911 266
69.87922 278
69.89934 300
69.91945 292
69.93956 285
69.95968 262
69.97979 283
69.9999 275
70.02002 269
70.04013 262
70.06025 257
70.08036 283
70.10047 259
70.12059 264
70.1407 250
70.16081 269
70.18093 283
70.20104 289
70.22116 260
70.24127 296
70.26138 269
70.2815 294
70.30161 282
70.32172 265
70.34184 253
70.36195 261
70.38207 260
70.40218 293
70.42229 290
70.44241 259
70.46252 267
70.48263 244
70.50275 273
70.52286 263
70.54297 262
70.56309 291
70.5832 266
70.60332 271
70.62343 247
70.64354 262
70.66366 283
70.68377 268
70.70388 275
70.724 243
70.74411 291
70.76423 271
70.78434 284
70.80445 289
70.82457 271
70.84468 273
70.86479 286
70.88491 268
70.90502 245
70.92513 265
70.94525 281
70.96536 298
70.98548 263
71.00559 277
71.0257 288
71.04582 271
71.06593 281
71.08604 264
71.10616 258
71.12627 275
71.14639 264
71.1665 250
71.18661 259
71.20673 277
71.22684 281
71.24695 261
71.26707 264
71.28718 280
71.3073 282
71.32741 299
71.34752 312
71.36764 301
71.38775 261
71.40786 264
71.42798 275
71.44809 267
71.4682 291
71.48832 265
71.50843 281
71.52855 238
71.54866 281
71.56877 247
71.58889 271
71.609 276
71.62911 287
71.64923 239
71.66934 247
71.68946 255
71.70957 235
71.72968 279
71.7498 297
71.76991 284
71.79002 308
71.81014 252
71.83025 263
71.85037 264
71.87048 302
71.89059 280
71.91071 282
71.93082 287
71.95093 250
71.97105 278
71.99116 271
72.01127 314
72.03139 259
72.0515 270
72.07162 251
72.09173 260
72.11184 275
72.13196 292
72.15207 288
72.17218 309
72.1923 281
72.21241 264
72.23253 309
72.25264 295
72.27275 252
72.29287 287
72.31298 307
72.33309 292
72.35321 298
72.37332 272
72.39344 268
72.41355 292
72.43366 259
72.45378 261
72.47389 269
72.494 280
72.51412 294
72.53423 277
72.55434 284
72.57446 282
72.59457 278
72.61469 294
72.6348 282
72.65491 304
72.67503 291
72.69514 270
72.71525 287
72.73537 274
72.75548 284
72.7756 277
72.79571 279
72.81582 269
72.83594 316
72.85605 293
72.87616 302
72.89628 319
72.91639 283
72.9365 282
72.95662 305
72.97673 305
72.99685 294
73.01696 313
73.03707 320
73.05719 299
73.0773 295
73.09741 304
73.11753 290
73.13764 304
73.15776 293
73.17787 323
73.19798 328
73.2181 308
73.23821 316
73.25832 283
73.27844 324
73.29855 356
73.31867 339
73.33878 407
73.35889 363
73.37901 369
73.39912 348
73.41923 349
73.43935 319
73.45946 322
73.47957 363
73.49969 324
73.5198 312
73.53992 336
73.56003 314
73.58014 296
73.60026 322
73.62037 331
73.64048 316
73.6606 311
73.68071 298
73.70083 304
73.72094 295
73.74105 269
73.76117 275
73.78128 257
73.80139 307
73.82151 327
73.84162 288
73.86174 287
73.88185 315
73.90196 238
73.92208 295
73.94219 284
73.9623 266
73.98242 261
74.00253 276
74.02264 287
74.04276 259
74.06287 276
74.08299 296
74.1031 274
74.12321 325
74.14333 266
74.16344 284
74.18355 299
74.20367 237
74.22378 229
74.2439 261
74.26401 276
74.28412 267
74.30424 271
74.32435 277
74.34446 290
74.36458 267
74.38469 289
74.40481 271
74.42492 293
74.44503 269
74.46515 297
74.48526 303
74.50537 244
74.52549 264
74.5456 261
74.56571 287
74.58583 272
74.60594 287
74.62606 265
74.64617 306
74.66628 274
74.6864 271
74.70651 293
74.72662 285
74.74674 252
74.76685 302
74.78697 274
74.80708 257
74.82719 311
74.84731 270
74.86742 255
74.88753 248
74.90765 292
74.92776 281
74.94787 267
74.96799 287
74.9881 286
75.00822 282
