3.00117 20332
3.02128 20176
3.0414 19462
3.06151 18971
3.08162 18268
3.10174 17823
3.12185 17671
3.14197 16639
3.16208 16529
3.18219 15620
3.20231 15253
3.22242 14971
3.24253 14433
3.26265 14462
3.28276 13779
3.30288 13237
3.32299 12846
3.3431 12359
3.36322 12127
3.38333 11451
3.40344 11074
3.42356 11019
3.44367 10358
3.46379 10153
3.4839 9571
3.50401 9458
3.52413 9214
3.54424 8741
3.56435 8457
3.58447 7978
3.60458 7764
3.62469 7675
3.64481 7145
3.66492 7179
3.68504 6718
3.70515 6517
3.72526 6177
3.74538 5833
3.76549 5790
3.7856 5418
3.80572 5179
3.82583 5191
3.84595 4705
3.86606 4716
3.88617 4334
3.90629 4182
3.9264 4102
3.94651 3858
3.96663 3701
3.98674 3405
4.00686 3255
4.02697 3124
4.04708 3098
4.0672 2975
4.08731 2715
4.10742 2681
4.12754 2554
4.14765 2467
4.16776 2372
4.18788 2114
4.20799 2130
4.22811 2099
4.24822 2073
4.26833 1988
4.28845 1767
4.30856 1838
4.32867 1747
4.34879 1709
4.3689 1689
4.38902 1563
4.40913 1427
4.42924 1563
4.44936 1551
4.46947 1387
4.48958 1389
4.5097 1295
4.52981 1345
4.54992 1330
4.57004 1196
4.59015 1127
4.61027 1124
4.63038 1194
4.65049 1039
4.67061 1156
4.69072 1037
4.71083 1019
4.73095 1034
4.75106 1002
4.77118 937
4.79129 942
4.8114 892
4.83152 921
4.85163 897
4.87174 865
4.89186 810
4.91197 838
4.93209 795
4.9522 799
4.97231 733
4.99243 749
5.01254 718
5.03265 736
5.05277 703
5.07288 668
5.09299 662
5.11311 596
5.13322 651
5.15334 653
5.17345 540
5.19356 601
5.21368 601
5.23379 590
5.2539 552
5.27402 496
5.29413 525
5.31425 477
5.33436 474
5.35447 494
5.37459 428
5.3947 424
5.41481 459
5.43493 411
5.45504 452
5.47516 408
5.49527 402
5.51538 411
5.5355 401
5.55561 376
5.57572 407
5.59584 370
5.61595 409
5.63606 336
5.65618 359
5.67629 339
5.69641 328
5.71652 339
5.73663 336
5.75675 322
5.77686 296
5.79697 339
5.81709 334
5.8372 341
5.85732 314
5.87743 312
5.89754 289
5.91766 279
5.93777 285
5.95788 246
5.978 312
5.99811 273
6.01823 225
6.03834 278
6.05845 266
6.07857 268
6.09868 275
6.11879 274
6.13891 280
6.15902 275
6.17913 293
6.19925 268
6.21936 249
6.23948 237
6.25959 266
6.2797 248
6.29982 231
6.31993 235
6.34004 233
6.36016 279
6.38027 248
6.40039 269
6.4205 237
6.44061 239
6.46073 250
6.48084 237
6.50095 235
6.52107 239
6.54118 221
6.56129 224
6.58141 231
6.60152 213
6.62164 238
6.64175 233
6.66186 225
6.68198 224
6.70209 249
6.7222 242
6.74232 231
6.76243 229
6.78255 230
6.80266 232
6.82277 226
6.84289 208
6.863 200
6.88311 216
6.90323 224
6.92334 226
6.94346 241
6.96357 216
6.98368 224
7.0038 198
7.02391 231
7.04402 190
7.06414 227
7.08425 223
7.10436 210
7.12448 227
7.14459 231
7.16471 192
7.18482 242
7.20493 198
7.22505 218
7.24516 241
7.26527 234
7.28539 229
7.3055 241
7.32562 238
7.34573 209
7.36584 212
7.38596 217
7.40607 234
7.42618 244
7.4463 229
7.46641 231
7.48653 215
7.50664 238
7.52675 212
7.54687 265
7.56698 240
7.58709 229
7.60721 240
7.62732 221
7.64743 221
7.66755 226
7.68766 238
7.70778 213
7.72789 191
7.748 221
7.76812 226
7.78823 229
7.80834 226
7.82846 223
7.84857 240
7.86869 227
7.8888 245
7.90891 224
7.92903 235
7.94914 275
7.96925 230
7.98937 234
8.00948 224
8.0296 227
8.04971 230
8.06982 274
8.08994 237
8.11005 235
8.13016 230
8.15028 234
8.17039 224
8.1905 252
8.21062 253
8.23073 231
8.25085 238
8.27096 237
8.29107 223
8.31119 217
8.3313 210
8.35141 242
8.37153 255
8.39164 209
8.41176 213
8.43187 232
8.45198 239
8.4721 225
8.49221 241
8.51232 247
8.53244 232
8.55255 238
8.57266 244
8.59278 228
8.61289 237
8.63301 257
8.65312 261
8.67323 221
8.69335 254
8.71346 259
8.73357 252
8.75369 266
8.7738 262
8.79392 232
8.81403 231
8.83414 242
8.85426 273
8.87437 249
8.89448 247
8.9146 261
8.93471 234
8.95483 253
8.97494 276
8.99505 241
9.01517 247
9.03528 258
9.05539 224
9.07551 253
9.09562 229
9.11573 240
9.13585 253
9.15596 266
9.17608 217
9.19619 230
9.2163 250
9.23642 237
9.25653 253
9.27664 239
9.29676 228
9.31687 243
9.33699 216
9.3571 226
9.37721 223
9.39733 275
9.41744 231
9.43755 207
9.45767 217
9.47778 238
9.4979 241
9.51801 196
9.53812 271
9.55824 250
9.57835 253
9.59846 231
9.61858 255
9.63869 264
9.6588 275
9.67892 217
9.69903 229
9.71915 228
9.73926 238
9.75937 242
9.77949 225
9.7996 246
9.81971 262
9.83983 252
9.85994 235
9.88006 255
9.90017 225
9.92028 215
9.9404 267
9.96051 254
9.98062 241
10.00074 284
10.02085 237
10.04097 243
10.06108 256
10.08119 232
10.10131 245
10.12142 245
10.14153 234
10.16165 266
10.18176 256
10.20187 240
10.22199 233
10.2421 268
10.26222 256
10.28233 256
10.30244 249
10.32256 253
10.34267 267
10.36278 268
10.3829 261
10.40301 220
10.42313 266
10.44324 225
10.46335 257
10.48347 230
10.50358 264
10.52369 241
10.54381 266
10.56392 278
10.58403 252
10.60415 249
10.62426 224
10.64438 209
10.66449 257
10.6846 238
10.70472 244
10.72483 220
10.74494 232
10.76506 231
10.78517 230
10.80529 253
10.8254 253
10.84551 252
10.86563 257
10.88574 225
10.90585 241
10.92597 250
10.94608 237
10.9662 249
10.98631 241
11.00642 236
11.02654 251
11.04665 263
11.06676 237
11.08688 259
11.10699 228
11.1271 250
11.14722 221
11.16733 220
11.18745 216
11.20756 243
11.22767 211
11.24779 235
11.2679 235
11.28801 260
11.30813 273
11.32824 246
11.34836 245
11.36847 231
11.38858 271
11.4087 254
11.42881 259
11.44892 245
11.46904 249
11.48915 222
11.50927 221
11.52938 271
11.54949 254
11.56961 271
11.58972 216
11.60983 224
11.62995 263
11.65006 237
11.67017 277
11.69029 242
11.7104 278
11.73052 263
11.75063 273
11.77074 209
11.79086 280
11.81097 227
11.83108 252
11.8512 278
11.87131 267
11.89143 260
11.91154 312
11.93165 270
11.95177 268
11.97188 262
11.99199 248
12.01211 272
12.03222 284
12.05234 293
12.07245 263
12.09256 287
12.11268 273
12.13279 272
12.1529 281
12.17302 251
12.19313 286
12.21324 301
12.23336 267
12.25347 286
12.27359 257
12.2937 295
12.31381 278
12.33393 264
12.35404 262
12.37415 253
12.39427 293
12.41438 272
12.4345 255
12.45461 273
12.47472 255
12.49484 262
12.51495 255
12.53506 249
12.55518 248
12.57529 261
12.5954 279
12.61552 253
12.63563 254
12.65575 245
12.67586 231
12.69597 252
12.71609 217
12.7362 223
12.75631 231
12.77643 196
12.79654 209
12.81666 220
12.83677 237
12.85688 239
12.877 222
12.89711 197
12.91722 236
12.93734 224
12.95745 205
12.97757 241
12.99768 230
13.01779 222
13.03791 233
13.05802 186
13.07813 188
13.09825 215
13.11836 211
13.13847 217
13.15859 215
13.1787 208
13.19882 231
13.21893 194
13.23904 204
13.25916 178
13.27927 184
13.29938 200
13.3195 198
13.33961 195
13.35973 195
13.37984 223
13.39995 213
13.42007 197
13.44018 198
13.46029 218
13.48041 188
13.50052 206
13.52064 215
13.54075 206
13.56086 239
13.58098 198
13.60109 222
13.6212 191
13.64132 205
13.66143 225
13.68154 157
13.70166 207
13.72177 202
13.74189 182
13.762 205
13.78211 209
13.80223 234
13.82234 208
13.84245 217
13.86257 221
13.88268 203
13.9028 201
13.92291 177
13.94302 223
13.96314 205
13.98325 215
14.00336 189
14.02348 195
14.04359 219
14.06371 175
14.08382 204
14.10393 193
14.12405 202
14.14416 202
14.16427 220
14.18439 193
14.2045 190
14.22461 194
14.24473 185
14.26484 178
14.28496 204
14.30507 206
14.32518 184
14.3453 200
14.36541 191
14.38552 184
14.40564 200
14.42575 179
14.44587 167
14.46598 202
14.48609 182
14.50621 206
14.52632 167
14.54643 186
14.56655 206
14.58666 175
14.60677 180
14.62689 191
14.647 222
14.66712 214
14.68723 203
14.70734 160
14.72746 192
14.74757 204
14.76768 182
14.7878 171
14.80791 201
14.82803 177
14.84814 181
14.86825 221
14.88837 176
14.90848 189
14.92859 218
14.94871 206
14.96882 205
14.98894 196
15.00905 203
15.02916 191
15.04928 176
15.06939 190
15.0895 178
15.10962 180
15.12973 176
15.14984 212
15.16996 178
15.19007 183
15.21019 185
15.2303 170
15.25041 181
15.27053 165
15.29064 201
15.31075 182
15.33087 198
15.35098 203
15.3711 171
15.39121 199
15.41132 192
15.43144 178
15.45155 192
15.47166 190
15.49178 186
15.51189 193
15.53201 167
15.55212 168
15.57223 175
15.59235 162
15.61246 164
15.63257 202
15.65269 188
15.6728 178
15.69291 164
15.71303 180
15.73314 182
15.75326 165
15.77337 193
15.79348 192
15.8136 175
15.83371 182
15.85382 197
15.87394 178
15.89405 168
15.91417 175
15.93428 160
15.95439 189
15.97451 191
15.99462 169
16.01473 173
16.03485 156
16.05496 193
16.07508 188
16.09519 231
16.1153 188
16.13542 176
16.15553 191
16.17564 181
16.19576 182
16.21587 177
16.23598 194
16.2561 174
16.27621 147
16.29633 141
16.31644 183
16.33655 201
16.35667 182
16.37678 155
16.39689 165
16.41701 176
16.43712 232
16.45724 167
16.47735 179
16.49746 180
16.51758 165
16.53769 172
16.5578 152
16.57792 205
16.59803 189
16.61814 197
16.63826 181
16.65837 174
16.67849 190
16.6986 169
16.71871 177
16.73883 187
16.75894 157
16.77905 148
16.79917 188
16.81928 166
16.8394 183
16.85951 185
16.87962 186
16.89974 168
16.91985 191
16.93996 180
16.96008 159
16.98019 144
17.00031 162
17.02042 181
17.04053 171
17.06065 187
17.08076 177
17.10087 156
17.12099 192
17.1411 151
17.16121 161
17.18133 147
17.20144 158
17.22156 145
17.24167 177
17.26178 208
17.2819 166
17.30201 173
17.32212 208
17.34224 154
17.36235 170
17.38247 158
17.40258 179
17.42269 182
17.44281 174
17.46292 158
17.48303 163
17.50315 169
17.52326 178
17.54338 173
17.56349 197
17.5836 178
17.60372 204
17.62383 170
17.64394 164
17.66406 178
17.68417 169
17.70428 171
17.7244 209
17.74451 178
17.76463 182
17.78474 189
17.80485 200
17.82497 190
17.84508 172
17.86519 168
17.88531 187
17.90542 173
17.92554 204
17.94565 168
17.96576 189
17.98588 176
18.00599 197
18.0261 196
18.04622 194
18.06633 187
18.08645 184
18.10656 194
18.12667 172
18.14679 189
18.1669 186
18.18701 186
18.20713 213
18.22724 184
18.24735 196
18.26747 200
18.28758 201
18.3077 186
18.32781 182
18.34792 178
18.36804 199
18.38815 186
18.40826 190
18.42838 210
18.44849 184
18.46861 200
18.48872 168
18.50883 202
18.52895 174
18.54906 170
18.56917 159
18.58929 156
18.6094 158
18.62951 200
18.64963 183
18.66974 162
18.68986 206
18.70997 177
18.73008 202
18.7502 186
18.77031 194
18.79042 194
18.81054 217
18.83065 174
18.85077 190
18.87088 185
18.89099 198
18.91111 168
18.93122 172
18.95133 152
18.97145 163
18.99156 158
19.01168 184
19.03179 172
19.0519 190
19.07202 179
19.09213 176
19.11224 178
19.13236 168
19.15247 187
19.17258 177
19.1927 187
19.21281 202
19.23293 185
19.25304 170
19.27315 166
19.29327 187
19.31338 178
19.33349 196
19.35361 157
19.37372 185
19.39384 190
19.41395 172
19.43406 211
19.45418 202
19.47429 206
19.4944 179
19.51452 197
19.53463 201
19.55475 200
19.57486 217
19.59497 198
19.61509 239
19.6352 229
19.65531 216
19.67543 269
19.69554 268
19.71565 264
19.73577 281
19.75588 294
19.776 282
19.79611 299
19.81622 301
19.83634 329
19.85645 356
19.87656 340
19.89668 345
19.91679 328
19.93691 308
19.95702 333
19.97713 329
19.99725 312
20.01736 336
20.03747 306
20.05759 290
20.0777 340
20.09782 346
20.11793 323
20.13804 346
20.15816 327
20.17827 322
20.19838 329
20.2185 343
20.23861 333
20.25872 367
20.27884 346
20.29895 359
20.31907 356
20.33918 359
20.35929 395
20.37941 339
20.39952 417
20.41963 390
20.43975 434
20.45986 375
20.47998 393
20.50009 444
20.5202 455
20.54032 434
20.56043 458
20.58054 480
20.60066 509
20.62077 642
20.64088 723
20.661 911
20.68111 1091
20.70123 1557
20.72134 2203
20.74145 2951
20.76157 4426
20.78168 5958
20.80179 7587
20.82191 9039
20.84202 9127
20.86214 8134
20.88225 6421
20.90236 4449
20.92248 2862
20.94259 1662
20.9627 919
20.98282 641
21.00293 558
21.02305 503
21.04316 458
21.06327 486
21.08339 411
21.1035 403
21.12361 370
21.14373 362
21.16384 359
21.18395 354
21.20407 342
21.22418 310
21.2443 285
21.26441 320
21.28452 338
21.30464 273
21.32475 290
21.34486 275
21.36498 282
21.38509 285
21.40521 261
21.42532 282
21.44543 279
21.46555 294
21.48566 278
21.50577 272
21.52589 266
21.546 289
21.56612 255
21.58623 267
21.60634 266
21.62646 284
21.64657 262
21.66668 277
21.6868 274
21.70691 237
21.72702 260
21.74714 239
21.76725 238
21.78737 257
21.80748 266
21.82759 242
21.84771 264
21.86782 256
21.88793 238
21.90805 250
21.92816 249
21.94828 220
21.96839 239
21.9885 253
22.00862 219
22.02873 256
22.04884 223
22.06896 252
22.08907 261
22.10919 200
22.1293 256
22.14941 229
22.16953 212
22.18964 245
22.20975 246
22.22987 214
22.24998 239
22.27009 260
22.29021 194
22.31032 255
22.33044 234
22.35055 221
22.37066 225
22.39078 245
22.41089 248
22.431 245
22.45112 248
22.47123 206
22.49135 220
22.51146 228
22.53157 231
22.55169 248
22.5718 208
22.59191 239
22.61203 202
22.63214 222
22.65225 215
22.67237 249
22.69248 239
22.7126 218
22.73271 257
22.75282 218
22.77294 227
22.79305 211
22.81316 238
22.83328 260
22.85339 193
22.87351 231
22.89362 244
22.91373 227
22.93385 223
22.95396 210
22.97407 196
22.99419 210
23.0143 236
23.03442 220
23.05453 221
23.07464 204
23.09476 223
23.11487 241
23.13498 216
23.1551 210
23.17521 209
23.19532 171
23.21544 204
23.23555 197
23.25567 246
23.27578 209
23.29589 217
23.31601 213
23.33612 202
23.35623 209
23.37635 226
23.39646 237
23.41658 237
23.43669 229
23.4568 246
23.47692 210
23.49703 222
23.51714 234
23.53726 203
23.55737 224
23.57749 200
23.5976 214
23.61771 250
23.63783 226
23.65794 223
23.67805 215
23.69817 244
23.71828 240
23.73839 229
23.75851 224
23.77862 238
23.79874 235
23.81885 237
23.83896 247
23.85908 255
23.87919 247
23.8993 266
23.91942 283
23.93953 272
23.95965 277
23.97976 300
23.99987 292
24.01999 291
24.0401 273
24.06021 281
24.08033 244
24.10044 235
24.12056 227
24.14067 217
24.16078 212
24.1809 267
24.20101 224
24.22112 228
24.24124 212
24.26135 211
24.28146 228
24.30158 245
24.32169 195
24.34181 224
24.36192 236
24.38203 265
24.40215 227
24.42226 210
24.44237 211
24.46249 182
24.4826 222
24.50272 233
24.52283 239
24.54294 222
24.56306 235
24.58317 213
24.60328 232
24.6234 237
24.64351 204
24.66362 216
24.68374 265
24.70385 227
24.72397 236
24.74408 232
24.76419 267
24.78431 247
24.80442 272
24.82453 273
24.84465 269
24.86476 275
24.88488 279
24.90499 271
24.9251 254
24.94522 266
24.96533 266
24.98544 248
25.00556 294
25.02567 266
25.04579 292
25.0659 266
25.08601 266
25.10613 246
25.12624 248
25.14635 271
25.16647 266
25.18658 275
25.20669 272
25.22681 269
25.24692 256
25.26704 257
25.28715 254
25.30726 289
25.32738 259
25.34749 267
25.3676 248
25.38772 251
25.40783 251
25.42795 237
25.44806 234
25.46817 237
25.48829 263
25.5084 244
25.52851 266
25.54863 267
25.56874 287
25.58886 256
25.60897 328
25.62908 314
25.6492 361
25.66931 361
25.68942 390
25.70954 388
25.72965 424
25.74976 439
25.76988 424
25.78999 433
25.81011 479
25.83022 454
25.85033 447
25.87045 435
25.89056 447
25.91067 464
25.93079 442
25.9509 458
25.97102 534
25.99113 499
26.01124 468
26.03136 522
26.05147 529
26.07158 571
26.0917 618
26.11181 606
26.13193 681
26.15204 687
26.17215 715
26.19227 752
26.21238 896
26.23249 965
26.25261 1106
26.27272 1037
26.29283 1134
26.31295 1227
26.33306 1407
26.35318 1532
26.37329 1899
26.3934 2234
26.41352 2869
26.43363 3746
26.45374 5073
26.47386 7100
26.49397 9943
26.51409 14109
26.5342 19748
26.55431 26497
26.57443 34145
26.59454 39927
26.61465 41923
26.63477 38204
26.65488 31079
26.67499 23081
26.69511 17196
26.71522 11444
26.73534 6279
26.75545 3470
26.77556 2177
26.79568 1732
26.81579 1546
26.8359 1421
26.85602 1182
26.87613 1142
26.89625 1026
26.91636 930
26.93647 821
26.95659 852
26.9767 785
26.99681 714
27.01693 640
27.03704 569
27.05716 538
27.07727 471
27.09738 470
27.1175 463
27.13761 444
27.15772 428
27.17784 463
27.19795 396
27.21806 432
27.23818 410
27.25829 424
27.27841 417
27.29852 400
27.31863 377
27.33875 387
27.35886 387
27.37897 366
27.39909 398
27.4192 366
27.43932 404
27.45943 359
27.47954 344
27.49966 355
27.51977 385
27.53988 323
27.56 315
27.58011 325
27.60023 302
27.62034 338
27.64045 296
27.66057 345
27.68068 345
27.70079 294
27.72091 316
27.74102 324
27.76113 330
27.78125 320
27.80136 271
27.82148 289
27.84159 281
27.8617 314
27.88182 317
27.90193 279
27.92204 279
27.94216 328
27.96227 265
27.98239 295
28.0025 259
28.02261 278
28.04273 266
28.06284 263
28.08295 284
28.10307 297
28.12318 264
28.1433 271
28.16341 286
28.18352 288
28.20364 282
28.22375 258
28.24386 263
28.26398 260
28.28409 267
28.3042 259
28.32432 252
28.34443 272
28.36455 262
28.38466 254
28.40477 230
28.42489 254
28.445 252
28.46511 236
28.48523 249
28.50534 247
28.52546 257
28.54557 253
28.56568 256
28.5858 261
28.60591 239
28.62602 241
28.64614 242
28.66625 243
28.68636 259
28.70648 237
28.72659 279
28.74671 234
28.76682 256
28.78693 273
28.80705 222
28.82716 260
28.84727 269
28.86739 219
28.8875 225
28.90762 202
28.92773 274
28.94784 214
28.96796 258
28.98807 242
29.00818 243
29.0283 245
29.04841 225
29.06853 240
29.08864 239
29.10875 209
29.12887 211
29.14898 233
29.16909 212
29.18921 245
29.20932 228
29.22943 221
29.24955 238
29.26966 247
29.28978 225
29.30989 220
29.33 209
29.35012 246
29.37023 220
29.39034 218
29.41046 239
29.43057 226
29.45069 211
29.4708 243
29.49091 216
29.51103 227
29.53114 243
29.55125 239
29.57137 211
29.59148 219
29.6116 216
29.63171 222
29.65182 220
29.67194 219
29.69205 190
29.71216 210
29.73228 216
29.75239 215
29.7725 218
29.79262 207
29.81273 221
29.83285 231
29.85296 199
29.87307 254
29.89319 215
29.9133 234
29.93341 209
29.95353 213
29.97364 216
29.99376 204
30.01387 229
30.03398 221
30.0541 208
30.07421 192
30.09432 218
30.11444 204
30.13455 212
30.15467 215
30.17478 201
30.19489 218
30.21501 192
30.23512 243
30.25523 214
30.27535 216
30.29546 211
30.31557 202
30.33569 220
30.3558 220
30.37592 190
30.39603 199
30.41614 184
30.43626 172
30.45637 225
30.47648 173
30.4966 217
30.51671 204
30.53683 227
30.55694 208
30.57705 206
30.59717 190
30.61728 208
30.63739 224
30.65751 199
30.67762 201
30.69773 185
30.71785 185
30.73796 186
30.75808 187
30.77819 206
30.7983 170
30.81842 194
30.83853 191
30.85864 177
30.87876 193
30.89887 180
30.91899 224
30.9391 202
30.95921 213
30.97933 185
30.99944 193
31.01955 191
31.03967 207
31.05978 212
31.0799 174
31.10001 167
31.12012 189
31.14024 173
31.16035 180
31.18046 182
31.20058 191
31.22069 194
31.2408 183
31.26092 193
31.28103 177
31.30115 176
31.32126 198
31.34137 186
31.36149 192
31.3816 162
31.40171 190
31.42183 199
31.44194 196
31.46206 173
31.48217 209
31.50228 173
31.5224 208
31.54251 196
31.56262 192
31.58274 190
31.60285 205
31.62297 177
31.64308 162
31.66319 163
31.68331 163
31.70342 174
31.72353 200
31.74365 180
31.76376 188
31.78387 176
31.80399 152
31.8241 176
31.84422 171
31.86433 163
31.88444 187
31.90456 170
31.92467 179
31.94478 175
31.9649 171
31.98501 177
32.00513 170
32.02524 179
32.04535 161
32.06547 183
32.08558 174
32.10569 155
32.12581 173
32.14592 181
32.16604 164
32.18615 184
32.20626 186
32.22638 177
32.24649 179
32.2666 175
32.28672 154
32.30683 152
32.32694 165
32.34706 181
32.36717 144
32.38729 175
32.4074 210
32.42751 166
32.44763 186
32.46774 152
32.48785 179
32.50797 177
32.52808 176
32.5482 174
32.56831 173
32.58842 166
32.60854 205
32.62865 186
32.64876 165
32.66888 187
32.68899 188
32.7091 196
32.72922 165
32.74933 202
32.76945 163
32.78956 159
32.80967 169
32.82979 186
32.8499 188
32.87001 180
32.89013 159
32.91024 159
32.93036 155
32.95047 140
32.97058 165
32.9907 168
33.01081 170
33.03092 171
33.05104 153
33.07115 155
33.09127 157
33.11138 171
33.13149 150
33.15161 171
33.17172 146
33.19183 190
33.21195 150
33.23206 157
33.25217 194
33.27229 139
33.2924 152
33.31252 147
33.33263 143
33.35274 158
33.37286 141
33.39297 158
33.41308 178
33.4332 149
33.45331 156
33.47343 158
33.49354 148
33.51365 134
33.53377 157
33.55388 141
33.57399 137
33.59411 141
33.61422 151
33.63434 169
33.65445 164
33.67456 177
33.69468 139
33.71479 191
33.7349 156
33.75502 131
33.77513 166
33.79524 172
33.81536 175
33.83547 151
33.85559 137
33.8757 165
33.89581 161
33.91593 156
33.93604 136
33.95615 162
33.97627 156
33.99638 153
34.0165 163
34.03661 157
34.05672 171
34.07684 158
34.09695 138
34.11706 170
34.13718 155
34.15729 169
34.17741 133
34.19752 149
34.21763 146
34.23775 143
34.25786 143
34.27797 150
34.29809 162
34.3182 139
34.33831 165
34.35843 174
34.37854 142
34.39866 166
34.41877 175
34.43888 175
34.459 181
34.47911 159
34.49922 162
34.51934 156
34.53945 167
34.55957 180
34.57968 177
34.59979 179
34.61991 175
34.64002 179
34.66013 189
34.68025 182
34.70036 196
34.72047 198
34.74059 184
34.7607 215
34.78082 190
34.80093 184
34.82104 190
34.84116 180
34.86127 225
34.88138 183
34.9015 220
34.92161 213
34.94173 262
34.96184 213
34.98195 225
35.00207 212
35.02218 206
35.04229 230
35.06241 211
35.08252 191
35.10264 205
35.12275 214
35.14286 207
35.16298 186
35.18309 195
35.2032 214
35.22332 190
35.24343 215
35.26354 207
35.28366 205
35.30377 197
35.32389 226
35.344 231
35.36411 210
35.38423 216
35.40434 208
35.42445 210
35.44457 203
35.46468 214
35.4848 220
35.50491 217
35.52502 234
35.54514 206
35.56525 186
35.58536 234
35.60548 210
35.62559 229
35.64571 201
35.66582 219
35.68593 216
35.70605 195
35.72616 217
35.74627 216
35.76639 225
35.7865 211
35.80661 197
35.82673 234
35.84684 217
35.86696 207
35.88707 188
35.90718 202
35.9273 255
35.94741 210
35.96752 202
35.98764 237
36.00775 241
36.02787 229
36.04798 250
36.06809 221
36.08821 248
36.10832 225
36.12843 270
36.14855 246
36.16866 240
36.18878 268
36.20889 297
36.229 297
36.24912 336
36.26923 323
36.28934 374
36.30946 382
36.32957 514
36.34968 624
36.3698 799
36.38991 1023
36.41003 1281
36.43014 1571
36.45025 2012
36.47037 2446
36.49048 2708
36.51059 2797
36.53071 2580
36.55082 2157
36.57094 1749
36.59105 1591
36.61116 1380
36.63128 1077
36.65139 689
36.6715 500
36.69162 372
36.71173 315
36.73184 275
36.75196 265
36.77207 247
36.79219 238
36.8123 213
36.83241 257
36.85253 207
36.87264 207
36.89275 255
36.91287 215
36.93298 184
36.9531 214
36.97321 185
36.99332 192
37.01344 190
37.03355 211
37.05366 206
37.07378 183
37.09389 183
37.11401 183
37.13412 203
37.15423 191
37.17435 188
37.19446 188
37.21457 195
37.23469 183
37.2548 180
37.27491 198
37.29503 172
37.31514 168
37.33526 190
37.35537 176
37.37548 177
37.3956 185
37.41571 184
37.43582 206
37.45594 181
37.47605 183
37.49617 185
37.51628 193
37.53639 191
37.55651 204
37.57662 159
37.59673 188
37.61685 181
37.63696 160
37.65708 192
37.67719 180
37.6973 183
37.71742 180
37.73753 185
37.75764 195
37.77776 192
37.79787 173
37.81798 217
37.8381 204
37.85821 186
37.87833 180
37.89844 188
37.91855 196
37.93867 215
37.95878 186
37.97889 195
37.99901 182
38.01912 211
38.03924 219
38.05935 192
38.07946 187
38.09958 216
38.11969 210
38.1398 193
38.15992 202
38.18003 182
38.20015 190
38.22026 215
38.24037 195
38.26049 207
38.2806 220
38.30071 235
38.32083 210
38.34094 214
38.36105 229
38.38117 181
38.40128 229
38.4214 221
38.44151 225
38.46162 234
38.48174 187
38.50185 211
38.52196 213
38.54208 213
38.56219 200
38.58231 214
38.60242 225
38.62253 203
38.64265 232
38.66276 203
38.68287 175
38.70299 211
38.7231 214
38.74321 184
38.76333 198
38.78344 186
38.80356 198
38.82367 195
38.84378 210
38.8639 235
38.88401 235
38.90412 216
38.92424 220
38.94435 210
38.96447 210
38.98458 207
39.00469 225
39.02481 229
39.04492 238
39.06503 241
39.08515 257
39.10526 259
39.12538 285
39.14549 258
39.1656 310
39.18572 344
39.20583 358
39.22594 417
39.24606 491
39.26617 556
39.28628 684
39.3064 836
39.32651 999
39.34663 1380
39.36674 1754
39.38685 2086
39.40697 2455
39.42708 2661
39.44719 2493
39.46731 2142
39.48742 1802
39.50754 1428
39.52765 1398
39.54776 1215
39.56788 923
39.58799 634
39.6081 415
39.62822 328
39.64833 286
39.66845 245
39.68856 259
39.70867 241
39.72879 218
39.7489 214
39.76901 201
39.78913 221
39.80924 203
39.82935 246
39.84947 229
39.86958 218
39.8897 238
39.90981 217
39.92992 207
39.95004 243
39.97015 222
39.99026 260
40.01038 247
40.03049 286
40.05061 317
40.07072 343
40.09083 391
40.11095 452
40.13106 490
40.15117 634
40.17129 807
40.1914 960
40.21152 1098
40.23163 1349
40.25174 1371
40.27186 1358
40.29197 1055
40.31208 937
40.3322 818
40.35231 730
40.37242 691
40.39254 539
40.41265 381
40.43277 284
40.45288 241
40.47299 220
40.49311 212
40.51322 202
40.53333 198
40.55345 189
40.57356 171
40.59368 183
40.61379 187
40.6339 200
40.65402 172
40.67413 181
40.69424 184
40.71436 169
40.73447 176
40.75458 178
40.7747 160
40.79481 164
40.81493 182
40.83504 181
40.85515 188
40.87527 185
40.89538 190
40.91549 176
40.93561 175
40.95572 163
40.97584 192
40.99595 177
41.01606 187
41.03618 173
41.05629 193
41.0764 182
41.09652 176
41.11663 180
41.13675 163
41.15686 187
41.17697 192
41.19709 142
41.2172 149
41.23731 169
41.25743 183
41.27754 211
41.29765 188
41.31777 174
41.33788 162
41.358 180
41.37811 144
41.39822 171
41.41834 180
41.43845 153
41.45856 173
41.47868 196
41.49879 168
41.51891 175
41.53902 185
41.55913 175
41.57925 170
41.59936 162
41.61947 165
41.63959 170
41.6597 206
41.67982 186
41.69993 178
41.72004 195
41.74016 185
41.76027 180
41.78038 183
41.8005 179
41.82061 164
41.84072 211
41.86084 154
41.88095 179
41.90107 182
41.92118 181
41.94129 161
41.96141 182
41.98152 193
42.00163 190
42.02175 187
42.04186 200
42.06198 205
42.08209 188
42.1022 243
42.12232 238
42.14243 271
42.16254 300
42.18266 320
42.20277 372
42.22289 403
42.243 456
42.26311 537
42.28323 676
42.30334 784
42.32345 981
42.34357 1276
42.36368 1480
42.38379 1764
42.40391 1860
42.42402 1800
42.44414 1586
42.46425 1304
42.48436 1107
42.50448 1087
42.52459 994
42.5447 893
42.56482 641
42.58493 459
42.60505 280
42.62516 260
42.64527 224
42.66539 234
42.6855 207
42.70561 202
42.72573 181
42.74584 186
42.76595 193
42.78607 186
42.80618 162
42.8263 181
42.84641 177
42.86652 149
42.88664 174
42.90675 156
42.92686 169
42.94698 152
42.96709 164
42.98721 139
43.00732 169
43.02743 158
43.04755 169
43.06766 159
43.08777 155
43.10789 160
43.128 164
43.14812 151
43.16823 150
43.18834 155
43.20846 138
43.22857 158
43.24868 154
43.2688 142
43.28891 167
43.30902 160
43.32914 157
43.34925 158
43.36937 173
43.38948 181
43.40959 170
43.42971 161
43.44982 163
43.46993 155
43.49005 134
43.51016 151
43.53028 157
43.55039 191
43.5705 170
43.59062 181
43.61073 153
43.63084 160
43.65096 170
43.67107 159
43.69119 177
43.7113 165
43.73141 173
43.75153 176
43.77164 131
43.79175 141
43.81187 160
43.83198 159
43.85209 137
43.87221 144
43.89232 146
43.91244 154
43.93255 149
43.95266 146
43.97278 174
43.99289 158
44.013 144
44.03312 140
44.05323 160
44.07335 155
44.09346 171
44.11357 154
44.13369 159
44.1538 160
44.17391 152
44.19403 117
44.21414 166
44.23426 162
44.25437 183
44.27448 146
44.2946 159
44.31471 135
44.33482 157
44.35494 150
44.37505 167
44.39516 170
44.41528 178
44.43539 154
44.45551 158
44.47562 163
44.49573 132
44.51585 146
44.53596 149
44.55607 155
44.57619 170
44.5963 180
44.61642 156
44.63653 167
44.65664 139
44.67676 156
44.69687 161
44.71698 179
44.7371 139
44.75721 167
44.77732 147
44.79744 166
44.81755 170
44.83767 150
44.85778 195
44.87789 165
44.89801 154
44.91812 154
44.93823 168
44.95835 160
44.97846 168
44.99858 172
45.01869 158
45.0388 171
45.05892 146
45.07903 176
45.09914 174
45.11926 153
45.13937 168
45.15949 181
45.1796 169
45.19971 158
45.21983 171
45.23994 174
45.26005 174
45.28017 158
45.30028 156
45.32039 174
45.34051 180
45.36062 165
45.38074 207
45.40085 191
45.42096 180
45.44108 215
45.46119 240
45.4813 231
45.50142 215
45.52153 270
45.54165 256
45.56176 329
45.58187 361
45.60199 420
45.6221 482
45.64221 588
45.66233 718
45.68244 826
45.70256 1004
45.72267 1180
45.74278 1223
45.7629 1267
45.78301 1178
45.80312 857
45.82324 733
45.84335 649
45.86346 656
45.88358 626
45.90369 570
45.92381 395
45.94392 303
45.96403 219
45.98415 196
46.00426 196
46.02437 183
46.04449 186
46.0646 174
46.08472 171
46.10483 174
46.12494 176
46.14506 166
46.16517 158
46.18528 176
46.2054 166
46.22551 174
46.24563 159
46.26574 160
46.28585 147
46.30597 156
46.32608 157
46.34619 155
46.36631 134
46.38642 157
46.40653 156
46.42665 147
46.44676 136
46.46688 143
46.48699 131
46.5071 147
46.52722 153
46.54733 143
46.56744 150
46.58756 138
46.60767 141
46.62779 159
46.6479 132
46.66801 157
46.68813 164
46.70824 144
46.72835 144
46.74847 130
46.76858 139
46.78869 133
46.80881 136
46.82892 169
46.84904 125
46.86915 131
46.88926 132
46.90938 130
46.92949 147
46.9496 140
46.96972 135
46.98983 142
47.00995 137
47.03006 138
47.05017 139
47.07029 155
47.0904 142
47.11051 160
47.13063 146
47.15074 148
47.17086 157
47.19097 152
47.21108 146
47.2312 139
47.25131 157
47.27142 152
47.29154 157
47.31165 139
47.33176 155
47.35188 142
47.37199 147
47.39211 133
47.41222 121
47.43233 148
47.45245 126
47.47256 129
47.49267 146
47.51279 168
47.5329 146
47.55302 131
47.57313 130
47.59324 145
47.61336 141
47.63347 141
47.65358 137
47.6737 145
47.69381 130
47.71393 144
47.73404 143
47.75415 151
47.77427 120
47.79438 170
47.81449 148
47.83461 154
47.85472 163
47.87483 138
47.89495 151
47.91506 137
47.93518 157
47.95529 141
47.9754 159
47.99552 153
48.01563 134
48.03574 146
48.05586 152
48.07597 144
48.09609 134
48.1162 160
48.13631 131
48.15643 147
48.17654 136
48.19665 131
48.21677 155
48.23688 160
48.257 146
48.27711 161
48.29722 156
48.31734 153
48.33745 164
48.35756 138
48.37768 145
48.39779 163
48.4179 154
48.43802 177
48.45813 148
48.47825 137
48.49836 128
48.51847 140
48.53859 155
48.5587 148
48.57881 147
48.59893 146
48.61904 154
48.63916 151
48.65927 150
48.67938 148
48.6995 174
48.71961 147
48.73972 163
48.75984 165
48.77995 151
48.80006 146
48.82018 158
48.84029 158
48.86041 140
48.88052 156
48.90063 150
48.92075 167
48.94086 145
48.96097 166
48.98109 162
49.0012 175
49.02132 160
49.04143 189
49.06154 174
49.08166 163
49.10177 164
49.12188 150
49.142 152
49.16211 158
49.18223 163
49.20234 150
49.22245 136
49.24257 155
49.26268 156
49.28279 177
49.30291 161
49.32302 172
49.34313 164
49.36325 136
49.38336 182
49.40348 178
49.42359 187
49.4437 160
49.46382 187
49.48393 154
49.50404 179
49.52416 172
49.54427 160
49.56439 192
49.5845 202
49.60461 211
49.62473 210
49.64484 214
49.66495 212
49.68507 216
49.70518 254
49.7253 308
49.74541 282
49.76552 303
49.78564 401
49.80575 406
49.82586 448
49.84598 469
49.86609 547
49.8862 634
49.90632 802
49.92643 897
49.94655 1066
49.96666 1375
49.98677 1748
50.00689 2193
50.027 2777
50.04711 3250
50.06723 3740
50.08734 4219
50.10746 4249
50.12757 3542
50.14768 2874
50.1678 2249
50.18791 2043
50.20802 2115
50.22814 2107
50.24825 1958
50.26837 1529
50.28848 957
50.30859 612
50.32871 402
50.34882 357
50.36893 318
50.38905 296
50.40916 288
50.42927 239
50.44939 279
50.4695 261
50.48962 265
50.50973 233
50.52984 255
50.54996 292
50.57007 281
50.59018 288
50.6103 240
50.63041 224
50.65053 221
50.67064 194
50.69075 206
50.71087 205
50.73098 209
50.75109 174
50.77121 176
50.79132 162
50.81143 191
50.83155 181
50.85166 150
50.87178 163
50.89189 168
50.912 152
50.93212 148
50.95223 126
50.97234 155
50.99246 153
51.01257 158
51.03269 150
51.0528 153
51.07291 149
51.09303 151
51.11314 143
51.13325 150
51.15337 164
51.17348 162
51.1936 179
51.21371 142
51.23382 148
51.25394 128
51.27405 130
51.29416 129
51.31428 147
51.33439 144
51.3545 142
51.37462 138
51.39473 134
51.41485 143
51.43496 144
51.45507 129
51.47519 120
51.4953 139
51.51541 121
51.53553 140
51.55564 148
51.57576 136
51.59587 114
51.61598 132
51.6361 149
51.65621 150
51.67632 137
51.69644 135
51.71655 121
51.73667 155
51.75678 132
51.77689 147
51.79701 136
51.81712 134
51.83723 145
51.85735 135
51.87746 139
51.89757 131
51.91769 129
51.9378 128
51.95792 140
51.97803 135
51.99814 141
52.01826 116
52.03837 122
52.05848 136
52.0786 132
52.09871 132
52.11883 148
52.13894 138
52.15905 125
52.17917 134
52.19928 137
52.21939 112
52.23951 139
52.25962 138
52.27974 151
52.29985 117
52.31996 123
52.34008 130
52.36019 136
52.3803 141
52.40042 145
52.42053 137
52.44064 124
52.46076 148
52.48087 132
52.50099 143
52.5211 145
52.54121 142
52.56133 135
52.58144 155
52.60155 145
52.62167 115
52.64178 152
52.6619 146
52.68201 118
52.70212 153
52.72224 120
52.74235 129
52.76246 119
52.78258 129
52.80269 141
52.8228 138
52.84292 138
52.86303 135
52.88315 134
52.90326 145
52.92337 129
52.94349 134
52.9636 152
52.98371 134
53.00383 162
53.02394 129
53.04406 162
53.06417 136
53.08428 136
53.1044 145
53.12451 155
53.14462 156
53.16474 168
53.18485 130
53.20497 144
53.22508 154
53.24519 162
53.26531 136
53.28542 159
53.30553 139
53.32565 153
53.34576 130
53.36587 142
53.38599 145
53.4061 136
53.42622 151
53.44633 153
53.46644 165
53.48656 155
53.50667 157
53.52678 133
53.5469 135
53.56701 162
53.58713 122
53.60724 151
53.62735 159
53.64747 154
53.66758 157
53.68769 164
53.70781 141
53.72792 164
53.74804 156
53.76815 162
53.78826 176
53.80838 161
53.82849 155
53.8486 156
53.86872 152
53.88883 160
53.90894 171
53.92906 156
53.94917 153
53.96929 145
53.9894 159
54.00951 157
54.02963 153
54.04974 139
54.06985 131
54.08997 181
54.11008 162
54.1302 130
54.15031 171
54.17042 158
54.19054 171
54.21065 158
54.23076 157
54.25088 193
54.27099 169
54.29111 171
54.31122 184
54.33133 170
54.35145 193
54.37156 181
54.39167 173
54.41179 200
54.4319 195
54.45201 203
54.47213 181
54.49224 202
54.51236 226
54.53247 223
54.55258 234
54.5727 281
54.59281 299
54.61292 300
54.63304 353
54.65315 400
54.67327 433
54.69338 522
54.71349 646
54.73361 740
54.75372 851
54.77383 1012
54.79395 1171
54.81406 1249
54.83417 1308
54.85429 1196
54.8744 1014
54.89452 834
54.91463 681
54.93474 709
54.95486 738
54.97497 769
54.99508 634
55.0152 593
55.03531 470
55.05543 379
55.07554 323
55.09565 269
55.11577 349
55.13588 295
55.15599 335
55.17611 392
55.19622 442
55.21634 483
55.23645 584
55.25656 611
55.27668 643
55.29679 622
55.3169 566
55.33702 517
55.35713 392
55.37724 400
55.39736 388
55.41747 385
55.43759 384
55.4577 366
55.47781 322
55.49793 232
55.51804 206
55.53815 201
55.55827 178
55.57838 161
55.5985 189
55.61861 181
55.63872 176
55.65884 155
55.67895 192
55.69906 155
55.71918 178
55.73929 152
55.75941 164
55.77952 139
55.79963 161
55.81975 162
55.83986 178
55.85997 137
55.88009 153
55.9002 155
55.92031 168
55.94043 162
55.96054 153
55.98066 164
56.00077 157
56.02088 146
56.041 152
56.06111 156
56.08122 134
56.10134 169
56.12145 143
56.14157 152
56.16168 169
56.18179 153
56.20191 154
56.22202 159
56.24213 132
56.26225 145
56.28236 141
56.30248 126
56.32259 175
56.3427 148
56.36282 125
56.38293 135
56.40304 152
56.42316 123
56.44327 131
56.46338 144
56.4835 145
56.50361 115
56.52373 125
56.54384 130
56.56395 134
56.58407 150
56.60418 159
56.62429 141
56.64441 131
56.66452 141
56.68464 132
56.70475 137
56.72486 131
56.74498 169
56.76509 150
56.7852 158
56.80532 161
56.82543 141
56.84554 134
56.86566 127
56.88577 151
56.90589 147
56.926 161
56.94611 143
56.96623 137
56.98634 145
57.00645 149
57.02657 163
57.04668 161
57.0668 161
57.08691 189
57.10702 159
57.12714 186
57.14725 179
57.16736 203
57.18748 218
57.20759 197
57.22771 195
57.24782 174
57.26793 174
57.28805 180
57.30816 156
57.32827 185
57.34839 176
57.3685 172
57.38861 147
57.40873 159
57.42884 140
57.44896 116
57.46907 142
57.48918 142
57.5093 126
57.52941 124
57.54952 145
57.56964 118
57.58975 138
57.60987 139
57.62998 120
57.65009 125
57.67021 133
57.69032 133
57.71043 141
57.73055 147
57.75066 136
57.77078 144
57.79089 126
57.811 153
57.83112 140
57.85123 150
57.87134 145
57.89146 129
57.91157 120
57.93168 125
57.9518 132
57.97191 150
57.99203 126
58.01214 151
58.03225 132
58.05237 165
58.07248 131
58.09259 145
58.11271 158
58.13282 143
58.15294 123
58.17305 152
58.19316 151
58.21328 142
58.23339 165
58.2535 149
58.27362 137
58.29373 158
58.31385 139
58.33396 155
58.35407 146
58.37419 163
58.3943 138
58.41441 148
58.43453 134
58.45464 121
58.47475 147
58.49487 137
58.51498 163
58.5351 135
58.55521 161
58.57532 143
58.59544 147
58.61555 145
58.63566 136
58.65578 130
58.67589 150
58.69601 156
58.71612 136
58.73623 169
58.75635 151
58.77646 143
58.79657 147
58.81669 156
58.8368 120
58.85691 159
58.87703 157
58.89714 140
58.91726 132
58.93737 160
58.95748 134
58.9776 129
58.99771 159
59.01782 145
59.03794 151
59.05805 142
59.07817 159
59.09828 162
59.11839 144
59.13851 143
59.15862 147
59.17873 165
59.19885 157
59.21896 156
59.23908 163
59.25919 164
59.2793 174
59.29942 155
59.31953 170
59.33964 154
59.35976 154
59.37987 166
59.39998 162
59.4201 206
59.44021 193
59.46033 208
59.48044 193
59.50055 241
59.52067 242
59.54078 252
59.56089 268
59.58101 294
59.60112 301
59.62124 347
59.64135 403
59.66146 443
59.68158 464
59.70169 566
59.7218 630
59.74192 762
59.76203 875
59.78215 1066
59.80226 1310
59.82237 1561
59.84249 1903
59.8626 2222
59.88271 2552
59.90283 2646
59.92294 2628
59.94305 2270
59.96317 1815
59.98328 1436
60.0034 1317
60.02351 1307
60.04362 1454
60.06374 1362
60.08385 1329
60.10396 1136
60.12408 871
60.14419 603
60.16431 410
60.18442 335
60.20453 265
60.22465 252
60.24476 230
60.26487 229
60.28499 182
60.3051 198
60.32522 204
60.34533 197
60.36544 162
60.38556 184
60.40567 170
60.42578 165
60.4459 156
60.46601 178
60.48612 169
60.50624 165
60.52635 167
60.54647 155
60.56658 145
60.58669 172
60.60681 153
60.62692 145
60.64703 141
60.66715 166
60.68726 150
60.70738 145
60.72749 146
60.7476 156
60.76772 129
60.78783 149
60.80794 139
60.82806 142
60.84817 139
60.86828 158
60.8884 174
60.90851 141
60.92863 144
60.94874 161
60.96885 165
60.98897 134
61.00908 130
61.02919 130
61.04931 157
61.06942 159
61.08954 155
61.10965 163
61.12976 146
61.14988 154
61.16999 128
61.1901 140
61.21022 131
61.23033 122
61.25045 132
61.27056 135
61.29067 160
61.31079 143
61.3309 149
61.35101 143
61.37113 141
61.39124 150
61.41135 150
61.43147 153
61.45158 145
61.4717 142
61.49181 157
61.51192 137
61.53204 139
61.55215 163
61.57226 155
61.59238 136
61.61249 174
61.63261 157
61.65272 143
61.67283 143
61.69295 141
61.71306 159
61.73317 150
61.75329 162
61.7734 144
61.79352 168
61.81363 156
61.83374 149
61.85386 133
61.87397 153
61.89408 138
61.9142 150
61.93431 171
61.95442 161
61.97454 130
61.99465 168
62.01477 178
62.03488 195
62.05499 166
62.07511 183
62.09522 170
62.11533 163
62.13545 188
62.15556 171
62.17568 149
62.19579 172
62.2159 160
62.23602 168
62.25613 192
62.27624 191
62.29636 174
62.31647 152
62.33659 160
62.3567 169
62.37681 165
62.39693 174
62.41704 159
62.43715 134
62.45727 163
62.47738 150
62.49749 159
62.51761 158
62.53772 155
62.55784 162
62.57795 157
62.59806 135
62.61818 145
62.63829 126
62.6584 139
62.67852 145
62.69863 148
62.71875 140
62.73886 138
62.75897 137
62.77909 151
62.7992 144
62.81931 132
62.83943 146
62.85954 135
62.87965 127
62.89977 112
62.91988 125
62.94 130
62.96011 148
62.98022 124
63.00034 150
63.02045 123
63.04056 166
63.06068 135
63.08079 124
63.10091 144
63.12102 143
63.14113 137
63.16125 149
63.18136 128
63.20147 142
63.22159 132
63.2417 143
63.26182 141
63.28193 119
63.30204 155
63.32216 133
63.34227 150
63.36238 127
63.3825 145
63.40261 135
63.42272 123
63.44284 145
63.46295 125
63.48307 138
63.50318 153
63.52329 151
63.54341 138
63.56352 151
63.58363 142
63.60375 176
63.62386 166
63.64398 153
63.66409 186
63.6842 184
63.70432 166
63.72443 186
63.74454 203
63.76466 216
63.78477 209
63.80489 250
63.825 264
63.84511 293
63.86523 325
63.88534 345
63.90545 390
63.92557 486
63.94568 523
63.96579 583
63.98591 559
64.00602 530
64.02614 440
64.04625 404
64.06636 359
64.08648 300
64.10659 315
64.1267 338
64.14682 334
64.16693 360
64.18705 340
64.20716 295
64.22727 206
64.24739 184
64.2675 175
64.28761 183
64.30773 149
64.32784 132
64.34796 152
64.36807 144
64.38818 134
64.4083 139
64.42841 144
64.44852 149
64.46864 128
64.48875 133
64.50886 130
64.52898 128
64.54909 144
64.56921 157
64.58932 130
64.60943 126
64.62955 136
64.64966 126
64.66977 147
64.68989 140
64.71 112
64.73012 130
64.75023 133
64.77034 116
64.79046 126
64.81057 137
64.83068 153
64.8508 143
64.87091 153
64.89102 130
64.91114 134
64.93125 145
64.95137 137
64.97148 128
64.99159 127
65.01171 123
65.03182 137
65.05193 120
65.07205 142
65.09216 118
65.11228 144
65.13239 126
65.1525 117
65.17262 114
65.19273 126
65.21284 146
65.23296 116
65.25307 144
65.27319 126
65.2933 117
65.31341 149
65.33353 146
65.35364 131
65.37375 124
65.39387 145
65.41398 127
65.43409 152
65.45421 139
65.47432 148
65.49444 145
65.51455 172
65.53466 166
65.55478 174
65.57489 183
65.595 182
65.61512 185
65.63523 199
65.65535 205
65.67546 242
65.69557 217
65.71569 247
65.7358 237
65.75591 274
65.77603 233
65.79614 216
65.81626 173
65.83637 162
65.85648 168
65.8766 185
65.89671 190
65.91682 195
65.93694 189
65.95705 195
65.97716 156
65.99728 153
66.01739 162
66.03751 156
66.05762 168
66.07773 133
66.09785 148
66.11796 125
66.13807 149
66.15819 138
66.1783 133
66.19842 153
66.21853 137
66.23864 136
66.25876 157
66.27887 113
66.29898 145
66.3191 127
66.33921 161
66.35933 133
66.37944 152
66.39955 111
66.41967 117
66.43978 134
66.45989 148
66.48001 126
66.50012 149
66.52023 127
66.54035 155
66.56046 145
66.58058 144
66.60069 148
66.6208 141
66.64092 153
66.66103 153
66.68114 152
66.70126 149
66.72137 131
66.74149 169
66.7616 147
66.78171 136
66.80183 144
66.82194 149
66.84205 153
66.86217 153
66.88228 165
66.90239 144
66.92251 139
66.94262 161
66.96274 161
66.98285 161
67.00296 155
67.02308 162
67.04319 163
67.0633 180
67.08342 185
67.10353 164
67.12365 154
67.14376 163
67.16387 168
67.18399 184
67.2041 166
67.22421 181
67.24433 198
67.26444 198
67.28456 185
67.30467 225
67.32478 238
67.3449 242
67.36501 250
67.38512 254
67.40524 270
67.42535 293
67.44546 324
67.46558 381
67.48569 457
67.50581 489
67.52592 500
67.54603 672
67.56615 780
67.58626 860
67.60637 1060
67.62649 1203
67.6466 1376
67.66672 1548
67.68683 1597
67.70694 1617
67.72706 1381
67.74717 1217
67.76728 1029
67.7874 941
67.80751 915
67.82763 985
67.84774 1032
67.86785 1147
67.88797 1216
67.90808 1116
67.92819 1140
67.94831 1147
67.96842 1081
67.98853 1166
68.00865 1354
68.02876 1547
68.04888 1770
68.06899 1917
68.0891 2048
68.10922 2167
68.12933 2028
68.14944 1778
68.16956 1693
68.18967 1590
68.20979 1671
68.2299 1815
68.25001 1928
68.27013 2037
68.29024 1928
68.31035 1648
68.33047 1269
68.35058 1008
68.3707 828
68.39081 779
68.41092 745
68.43104 717
68.45115 723
68.47126 692
68.49138 590
68.51149 460
68.5316 362
68.55172 329
68.57183 242
68.59195 230
68.61206 220
68.63217 203
68.65229 203
68.6724 203
68.69251 208
68.71263 185
68.73274 171
68.75286 172
68.77297 174
68.79308 155
68.8132 155
68.83331 182
68.85342 165
68.87354 151
68.89365 178
68.91376 176
68.93388 142
68.95399 154
68.97411 179
68.99422 136
69.01433 144
69.03445 144
69.05456 136
69.07467 164
69.09479 163
69.1149 137
69.13502 145
69.15513 148
69.17524 143
69.19536 147
69.21547 147
69.23558 166
69.2557 149
69.27581 144
69.29593 147
69.31604 130
69.33615 114
69.35627 146
69.37638 126
69.39649 129
69.41661 122
69.43672 116
69.45683 145
69.47695 148
69.49706 144
69.51718 133
69.53729 136
69.5574 155
69.57752 150
69.59763 122
69.61774 132
69.63786 154
69.65797 173
69.67809 128
69.6982 123
69.71831 126
69.73843 142
69.75854 123
69.77865 140
69.79877 147
69.81888 146
69.839 131
69.85911 141
69.87922 146
69.89934 144
69.91945 118
69.93956 121
69.95968 136
69.97979 139
69.9999 137
70.02002 133
70.04013 140
70.06025 145
70.08036 127
70.10047 134
70.12059 153
70.1407 125
70.16081 132
70.18093 123
70.20104 134
70.22116 131
70.24127 123
70.26138 143
70.2815 118
70.30161 118
70.32172 111
70.34184 123
70.36195 127
70.38207 121
70.40218 142
70.42229 132
70.44241 120
70.46252 137
70.48263 150
70.50275 129
70.52286 152
70.54297 140
70.56309 148
70.5832 116
70.60332 135
70.62343 148
70.64354 138
70.66366 143
70.68377 150
70.70388 117
70.724 126
70.74411 139
70.76423 125
70.78434 129
70.80445 127
70.82457 133
70.84468 137
70.86479 140
70.88491 144
70.90502 138
70.92513 131
70.94525 113
70.96536 115
70.98548 125
71.00559 143
71.0257 161
71.04582 111
71.06593 119
71.08604 111
71.10616 137
71.12627 121
71.14639 133
71.1665 91
71.18661 143
71.20673 137
71.22684 119
71.24695 128
71.26707 112
71.28718 104
71.3073 130
71.32741 141
71.34752 123
71.36764 122
71.38775 130
71.40786 125
71.42798 125
71.44809 127
71.4682 113
71.48832 136
71.50843 143
71.52855 134
71.54866 128
71.56877 129
71.58889 122
71.609 115
71.62911 115
71.64923 104
71.66934 120
71.68946 108
71.70957 126
71.72968 118
71.7498 118
71.76991 139
71.79002 117
71.81014 108
71.83025 142
71.85037 118
71.87048 153
71.89059 118
71.91071 132
71.93082 123
71.95093 130
71.97105 119
71.99116 99
72.01127 127
72.03139 125
72.0515 124
72.07162 110
72.09173 127
72.11184 145
72.13196 126
72.15207 141
72.17218 148
72.1923 123
72.21241 120
72.23253 129
72.25264 121
72.27275 105
72.29287 134
72.31298 146
72.33309 119
72.35321 139
72.37332 131
72.39344 132
72.41355 130
72.43366 123
72.45378 139
72.47389 132
72.494 124
72.51412 158
72.53423 120
72.55434 136
72.57446 128
72.59457 128
72.61469 131
72.6348 114
72.65491 130
72.67503 136
72.69514 150
72.71525 129
72.73537 130
72.75548 137
72.7756 134
72.79571 123
72.81582 150
72.83594 140
72.85605 164
72.87616 128
72.89628 137
72.91639 144
72.9365 160
72.95662 141
72.97673 142
72.99685 155
73.01696 188
73.03707 158
73.05719 158
73.0773 160
73.09741 168
73.11753 169
73.13764 159
73.15776 179
73.17787 168
73.19798 207
73.2181 257
73.23821 239
73.25832 278
73.27844 339
73.29855 332
73.31867 407
73.33878 441
73.35889 519
73.37901 607
73.39912 615
73.41923 658
73.43935 605
73.45946 512
73.47957 435
73.49969 411
73.5198 333
73.53992 334
73.56003 347
73.58014 391
73.60026 363
73.62037 381
73.64048 380
73.6606 363
73.68071 343
73.70083 231
73.72094 199
73.74105 184
73.76117 167
73.78128 154
73.80139 138
73.82151 153
73.84162 125
73.86174 167
73.88185 150
73.90196 157
73.92208 131
73.94219 143
73.9623 151
73.98242 153
74.00253 130
74.02264 138
74.04276 150
74.06287 138
74.08299 129
74.1031 140
74.12321 119
74.14333 126
74.16344 137
74.18355 122
74.20367 132
74.22378 131
74.2439 148
74.26401 141
74.28412 152
74.30424 135
74.32435 141
74.34446 124
74.36458 117
74.38469 131
74.40481 136
74.42492 127
74.44503 129
74.46515 115
74.48526 164
74.50537 140
74.52549 157
74.5456 118
74.56571 131
74.58583 121
74.60594 131
74.62606 127
74.64617 132
74.66628 126
74.6864 134
74.70651 118
74.72662 137
74.74674 122
74.76685 120
74.78697 126
74.80708 128
74.82719 141
74.84731 153
74.86742 126
74.88753 133
74.90765 123
74.92776 127
74.94787 151
74.96799 127
74.9881 131
75.00822 133
