3.00117 20535
3.02128 20230
3.0414 19386
3.06151 18992
3.08162 18525
3.10174 17754
3.12185 17428
3.14197 16834
3.16208 16722
3.18219 16264
3.20231 15454
3.22242 15130
3.24253 14560
3.26265 14116
3.28276 13667
3.30288 13219
3.32299 12997
3.3431 12324
3.36322 12090
3.38333 11774
3.40344 11486
3.42356 11059
3.44367 10514
3.46379 10105
3.4839 9840
3.50401 9430
3.52413 9248
3.54424 8756
3.56435 8656
3.58447 8458
3.60458 8053
3.62469 7823
3.64481 7216
3.66492 7244
3.68504 6866
3.70515 6606
3.72526 6545
3.74538 5815
3.76549 5781
3.7856 5679
3.80572 5319
3.82583 5208
3.84595 4760
3.86606 4828
3.88617 4521
3.90629 4369
3.9264 4321
3.94651 3959
3.96663 3750
3.98674 3667
4.00686 3575
4.02697 3447
4.04708 3187
4.0672 3063
4.08731 3083
4.10742 2823
4.12754 2874
4.14765 2626
4.16776 2524
4.18788 2545
4.20799 2366
4.22811 2355
4.24822 2121
4.26833 2045
4.28845 1990
4.30856 2009
4.32867 2072
4.34879 1794
4.3689 1822
4.38902 1760
4.40913 1749
4.42924 1854
4.44936 1643
4.46947 1617
4.48958 1621
4.5097 1494
4.52981 1607
4.54992 1420
4.57004 1376
4.59015 1415
4.61027 1390
4.63038 1407
4.65049 1348
4.67061 1253
4.69072 1321
4.71083 1262
4.73095 1248
4.75106 1131
4.77118 1174
4.79129 1150
4.8114 1123
4.83152 1109
4.85163 1074
4.87174 1053
4.89186 1089
4.91197 957
4.93209 966
4.9522 932
4.97231 971
4.99243 919
5.01254 888
5.03265 931
5.05277 901
5.07288 848
5.09299 861
5.11311 848
5.13322 776
5.15334 771
5.17345 780
5.19356 797
5.21368 812
5.23379 697
5.2539 734
5.27402 676
5.29413 690
5.31425 732
5.33436 652
5.35447 651
5.37459 601
5.3947 644
5.41481 569
5.43493 594
5.45504 633
5.47516 564
5.49527 612
5.51538 572
5.5355 531
5.55561 548
5.57572 569
5.59584 546
5.61595 574
5.63606 464
5.65618 501
5.67629 534
5.69641 497
5.71652 506
5.73663 472
5.75675 464
5.77686 493
5.79697 501
5.81709 439
5.8372 467
5.85732 440
5.87743 507
5.89754 472
5.91766 424
5.93777 426
5.95788 401
5.978 492
5.99811 421
6.01823 438
6.03834 411
6.05845 450
6.07857 405
6.09868 401
6.11879 419
6.13891 434
6.15902 363
6.17913 385
6.19925 392
6.21936 419
6.23948 405
6.25959 361
6.2797 417
6.29982 369
6.31993 394
6.34004 396
6.36016 354
6.38027 401
6.40039 423
6.4205 392
6.44061 412
6.46073 375
6.48084 357
6.50095 359
6.52107 354
6.54118 372
6.56129 400
6.58141 361
6.60152 382
6.62164 418
6.64175 380
6.66186 370
6.68198 377
6.70209 374
6.7222 344
6.74232 358
6.76243 414
6.78255 354
6.80266 381
6.82277 347
6.84289 381
6.863 354
6.88311 336
6.90323 396
6.92334 364
6.94346 349
6.96357 332
6.98368 362
7.0038 358
7.02391 350
7.04402 356
7.06414 361
7.08425 395
7.10436 365
7.12448 372
7.14459 338
7.16471 336
7.18482 336
7.20493 353
7.22505 368
7.24516 423
7.26527 365
7.28539 364
7.3055 357
7.32562 376
7.34573 359
7.36584 375
7.38596 396
7.40607 355
7.42618 327
7.4463 347
7.46641 343
7.48653 372
7.50664 348
7.52675 331
7.54687 386
7.56698 353
7.58709 370
7.60721 321
7.62732 356
7.64743 375
7.66755 333
7.68766 339
7.70778 377
7.72789 352
7.748 339
7.76812 346
7.78823 387
7.80834 368
7.82846 404
7.84857 345
7.86869 369
7.8888 342
7.90891 358
7.92903 322
7.94914 346
7.96925 377
7.98937 328
8.00948 360
8.0296 347
8.04971 342
8.06982 354
8.08994 345
8.11005 363
8.13016 364
8.15028 389
8.17039 367
8.1905 362
8.21062 328
8.23073 376
8.25085 354
8.27096 348
8.29107 378
8.31119 348
8.3313 319
8.35141 323
8.37153 402
8.39164 371
8.41176 363
8.43187 369
8.45198 332
8.4721 316
8.49221 339
8.51232 343
8.53244 382
8.55255 327
8.57266 336
8.59278 382
8.61289 310
8.63301 331
8.65312 371
8.67323 364
8.69335 370
8.71346 339
8.73357 377
8.75369 330
8.7738 404
8.79392 363
8.81403 377
8.83414 362
8.85426 367
8.87437 347
8.89448 367
8.9146 323
8.93471 325
8.95483 359
8.97494 362
8.99505 333
9.01517 349
9.03528 340
9.05539 335
9.07551 353
9.09562 355
9.11573 315
9.13585 360
9.15596 346
9.17608 346
9.19619 357
9.2163 342
9.23642 320
9.25653 338
9.27664 354
9.29676 337
9.31687 344
9.33699 339
9.3571 347
9.37721 326
9.39733 336
9.41744 336
9.43755 311
9.45767 348
9.47778 333
9.4979 336
9.51801 324
9.53812 331
9.55824 344
9.57835 321
9.59846 381
9.61858 347
9.63869 366
9.6588 325
9.67892 358
9.69903 327
9.71915 316
9.73926 342
9.75937 358
9.77949 350
9.7996 345
9.81971 333
9.83983 331
9.85994 335
9.88006 350
9.90017 338
9.92028 324
9.9404 326
9.96051 313
9.98062 310
10.00074 374
10.02085 317
10.04097 325
10.06108 300
10.08119 323
10.10131 318
10.12142 319
10.14153 316
10.16165 350
10.18176 314
10.20187 276
10.22199 311
10.2421 372
10.26222 310
10.28233 323
10.30244 323
10.32256 323
10.34267 335
10.36278 379
10.3829 361
10.40301 314
10.42313 358
10.44324 341
10.46335 311
10.48347 341
10.50358 322
10.52369 285
10.54381 336
10.56392 287
10.58403 351
10.60415 326
10.62426 358
10.64438 318
10.66449 359
10.6846 332
10.70472 342
10.72483 326
10.74494 370
10.76506 346
10.78517 342
10.80529 371
10.8254 352
10.84551 363
10.86563 327
10.88574 367
10.90585 364
10.92597 353
10.94608 352
10.9662 398
10.98631 361
11.00642 346
11.02654 329
11.04665 350
11.06676 324
11.08688 362
11.10699 367
11.1271 302
11.14722 356
11.16733 353
11.18745 344
11.20756 364
11.22767 391
11.24779 357
11.2679 331
11.28801 335
11.30813 355
11.32824 380
11.34836 376
11.36847 359
11.38858 347
11.4087 328
11.42881 354
11.44892 367
11.46904 395
11.48915 398
11.50927 398
11.52938 388
11.54949 381
11.56961 416
11.58972 361
11.60983 376
11.62995 445
11.65006 435
11.67017 442
11.69029 414
11.7104 401
11.73052 458
11.75063 461
11.77074 440
11.79086 445
11.81097 460
11.83108 485
11.8512 478
11.87131 523
11.89143 485
11.91154 491
11.93165 616
11.95177 529
11.97188 603
11.99199 658
12.01211 644
12.03222 652
12.05234 746
12.07245 754
12.09256 748
12.11268 836
12.13279 777
12.1529 872
12.17302 912
12.19313 974
12.21324 1005
12.23336 1063
12.25347 1056
12.27359 1133
12.2937 1063
12.31381 1115
12.33393 1050
12.35404 990
12.37415 1028
12.39427 904
12.41438 898
12.4345 875
12.45461 875
12.47472 821
12.49484 802
12.51495 734
12.53506 680
12.55518 575
12.57529 572
12.5954 570
12.61552 515
12.63563 525
12.65575 551
12.67586 516
12.69597 471
12.71609 447
12.7362 446
12.75631 464
12.77643 446
12.79654 403
12.81666 348
12.83677 401
12.85688 366
12.877 378
12.89711 357
12.91722 359
12.93734 322
12.95745 335
12.97757 375
12.99768 334
13.01779 328
13.03791 346
13.05802 375
13.07813 344
13.09825 357
13.11836 358
13.13847 328
13.15859 312
13.1787 285
13.19882 308
13.21893 314
13.23904 310
13.25916 309
13.27927 315
13.29938 307
13.3195 308
13.33961 323
13.35973 308
13.37984 310
13.39995 333
13.42007 331
13.44018 292
13.46029 280
13.48041 298
13.50052 307
13.52064 315
13.54075 331
13.56086 314
13.58098 328
13.60109 368
13.6212 324
13.64132 287
13.66143 310
13.68154 307
13.70166 309
13.72177 309
13.74189 254
13.762 277
13.78211 282
13.80223 266
13.82234 321
13.84245 285
13.86257 284
13.88268 283
13.9028 314
13.92291 307
13.94302 278
13.96314 304
13.98325 298
14.00336 274
14.02348 269
14.04359 268
14.06371 305
14.08382 292
14.10393 280
14.12405 273
14.14416 288
14.16427 272
14.18439 294
14.2045 283
14.22461 282
14.24473 275
14.26484 255
14.28496 279
14.30507 272
14.32518 299
14.3453 305
14.36541 278
14.38552 333
14.40564 318
14.42575 306
14.44587 288
14.46598 307
14.48609 268
14.50621 283
14.52632 266
14.54643 290
14.56655 282
14.58666 290
14.60677 267
14.62689 289
14.647 285
14.66712 277
14.68723 293
14.70734 289
14.72746 250
14.74757 294
14.76768 272
14.7878 301
14.80791 309
14.82803 295
14.84814 289
14.86825 273
14.88837 290
14.90848 274
14.92859 287
14.94871 281
14.96882 270
14.98894 260
15.00905 272
15.02916 270
15.04928 282
15.06939 289
15.0895 273
15.10962 271
15.12973 259
15.14984 274
15.16996 249
15.19007 309
15.21019 283
15.2303 272
15.25041 283
15.27053 315
15.29064 254
15.31075 290
15.33087 299
15.35098 258
15.3711 261
15.39121 277
15.41132 292
15.43144 248
15.45155 246
15.47166 293
15.49178 274
15.51189 275
15.53201 267
15.55212 273
15.57223 261
15.59235 273
15.61246 281
15.63257 284
15.65269 275
15.6728 272
15.69291 267
15.71303 252
15.73314 297
15.75326 295
15.77337 274
15.79348 268
15.8136 275
15.83371 286
15.85382 263
15.87394 274
15.89405 298
15.91417 306
15.93428 278
15.95439 249
15.97451 264
15.99462 280
16.01473 250
16.03485 247
16.05496 281
16.07508 279
16.09519 266
16.1153 279
16.13542 272
16.15553 261
16.17564 253
16.19576 282
16.21587 261
16.23598 264
16.2561 275
16.27621 264
16.29633 275
16.31644 264
16.33655 259
16.35667 246
16.37678 288
16.39689 312
16.41701 269
16.43712 301
16.45724 243
16.47735 267
16.49746 281
16.51758 266
16.53769 265
16.5578 300
16.57792 266
16.59803 280
16.61814 263
16.63826 283
16.65837 271
16.67849 277
16.6986 278
16.71871 266
16.73883 298
16.75894 292
16.77905 235
16.79917 279
16.81928 277
16.8394 267
16.85951 238
16.87962 251
16.89974 302
16.91985 273
16.93996 270
16.96008 248
16.98019 258
17.00031 300
17.02042 260
17.04053 281
17.06065 284
17.08076 260
17.10087 300
17.12099 281
17.1411 294
17.16121 294
17.18133 260
17.20144 299
17.22156 308
17.24167 300
17.26178 298
17.2819 276
17.30201 253
17.32212 286
17.34224 284
17.36235 275
17.38247 263
17.40258 268
17.42269 288
17.44281 279
17.46292 281
17.48303 320
17.50315 311
17.52326 292
17.54338 265
17.56349 275
17.5836 299
17.60372 303
17.62383 302
17.64394 321
17.66406 308
17.68417 276
17.70428 285
17.7244 266
17.74451 245
17.76463 303
17.78474 277
17.80485 316
17.82497 300
17.84508 311
17.86519 307
17.88531 288
17.90542 323
17.92554 323
17.94565 326
17.96576 326
17.98588 339
18.00599 329
18.0261 322
18.04622 374
18.06633 379
18.08645 392
18.10656 435
18.12667 439
18.14679 437
18.1669 504
18.18701 631
18.20713 692
18.22724 788
18.24735 851
18.26747 994
18.28758 915
18.3077 877
18.32781 796
18.34792 728
18.36804 611
18.38815 523
18.40826 454
18.42838 434
18.44849 384
18.46861 358
18.48872 342
18.50883 339
18.52895 330
18.54906 328
18.56917 340
18.58929 332
18.6094 314
18.62951 292
18.64963 293
18.66974 309
18.68986 310
18.70997 308
18.73008 318
18.7502 333
18.77031 306
18.79042 312
18.81054 295
18.83065 309
18.85077 301
18.87088 283
18.89099 273
18.91111 277
18.93122 289
18.95133 304
18.97145 343
18.99156 304
19.01168 294
19.03179 272
19.0519 271
19.07202 317
19.09213 323
19.11224 289
19.13236 310
19.15247 303
19.17258 367
19.1927 295
19.21281 278
19.23293 308
19.25304 304
19.27315 321
19.29327 297
19.31338 322
19.33349 327
19.35361 367
19.37372 315
19.39384 324
19.41395 365
19.43406 338
19.45418 331
19.47429 380
19.4944 334
19.51452 361
19.53463 376
19.55475 398
19.57486 373
19.59497 410
19.61509 431
19.6352 468
19.65531 486
19.67543 540
19.69554 572
19.71565 645
19.73577 658
19.75588 711
19.776 721
19.79611 893
19.81622 859
19.83634 840
19.85645 913
19.87656 895
19.89668 913
19.91679 940
19.93691 872
19.95702 901
19.97713 900
19.99725 861
20.01736 911
20.03747 809
20.05759 843
20.0777 810
20.09782 849
20.11793 865
20.13804 857
20.15816 972
20.17827 962
20.19838 946
20.2185 916
20.23861 995
20.25872 982
20.27884 965
20.29895 944
20.31907 972
20.33918 881
20.35929 913
20.37941 852
20.39952 868
20.41963 926
20.43975 916
20.45986 923
20.47998 908
20.50009 924
20.5202 889
20.54032 915
20.56043 932
20.58054 891
20.60066 857
20.62077 932
20.64088 962
20.661 1109
20.68111 1156
20.70123 1424
20.72134 1730
20.74145 2223
20.76157 2735
20.78168 3255
20.80179 3824
20.82191 4169
20.84202 3983
20.86214 3509
20.88225 2779
20.90236 2125
20.92248 1664
20.94259 1323
20.9627 1113
20.98282 1026
21.00293 972
21.02305 917
21.04316 845
21.06327 826
21.08339 764
21.1035 787
21.12361 725
21.14373 742
21.16384 764
21.18395 728
21.20407 683
21.22418 697
21.2443 771
21.26441 726
21.28452 693
21.30464 701
21.32475 732
21.34486 747
21.36498 725
21.38509 725
21.40521 749
21.42532 719
21.44543 700
21.46555 727
21.48566 737
21.50577 707
21.52589 718
21.546 717
21.56612 662
21.58623 652
21.60634 683
21.62646 680
21.64657 677
21.66668 679
21.6868 608
21.70691 594
21.72702 581
21.74714 582
21.76725 626
21.78737 595
21.80748 562
21.82759 537
21.84771 567
21.86782 551
21.88793 509
21.90805 526
21.92816 526
21.94828 561
21.96839 544
21.9885 571
22.00862 534
22.02873 504
22.04884 502
22.06896 524
22.08907 528
22.10919 544
22.1293 538
22.14941 539
22.16953 535
22.18964 494
22.20975 476
22.22987 497
22.24998 523
22.27009 480
22.29021 492
22.31032 526
22.33044 526
22.35055 509
22.37066 534
22.39078 471
22.41089 500
22.431 496
22.45112 463
22.47123 459
22.49135 443
22.51146 468
22.53157 483
22.55169 475
22.5718 469
22.59191 439
22.61203 481
22.63214 477
22.65225 489
22.67237 474
22.69248 431
22.7126 438
22.73271 463
22.75282 444
22.77294 457
22.79305 465
22.81316 464
22.83328 487
22.85339 483
22.87351 447
22.89362 437
22.91373 452
22.93385 491
22.95396 457
22.97407 434
22.99419 421
23.0143 474
23.03442 474
23.05453 454
23.07464 456
23.09476 488
23.11487 470
23.13498 452
23.1551 448
23.17521 459
23.19532 468
23.21544 482
23.23555 469
23.25567 421
23.27578 455
23.29589 410
23.31601 435
23.33612 398
23.35623 425
23.37635 421
23.39646 445
23.41658 404
23.43669 430
23.4568 420
23.47692 398
23.49703 386
23.51714 382
23.53726 426
23.55737 431
23.57749 420
23.5976 444
23.61771 442
23.63783 417
23.65794 439
23.67805 426
23.69817 479
23.71828 458
23.73839 438
23.75851 426
23.77862 450
23.79874 504
23.81885 442
23.83896 431
23.85908 457
23.87919 473
23.8993 492
23.91942 534
23.93953 534
23.95965 538
23.97976 507
23.99987 523
24.01999 504
24.0401 475
24.06021 478
24.08033 475
24.10044 492
24.12056 476
24.14067 469
24.16078 480
24.1809 488
24.20101 470
24.22112 508
24.24124 483
24.26135 485
24.28146 508
24.30158 519
24.32169 516
24.34181 533
24.36192 512
24.38203 508
24.40215 594
24.42226 528
24.44237 548
24.46249 595
24.4826 584
24.50272 602
24.52283 670
24.54294 584
24.56306 632
24.58317 671
24.60328 731
24.6234 727
24.64351 774
24.66362 768
24.68374 854
24.70385 792
24.72397 821
24.74408 921
24.76419 872
24.78431 921
24.80442 858
24.82453 951
24.84465 963
24.86476 938
24.88488 948
24.90499 918
24.9251 886
24.94522 792
24.96533 834
24.98544 803
25.00556 807
25.02567 731
25.04579 754
25.0659 704
25.08601 672
25.10613 663
25.12624 652
25.14635 659
25.16647 688
25.18658 638
25.20669 680
25.22681 662
25.24692 642
25.26704 581
25.28715 594
25.30726 616
25.32738 574
25.34749 596
25.3676 551
25.38772 517
25.40783 556
25.42795 570
25.44806 561
25.46817 550
25.48829 560
25.5084 543
25.52851 534
25.54863 516
25.56874 517
25.58886 519
25.60897 554
25.62908 527
25.6492 520
25.66931 526
25.68942 496
25.70954 476
25.72965 550
25.74976 559
25.76988 494
25.78999 536
25.81011 547
25.83022 541
25.85033 572
25.87045 491
25.89056 556
25.91067 482
25.93079 482
25.9509 525
25.97102 503
25.99113 515
26.01124 517
26.03136 540
26.05147 581
26.07158 573
26.0917 599
26.11181 605
26.13193 671
26.15204 694
26.17215 731
26.19227 813
26.21238 794
26.23249 861
26.25261 877
26.27272 936
26.29283 947
26.31295 1118
26.33306 1114
26.35318 1234
26.37329 1452
26.3934 1674
26.41352 2073
26.43363 2464
26.45374 3292
26.47386 4347
26.49397 5717
26.51409 7774
26.5342 10340
26.55431 13283
26.57443 15693
26.59454 16702
26.61465 16086
26.63477 14379
26.65488 11705
26.67499 8867
26.69511 6593
26.71522 4366
26.73534 2842
26.75545 1920
26.77556 1427
26.79568 1301
26.81579 1111
26.8359 1039
26.85602 933
26.87613 858
26.89625 859
26.91636 814
26.93647 764
26.95659 757
26.9767 681
26.99681 701
27.01693 680
27.03704 624
27.05716 669
27.07727 586
27.09738 519
27.1175 586
27.13761 552
27.15772 536
27.17784 504
27.19795 523
27.21806 530
27.23818 547
27.25829 499
27.27841 504
27.29852 545
27.31863 609
27.33875 652
27.35886 649
27.37897 622
27.39909 662
27.4192 637
27.43932 645
27.45943 631
27.47954 589
27.49966 518
27.51977 482
27.53988 519
27.56 523
27.58011 440
27.60023 408
27.62034 417
27.64045 406
27.66057 401
27.68068 434
27.70079 382
27.72091 451
27.74102 410
27.76113 414
27.78125 426
27.80136 448
27.82148 408
27.84159 387
27.8617 406
27.88182 447
27.90193 456
27.92204 372
27.94216 373
27.96227 398
27.98239 412
28.0025 430
28.02261 413
28.04273 339
28.06284 388
28.08295 396
28.10307 389
28.12318 374
28.1433 389
28.16341 373
28.18352 363
28.20364 380
28.22375 346
28.24386 335
28.26398 341
28.28409 396
28.3042 390
28.32432 386
28.34443 367
28.36455 354
28.38466 364
28.40477 332
28.42489 364
28.445 348
28.46511 340
28.48523 341
28.50534 364
28.52546 352
28.54557 359
28.56568 321
28.5858 310
28.60591 348
28.62602 340
28.64614 356
28.66625 351
28.68636 364
28.70648 299
28.72659 355
28.74671 381
28.76682 351
28.78693 366
28.80705 349
28.82716 332
28.84727 324
28.86739 345
28.8875 309
28.90762 312
28.92773 353
28.94784 339
28.96796 331
28.98807 384
29.00818 307
29.0283 334
29.04841 337
29.06853 321
29.08864 308
29.10875 322
29.12887 331
29.14898 326
29.16909 336
29.18921 340
29.20932 332
29.22943 376
29.24955 325
29.26966 317
29.28978 347
29.30989 373
29.33 332
29.35012 346
29.37023 345
29.39034 348
29.41046 348
29.43057 365
29.45069 334
29.4708 338
29.49091 305
29.51103 350
29.53114 340
29.55125 336
29.57137 312
29.59148 308
29.6116 354
29.63171 312
29.65182 332
29.67194 292
29.69205 336
29.71216 312
29.73228 384
29.75239 323
29.7725 322
29.79262 328
29.81273 346
29.83285 308
29.85296 356
29.87307 321
29.89319 320
29.9133 342
29.93341 314
29.95353 360
29.97364 306
29.99376 323
30.01387 312
30.03398 319
30.0541 325
30.07421 337
30.09432 349
30.11444 332
30.13455 352
30.15467 385
30.17478 359
30.19489 338
30.21501 348
30.23512 354
30.25523 346
30.27535 341
30.29546 327
30.31557 326
30.33569 328
30.3558 311
30.37592 301
30.39603 304
30.41614 307
30.43626 304
30.45637 305
30.47648 311
30.4966 295
30.51671 309
30.53683 356
30.55694 335
30.57705 324
30.59717 354
30.61728 352
30.63739 325
30.65751 346
30.67762 332
30.69773 379
30.71785 387
30.73796 358
30.75808 327
30.77819 362
30.7983 361
30.81842 322
30.83853 322
30.85864 357
30.87876 345
30.89887 320
30.91899 311
30.9391 339
30.95921 301
30.97933 318
30.99944 302
31.01955 316
31.03967 282
31.05978 327
31.0799 348
31.10001 307
31.12012 322
31.14024 293
31.16035 300
31.18046 290
31.20058 286
31.22069 285
31.2408 279
31.26092 323
31.28103 307
31.30115 294
31.32126 291
31.34137 286
31.36149 293
31.3816 304
31.40171 311
31.42183 272
31.44194 286
31.46206 274
31.48217 314
31.50228 288
31.5224 294
31.54251 298
31.56262 297
31.58274 280
31.60285 338
31.62297 265
31.64308 299
31.66319 308
31.68331 322
31.70342 318
31.72353 286
31.74365 282
31.76376 307
31.78387 303
31.80399 297
31.8241 291
31.84422 307
31.86433 292
31.88444 344
31.90456 305
31.92467 328
31.94478 325
31.9649 319
31.98501 322
32.00513 307
32.02524 288
32.04535 290
32.06547 302
32.08558 320
32.10569 320
32.12581 330
32.14592 307
32.16604 302
32.18615 304
32.20626 304
32.22638 300
32.24649 279
32.2666 284
32.28672 304
32.30683 326
32.32694 307
32.34706 342
32.36717 333
32.38729 338
32.4074 317
32.42751 342
32.44763 332
32.46774 375
32.48785 294
32.50797 348
32.52808 316
32.5482 345
32.56831 324
32.58842 316
32.60854 300
32.62865 289
32.64876 304
32.66888 278
32.68899 283
32.7091 279
32.72922 310
32.74933 293
32.76945 286
32.78956 323
32.80967 333
32.82979 313
32.8499 314
32.87001 320
32.89013 330
32.91024 340
32.93036 307
32.95047 320
32.97058 356
32.9907 347
33.01081 280
33.03092 339
33.05104 350
33.07115 319
33.09127 340
33.11138 348
33.13149 340
33.15161 378
33.17172 350
33.19183 361
33.21195 308
33.23206 348
33.25217 368
33.27229 340
33.2924 337
33.31252 345
33.33263 345
33.35274 348
33.37286 338
33.39297 319
33.41308 352
33.4332 344
33.45331 298
33.47343 338
33.49354 323
33.51365 349
33.53377 329
33.55388 324
33.57399 355
33.59411 359
33.61422 325
33.63434 321
33.65445 319
33.67456 327
33.69468 294
33.71479 359
33.7349 362
33.75502 332
33.77513 337
33.79524 333
33.81536 344
33.83547 342
33.85559 353
33.8757 330
33.89581 345
33.91593 346
33.93604 310
33.95615 312
33.97627 383
33.99638 317
34.0165 336
34.03661 330
34.05672 326
34.07684 336
34.09695 295
34.11706 320
34.13718 362
34.15729 346
34.17741 345
34.19752 372
34.21763 347
34.23775 340
34.25786 345
34.27797 309
34.29809 331
34.3182 356
34.33831 341
34.35843 338
34.37854 366
34.39866 324
34.41877 345
34.43888 381
34.459 315
34.47911 329
34.49922 381
34.51934 350
34.53945 368
34.55957 369
34.57968 398
34.59979 405
34.61991 412
34.64002 428
34.66013 461
34.68025 420
34.70036 480
34.72047 450
34.74059 509
34.7607 542
34.78082 525
34.80093 489
34.82104 513
34.84116 562
34.86127 586
34.88138 608
34.9015 581
34.92161 603
34.94173 536
34.96184 544
34.98195 541
35.00207 523
35.02218 533
35.04229 518
35.06241 543
35.08252 539
35.10264 507
35.12275 497
35.14286 525
35.16298 473
35.18309 489
35.2032 495
35.22332 492
35.24343 476
35.26354 482
35.28366 520
35.30377 483
35.32389 523
35.344 520
35.36411 511
35.38423 498
35.40434 510
35.42445 538
35.44457 549
35.46468 507
35.4848 557
35.50491 554
35.52502 540
35.54514 615
35.56525 557
35.58536 567
35.60548 604
35.62559 531
35.64571 536
35.66582 551
35.68593 540
35.70605 588
35.72616 588
35.74627 526
35.76639 575
35.7865 543
35.80661 583
35.82673 560
35.84684 578
35.86696 558
35.88707 622
35.90718 586
35.9273 570
35.94741 572
35.96752 542
35.98764 565
36.00775 566
36.02787 508
36.04798 503
36.06809 500
36.08821 488
36.10832 484
36.12843 533
36.14855 536
36.16866 510
36.18878 538
36.20889 474
36.229 540
36.24912 531
36.26923 554
36.28934 568
36.30946 570
36.32957 646
36.34968 720
36.3698 762
36.38991 897
36.41003 1080
36.43014 1136
36.45025 1324
36.47037 1464
36.49048 1517
36.51059 1534
36.53071 1380
36.55082 1231
36.57094 1128
36.59105 1003
36.61116 938
36.63128 797
36.65139 655
36.6715 576
36.69162 504
36.71173 491
36.73184 466
36.75196 424
36.77207 487
36.79219 446
36.8123 443
36.83241 425
36.85253 461
36.87264 482
36.89275 467
36.91287 460
36.93298 476
36.9531 476
36.97321 437
36.99332 498
37.01344 484
37.03355 516
37.05366 455
37.07378 504
37.09389 465
37.11401 476
37.13412 497
37.15423 480
37.17435 515
37.19446 505
37.21457 495
37.23469 489
37.2548 511
37.27491 500
37.29503 474
37.31514 485
37.33526 500
37.35537 497
37.37548 584
37.3956 529
37.41571 558
37.43582 572
37.45594 553
37.47605 530
37.49617 561
37.51628 562
37.53639 563
37.55651 544
37.57662 573
37.59673 550
37.61685 556
37.63696 540
37.65708 584
37.67719 571
37.6973 597
37.71742 572
37.73753 525
37.75764 555
37.77776 529
37.79787 505
37.81798 554
37.8381 498
37.85821 530
37.87833 464
37.89844 486
37.91855 506
37.93867 472
37.95878 450
37.97889 490
37.99901 511
38.01912 483
38.03924 513
38.05935 531
38.07946 451
38.09958 504
38.11969 481
38.1398 503
38.15992 525
38.18003 516
38.20015 511
38.22026 542
38.24037 554
38.26049 524
38.2806 580
38.30071 567
38.32083 563
38.34094 584
38.36105 554
38.38117 549
38.40128 598
38.4214 610
38.44151 569
38.46162 561
38.48174 552
38.50185 543
38.52196 568
38.54208 555
38.56219 557
38.58231 525
38.60242 533
38.62253 526
38.64265 506
38.66276 524
38.68287 501
38.70299 517
38.7231 476
38.74321 503
38.76333 448
38.78344 457
38.80356 466
38.82367 454
38.84378 507
38.8639 479
38.88401 487
38.90412 411
38.92424 451
38.94435 476
38.96447 472
38.98458 506
39.00469 471
39.02481 496
39.04492 494
39.06503 491
39.08515 510
39.10526 462
39.12538 458
39.14549 511
39.1656 529
39.18572 535
39.20583 544
39.22594 553
39.24606 585
39.26617 628
39.28628 657
39.3064 781
39.32651 933
39.34663 993
39.36674 1124
39.38685 1301
39.40697 1422
39.42708 1316
39.44719 1200
39.46731 1166
39.48742 1070
39.50754 824
39.52765 835
39.54776 764
39.56788 635
39.58799 538
39.6081 445
39.62822 439
39.64833 383
39.66845 370
39.68856 382
39.70867 383
39.72879 386
39.7489 384
39.76901 353
39.78913 387
39.80924 361
39.82935 324
39.84947 366
39.86958 368
39.8897 367
39.90981 353
39.92992 377
39.95004 382
39.97015 367
39.99026 357
40.01038 401
40.03049 421
40.05061 423
40.07072 461
40.09083 468
40.11095 524
40.13106 561
40.15117 576
40.17129 646
40.1914 718
40.21152 770
40.23163 793
40.25174 777
40.27186 744
40.29197 654
40.31208 642
40.3322 578
40.35231 557
40.37242 517
40.39254 496
40.41265 450
40.43277 373
40.45288 403
40.47299 372
40.49311 380
40.51322 360
40.53333 359
40.55345 353
40.57356 360
40.59368 381
40.61379 331
40.6339 365
40.65402 353
40.67413 373
40.69424 374
40.71436 355
40.73447 367
40.75458 367
40.7747 404
40.79481 342
40.81493 361
40.83504 370
40.85515 381
40.87527 374
40.89538 393
40.91549 367
40.93561 368
40.95572 370
40.97584 396
40.99595 374
41.01606 339
41.03618 364
41.05629 333
41.0764 362
41.09652 349
41.11663 355
41.13675 336
41.15686 324
41.17697 365
41.19709 360
41.2172 362
41.23731 361
41.25743 334
41.27754 364
41.29765 334
41.31777 347
41.33788 366
41.358 330
41.37811 351
41.39822 384
41.41834 355
41.43845 321
41.45856 371
41.47868 363
41.49879 357
41.51891 334
41.53902 377
41.55913 385
41.57925 365
41.59936 388
41.61947 397
41.63959 362
41.6597 385
41.67982 390
41.69993 376
41.72004 380
41.74016 394
41.76027 409
41.78038 397
41.8005 410
41.82061 355
41.84072 401
41.86084 368
41.88095 365
41.90107 378
41.92118 367
41.94129 339
41.96141 312
41.98152 362
42.00163 344
42.02175 366
42.04186 356
42.06198 357
42.08209 369
42.1022 352
42.12232 378
42.14243 391
42.16254 424
42.18266 378
42.20277 419
42.22289 446
42.243 454
42.26311 509
42.28323 564
42.30334 622
42.32345 690
42.34357 809
42.36368 929
42.38379 959
42.40391 933
42.42402 950
42.44414 829
42.46425 735
42.48436 713
42.50448 636
42.52459 590
42.5447 528
42.56482 493
42.58493 393
42.60505 382
42.62516 346
42.64527 352
42.66539 332
42.6855 319
42.70561 315
42.72573 325
42.74584 316
42.76595 314
42.78607 306
42.80618 347
42.8263 287
42.84641 294
42.86652 285
42.88664 320
42.90675 275
42.92686 295
42.94698 306
42.96709 283
42.98721 262
43.00732 294
43.02743 290
43.04755 289
43.06766 317
43.08777 291
43.10789 289
43.128 280
43.14812 291
43.16823 306
43.18834 303
43.20846 269
43.22857 268
43.24868 276
43.2688 285
43.28891 307
43.30902 287
43.32914 291
43.34925 303
43.36937 275
43.38948 284
43.40959 298
43.42971 278
43.44982 287
43.46993 298
43.49005 270
43.51016 271
43.53028 291
43.55039 280
43.5705 278
43.59062 263
43.61073 277
43.63084 304
43.65096 281
43.67107 271
43.69119 297
43.7113 261
43.73141 277
43.75153 288
43.77164 296
43.79175 289
43.81187 298
43.83198 297
43.85209 303
43.87221 311
43.89232 282
43.91244 296
43.93255 316
43.95266 292
43.97278 296
43.99289 282
44.013 300
44.03312 287
44.05323 341
44.07335 292
44.09346 293
44.11357 327
44.13369 312
44.1538 362
44.17391 377
44.19403 334
44.21414 336
44.23426 317
44.25437 310
44.27448 365
44.2946 296
44.31471 310
44.33482 310
44.35494 285
44.37505 281
44.39516 305
44.41528 296
44.43539 317
44.45551 321
44.47562 320
44.49573 278
44.51585 316
44.53596 293
44.55607 299
44.57619 261
44.5963 302
44.61642 294
44.63653 303
44.65664 312
44.67676 270
44.69687 312
44.71698 288
44.7371 284
44.75721 301
44.77732 296
44.79744 314
44.81755 311
44.83767 314
44.85778 326
44.87789 316
44.89801 302
44.91812 317
44.93823 316
44.95835 339
44.97846 290
44.99858 315
45.01869 313
45.0388 304
45.05892 326
45.07903 332
45.09914 307
45.11926 319
45.13937 369
45.15949 328
45.1796 339
45.19971 330
45.21983 333
45.23994 348
45.26005 372
45.28017 356
45.30028 330
45.32039 358
45.34051 378
45.36062 376
45.38074 424
45.40085 406
45.42096 396
45.44108 396
45.46119 453
45.4813 407
45.50142 416
45.52153 431
45.54165 449
45.56176 438
45.58187 464
45.60199 464
45.6221 551
45.64221 562
45.66233 619
45.68244 708
45.70256 759
45.72267 782
45.74278 814
45.7629 747
45.78301 660
45.80312 691
45.82324 594
45.84335 537
45.86346 550
45.88358 506
45.90369 514
45.92381 465
45.94392 397
45.96403 399
45.98415 353
46.00426 329
46.02437 379
46.04449 336
46.0646 341
46.08472 321
46.10483 323
46.12494 332
46.14506 335
46.16517 325
46.18528 368
46.2054 309
46.22551 299
46.24563 301
46.26574 309
46.28585 339
46.30597 308
46.32608 324
46.34619 324
46.36631 316
46.38642 317
46.40653 332
46.42665 301
46.44676 279
46.46688 315
46.48699 312
46.5071 309
46.52722 310
46.54733 317
46.56744 325
46.58756 296
46.60767 276
46.62779 337
46.6479 350
46.66801 333
46.68813 305
46.70824 302
46.72835 303
46.74847 312
46.76858 310
46.78869 324
46.80881 307
46.82892 317
46.84904 330
46.86915 331
46.88926 300
46.90938 317
46.92949 338
46.9496 276
46.96972 329
46.98983 350
47.00995 312
47.03006 338
47.05017 299
47.07029 351
47.0904 337
47.11051 344
47.13063 324
47.15074 306
47.17086 348
47.19097 323
47.21108 327
47.2312 358
47.25131 283
47.27142 349
47.29154 317
47.31165 347
47.33176 324
47.35188 344
47.37199 331
47.39211 321
47.41222 265
47.43233 327
47.45245 330
47.47256 283
47.49267 327
47.51279 292
47.5329 334
47.55302 315
47.57313 315
47.59324 345
47.61336 336
47.63347 313
47.65358 331
47.6737 310
47.69381 305
47.71393 322
47.73404 329
47.75415 316
47.77427 313
47.79438 309
47.81449 344
47.83461 331
47.85472 319
47.87483 321
47.89495 330
47.91506 322
47.93518 296
47.95529 324
47.9754 324
47.99552 316
48.01563 345
48.03574 334
48.05586 288
48.07597 325
48.09609 308
48.1162 332
48.13631 294
48.15643 291
48.17654 291
48.19665 323
48.21677 268
48.23688 291
48.257 313
48.27711 292
48.29722 306
48.31734 298
48.33745 297
48.35756 293
48.37768 331
48.39779 296
48.4179 296
48.43802 292
48.45813 295
48.47825 289
48.49836 315
48.51847 277
48.53859 287
48.5587 292
48.57881 296
48.59893 287
48.61904 324
48.63916 310
48.65927 309
48.67938 309
48.6995 309
48.71961 294
48.73972 311
48.75984 308
48.77995 339
48.80006 304
48.82018 283
48.84029 278
48.86041 291
48.88052 279
48.90063 312
48.92075 327
48.94086 315
48.96097 318
48.98109 332
49.0012 317
49.02132 301
49.04143 268
49.06154 306
49.08166 305
49.10177 328
49.12188 305
49.142 321
49.16211 299
49.18223 294
49.20234 296
49.22245 327
49.24257 317
49.26268 305
49.28279 308
49.30291 303
49.32302 297
49.34313 304
49.36325 329
49.38336 315
49.40348 311
49.42359 297
49.4437 331
49.46382 335
49.48393 310
49.50404 314
49.52416 355
49.54427 305
49.56439 292
49.5845 333
49.60461 310
49.62473 340
49.64484 325
49.66495 392
49.68507 329
49.70518 333
49.7253 346
49.74541 365
49.76552 399
49.78564 385
49.80575 431
49.82586 425
49.84598 457
49.86609 483
49.8862 528
49.90632 584
49.92643 665
49.94655 755
49.96666 867
49.98677 1085
50.00689 1248
50.027 1461
50.04711 1713
50.06723 1887
50.08734 1912
50.10746 1751
50.12757 1544
50.14768 1336
50.1678 1237
50.18791 1217
50.20802 1099
50.22814 992
50.24825 944
50.26837 775
50.28848 614
50.30859 469
50.32871 455
50.34882 427
50.36893 422
50.38905 387
50.40916 447
50.42927 396
50.44939 421
50.4695 407
50.48962 403
50.50973 421
50.52984 421
50.54996 408
50.57007 415
50.59018 381
50.6103 416
50.63041 374
50.65053 390
50.67064 350
50.69075 354
50.71087 352
50.73098 346
50.75109 347
50.77121 328
50.79132 355
50.81143 315
50.83155 319
50.85166 355
50.87178 328
50.89189 317
50.912 316
50.93212 326
50.95223 281
50.97234 315
50.99246 319
51.01257 280
51.03269 311
51.0528 292
51.07291 324
51.09303 318
51.11314 322
51.13325 304
51.15337 309
51.17348 318
51.1936 285
51.21371 312
51.23382 276
51.25394 265
51.27405 303
51.29416 294
51.31428 277
51.33439 307
51.3545 290
51.37462 265
51.39473 301
51.41485 274
51.43496 262
51.45507 316
51.47519 274
51.4953 292
51.51541 286
51.53553 291
51.55564 285
51.57576 279
51.59587 294
51.61598 253
51.6361 264
51.65621 280
51.67632 288
51.69644 290
51.71655 267
51.73667 256
51.75678 254
51.77689 286
51.79701 244
51.81712 265
51.83723 255
51.85735 279
51.87746 251
51.89757 289
51.91769 264
51.9378 290
51.95792 274
51.97803 287
51.99814 290
52.01826 279
52.03837 302
52.05848 318
52.0786 307
52.09871 308
52.11883 299
52.13894 310
52.15905 311
52.17917 288
52.19928 303
52.21939 329
52.23951 296
52.25962 301
52.27974 283
52.29985 298
52.31996 285
52.34008 280
52.36019 305
52.3803 272
52.40042 263
52.42053 262
52.44064 287
52.46076 293
52.48087 279
52.50099 250
52.5211 281
52.54121 273
52.56133 296
52.58144 290
52.60155 277
52.62167 285
52.64178 302
52.6619 281
52.68201 247
52.70212 253
52.72224 277
52.74235 270
52.76246 274
52.78258 281
52.80269 270
52.8228 255
52.84292 291
52.86303 315
52.88315 291
52.90326 277
52.92337 268
52.94349 299
52.9636 276
52.98371 284
53.00383 266
53.02394 274
53.04406 287
53.06417 309
53.08428 261
53.1044 251
53.12451 259
53.14462 261
53.16474 280
53.18485 252
53.20497 295
53.22508 249
53.24519 299
53.26531 274
53.28542 283
53.30553 295
53.32565 277
53.34576 290
53.36587 325
53.38599 301
53.4061 291
53.42622 333
53.44633 293
53.46644 282
53.48656 284
53.50667 305
53.52678 288
53.5469 271
53.56701 305
53.58713 333
53.60724 328
53.62735 315
53.64747 329
53.66758 331
53.68769 338
53.70781 357
53.72792 336
53.74804 346
53.76815 335
53.78826 350
53.80838 328
53.82849 370
53.8486 339
53.86872 341
53.88883 390
53.90894 370
53.92906 385
53.94917 401
53.96929 418
53.9894 391
54.00951 431
54.02963 416
54.04974 394
54.06985 416
54.08997 384
54.11008 425
54.1302 446
54.15031 429
54.17042 425
54.19054 399
54.21065 428
54.23076 440
54.25088 456
54.27099 421
54.29111 444
54.31122 446
54.33133 459
54.35145 432
54.37156 420
54.39167 431
54.41179 390
54.4319 423
54.45201 415
54.47213 413
54.49224 468
54.51236 437
54.53247 449
54.55258 461
54.5727 436
54.59281 493
54.61292 461
54.63304 486
54.65315 514
54.67327 536
54.69338 557
54.71349 628
54.73361 658
54.75372 730
54.77383 767
54.79395 801
54.81406 848
54.83417 876
54.85429 759
54.8744 683
54.89452 664
54.91463 693
54.93474 656
54.95486 619
54.97497 639
54.99508 589
55.0152 553
55.03531 544
55.05543 494
55.07554 475
55.09565 511
55.11577 503
55.13588 492
55.15599 489
55.17611 517
55.19622 543
55.21634 535
55.23645 591
55.25656 614
55.27668 637
55.29679 611
55.3169 513
55.33702 545
55.35713 492
55.37724 477
55.39736 497
55.41747 499
55.43759 487
55.4577 423
55.47781 447
55.49793 435
55.51804 395
55.53815 375
55.55827 393
55.57838 364
55.5985 392
55.61861 374
55.63872 403
55.65884 402
55.67895 355
55.69906 378
55.71918 354
55.73929 337
55.75941 363
55.77952 327
55.79963 360
55.81975 385
55.83986 321
55.85997 343
55.88009 356
55.9002 351
55.92031 325
55.94043 351
55.96054 367
55.98066 324
56.00077 378
56.02088 353
56.041 311
56.06111 348
56.08122 323
56.10134 362
56.12145 306
56.14157 328
56.16168 335
56.18179 332
56.20191 344
56.22202 353
56.24213 342
56.26225 323
56.28236 313
56.30248 288
56.32259 340
56.3427 294
56.36282 332
56.38293 299
56.40304 321
56.42316 345
56.44327 322
56.46338 360
56.4835 322
56.50361 351
56.52373 309
56.54384 349
56.56395 312
56.58407 338
56.60418 328
56.62429 313
56.64441 340
56.66452 354
56.68464 309
56.70475 321
56.72486 323
56.74498 309
56.76509 319
56.7852 299
56.80532 306
56.82543 292
56.84554 284
56.86566 297
56.88577 293
56.90589 293
56.926 319
56.94611 305
56.96623 318
56.98634 289
57.00645 330
57.02657 283
57.04668 305
57.0668 363
57.08691 308
57.10702 336
57.12714 291
57.14725 327
57.16736 311
57.18748 318
57.20759 295
57.22771 309
57.24782 323
57.26793 277
57.28805 306
57.30816 300
57.32827 301
57.34839 320
57.3685 321
57.38861 275
57.40873 290
57.42884 290
57.44896 315
57.46907 291
57.48918 334
57.5093 295
57.52941 273
57.54952 323
57.56964 307
57.58975 285
57.60987 315
57.62998 276
57.65009 288
57.67021 263
57.69032 282
57.71043 319
57.73055 333
57.75066 305
57.77078 285
57.79089 292
57.811 314
57.83112 304
57.85123 270
57.87134 309
57.89146 292
57.91157 280
57.93168 285
57.9518 292
57.97191 276
57.99203 278
58.01214 291
58.03225 299
58.05237 295
58.07248 283
58.09259 306
58.11271 295
58.13282 268
58.15294 318
58.17305 298
58.19316 301
58.21328 315
58.23339 306
58.2535 308
58.27362 310
58.29373 290
58.31385 296
58.33396 331
58.35407 310
58.37419 289
58.3943 257
58.41441 285
58.43453 324
58.45464 277
58.47475 295
58.49487 289
58.51498 296
58.5351 326
58.55521 305
58.57532 271
58.59544 299
58.61555 289
58.63566 305
58.65578 281
58.67589 324
58.69601 289
58.71612 257
58.73623 287
58.75635 288
58.77646 249
58.79657 277
58.81669 312
58.8368 296
58.85691 307
58.87703 293
58.89714 297
58.91726 318
58.93737 317
58.95748 275
58.9776 262
58.99771 323
59.01782 270
59.03794 300
59.05805 306
59.07817 293
59.09828 295
59.11839 282
59.13851 279
59.15862 308
59.17873 311
59.19885 325
59.21896 310
59.23908 267
59.25919 267
59.2793 286
59.29942 281
59.31953 280
59.33964 326
59.35976 303
59.37987 278
59.39998 294
59.4201 315
59.44021 329
59.46033 298
59.48044 322
59.50055 327
59.52067 359
59.54078 350
59.56089 362
59.58101 371
59.60112 382
59.62124 370
59.64135 387
59.66146 399
59.68158 461
59.70169 497
59.7218 563
59.74192 626
59.76203 661
59.78215 716
59.80226 898
59.82237 966
59.84249 1157
59.8626 1261
59.88271 1291
59.90283 1326
59.92294 1233
59.94305 1080
59.96317 949
59.98328 842
60.0034 780
60.02351 853
60.04362 816
60.06374 771
60.08385 767
60.10396 682
60.12408 572
60.14419 489
60.16431 437
60.18442 373
60.20453 371
60.22465 338
60.24476 346
60.26487 338
60.28499 354
60.3051 328
60.32522 343
60.34533 311
60.36544 324
60.38556 298
60.40567 307
60.42578 313
60.4459 291
60.46601 295
60.48612 315
60.50624 280
60.52635 300
60.54647 292
60.56658 295
60.58669 320
60.60681 285
60.62692 292
60.64703 284
60.66715 283
60.68726 284
60.70738 280
60.72749 295
60.7476 266
60.76772 288
60.78783 291
60.80794 291
60.82806 280
60.84817 304
60.86828 319
60.8884 297
60.90851 264
60.92863 248
60.94874 274
60.96885 266
60.98897 285
61.00908 288
61.02919 286
61.04931 274
61.06942 305
61.08954 277
61.10965 292
61.12976 300
61.14988 323
61.16999 311
61.1901 297
61.21022 307
61.23033 319
61.25045 263
61.27056 300
61.29067 271
61.31079 303
61.3309 303
61.35101 291
61.37113 311
61.39124 307
61.41135 337
61.43147 327
61.45158 302
61.4717 309
61.49181 291
61.51192 314
61.53204 315
61.55215 309
61.57226 323
61.59238 314
61.61249 314
61.63261 314
61.65272 299
61.67283 318
61.69295 318
61.71306 313
61.73317 316
61.75329 342
61.7734 342
61.79352 292
61.81363 339
61.83374 311
61.85386 351
61.87397 374
61.89408 349
61.9142 366
61.93431 386
61.95442 396
61.97454 381
61.99465 357
62.01477 430
62.03488 403
62.05499 452
62.07511 404
62.09522 431
62.11533 484
62.13545 505
62.15556 579
62.17568 490
62.19579 486
62.2159 525
62.23602 517
62.25613 532
62.27624 528
62.29636 499
62.31647 535
62.33659 504
62.3567 493
62.37681 495
62.39693 465
62.41704 442
62.43715 433
62.45727 439
62.47738 453
62.49749 412
62.51761 444
62.53772 393
62.55784 391
62.57795 405
62.59806 327
62.61818 373
62.63829 366
62.6584 350
62.67852 355
62.69863 324
62.71875 331
62.73886 368
62.75897 342
62.77909 379
62.7992 347
62.81931 333
62.83943 336
62.85954 327
62.87965 334
62.89977 320
62.91988 305
62.94 310
62.96011 322
62.98022 350
63.00034 318
63.02045 319
63.04056 328
63.06068 290
63.08079 303
63.10091 360
63.12102 333
63.14113 270
63.16125 287
63.18136 311
63.20147 281
63.22159 306
63.2417 300
63.26182 306
63.28193 331
63.30204 306
63.32216 311
63.34227 316
63.36238 301
63.3825 276
63.40261 309
63.42272 368
63.44284 333
63.46295 337
63.48307 305
63.50318 304
63.52329 310
63.54341 323
63.56352 319
63.58363 328
63.60375 378
63.62386 335
63.64398 354
63.66409 368
63.6842 417
63.70432 390
63.72443 389
63.74454 380
63.76466 414
63.78477 394
63.80489 398
63.825 406
63.84511 404
63.86523 430
63.88534 474
63.90545 471
63.92557 467
63.94568 509
63.96579 530
63.98591 559
64.00602 480
64.02614 464
64.04625 418
64.06636 414
64.08648 432
64.10659 416
64.1267 406
64.14682 411
64.16693 374
64.18705 377
64.20716 363
64.22727 324
64.24739 315
64.2675 311
64.28761 312
64.30773 288
64.32784 309
64.34796 310
64.36807 283
64.38818 313
64.4083 324
64.42841 303
64.44852 292
64.46864 295
64.48875 277
64.50886 300
64.52898 268
64.54909 288
64.56921 295
64.58932 331
64.60943 301
64.62955 283
64.64966 291
64.66977 311
64.68989 273
64.71 275
64.73012 292
64.75023 286
64.77034 293
64.79046 281
64.81057 288
64.83068 280
64.8508 286
64.87091 248
64.89102 296
64.91114 256
64.93125 278
64.95137 260
64.97148 280
64.99159 281
65.01171 295
65.03182 296
65.05193 290
65.07205 275
65.09216 292
65.11228 257
65.13239 297
65.1525 297
65.17262 283
65.19273 293
65.21284 287
65.23296 284
65.25307 272
65.27319 294
65.2933 293
65.31341 281
65.33353 294
65.35364 273
65.37375 288
65.39387 260
65.41398 283
65.43409 276
65.45421 292
65.47432 276
65.49444 297
65.51455 272
65.53466 281
65.55478 244
65.57489 255
65.595 304
65.61512 300
65.63523 317
65.65535 301
65.67546 311
65.69557 331
65.71569 316
65.7358 310
65.75591 280
65.77603 343
65.79614 316
65.81626 280
65.83637 268
65.85648 326
65.8766 283
65.89671 284
65.91682 322
65.93694 282
65.95705 291
65.97716 274
65.99728 299
66.01739 301
66.03751 285
66.05762 272
66.07773 291
66.09785 283
66.11796 326
66.13807 300
66.15819 306
66.1783 311
66.19842 296
66.21853 295
66.23864 325
66.25876 292
66.27887 299
66.29898 311
66.3191 281
66.33921 288
66.35933 272
66.37944 262
66.39955 277
66.41967 284
66.43978 281
66.45989 266
66.48001 293
66.50012 259
66.52023 305
66.54035 296
66.56046 300
66.58058 261
66.60069 254
66.6208 294
66.64092 301
66.66103 304
66.68114 284
66.70126 279
66.72137 285
66.74149 257
66.7616 276
66.78171 287
66.80183 282
66.82194 288
66.84205 296
66.86217 295
66.88228 277
66.90239 290
66.92251 292
66.94262 281
66.96274 296
66.98285 286
67.00296 259
67.02308 287
67.04319 288
67.0633 292
67.08342 293
67.10353 301
67.12365 300
67.14376 261
67.16387 306
67.18399 324
67.2041 312
67.22421 296
67.24433 313
67.26444 293
67.28456 313
67.30467 304
67.32478 306
67.3449 322
67.36501 293
67.38512 336
67.40524 317
67.42535 365
67.44546 352
67.46558 385
67.48569 404
67.50581 421
67.52592 458
67.54603 519
67.56615 595
67.58626 596
67.60637 703
67.62649 752
67.6466 859
67.66672 891
67.68683 936
67.70694 872
67.72706 802
67.74717 693
67.76728 646
67.7874 649
67.80751 586
67.82763 672
67.84774 684
67.86785 738
67.88797 679
67.90808 686
67.92819 738
67.94831 726
67.96842 719
67.98853 785
68.00865 860
68.02876 947
68.04888 1041
68.06899 1133
68.0891 1083
68.10922 1093
68.12933 996
68.14944 929
68.16956 949
68.18967 940
68.20979 993
68.2299 1002
68.25001 1009
68.27013 968
68.29024 958
68.31035 778
68.33047 714
68.35058 633
68.3707 532
68.39081 540
68.41092 523
68.43104 495
68.45115 499
68.47126 460
68.49138 448
68.51149 373
68.5316 378
68.55172 329
68.57183 298
68.59195 342
68.61206 294
68.63217 297
68.65229 286
68.6724 284
68.69251 310
68.71263 316
68.73274 314
68.75286 324
68.77297 287
68.79308 283
68.8132 298
68.83331 294
68.85342 270
68.87354 312
68.89365 294
68.91376 280
68.93388 289
68.95399 270
68.97411 267
68.99422 252
69.01433 292
69.03445 275
69.05456 264
69.07467 295
69.09479 252
69.1149 266
69.13502 261
69.15513 261
69.17524 294
69.19536 258
69.21547 284
69.23558 275
69.2557 279
69.27581 271
69.29593 254
69.31604 278
69.33615 258
69.35627 270
69.37638 276
69.39649 286
69.41661 259
69.43672 275
69.45683 275
69.47695 262
69.49706 281
69.51718 267
69.53729 240
69.5574 254
69.57752 284
69.59763 228
69.61774 287
69.63786 263
69.65797 283
69.67809 269
69.6982 284
69.71831 273
69.73843 255
69.75854 265
69.77865 281
69.79877 247
69.81888 286
69.839 280
69.85911 248
69.87922 257
69.89934 266
69.91945 258
69.93956 265
69.95968 279
69.97979 268
69.9999 277
70.02002 281
70.04013 309
70.06025 281
70.08036 244
70.10047 272
70.12059 287
70.1407 270
70.16081 276
70.18093 283
70.20104 312
70.22116 297
70.24127 279
70.26138 249
70.2815 280
70.30161 259
70.32172 269
70.34184 297
70.36195 280
70.38207 246
70.40218 256
70.42229 278
70.44241 283
70.46252 263
70.48263 295
70.50275 293
70.52286 270
70.54297 280
70.56309 271
70.5832 259
70.60332 248
70.62343 300
70.64354 293
70.66366 252
70.68377 291
70.70388 285
70.724 305
70.74411 269
70.76423 242
70.78434 255
70.80445 264
70.82457 272
70.84468 243
70.86479 247
70.88491 236
70.90502 266
70.92513 254
70.94525 276
70.96536 271
70.98548 248
71.00559 247
71.0257 262
71.04582 253
71.06593 281
71.08604 277
71.10616 274
71.12627 266
71.14639 262
71.1665 241
71.18661 254
71.20673 246
71.22684 255
71.24695 280
71.26707 271
71.28718 273
71.3073 275
71.32741 252
71.34752 257
71.36764 226
71.38775 264
71.40786 264
71.42798 254
71.44809 264
71.4682 251
71.48832 274
71.50843 253
71.52855 286
71.54866 282
71.56877 261
71.58889 267
71.609 268
71.62911 305
71.64923 287
71.66934 286
71.68946 267
71.70957 265
71.72968 283
71.7498 245
71.76991 276
71.79002 273
71.81014 330
71.83025 274
71.85037 282
71.87048 271
71.89059 233
71.91071 266
71.93082 259
71.95093 277
71.97105 268
71.99116 295
72.01127 249
72.03139 262
72.0515 269
72.07162 287
72.09173 287
72.11184 271
72.13196 289
72.15207 257
72.17218 307
72.1923 304
72.21241 297
72.23253 284
72.25264 280
72.27275 250
72.29287 277
72.31298 281
72.33309 276
72.35321 274
72.37332 245
72.39344 249
72.41355 268
72.43366 277
72.45378 259
72.47389 284
72.494 270
72.51412 271
72.53423 261
72.55434 259
72.57446 274
72.59457 247
72.61469 253
72.6348 301
72.65491 287
72.67503 271
72.69514 241
72.71525 262
72.73537 270
72.75548 257
72.7756 241
72.79571 223
72.81582 285
72.83594 271
72.85605 289
72.87616 263
72.89628 268
72.91639 281
72.9365 253
72.95662 288
72.97673 285
72.99685 316
73.01696 289
73.03707 317
73.05719 274
73.0773 284
73.09741 293
73.11753 270
73.13764 305
73.15776 273
73.17787 320
73.19798 297
73.2181 366
73.23821 368
73.25832 381
73.27844 388
73.29855 399
73.31867 411
73.33878 424
73.35889 457
73.37901 472
73.39912 508
73.41923 514
73.43935 501
73.45946 440
73.47957 421
73.49969 411
73.5198 398
73.53992 372
73.56003 385
73.58014 403
73.60026 410
73.62037 370
73.64048 419
73.6606 380
73.68071 369
73.70083 338
73.72094 315
73.74105 324
73.76117 290
73.78128 312
73.80139 265
73.82151 263
73.84162 283
73.86174 301
73.88185 263
73.90196 265
73.92208 278
73.94219 288
73.9623 243
73.98242 298
74.00253 260
74.02264 250
74.04276 241
74.06287 253
74.08299 252
74.1031 289
74.12321 271
74.14333 280
74.16344 246
74.18355 264
74.20367 268
74.22378 265
74.2439 264
74.26401 262
74.28412 286
74.30424 234
74.32435 268
74.34446 260
74.36458 283
74.38469 260
74.40481 300
74.42492 270
74.44503 280
74.46515 271
74.48526 266
74.50537 249
74.52549 246
74.5456 254
74.56571 272
74.58583 280
74.60594 282
74.62606 271
74.64617 293
74.66628 273
74.6864 275
74.70651 267
74.72662 260
74.74674 267
74.76685 290
74.78697 268
74.80708 259
74.82719 280
74.84731 276
74.86742 267
74.88753 283
74.90765 273
74.92776 279
74.94787 267
74.96799 277
74.9881 247
75.00822 270
