3.00117 21304
3.02128 20559
3.0414 20126
3.06151 19790
3.08162 19005
3.10174 18997
3.12185 18048
3.14197 17849
3.16208 17203
3.18219 16599
3.20231 16328
3.22242 15531
3.24253 15490
3.26265 14703
3.28276 14080
3.30288 13951
3.32299 13257
3.3431 13005
3.36322 12118
3.38333 12198
3.40344 11969
3.42356 11348
3.44367 11152
3.46379 10746
3.4839 10315
3.50401 9844
3.52413 9436
3.54424 9212
3.56435 8761
3.58447 8542
3.60458 8237
3.62469 7862
3.64481 7749
3.66492 7267
3.68504 7037
3.70515 6870
3.72526 6487
3.74538 6352
3.76549 6128
3.7856 5725
3.80572 5561
3.82583 5312
3.84595 5196
3.86606 4864
3.88617 4794
3.90629 4632
3.9264 4389
3.94651 4230
3.96663 3871
3.98674 3808
4.00686 3829
4.02697 3455
4.04708 3389
4.0672 3181
4.08731 3019
4.10742 3048
4.12754 2844
4.14765 2747
4.16776 2546
4.18788 2465
4.20799 2422
4.22811 2408
4.24822 2180
4.26833 2117
4.28845 2011
4.30856 2044
4.32867 1983
4.34879 1913
4.3689 1696
4.38902 1644
4.40913 1749
4.42924 1670
4.44936 1581
4.46947 1469
4.48958 1425
4.5097 1508
4.52981 1546
4.54992 1422
4.57004 1385
4.59015 1295
4.61027 1298
4.63038 1290
4.65049 1224
4.67061 1217
4.69072 1124
4.71083 1244
4.73095 1156
4.75106 1098
4.77118 1139
4.79129 1105
4.8114 1050
4.83152 1097
4.85163 995
4.87174 998
4.89186 922
4.91197 977
4.93209 892
4.9522 894
4.97231 908
4.99243 877
5.01254 867
5.03265 853
5.05277 770
5.07288 756
5.09299 794
5.11311 763
5.13322 740
5.15334 671
5.17345 705
5.19356 638
5.21368 674
5.23379 690
5.2539 681
5.27402 624
5.29413 680
5.31425 612
5.33436 641
5.35447 587
5.37459 569
5.3947 548
5.41481 546
5.43493 552
5.45504 503
5.47516 520
5.49527 509
5.51538 561
5.5355 501
5.55561 479
5.57572 547
5.59584 441
5.61595 518
5.63606 476
5.65618 417
5.67629 482
5.69641 451
5.71652 452
5.73663 416
5.75675 387
5.77686 418
5.79697 388
5.81709 424
5.8372 408
5.85732 438
5.87743 384
5.89754 410
5.91766 398
5.93777 376
5.95788 364
5.978 362
5.99811 362
6.01823 371
6.03834 382
6.05845 373
6.07857 390
6.09868 385
6.11879 377
6.13891 352
6.15902 384
6.17913 363
6.19925 360
6.21936 364
6.23948 347
6.25959 370
6.2797 361
6.29982 376
6.31993 341
6.34004 352
6.36016 365
6.38027 398
6.40039 356
6.4205 321
6.44061 329
6.46073 331
6.48084 346
6.50095 349
6.52107 319
6.54118 327
6.56129 326
6.58141 353
6.60152 331
6.62164 335
6.64175 320
6.66186 300
6.68198 324
6.70209 328
6.7222 317
6.74232 330
6.76243 315
6.78255 308
6.80266 329
6.82277 317
6.84289 337
6.863 312
6.88311 315
6.90323 333
6.92334 337
6.94346 344
6.96357 323
6.98368 335
7.0038 310
7.02391 298
7.04402 331
7.06414 304
7.08425 357
7.10436 308
7.12448 283
7.14459 325
7.16471 303
7.18482 325
7.20493 320
7.22505 312
7.24516 293
7.26527 300
7.28539 319
7.3055 297
7.32562 310
7.34573 301
7.36584 338
7.38596 323
7.40607 317
7.42618 346
7.4463 329
7.46641 315
7.48653 306
7.50664 312
7.52675 307
7.54687 333
7.56698 309
7.58709 309
7.60721 305
7.62732 330
7.64743 297
7.66755 342
7.68766 287
7.70778 319
7.72789 293
7.748 327
7.76812 324
7.78823 307
7.80834 297
7.82846 322
7.84857 312
7.86869 302
7.8888 286
7.90891 308
7.92903 287
7.94914 330
7.96925 309
7.98937 317
8.00948 345
8.0296 310
8.04971 324
8.06982 301
8.08994 310
8.11005 346
8.13016 337
8.15028 361
8.17039 320
8.1905 319
8.21062 343
8.23073 318
8.25085 333
8.27096 343
8.29107 314
8.31119 324
8.3313 295
8.35141 358
8.37153 310
8.39164 316
8.41176 308
8.43187 324
8.45198 304
8.4721 300
8.49221 305
8.51232 341
8.53244 318
8.55255 320
8.57266 314
8.59278 320
8.61289 333
8.63301 336
8.65312 302
8.67323 345
8.69335 307
8.71346 310
8.73357 361
8.75369 329
8.7738 338
8.79392 332
8.81403 318
8.83414 323
8.85426 311
8.87437 319
8.89448 328
8.9146 331
8.93471 341
8.95483 339
8.97494 310
8.99505 333
9.01517 364
9.03528 289
9.05539 339
9.07551 321
9.09562 338
9.11573 350
9.13585 302
9.15596 351
9.17608 303
9.19619 331
9.2163 328
9.23642 315
9.25653 290
9.27664 276
9.29676 301
9.31687 346
9.33699 290
9.3571 338
9.37721 308
9.39733 321
9.41744 315
9.43755 326
9.45767 299
9.47778 338
9.4979 331
9.51801 318
9.53812 297
9.55824 339
9.57835 338
9.59846 310
9.61858 329
9.63869 305
9.6588 306
9.67892 330
9.69903 351
9.71915 317
9.73926 328
9.75937 315
9.77949 309
9.7996 342
9.81971 296
9.83983 337
9.85994 301
9.88006 307
9.90017 325
9.92028 349
9.9404 316
9.96051 336
9.98062 299
10.00074 308
10.02085 323
10.04097 337
10.06108 345
10.08119 283
10.10131 315
10.12142 308
10.14153 289
10.16165 323
10.18176 313
10.20187 358
10.22199 335
10.2421 339
10.26222 342
10.28233 301
10.30244 350
10.32256 298
10.34267 321
10.36278 343
10.3829 325
10.40301 327
10.42313 337
10.44324 368
10.46335 331
10.48347 324
10.50358 349
10.52369 320
10.54381 319
10.56392 301
10.58403 323
10.60415 331
10.62426 350
10.64438 322
10.66449 340
10.6846 331
10.70472 334
10.72483 337
10.74494 327
10.76506 329
10.78517 281
10.80529 333
10.8254 343
10.84551 336
10.86563 355
10.88574 325
10.90585 336
10.92597 347
10.94608 338
10.9662 315
10.98631 356
11.00642 291
11.02654 348
11.04665 304
11.06676 346
11.08688 351
11.10699 311
11.1271 341
11.14722 301
11.16733 338
11.18745 356
11.20756 334
11.22767 319
11.24779 323
11.2679 333
11.28801 361
11.30813 321
11.32824 361
11.34836 366
11.36847 319
11.38858 327
11.4087 327
11.42881 385
11.44892 321
11.46904 323
11.48915 347
11.50927 384
11.52938 360
11.54949 350
11.56961 353
11.58972 318
11.60983 315
11.62995 364
11.65006 335
11.67017 371
11.69029 379
11.7104 366
11.73052 375
11.75063 340
11.77074 395
11.79086 393
11.81097 367
11.83108 397
11.8512 405
11.87131 425
11.89143 418
11.91154 413
11.93165 393
11.95177 441
11.97188 459
11.99199 460
12.01211 475
12.03222 476
12.05234 433
12.07245 533
12.09256 526
12.11268 555
12.13279 576
12.1529 624
12.17302 600
12.19313 631
12.21324 670
12.23336 745
12.25347 732
12.27359 773
12.2937 818
12.31381 745
12.33393 810
12.35404 804
12.37415 739
12.39427 781
12.41438 719
12.4345 675
12.45461 609
12.47472 606
12.49484 553
12.51495 488
12.53506 495
12.55518 453
12.57529 472
12.5954 419
12.61552 457
12.63563 447
12.65575 402
12.67586 373
12.69597 360
12.71609 367
12.7362 342
12.75631 398
12.77643 326
12.79654 357
12.81666 333
12.83677 354
12.85688 362
12.877 340
12.89711 347
12.91722 341
12.93734 333
12.95745 323
12.97757 351
12.99768 367
13.01779 307
13.03791 323
13.05802 328
13.07813 345
13.09825 351
13.11836 319
13.13847 289
13.15859 320
13.1787 322
13.19882 290
13.21893 324
13.23904 301
13.25916 299
13.27927 321
13.29938 322
13.3195 318
13.33961 309
13.35973 309
13.37984 307
13.39995 296
13.42007 287
13.44018 283
13.46029 318
13.48041 291
13.50052 286
13.52064 286
13.54075 293
13.56086 317
13.58098 305
13.60109 276
13.6212 304
13.64132 286
13.66143 268
13.68154 300
13.70166 316
13.72177 287
13.74189 290
13.762 279
13.78211 312
13.80223 291
13.82234 306
13.84245 299
13.86257 283
13.88268 309
13.9028 318
13.92291 284
13.94302 308
13.96314 290
13.98325 306
14.00336 332
14.02348 263
14.04359 284
14.06371 272
14.08382 276
14.10393 295
14.12405 309
14.14416 299
14.16427 280
14.18439 317
14.2045 309
14.22461 302
14.24473 289
14.26484 310
14.28496 314
14.30507 275
14.32518 285
14.3453 266
14.36541 291
14.38552 322
14.40564 292
14.42575 272
14.44587 301
14.46598 299
14.48609 278
14.50621 285
14.52632 322
14.54643 292
14.56655 318
14.58666 315
14.60677 303
14.62689 248
14.647 271
14.66712 276
14.68723 284
14.70734 253
14.72746 283
14.74757 298
14.76768 292
14.7878 320
14.80791 321
14.82803 272
14.84814 306
14.86825 291
14.88837 294
14.90848 312
14.92859 318
14.94871 283
14.96882 297
14.98894 266
15.00905 269
15.02916 296
15.04928 278
15.06939 275
15.0895 292
15.10962 308
15.12973 265
15.14984 291
15.16996 302
15.19007 296
15.21019 280
15.2303 309
15.25041 280
15.27053 271
15.29064 279
15.31075 271
15.33087 263
15.35098 282
15.3711 295
15.39121 272
15.41132 299
15.43144 298
15.45155 287
15.47166 277
15.49178 280
15.51189 265
15.53201 276
15.55212 321
15.57223 293
15.59235 265
15.61246 297
15.63257 302
15.65269 303
15.6728 305
15.69291 291
15.71303 323
15.73314 270
15.75326 295
15.77337 277
15.79348 271
15.8136 316
15.83371 281
15.85382 295
15.87394 287
15.89405 324
15.91417 291
15.93428 282
15.95439 303
15.97451 302
15.99462 266
16.01473 272
16.03485 264
16.05496 278
16.07508 305
16.09519 263
16.1153 274
16.13542 306
16.15553 292
16.17564 291
16.19576 299
16.21587 292
16.23598 279
16.2561 290
16.27621 287
16.29633 256
16.31644 301
16.33655 286
16.35667 296
16.37678 276
16.39689 266
16.41701 254
16.43712 256
16.45724 296
16.47735 274
16.49746 300
16.51758 278
16.53769 260
16.5578 312
16.57792 283
16.59803 257
16.61814 273
16.63826 291
16.65837 302
16.67849 282
16.6986 280
16.71871 311
16.73883 311
16.75894 280
16.77905 262
16.79917 267
16.81928 248
16.8394 272
16.85951 295
16.87962 265
16.89974 253
16.91985 262
16.93996 281
16.96008 267
16.98019 302
17.00031 295
17.02042 281
17.04053 276
17.06065 288
17.08076 264
17.10087 292
17.12099 302
17.1411 297
17.16121 269
17.18133 310
17.20144 265
17.22156 316
17.24167 289
17.26178 308
17.2819 260
17.30201 282
17.32212 283
17.34224 315
17.36235 299
17.38247 303
17.40258 268
17.42269 278
17.44281 281
17.46292 288
17.48303 303
17.50315 283
17.52326 315
17.54338 263
17.56349 264
17.5836 294
17.60372 283
17.62383 296
17.64394 319
17.66406 322
17.68417 252
17.70428 273
17.7244 302
17.74451 308
17.76463 313
17.78474 279
17.80485 326
17.82497 328
17.84508 285
17.86519 320
17.88531 293
17.90542 305
17.92554 324
17.94565 301
17.96576 289
17.98588 261
18.00599 373
18.0261 347
18.04622 286
18.06633 293
18.08645 323
18.10656 269
18.12667 281
18.14679 323
18.1669 291
18.18701 319
18.20713 260
18.22724 273
18.24735 264
18.26747 283
18.28758 317
18.3077 270
18.32781 312
18.34792 285
18.36804 289
18.38815 276
18.40826 303
18.42838 313
18.44849 291
18.46861 279
18.48872 292
18.50883 263
18.52895 261
18.54906 283
18.56917 294
18.58929 306
18.6094 301
18.62951 286
18.64963 316
18.66974 340
18.68986 280
18.70997 269
18.73008 312
18.7502 278
18.77031 317
18.79042 322
18.81054 294
18.83065 300
18.85077 290
18.87088 294
18.89099 288
18.91111 303
18.93122 303
18.95133 281
18.97145 290
18.99156 265
19.01168 281
19.03179 273
19.0519 282
19.07202 261
19.09213 304
19.11224 288
19.13236 283
19.15247 327
19.17258 274
19.1927 308
19.21281 305
19.23293 293
19.25304 285
19.27315 315
19.29327 318
19.31338 344
19.33349 306
19.35361 280
19.37372 313
19.39384 316
19.41395 323
19.43406 318
19.45418 333
19.47429 324
19.4944 312
19.51452 304
19.53463 306
19.55475 307
19.57486 329
19.59497 345
19.61509 346
19.6352 361
19.65531 374
19.67543 415
19.69554 447
19.71565 449
19.73577 448
19.75588 494
19.776 522
19.79611 553
19.81622 555
19.83634 592
19.85645 585
19.87656 660
19.89668 635
19.91679 667
19.93691 597
19.95702 610
19.97713 574
19.99725 570
20.01736 578
20.03747 537
20.05759 534
20.0777 517
20.09782 516
20.11793 524
20.13804 552
20.15816 532
20.17827 503
20.19838 559
20.2185 596
20.23861 547
20.25872 578
20.27884 565
20.29895 622
20.31907 585
20.33918 623
20.35929 603
20.37941 607
20.39952 645
20.41963 619
20.43975 633
20.45986 643
20.47998 647
20.50009 669
20.5202 632
20.54032 698
20.56043 705
20.58054 760
20.60066 787
20.62077 894
20.64088 1015
20.661 1164
20.68111 1416
20.70123 1749
20.72134 2157
20.74145 2863
20.76157 3463
20.78168 4091
20.80179 4588
20.82191 4799
20.84202 4562
20.86214 4117
20.88225 3385
20.90236 2626
20.92248 1902
20.94259 1448
20.9627 1068
20.98282 876
21.00293 733
21.02305 683
21.04316 719
21.06327 681
21.08339 686
21.1035 641
21.12361 662
21.14373 656
21.16384 675
21.18395 627
21.20407 656
21.22418 649
21.2443 710
21.26441 678
21.28452 693
21.30464 657
21.32475 681
21.34486 665
21.36498 635
21.38509 613
21.40521 632
21.42532 660
21.44543 608
21.46555 602
21.48566 584
21.50577 551
21.52589 554
21.546 533
21.56612 588
21.58623 551
21.60634 519
21.62646 503
21.64657 501
21.66668 499
21.6868 531
21.70691 498
21.72702 539
21.74714 478
21.76725 475
21.78737 460
21.80748 498
21.82759 474
21.84771 464
21.86782 441
21.88793 435
21.90805 447
21.92816 458
21.94828 449
21.96839 458
21.9885 470
22.00862 526
22.02873 439
22.04884 481
22.06896 422
22.08907 481
22.10919 440
22.1293 441
22.14941 447
22.16953 448
22.18964 430
22.20975 451
22.22987 442
22.24998 383
22.27009 471
22.29021 428
22.31032 430
22.33044 402
22.35055 436
22.37066 385
22.39078 382
22.41089 381
22.431 391
22.45112 440
22.47123 422
22.49135 424
22.51146 382
22.53157 398
22.55169 396
22.5718 429
22.59191 380
22.61203 410
22.63214 429
22.65225 391
22.67237 401
22.69248 410
22.7126 397
22.73271 376
22.75282 390
22.77294 388
22.79305 376
22.81316 394
22.83328 403
22.85339 378
22.87351 382
22.89362 362
22.91373 378
22.93385 371
22.95396 357
22.97407 379
22.99419 387
23.0143 407
23.03442 370
23.05453 416
23.07464 345
23.09476 391
23.11487 394
23.13498 348
23.1551 400
23.17521 410
23.19532 342
23.21544 370
23.23555 359
23.25567 374
23.27578 383
23.29589 361
23.31601 383
23.33612 362
23.35623 347
23.37635 356
23.39646 358
23.41658 320
23.43669 384
23.4568 364
23.47692 372
23.49703 353
23.51714 372
23.53726 413
23.55737 405
23.57749 402
23.5976 378
23.61771 335
23.63783 397
23.65794 352
23.67805 341
23.69817 367
23.71828 398
23.73839 354
23.75851 407
23.77862 388
23.79874 386
23.81885 393
23.83896 368
23.85908 401
23.87919 402
23.8993 401
23.91942 459
23.93953 439
23.95965 423
23.97976 404
23.99987 453
24.01999 444
24.0401 385
24.06021 429
24.08033 407
24.10044 413
24.12056 382
24.14067 444
24.16078 410
24.1809 414
24.20101 370
24.22112 400
24.24124 394
24.26135 423
24.28146 423
24.30158 429
24.32169 405
24.34181 434
24.36192 423
24.38203 424
24.40215 401
24.42226 410
24.44237 407
24.46249 430
24.4826 486
24.50272 466
24.52283 443
24.54294 448
24.56306 471
24.58317 491
24.60328 470
24.6234 545
24.64351 533
24.66362 600
24.68374 606
24.70385 569
24.72397 652
24.74408 645
24.76419 690
24.78431 706
24.80442 738
24.82453 698
24.84465 666
24.86476 702
24.88488 667
24.90499 701
24.9251 706
24.94522 685
24.96533 599
24.98544 570
25.00556 540
25.02567 540
25.04579 522
25.0659 504
25.08601 521
25.10613 480
25.12624 526
25.14635 462
25.16647 502
25.18658 531
25.20669 568
25.22681 545
25.24692 534
25.26704 521
25.28715 453
25.30726 459
25.32738 468
25.34749 466
25.3676 445
25.38772 450
25.40783 454
25.42795 429
25.44806 444
25.46817 412
25.48829 378
25.5084 450
25.52851 409
25.54863 416
25.56874 385
25.58886 418
25.60897 458
25.62908 485
25.6492 488
25.66931 477
25.68942 514
25.70954 482
25.72965 493
25.74976 506
25.76988 473
25.78999 500
25.81011 546
25.83022 506
25.85033 528
25.87045 508
25.89056 566
25.91067 555
25.93079 527
25.9509 554
25.97102 535
25.99113 555
26.01124 566
26.03136 556
26.05147 623
26.07158 624
26.0917 639
26.11181 673
26.13193 626
26.15204 759
26.17215 770
26.19227 853
26.21238 848
26.23249 913
26.25261 1005
26.27272 1060
26.29283 1123
26.31295 1213
26.33306 1424
26.35318 1637
26.37329 1916
26.3934 2501
26.41352 3094
26.43363 4030
26.45374 5355
26.47386 6993
26.49397 9229
26.51409 12084
26.5342 15079
26.55431 17742
26.57443 19865
26.59454 20650
26.61465 20006
26.63477 17986
26.65488 14982
26.67499 11239
26.69511 8264
26.71522 5775
26.73534 4082
26.75545 2603
26.77556 1840
26.79568 1396
26.81579 1258
26.8359 1163
26.85602 1092
26.87613 1019
26.89625 998
26.91636 918
26.93647 884
26.95659 825
26.9767 677
26.99681 728
27.01693 653
27.03704 641
27.05716 592
27.07727 551
27.09738 532
27.1175 522
27.13761 560
27.15772 520
27.17784 480
27.19795 501
27.21806 474
27.23818 456
27.25829 497
27.27841 451
27.29852 493
27.31863 474
27.33875 469
27.35886 473
27.37897 469
27.39909 506
27.4192 428
27.43932 451
27.45943 440
27.47954 448
27.49966 475
27.51977 422
27.53988 429
27.56 412
27.58011 414
27.60023 430
27.62034 400
27.64045 382
27.66057 392
27.68068 396
27.70079 398
27.72091 411
27.74102 360
27.76113 368
27.78125 401
27.80136 364
27.82148 389
27.84159 351
27.8617 386
27.88182 419
27.90193 355
27.92204 379
27.94216 372
27.96227 379
27.98239 368
28.0025 393
28.02261 359
28.04273 360
28.06284 350
28.08295 346
28.10307 372
28.12318 355
28.1433 418
28.16341 388
28.18352 330
28.20364 346
28.22375 378
28.24386 373
28.26398 376
28.28409 372
28.3042 311
28.32432 402
28.34443 401
28.36455 353
28.38466 355
28.40477 376
28.42489 328
28.445 353
28.46511 351
28.48523 349
28.50534 322
28.52546 348
28.54557 329
28.56568 361
28.5858 314
28.60591 333
28.62602 326
28.64614 337
28.66625 327
28.68636 328
28.70648 354
28.72659 342
28.74671 361
28.76682 358
28.78693 323
28.80705 351
28.82716 313
28.84727 323
28.86739 343
28.8875 352
28.90762 390
28.92773 336
28.94784 319
28.96796 331
28.98807 340
29.00818 340
29.0283 349
29.04841 310
29.06853 325
29.08864 304
29.10875 330
29.12887 320
29.14898 340
29.16909 303
29.18921 318
29.20932 364
29.22943 307
29.24955 331
29.26966 291
29.28978 322
29.30989 365
29.33 308
29.35012 315
29.37023 310
29.39034 307
29.41046 322
29.43057 295
29.45069 315
29.4708 310
29.49091 330
29.51103 309
29.53114 327
29.55125 326
29.57137 329
29.59148 339
29.6116 302
29.63171 300
29.65182 309
29.67194 324
29.69205 322
29.71216 294
29.73228 307
29.75239 303
29.7725 287
29.79262 287
29.81273 307
29.83285 337
29.85296 326
29.87307 288
29.89319 363
29.9133 313
29.93341 318
29.95353 307
29.97364 286
29.99376 331
30.01387 310
30.03398 290
30.0541 304
30.07421 318
30.09432 302
30.11444 302
30.13455 342
30.15467 322
30.17478 316
30.19489 342
30.21501 352
30.23512 325
30.25523 281
30.27535 365
30.29546 296
30.31557 338
30.33569 341
30.3558 286
30.37592 326
30.39603 305
30.41614 292
30.43626 312
30.45637 309
30.47648 321
30.4966 311
30.51671 305
30.53683 338
30.55694 303
30.57705 317
30.59717 335
30.61728 335
30.63739 321
30.65751 314
30.67762 313
30.69773 320
30.71785 319
30.73796 303
30.75808 303
30.77819 312
30.7983 324
30.81842 310
30.83853 313
30.85864 278
30.87876 298
30.89887 284
30.91899 296
30.9391 286
30.95921 306
30.97933 315
30.99944 307
31.01955 300
31.03967 305
31.05978 317
31.0799 301
31.10001 293
31.12012 321
31.14024 305
31.16035 332
31.18046 290
31.20058 284
31.22069 291
31.2408 305
31.26092 275
31.28103 312
31.30115 326
31.32126 296
31.34137 288
31.36149 304
31.3816 304
31.40171 279
31.42183 309
31.44194 329
31.46206 307
31.48217 308
31.50228 294
31.5224 285
31.54251 308
31.56262 275
31.58274 310
31.60285 281
31.62297 315
31.64308 284
31.66319 294
31.68331 304
31.70342 306
31.72353 313
31.74365 294
31.76376 307
31.78387 336
31.80399 303
31.8241 290
31.84422 273
31.86433 300
31.88444 310
31.90456 322
31.92467 318
31.94478 329
31.9649 321
31.98501 290
32.00513 299
32.02524 297
32.04535 284
32.06547 287
32.08558 303
32.10569 310
32.12581 314
32.14592 308
32.16604 305
32.18615 292
32.20626 281
32.22638 303
32.24649 342
32.2666 330
32.28672 303
32.30683 288
32.32694 357
32.34706 304
32.36717 299
32.38729 342
32.4074 285
32.42751 279
32.44763 317
32.46774 322
32.48785 303
32.50797 308
32.52808 317
32.5482 325
32.56831 323
32.58842 353
32.60854 297
32.62865 336
32.64876 320
32.66888 335
32.68899 301
32.7091 333
32.72922 311
32.74933 330
32.76945 344
32.78956 324
32.80967 298
32.82979 344
32.8499 320
32.87001 354
32.89013 327
32.91024 325
32.93036 352
32.95047 393
32.97058 375
32.9907 389
33.01081 336
33.03092 372
33.05104 358
33.07115 362
33.09127 346
33.11138 385
33.13149 380
33.15161 368
33.17172 347
33.19183 382
33.21195 356
33.23206 344
33.25217 337
33.27229 394
33.2924 321
33.31252 390
33.33263 363
33.35274 385
33.37286 365
33.39297 351
33.41308 367
33.4332 364
33.45331 373
33.47343 373
33.49354 409
33.51365 387
33.53377 375
33.55388 343
33.57399 342
33.59411 335
33.61422 353
33.63434 393
33.65445 332
33.67456 374
33.69468 336
33.71479 329
33.7349 350
33.75502 344
33.77513 319
33.79524 326
33.81536 315
33.83547 368
33.85559 352
33.8757 315
33.89581 324
33.91593 321
33.93604 266
33.95615 321
33.97627 297
33.99638 319
34.0165 287
34.03661 337
34.05672 336
34.07684 316
34.09695 299
34.11706 297
34.13718 309
34.15729 314
34.17741 324
34.19752 284
34.21763 296
34.23775 306
34.25786 271
34.27797 327
34.29809 316
34.3182 318
34.33831 306
34.35843 313
34.37854 330
34.39866 291
34.41877 286
34.43888 306
34.459 325
34.47911 326
34.49922 308
34.51934 332
34.53945 332
34.55957 337
34.57968 322
34.59979 327
34.61991 362
34.64002 348
34.66013 367
34.68025 366
34.70036 388
34.72047 375
34.74059 381
34.7607 380
34.78082 364
34.80093 422
34.82104 438
34.84116 454
34.86127 461
34.88138 478
34.9015 436
34.92161 492
34.94173 545
34.96184 467
34.98195 481
35.00207 508
35.02218 478
35.04229 445
35.06241 457
35.08252 414
35.10264 436
35.12275 418
35.14286 380
35.16298 426
35.18309 410
35.2032 430
35.22332 464
35.24343 394
35.26354 424
35.28366 412
35.30377 446
35.32389 462
35.344 486
35.36411 452
35.38423 417
35.40434 451
35.42445 470
35.44457 462
35.46468 479
35.4848 476
35.50491 491
35.52502 456
35.54514 501
35.56525 464
35.58536 491
35.60548 466
35.62559 446
35.64571 521
35.66582 488
35.68593 484
35.70605 509
35.72616 456
35.74627 502
35.76639 483
35.7865 504
35.80661 510
35.82673 493
35.84684 504
35.86696 519
35.88707 498
35.90718 509
35.9273 494
35.94741 498
35.96752 478
35.98764 493
36.00775 499
36.02787 449
36.04798 446
36.06809 438
36.08821 457
36.10832 449
36.12843 393
36.14855 436
36.16866 442
36.18878 445
36.20889 457
36.229 468
36.24912 509
36.26923 515
36.28934 548
36.30946 620
36.32957 714
36.34968 780
36.3698 921
36.38991 1025
36.41003 1221
36.43014 1392
36.45025 1534
36.47037 1650
36.49048 1682
36.51059 1612
36.53071 1460
36.55082 1317
36.57094 1145
36.59105 1084
36.61116 905
36.63128 769
36.65139 627
36.6715 522
36.69162 503
36.71173 484
36.73184 440
36.75196 435
36.77207 446
36.79219 421
36.8123 417
36.83241 406
36.85253 432
36.87264 401
36.89275 426
36.91287 421
36.93298 434
36.9531 438
36.97321 439
36.99332 413
37.01344 428
37.03355 458
37.05366 417
37.07378 409
37.09389 386
37.11401 409
37.13412 361
37.15423 397
37.17435 420
37.19446 382
37.21457 380
37.23469 402
37.2548 354
37.27491 348
37.29503 354
37.31514 354
37.33526 409
37.35537 338
37.37548 366
37.3956 384
37.41571 347
37.43582 370
37.45594 360
37.47605 368
37.49617 345
37.51628 386
37.53639 352
37.55651 366
37.57662 373
37.59673 366
37.61685 385
37.63696 373
37.65708 409
37.67719 372
37.6973 343
37.71742 378
37.73753 380
37.75764 403
37.77776 357
37.79787 349
37.81798 376
37.8381 366
37.85821 336
37.87833 362
37.89844 369
37.91855 362
37.93867 369
37.95878 363
37.97889 387
37.99901 338
38.01912 387
38.03924 394
38.05935 386
38.07946 406
38.09958 392
38.11969 404
38.1398 382
38.15992 418
38.18003 473
38.20015 437
38.22026 442
38.24037 475
38.26049 472
38.2806 471
38.30071 518
38.32083 498
38.34094 508
38.36105 503
38.38117 485
38.40128 541
38.4214 519
38.44151 455
38.46162 515
38.48174 476
38.50185 479
38.52196 481
38.54208 455
38.56219 470
38.58231 471
38.60242 418
38.62253 405
38.64265 453
38.66276 404
38.68287 441
38.70299 413
38.7231 421
38.74321 393
38.76333 354
38.78344 400
38.80356 384
38.82367 416
38.84378 383
38.8639 379
38.88401 381
38.90412 341
38.92424 398
38.94435 385
38.96447 427
38.98458 411
39.00469 424
39.02481 413
39.04492 449
39.06503 457
39.08515 431
39.10526 437
39.12538 502
39.14549 563
39.1656 537
39.18572 531
39.20583 553
39.22594 616
39.24606 700
39.26617 781
39.28628 799
39.3064 985
39.32651 1125
39.34663 1271
39.36674 1464
39.38685 1529
39.40697 1538
39.42708 1522
39.44719 1463
39.46731 1283
39.48742 1181
39.50754 996
39.52765 900
39.54776 762
39.56788 628
39.58799 559
39.6081 464
39.62822 424
39.64833 394
39.66845 380
39.68856 361
39.70867 332
39.72879 381
39.7489 371
39.76901 373
39.78913 360
39.80924 343
39.82935 356
39.84947 359
39.86958 349
39.8897 378
39.90981 350
39.92992 385
39.95004 365
39.97015 381
39.99026 396
40.01038 366
40.03049 432
40.05061 447
40.07072 501
40.09083 514
40.11095 619
40.13106 673
40.15117 700
40.17129 764
40.1914 836
40.21152 869
40.23163 887
40.25174 893
40.27186 831
40.29197 837
40.31208 731
40.3322 592
40.35231 557
40.37242 571
40.39254 503
40.41265 472
40.43277 406
40.45288 366
40.47299 352
40.49311 365
40.51322 375
40.53333 380
40.55345 350
40.57356 353
40.59368 362
40.61379 347
40.6339 348
40.65402 342
40.67413 386
40.69424 350
40.71436 319
40.73447 350
40.75458 342
40.7747 318
40.79481 358
40.81493 302
40.83504 321
40.85515 298
40.87527 320
40.89538 355
40.91549 359
40.93561 338
40.95572 359
40.97584 343
40.99595 327
41.01606 360
41.03618 343
41.05629 344
41.0764 307
41.09652 347
41.11663 320
41.13675 330
41.15686 352
41.17697 366
41.19709 344
41.2172 332
41.23731 325
41.25743 328
41.27754 360
41.29765 310
41.31777 340
41.33788 310
41.358 323
41.37811 353
41.39822 333
41.41834 342
41.43845 339
41.45856 325
41.47868 313
41.49879 301
41.51891 364
41.53902 306
41.55913 337
41.57925 302
41.59936 337
41.61947 325
41.63959 307
41.6597 322
41.67982 291
41.69993 285
41.72004 332
41.74016 314
41.76027 319
41.78038 327
41.8005 316
41.82061 279
41.84072 321
41.86084 329
41.88095 312
41.90107 294
41.92118 327
41.94129 330
41.96141 344
41.98152 300
42.00163 324
42.02175 311
42.04186 344
42.06198 312
42.08209 325
42.1022 348
42.12232 363
42.14243 357
42.16254 408
42.18266 429
42.20277 427
42.22289 529
42.243 520
42.26311 630
42.28323 779
42.30334 826
42.32345 914
42.34357 1024
42.36368 1038
42.38379 1098
42.40391 1143
42.42402 1040
42.44414 934
42.46425 853
42.48436 847
42.50448 707
42.52459 671
42.5447 538
42.56482 464
42.58493 405
42.60505 337
42.62516 339
42.64527 310
42.66539 327
42.6855 272
42.70561 310
42.72573 283
42.74584 273
42.76595 274
42.78607 289
42.80618 284
42.8263 275
42.84641 283
42.86652 297
42.88664 302
42.90675 277
42.92686 259
42.94698 286
42.96709 279
42.98721 296
43.00732 279
43.02743 282
43.04755 277
43.06766 280
43.08777 273
43.10789 254
43.128 280
43.14812 295
43.16823 288
43.18834 265
43.20846 295
43.22857 277
43.24868 287
43.2688 286
43.28891 275
43.30902 294
43.32914 261
43.34925 271
43.36937 290
43.38948 287
43.40959 247
43.42971 288
43.44982 274
43.46993 260
43.49005 302
43.51016 282
43.53028 279
43.55039 293
43.5705 281
43.59062 289
43.61073 333
43.63084 287
43.65096 281
43.67107 284
43.69119 304
43.7113 280
43.73141 315
43.75153 291
43.77164 305
43.79175 266
43.81187 281
43.83198 293
43.85209 282
43.87221 275
43.89232 276
43.91244 257
43.93255 279
43.95266 274
43.97278 288
43.99289 270
44.013 282
44.03312 286
44.05323 289
44.07335 271
44.09346 269
44.11357 256
44.13369 268
44.1538 276
44.17391 297
44.19403 249
44.21414 251
44.23426 297
44.25437 269
44.27448 287
44.2946 262
44.31471 242
44.33482 245
44.35494 269
44.37505 290
44.39516 283
44.41528 259
44.43539 269
44.45551 281
44.47562 267
44.49573 261
44.51585 282
44.53596 294
44.55607 271
44.57619 286
44.5963 292
44.61642 287
44.63653 288
44.65664 279
44.67676 264
44.69687 273
44.71698 260
44.7371 280
44.75721 320
44.77732 273
44.79744 309
44.81755 320
44.83767 276
44.85778 317
44.87789 307
44.89801 286
44.91812 262
44.93823 307
44.95835 298
44.97846 289
44.99858 279
45.01869 285
45.0388 303
45.05892 263
45.07903 295
45.09914 309
45.11926 316
45.13937 272
45.15949 267
45.1796 269
45.19971 322
45.21983 341
45.23994 291
45.26005 301
45.28017 323
45.30028 332
45.32039 324
45.34051 353
45.36062 336
45.38074 341
45.40085 342
45.42096 383
45.44108 387
45.46119 361
45.4813 356
45.50142 424
45.52153 411
45.54165 446
45.56176 464
45.58187 499
45.60199 492
45.6221 579
45.64221 653
45.66233 702
45.68244 779
45.70256 831
45.72267 899
45.74278 880
45.7629 828
45.78301 728
45.80312 692
45.82324 609
45.84335 616
45.86346 544
45.88358 477
45.90369 453
45.92381 401
45.94392 349
45.96403 378
45.98415 315
46.00426 348
46.02437 294
46.04449 322
46.0646 321
46.08472 319
46.10483 273
46.12494 288
46.14506 276
46.16517 285
46.18528 291
46.2054 276
46.22551 287
46.24563 263
46.26574 300
46.28585 288
46.30597 289
46.32608 270
46.34619 273
46.36631 275
46.38642 296
46.40653 279
46.42665 290
46.44676 279
46.46688 253
46.48699 260
46.5071 300
46.52722 266
46.54733 298
46.56744 329
46.58756 318
46.60767 280
46.62779 299
46.6479 286
46.66801 317
46.68813 283
46.70824 278
46.72835 266
46.74847 295
46.76858 270
46.78869 279
46.80881 294
46.82892 287
46.84904 284
46.86915 261
46.88926 289
46.90938 307
46.92949 303
46.9496 289
46.96972 263
46.98983 322
47.00995 301
47.03006 273
47.05017 284
47.07029 278
47.0904 291
47.11051 263
47.13063 284
47.15074 278
47.17086 279
47.19097 262
47.21108 284
47.2312 293
47.25131 283
47.27142 320
47.29154 301
47.31165 303
47.33176 287
47.35188 303
47.37199 287
47.39211 277
47.41222 277
47.43233 300
47.45245 299
47.47256 285
47.49267 298
47.51279 280
47.5329 282
47.55302 299
47.57313 300
47.59324 298
47.61336 307
47.63347 307
47.65358 279
47.6737 294
47.69381 271
47.71393 282
47.73404 281
47.75415 318
47.77427 322
47.79438 277
47.81449 326
47.83461 307
47.85472 303
47.87483 292
47.89495 295
47.91506 306
47.93518 280
47.95529 280
47.9754 294
47.99552 322
48.01563 286
48.03574 311
48.05586 283
48.07597 313
48.09609 303
48.1162 300
48.13631 300
48.15643 281
48.17654 307
48.19665 276
48.21677 270
48.23688 280
48.257 281
48.27711 251
48.29722 300
48.31734 307
48.33745 287
48.35756 305
48.37768 280
48.39779 281
48.4179 277
48.43802 274
48.45813 273
48.47825 272
48.49836 272
48.51847 284
48.53859 279
48.5587 283
48.57881 291
48.59893 310
48.61904 287
48.63916 296
48.65927 284
48.67938 297
48.6995 262
48.71961 264
48.73972 300
48.75984 304
48.77995 281
48.80006 255
48.82018 276
48.84029 317
48.86041 289
48.88052 289
48.90063 293
48.92075 292
48.94086 282
48.96097 297
48.98109 307
49.0012 269
49.02132 267
49.04143 255
49.06154 284
49.08166 286
49.10177 303
49.12188 314
49.142 279
49.16211 330
49.18223 309
49.20234 273
49.22245 283
49.24257 297
49.26268 313
49.28279 294
49.30291 324
49.32302 334
49.34313 282
49.36325 313
49.38336 299
49.40348 300
49.42359 320
49.4437 309
49.46382 312
49.48393 341
49.50404 342
49.52416 331
49.54427 354
49.56439 333
49.5845 317
49.60461 351
49.62473 365
49.64484 368
49.66495 334
49.68507 386
49.70518 395
49.7253 409
49.74541 374
49.76552 410
49.78564 478
49.80575 510
49.82586 558
49.84598 628
49.86609 666
49.8862 742
49.90632 829
49.92643 1019
49.94655 1167
49.96666 1370
49.98677 1563
50.00689 1785
50.027 2041
50.04711 2286
50.06723 2296
50.08734 2235
50.10746 2160
50.12757 1824
50.14768 1600
50.1678 1590
50.18791 1426
50.20802 1217
50.22814 1137
50.24825 969
50.26837 811
50.28848 683
50.30859 508
50.32871 488
50.34882 378
50.36893 387
50.38905 385
50.40916 377
50.42927 340
50.44939 341
50.4695 368
50.48962 355
50.50973 351
50.52984 374
50.54996 345
50.57007 352
50.59018 322
50.6103 346
50.63041 337
50.65053 323
50.67064 312
50.69075 322
50.71087 345
50.73098 291
50.75109 307
50.77121 282
50.79132 303
50.81143 301
50.83155 281
50.85166 296
50.87178 270
50.89189 296
50.912 298
50.93212 311
50.95223 328
50.97234 301
50.99246 298
51.01257 309
51.03269 317
51.0528 300
51.07291 278
51.09303 309
51.11314 299
51.13325 278
51.15337 291
51.17348 272
51.1936 321
51.21371 279
51.23382 290
51.25394 278
51.27405 283
51.29416 280
51.31428 289
51.33439 283
51.3545 269
51.37462 281
51.39473 269
51.41485 269
51.43496 257
51.45507 273
51.47519 291
51.4953 261
51.51541 284
51.53553 282
51.55564 265
51.57576 240
51.59587 277
51.61598 271
51.6361 289
51.65621 290
51.67632 253
51.69644 265
51.71655 272
51.73667 261
51.75678 253
51.77689 267
51.79701 280
51.81712 298
51.83723 281
51.85735 271
51.87746 290
51.89757 249
51.91769 235
51.9378 273
51.95792 287
51.97803 286
51.99814 256
52.01826 277
52.03837 250
52.05848 274
52.0786 282
52.09871 265
52.11883 279
52.13894 268
52.15905 287
52.17917 263
52.19928 244
52.21939 268
52.23951 270
52.25962 240
52.27974 252
52.29985 277
52.31996 281
52.34008 283
52.36019 257
52.3803 269
52.40042 263
52.42053 273
52.44064 236
52.46076 251
52.48087 274
52.50099 261
52.5211 263
52.54121 289
52.56133 298
52.58144 255
52.60155 274
52.62167 257
52.64178 269
52.6619 260
52.68201 279
52.70212 275
52.72224 255
52.74235 248
52.76246 271
52.78258 269
52.80269 245
52.8228 269
52.84292 267
52.86303 283
52.88315 279
52.90326 283
52.92337 280
52.94349 277
52.9636 298
52.98371 285
53.00383 302
53.02394 276
53.04406 289
53.06417 313
53.08428 276
53.1044 279
53.12451 318
53.14462 272
53.16474 302
53.18485 291
53.20497 312
53.22508 293
53.24519 337
53.26531 358
53.28542 321
53.30553 342
53.32565 337
53.34576 353
53.36587 328
53.38599 315
53.4061 317
53.42622 305
53.44633 336
53.46644 310
53.48656 332
53.50667 325
53.52678 352
53.5469 324
53.56701 335
53.58713 362
53.60724 329
53.62735 328
53.64747 303
53.66758 352
53.68769 346
53.70781 342
53.72792 303
53.74804 374
53.76815 342
53.78826 362
53.80838 356
53.82849 346
53.8486 364
53.86872 350
53.88883 339
53.90894 370
53.92906 348
53.94917 346
53.96929 358
53.9894 333
54.00951 319
54.02963 314
54.04974 362
54.06985 320
54.08997 338
54.11008 329
54.1302 352
54.15031 351
54.17042 377
54.19054 341
54.21065 375
54.23076 356
54.25088 373
54.27099 356
54.29111 382
54.31122 335
54.33133 362
54.35145 384
54.37156 390
54.39167 384
54.41179 369
54.4319 337
54.45201 392
54.47213 391
54.49224 382
54.51236 368
54.53247 423
54.55258 386
54.5727 436
54.59281 466
54.61292 504
54.63304 472
54.65315 536
54.67327 568
54.69338 655
54.71349 709
54.73361 771
54.75372 841
54.77383 909
54.79395 941
54.81406 936
54.83417 912
54.85429 816
54.8744 743
54.89452 770
54.91463 697
54.93474 690
54.95486 647
54.97497 585
54.99508 565
55.0152 555
55.03531 502
55.05543 478
55.07554 475
55.09565 484
55.11577 454
55.13588 493
55.15599 524
55.17611 556
55.19622 544
55.21634 574
55.23645 591
55.25656 617
55.27668 591
55.29679 567
55.3169 521
55.33702 475
55.35713 485
55.37724 465
55.39736 460
55.41747 453
55.43759 399
55.4577 400
55.47781 410
55.49793 355
55.51804 368
55.53815 335
55.55827 372
55.57838 351
55.5985 354
55.61861 329
55.63872 332
55.65884 322
55.67895 290
55.69906 344
55.71918 298
55.73929 286
55.75941 301
55.77952 278
55.79963 294
55.81975 307
55.83986 314
55.85997 287
55.88009 291
55.9002 304
55.92031 309
55.94043 324
55.96054 324
55.98066 328
56.00077 301
56.02088 263
56.041 278
56.06111 328
56.08122 309
56.10134 284
56.12145 322
56.14157 294
56.16168 259
56.18179 294
56.20191 305
56.22202 276
56.24213 261
56.26225 286
56.28236 317
56.30248 277
56.32259 283
56.3427 291
56.36282 292
56.38293 284
56.40304 306
56.42316 282
56.44327 287
56.46338 299
56.4835 281
56.50361 288
56.52373 313
56.54384 293
56.56395 306
56.58407 281
56.60418 308
56.62429 300
56.64441 274
56.66452 308
56.68464 312
56.70475 280
56.72486 275
56.74498 289
56.76509 324
56.7852 289
56.80532 309
56.82543 310
56.84554 319
56.86566 285
56.88577 281
56.90589 278
56.926 291
56.94611 282
56.96623 283
56.98634 264
57.00645 285
57.02657 288
57.04668 290
57.0668 288
57.08691 320
57.10702 317
57.12714 319
57.14725 318
57.16736 282
57.18748 302
57.20759 278
57.22771 276
57.24782 292
57.26793 291
57.28805 318
57.30816 285
57.32827 264
57.34839 287
57.3685 321
57.38861 279
57.40873 288
57.42884 256
57.44896 287
57.46907 287
57.48918 243
57.5093 274
57.52941 267
57.54952 296
57.56964 254
57.58975 227
57.60987 286
57.62998 284
57.65009 284
57.67021 277
57.69032 300
57.71043 274
57.73055 269
57.75066 305
57.77078 277
57.79089 251
57.811 292
57.83112 265
57.85123 286
57.87134 308
57.89146 258
57.91157 284
57.93168 299
57.9518 285
57.97191 281
57.99203 302
58.01214 274
58.03225 267
58.05237 279
58.07248 255
58.09259 312
58.11271 275
58.13282 285
58.15294 263
58.17305 256
58.19316 280
58.21328 298
58.23339 251
58.2535 280
58.27362 275
58.29373 279
58.31385 250
58.33396 245
58.35407 257
58.37419 263
58.3943 311
58.41441 276
58.43453 301
58.45464 290
58.47475 269
58.49487 289
58.51498 283
58.5351 278
58.55521 242
58.57532 248
58.59544 262
58.61555 256
58.63566 273
58.65578 278
58.67589 289
58.69601 244
58.71612 264
58.73623 288
58.75635 303
58.77646 280
58.79657 255
58.81669 282
58.8368 271
58.85691 324
58.87703 262
58.89714 291
58.91726 287
58.93737 247
58.95748 283
58.9776 276
58.99771 264
59.01782 267
59.03794 284
59.05805 293
59.07817 253
59.09828 277
59.11839 289
59.13851 283
59.15862 296
59.17873 307
59.19885 255
59.21896 312
59.23908 322
59.25919 289
59.2793 294
59.29942 290
59.31953 306
59.33964 290
59.35976 317
59.37987 304
59.39998 298
59.4201 298
59.44021 354
59.46033 330
59.48044 366
59.50055 344
59.52067 392
59.54078 388
59.56089 399
59.58101 423
59.60112 436
59.62124 473
59.64135 478
59.66146 506
59.68158 605
59.70169 678
59.7218 714
59.74192 795
59.76203 875
59.78215 1059
59.80226 1150
59.82237 1356
59.84249 1440
59.8626 1503
59.88271 1570
59.90283 1510
59.92294 1299
59.94305 1238
59.96317 1146
59.98328 1041
60.0034 982
60.02351 975
60.04362 891
60.06374 945
60.08385 831
60.10396 712
60.12408 605
60.14419 483
60.16431 427
60.18442 355
60.20453 363
60.22465 378
60.24476 348
60.26487 316
60.28499 327
60.3051 292
60.32522 310
60.34533 298
60.36544 320
60.38556 288
60.40567 310
60.42578 335
60.4459 268
60.46601 268
60.48612 295
60.50624 264
60.52635 285
60.54647 253
60.56658 274
60.58669 266
60.60681 270
60.62692 262
60.64703 254
60.66715 286
60.68726 284
60.70738 285
60.72749 281
60.7476 253
60.76772 268
60.78783 274
60.80794 279
60.82806 264
60.84817 295
60.86828 256
60.8884 259
60.90851 273
60.92863 268
60.94874 269
60.96885 242
60.98897 265
61.00908 294
61.02919 252
61.04931 251
61.06942 272
61.08954 269
61.10965 261
61.12976 273
61.14988 247
61.16999 269
61.1901 262
61.21022 272
61.23033 271
61.25045 277
61.27056 302
61.29067 267
61.31079 249
61.3309 274
61.35101 275
61.37113 296
61.39124 254
61.41135 251
61.43147 271
61.45158 285
61.4717 269
61.49181 238
61.51192 293
61.53204 278
61.55215 267
61.57226 240
61.59238 278
61.61249 283
61.63261 291
61.65272 302
61.67283 314
61.69295 282
61.71306 309
61.73317 336
61.75329 289
61.7734 296
61.79352 327
61.81363 322
61.83374 302
61.85386 342
61.87397 282
61.89408 294
61.9142 331
61.93431 327
61.95442 325
61.97454 347
61.99465 327
62.01477 344
62.03488 385
62.05499 389
62.07511 351
62.09522 379
62.11533 399
62.13545 428
62.15556 410
62.17568 407
62.19579 428
62.2159 446
62.23602 404
62.25613 417
62.27624 390
62.29636 399
62.31647 412
62.33659 399
62.3567 382
62.37681 431
62.39693 379
62.41704 400
62.43715 373
62.45727 346
62.47738 323
62.49749 350
62.51761 324
62.53772 319
62.55784 338
62.57795 323
62.59806 327
62.61818 301
62.63829 291
62.6584 301
62.67852 289
62.69863 272
62.71875 298
62.73886 300
62.75897 309
62.77909 286
62.7992 263
62.81931 325
62.83943 270
62.85954 282
62.87965 290
62.89977 281
62.91988 314
62.94 273
62.96011 290
62.98022 233
63.00034 287
63.02045 283
63.04056 269
63.06068 263
63.08079 285
63.10091 284
63.12102 309
63.14113 263
63.16125 285
63.18136 288
63.20147 300
63.22159 290
63.2417 281
63.26182 279
63.28193 297
63.30204 273
63.32216 324
63.34227 290
63.36238 319
63.3825 291
63.40261 283
63.42272 269
63.44284 299
63.46295 299
63.48307 312
63.50318 309
63.52329 254
63.54341 293
63.56352 288
63.58363 301
63.60375 319
63.62386 312
63.64398 296
63.66409 308
63.6842 299
63.70432 343
63.72443 315
63.74454 336
63.76466 342
63.78477 360
63.80489 369
63.825 425
63.84511 404
63.86523 465
63.88534 456
63.90545 474
63.92557 501
63.94568 535
63.96579 517
63.98591 504
64.00602 486
64.02614 496
64.04625 463
64.06636 425
64.08648 415
64.10659 435
64.1267 376
64.14682 392
64.16693 417
64.18705 357
64.20716 317
64.22727 307
64.24739 309
64.2675 282
64.28761 276
64.30773 277
64.32784 292
64.34796 288
64.36807 242
64.38818 287
64.4083 280
64.42841 306
64.44852 264
64.46864 274
64.48875 308
64.50886 259
64.52898 274
64.54909 245
64.56921 274
64.58932 267
64.60943 272
64.62955 293
64.64966 264
64.66977 328
64.68989 261
64.71 282
64.73012 264
64.75023 281
64.77034 267
64.79046 274
64.81057 262
64.83068 277
64.8508 261
64.87091 248
64.89102 244
64.91114 246
64.93125 280
64.95137 255
64.97148 261
64.99159 256
65.01171 264
65.03182 299
65.05193 249
65.07205 283
65.09216 234
65.11228 268
65.13239 260
65.1525 260
65.17262 229
65.19273 259
65.21284 256
65.23296 252
65.25307 289
65.27319 264
65.2933 251
65.31341 225
65.33353 250
65.35364 269
65.37375 242
65.39387 265
65.41398 259
65.43409 265
65.45421 286
65.47432 271
65.49444 256
65.51455 267
65.53466 285
65.55478 274
65.57489 284
65.595 301
65.61512 301
65.63523 293
65.65535 286
65.67546 330
65.69557 321
65.71569 323
65.7358 331
65.75591 324
65.77603 291
65.79614 307
65.81626 304
65.83637 291
65.85648 287
65.8766 287
65.89671 307
65.91682 261
65.93694 235
65.95705 270
65.97716 257
65.99728 262
66.01739 271
66.03751 271
66.05762 254
66.07773 250
66.09785 269
66.11796 261
66.13807 293
66.15819 252
66.1783 256
66.19842 273
66.21853 264
66.23864 307
66.25876 253
66.27887 259
66.29898 260
66.3191 284
66.33921 271
66.35933 256
66.37944 250
66.39955 230
66.41967 262
66.43978 262
66.45989 285
66.48001 264
66.50012 278
66.52023 286
66.54035 275
66.56046 273
66.58058 267
66.60069 273
66.6208 277
66.64092 273
66.66103 281
66.68114 242
66.70126 277
66.72137 265
66.74149 258
66.7616 284
66.78171 275
66.80183 248
66.82194 278
66.84205 271
66.86217 281
66.88228 263
66.90239 269
66.92251 252
66.94262 266
66.96274 231
66.98285 293
67.00296 281
67.02308 291
67.04319 292
67.0633 281
67.08342 258
67.10353 264
67.12365 312
67.14376 291
67.16387 264
67.18399 287
67.2041 303
67.22421 285
67.24433 323
67.26444 310
67.28456 336
67.30467 323
67.32478 296
67.3449 344
67.36501 368
67.38512 360
67.40524 393
67.42535 386
67.44546 402
67.46558 459
67.48569 492
67.50581 552
67.52592 579
67.54603 674
67.56615 804
67.58626 818
67.60637 893
67.62649 985
67.6466 1050
67.66672 1039
67.68683 953
67.70694 989
67.72706 856
67.74717 814
67.76728 759
67.7874 753
67.80751 796
67.82763 794
67.84774 815
67.86785 882
67.88797 873
67.90808 867
67.92819 860
67.94831 884
67.96842 977
67.98853 1054
68.00865 1164
68.02876 1238
68.04888 1337
68.06899 1385
68.0891 1328
68.10922 1278
68.12933 1192
68.14944 1159
68.16956 1143
68.18967 1170
68.20979 1224
68.2299 1261
68.25001 1232
68.27013 1123
68.29024 1061
68.31035 927
68.33047 786
68.35058 710
68.3707 603
68.39081 620
68.41092 626
68.43104 605
68.45115 514
68.47126 506
68.49138 406
68.51149 384
68.5316 376
68.55172 363
68.57183 329
68.59195 323
68.61206 290
68.63217 309
68.65229 308
68.6724 300
68.69251 300
68.71263 273
68.73274 273
68.75286 298
68.77297 271
68.79308 301
68.8132 304
68.83331 288
68.85342 283
68.87354 294
68.89365 282
68.91376 236
68.93388 269
68.95399 269
68.97411 277
68.99422 262
69.01433 259
69.03445 273
69.05456 272
69.07467 239
69.09479 262
69.1149 250
69.13502 269
69.15513 269
69.17524 236
69.19536 271
69.21547 270
69.23558 240
69.2557 240
69.27581 262
69.29593 245
69.31604 215
69.33615 272
69.35627 257
69.37638 294
69.39649 288
69.41661 275
69.43672 262
69.45683 215
69.47695 256
69.49706 262
69.51718 253
69.53729 265
69.5574 255
69.57752 259
69.59763 277
69.61774 266
69.63786 276
69.65797 258
69.67809 250
69.6982 273
69.71831 280
69.73843 275
69.75854 277
69.77865 234
69.79877 264
69.81888 260
69.839 272
69.85911 281
69.87922 245
69.89934 271
69.91945 253
69.93956 297
69.95968 262
69.97979 292
69.9999 246
70.02002 258
70.04013 244
70.06025 274
70.08036 234
70.10047 258
70.12059 246
70.1407 259
70.16081 271
70.18093 236
70.20104 261
70.22116 242
70.24127 234
70.26138 253
70.2815 268
70.30161 285
70.32172 248
70.34184 254
70.36195 249
70.38207 292
70.40218 266
70.42229 240
70.44241 256
70.46252 261
70.48263 242
70.50275 244
70.52286 264
70.54297 272
70.56309 234
70.5832 246
70.60332 234
70.62343 241
70.64354 247
70.66366 260
70.68377 249
70.70388 281
70.724 251
70.74411 256
70.76423 236
70.78434 270
70.80445 288
70.82457 257
70.84468 228
70.86479 242
70.88491 251
70.90502 218
70.92513 263
70.94525 252
70.96536 231
70.98548 247
71.00559 260
71.0257 264
71.04582 244
71.06593 234
71.08604 274
71.10616 245
71.12627 229
71.14639 240
71.1665 224
71.18661 236
71.20673 227
71.22684 251
71.24695 238
71.26707 241
71.28718 219
71.3073 223
71.32741 254
71.34752 218
71.36764 231
71.38775 209
71.40786 226
71.42798 253
71.44809 264
71.4682 238
71.48832 245
71.50843 237
71.52855 225
71.54866 264
71.56877 248
71.58889 248
71.609 258
71.62911 233
71.64923 244
71.66934 248
71.68946 251
71.70957 224
71.72968 226
71.7498 233
71.76991 273
71.79002 243
71.81014 271
71.83025 271
71.85037 288
71.87048 240
71.89059 245
71.91071 261
71.93082 237
71.95093 244
71.97105 266
71.99116 238
72.01127 241
72.03139 282
72.0515 248
72.07162 253
72.09173 261
72.11184 259
72.13196 265
72.15207 254
72.17218 267
72.1923 268
72.21241 263
72.23253 275
72.25264 254
72.27275 297
72.29287 268
72.31298 243
72.33309 265
72.35321 273
72.37332 261
72.39344 230
72.41355 244
72.43366 258
72.45378 251
72.47389 251
72.494 239
72.51412 242
72.53423 262
72.55434 242
72.57446 257
72.59457 247
72.61469 250
72.6348 266
72.65491 265
72.67503 230
72.69514 239
72.71525 265
72.73537 243
72.75548 233
72.7756 218
72.79571 275
72.81582 280
72.83594 258
72.85605 237
72.87616 240
72.89628 260
72.91639 257
72.9365 246
72.95662 292
72.97673 241
72.99685 261
73.01696 265
73.03707 280
73.05719 286
73.0773 274
73.09741 288
73.11753 298
73.13764 283
73.15776 313
73.17787 340
73.19798 319
73.2181 346
73.23821 335
73.25832 391
73.27844 391
73.29855 447
73.31867 460
73.33878 503
73.35889 473
73.37901 515
73.39912 500
73.41923 460
73.43935 468
73.45946 451
73.47957 399
73.49969 384
73.5198 395
73.53992 372
73.56003 368
73.58014 419
73.60026 383
73.62037 380
73.64048 386
73.6606 345
73.68071 310
73.70083 330
73.72094 288
73.74105 285
73.76117 274
73.78128 268
73.80139 257
73.82151 252
73.84162 253
73.86174 256
73.88185 288
73.90196 257
73.92208 239
73.94219 237
73.9623 265
73.98242 222
74.00253 243
74.02264 270
74.04276 231
74.06287 233
74.08299 234
74.1031 223
74.12321 270
74.14333 246
74.16344 256
74.18355 260
74.20367 245
74.22378 253
74.2439 235
74.26401 244
74.28412 231
74.30424 255
74.32435 222
74.34446 235
74.36458 228
74.38469 240
74.40481 254
74.42492 263
74.44503 267
74.46515 244
74.48526 264
74.50537 231
74.52549 230
74.5456 248
74.56571 228
74.58583 236
74.60594 262
74.62606 243
74.64617 259
74.66628 257
74.6864 214
74.70651 228
74.72662 247
74.74674 265
74.76685 247
74.78697 243
74.80708 256
74.82719 254
74.84731 246
74.86742 245
74.88753 272
74.90765 269
74.92776 233
74.94787 236
74.96799 258
74.9881 251
75.00822 228
