3.00117 21077
3.02128 20428
3.0414 19708
3.06151 19779
3.08162 18897
3.10174 18496
3.12185 17965
3.14197 17241
3.16208 16914
3.18219 16320
3.20231 16154
3.22242 15623
3.24253 14888
3.26265 14711
3.28276 13965
3.30288 13654
3.32299 13096
3.3431 12784
3.36322 12510
3.38333 12029
3.40344 11796
3.42356 11044
3.44367 10640
3.46379 10774
3.4839 9878
3.50401 9916
3.52413 9428
3.54424 9184
3.56435 8838
3.58447 8448
3.60458 8277
3.62469 7835
3.64481 7419
3.66492 7292
3.68504 6982
3.70515 6633
3.72526 6603
3.74538 6047
3.76549 6095
3.7856 5698
3.80572 5404
3.82583 5223
3.84595 4933
3.86606 4803
3.88617 4743
3.90629 4379
3.9264 4252
3.94651 3944
3.96663 3994
3.98674 3689
4.00686 3582
4.02697 3336
4.04708 3087
4.0672 3167
4.08731 2857
4.10742 2797
4.12754 2694
4.14765 2473
4.16776 2413
4.18788 2444
4.20799 2245
4.22811 2159
4.24822 2132
4.26833 2030
4.28845 1908
4.30856 1851
4.32867 1825
4.34879 1517
4.3689 1703
4.38902 1616
4.40913 1609
4.42924 1471
4.44936 1488
4.46947 1442
4.48958 1512
4.5097 1325
4.52981 1252
4.54992 1246
4.57004 1298
4.59015 1241
4.61027 1134
4.63038 1135
4.65049 1159
4.67061 1065
4.69072 1189
4.71083 1027
4.73095 1011
4.75106 1033
4.77118 989
4.79129 977
4.8114 876
4.83152 843
4.85163 879
4.87174 846
4.89186 855
4.91197 782
4.93209 837
4.9522 778
4.97231 783
4.99243 772
5.01254 695
5.03265 652
5.05277 692
5.07288 651
5.09299 709
5.11311 596
5.13322 621
5.15334 658
5.17345 559
5.19356 566
5.21368 572
5.23379 545
5.2539 511
5.27402 556
5.29413 535
5.31425 493
5.33436 496
5.35447 512
5.37459 477
5.3947 462
5.41481 401
5.43493 460
5.45504 432
5.47516 470
5.49527 414
5.51538 433
5.5355 429
5.55561 399
5.57572 368
5.59584 403
5.61595 343
5.63606 362
5.65618 343
5.67629 323
5.69641 354
5.71652 295
5.73663 329
5.75675 366
5.77686 340
5.79697 273
5.81709 302
5.8372 291
5.85732 306
5.87743 294
5.89754 263
5.91766 274
5.93777 300
5.95788 311
5.978 294
5.99811 286
6.01823 285
6.03834 267
6.05845 263
6.07857 279
6.09868 283
6.11879 273
6.13891 255
6.15902 276
6.17913 246
6.19925 260
6.21936 242
6.23948 245
6.25959 243
6.2797 252
6.29982 240
6.31993 257
6.34004 288
6.36016 258
6.38027 231
6.40039 240
6.4205 212
6.44061 276
6.46073 260
6.48084 227
6.50095 218
6.52107 210
6.54118 254
6.56129 237
6.58141 212
6.60152 246
6.62164 233
6.64175 271
6.66186 240
6.68198 251
6.70209 233
6.7222 216
6.74232 211
6.76243 246
6.78255 259
6.80266 207
6.82277 236
6.84289 217
6.863 238
6.88311 234
6.90323 203
6.92334 215
6.94346 249
6.96357 230
6.98368 240
7.0038 232
7.02391 238
7.04402 238
7.06414 235
7.08425 243
7.10436 234
7.12448 231
7.14459 242
7.16471 213
7.18482 252
7.20493 242
7.22505 201
7.24516 245
7.26527 226
7.28539 233
7.3055 229
7.32562 244
7.34573 261
7.36584 226
7.38596 247
7.40607 218
7.42618 203
7.4463 241
7.46641 224
7.48653 233
7.50664 246
7.52675 222
7.54687 240
7.56698 231
7.58709 261
7.60721 268
7.62732 260
7.64743 234
7.66755 236
7.68766 228
7.70778 255
7.72789 224
7.748 271
7.76812 244
7.78823 263
7.80834 234
7.82846 251
7.84857 225
7.86869 224
7.8888 245
7.90891 219
7.92903 265
7.94914 213
7.96925 238
7.98937 229
8.00948 232
8.0296 237
8.04971 252
8.06982 236
8.08994 242
8.11005 253
8.13016 233
8.15028 228
8.17039 232
8.1905 263
8.21062 245
8.23073 250
8.25085 265
8.27096 234
8.29107 241
8.31119 259
8.3313 202
8.35141 269
8.37153 215
8.39164 296
8.41176 219
8.43187 257
8.45198 272
8.4721 267
8.49221 242
8.51232 275
8.53244 258
8.55255 243
8.57266 261
8.59278 276
8.61289 254
8.63301 245
8.65312 268
8.67323 258
8.69335 261
8.71346 253
8.73357 262
8.75369 279
8.7738 253
8.79392 237
8.81403 253
8.83414 277
8.85426 271
8.87437 235
8.89448 266
8.9146 244
8.93471 242
8.95483 288
8.97494 252
8.99505 252
9.01517 254
9.03528 282
9.05539 231
9.07551 279
9.09562 272
9.11573 284
9.13585 256
9.15596 243
9.17608 269
9.19619 247
9.2163 228
9.23642 234
9.25653 208
9.27664 216
9.29676 274
9.31687 256
9.33699 234
9.3571 233
9.37721 239
9.39733 279
9.41744 278
9.43755 257
9.45767 245
9.47778 283
9.4979 268
9.51801 263
9.53812 262
9.55824 271
9.57835 266
9.59846 262
9.61858 243
9.63869 271
9.6588 257
9.67892 261
9.69903 259
9.71915 251
9.73926 266
9.75937 239
9.77949 267
9.7996 252
9.81971 251
9.83983 281
9.85994 244
9.88006 245
9.90017 278
9.92028 274
9.9404 260
9.96051 236
9.98062 262
10.00074 243
10.02085 242
10.04097 260
10.06108 209
10.08119 254
10.10131 246
10.12142 284
10.14153 263
10.16165 264
10.18176 250
10.20187 250
10.22199 267
10.2421 281
10.26222 259
10.28233 237
10.30244 250
10.32256 259
10.34267 238
10.36278 290
10.3829 279
10.40301 253
10.42313 240
10.44324 253
10.46335 242
10.48347 251
10.50358 270
10.52369 243
10.54381 255
10.56392 248
10.58403 269
10.60415 250
10.62426 247
10.64438 270
10.66449 263
10.6846 276
10.70472 271
10.72483 278
10.74494 277
10.76506 241
10.78517 281
10.80529 275
10.8254 270
10.84551 271
10.86563 269
10.88574 253
10.90585 278
10.92597 257
10.94608 270
10.9662 269
10.98631 270
11.00642 253
11.02654 244
11.04665 267
11.06676 252
11.08688 238
11.10699 247
11.1271 258
11.14722 251
11.16733 242
11.18745 271
11.20756 268
11.22767 253
11.24779 283
11.2679 295
11.28801 261
11.30813 239
11.32824 274
11.34836 252
11.36847 276
11.38858 278
11.4087 271
11.42881 273
11.44892 269
11.46904 257
11.48915 272
11.50927 247
11.52938 271
11.54949 251
11.56961 266
11.58972 277
11.60983 262
11.62995 270
11.65006 254
11.67017 252
11.69029 276
11.7104 262
11.73052 251
11.75063 248
11.77074 262
11.79086 283
11.81097 269
11.83108 292
11.8512 302
11.87131 324
11.89143 301
11.91154 309
11.93165 297
11.95177 260
11.97188 309
11.99199 302
12.01211 273
12.03222 320
12.05234 311
12.07245 334
12.09256 311
12.11268 319
12.13279 349
12.1529 324
12.17302 378
12.19313 350
12.21324 371
12.23336 382
12.25347 382
12.27359 385
12.2937 377
12.31381 367
12.33393 392
12.35404 387
12.37415 387
12.39427 384
12.41438 346
12.4345 374
12.45461 349
12.47472 364
12.49484 331
12.51495 279
12.53506 309
12.55518 286
12.57529 292
12.5954 288
12.61552 291
12.63563 244
12.65575 236
12.67586 284
12.69597 278
12.71609 313
12.7362 280
12.75631 289
12.77643 281
12.79654 244
12.81666 263
12.83677 276
12.85688 216
12.877 268
12.89711 239
12.91722 241
12.93734 224
12.95745 264
12.97757 241
12.99768 239
13.01779 253
13.03791 262
13.05802 289
13.07813 277
13.09825 283
13.11836 259
13.13847 273
13.15859 255
13.1787 274
13.19882 256
13.21893 279
13.23904 284
13.25916 262
13.27927 221
13.29938 278
13.3195 262
13.33961 247
13.35973 274
13.37984 263
13.39995 258
13.42007 257
13.44018 253
13.46029 278
13.48041 275
13.50052 272
13.52064 283
13.54075 248
13.56086 274
13.58098 319
13.60109 305
13.6212 339
13.64132 350
13.66143 337
13.68154 296
13.70166 287
13.72177 289
13.74189 259
13.762 281
13.78211 260
13.80223 250
13.82234 248
13.84245 264
13.86257 257
13.88268 231
13.9028 233
13.92291 234
13.94302 237
13.96314 244
13.98325 234
14.00336 238
14.02348 232
14.04359 252
14.06371 254
14.08382 256
14.10393 237
14.12405 242
14.14416 210
14.16427 212
14.18439 210
14.2045 241
14.22461 253
14.24473 258
14.26484 237
14.28496 237
14.30507 225
14.32518 267
14.3453 213
14.36541 212
14.38552 236
14.40564 245
14.42575 240
14.44587 263
14.46598 219
14.48609 215
14.50621 228
14.52632 255
14.54643 225
14.56655 243
14.58666 225
14.60677 249
14.62689 244
14.647 222
14.66712 228
14.68723 231
14.70734 238
14.72746 223
14.74757 229
14.76768 216
14.7878 239
14.80791 224
14.82803 226
14.84814 262
14.86825 277
14.88837 241
14.90848 266
14.92859 281
14.94871 307
14.96882 267
14.98894 269
15.00905 252
15.02916 285
15.04928 266
15.06939 255
15.0895 248
15.10962 228
15.12973 277
15.14984 253
15.16996 247
15.19007 275
15.21019 255
15.2303 278
15.25041 240
15.27053 262
15.29064 259
15.31075 267
15.33087 228
15.35098 234
15.3711 211
15.39121 234
15.41132 228
15.43144 205
15.45155 256
15.47166 247
15.49178 223
15.51189 194
15.53201 246
15.55212 225
15.57223 247
15.59235 224
15.61246 241
15.63257 205
15.65269 197
15.6728 223
15.69291 220
15.71303 244
15.73314 216
15.75326 252
15.77337 207
15.79348 228
15.8136 218
15.83371 204
15.85382 209
15.87394 199
15.89405 226
15.91417 223
15.93428 210
15.95439 225
15.97451 224
15.99462 212
16.01473 250
16.03485 220
16.05496 215
16.07508 209
16.09519 202
16.1153 198
16.13542 218
16.15553 231
16.17564 229
16.19576 228
16.21587 208
16.23598 193
16.2561 254
16.27621 222
16.29633 214
16.31644 220
16.33655 216
16.35667 228
16.37678 246
16.39689 207
16.41701 187
16.43712 204
16.45724 222
16.47735 235
16.49746 250
16.51758 194
16.53769 223
16.5578 195
16.57792 168
16.59803 215
16.61814 245
16.63826 232
16.65837 198
16.67849 202
16.6986 217
16.71871 201
16.73883 196
16.75894 218
16.77905 210
16.79917 212
16.81928 202
16.8394 218
16.85951 209
16.87962 236
16.89974 229
16.91985 232
16.93996 232
16.96008 210
16.98019 223
17.00031 197
17.02042 197
17.04053 224
17.06065 226
17.08076 221
17.10087 209
17.12099 215
17.1411 213
17.16121 211
17.18133 223
17.20144 248
17.22156 231
17.24167 185
17.26178 214
17.2819 204
17.30201 230
17.32212 218
17.34224 195
17.36235 227
17.38247 198
17.40258 199
17.42269 221
17.44281 219
17.46292 202
17.48303 205
17.50315 207
17.52326 239
17.54338 237
17.56349 226
17.5836 206
17.60372 202
17.62383 204
17.64394 218
17.66406 217
17.68417 224
17.70428 219
17.7244 218
17.74451 240
17.76463 197
17.78474 213
17.80485 233
17.82497 255
17.84508 230
17.86519 208
17.88531 230
17.90542 227
17.92554 232
17.94565 237
17.96576 215
17.98588 192
18.00599 246
18.0261 260
18.04622 205
18.06633 216
18.08645 246
18.10656 226
18.12667 237
18.14679 245
18.1669 178
18.18701 236
18.20713 193
18.22724 231
18.24735 236
18.26747 211
18.28758 198
18.3077 230
18.32781 241
18.34792 207
18.36804 252
18.38815 215
18.40826 236
18.42838 223
18.44849 227
18.46861 213
18.48872 221
18.50883 237
18.52895 193
18.54906 215
18.56917 223
18.58929 223
18.6094 223
18.62951 198
18.64963 203
18.66974 208
18.68986 191
18.70997 226
18.73008 236
18.7502 230
18.77031 202
18.79042 223
18.81054 254
18.83065 229
18.85077 238
18.87088 220
18.89099 200
18.91111 191
18.93122 249
18.95133 224
18.97145 244
18.99156 234
19.01168 240
19.03179 218
19.0519 214
19.07202 222
19.09213 224
19.11224 270
19.13236 225
19.15247 221
19.17258 238
19.1927 223
19.21281 259
19.23293 258
19.25304 274
19.27315 247
19.29327 232
19.31338 242
19.33349 245
19.35361 261
19.37372 215
19.39384 203
19.41395 219
19.43406 264
19.45418 220
19.47429 246
19.4944 244
19.51452 248
19.53463 234
19.55475 248
19.57486 257
19.59497 280
19.61509 252
19.6352 249
19.65531 268
19.67543 270
19.69554 309
19.71565 280
19.73577 310
19.75588 308
19.776 299
19.79611 305
19.81622 341
19.83634 354
19.85645 344
19.87656 372
19.89668 388
19.91679 398
19.93691 391
19.95702 336
19.97713 426
19.99725 414
20.01736 393
20.03747 416
20.05759 377
20.0777 353
20.09782 379
20.11793 350
20.13804 359
20.15816 375
20.17827 349
20.19838 356
20.2185 364
20.23861 363
20.25872 358
20.27884 351
20.29895 338
20.31907 377
20.33918 350
20.35929 379
20.37941 394
20.39952 393
20.41963 402
20.43975 399
20.45986 421
20.47998 415
20.50009 409
20.5202 442
20.54032 415
20.56043 451
20.58054 469
20.60066 500
20.62077 589
20.64088 601
20.661 781
20.68111 974
20.70123 1195
20.72134 1549
20.74145 1870
20.76157 2498
20.78168 3132
20.80179 3946
20.82191 4447
20.84202 4692
20.86214 4426
20.88225 3577
20.90236 2798
20.92248 2033
20.94259 1592
20.9627 1239
20.98282 1191
21.00293 1056
21.02305 1028
21.04316 881
21.06327 825
21.08339 665
21.1035 574
21.12361 530
21.14373 449
21.16384 481
21.18395 464
21.20407 428
21.22418 432
21.2443 380
21.26441 419
21.28452 379
21.30464 385
21.32475 402
21.34486 368
21.36498 422
21.38509 385
21.40521 373
21.42532 357
21.44543 366
21.46555 383
21.48566 365
21.50577 385
21.52589 313
21.546 353
21.56612 273
21.58623 343
21.60634 336
21.62646 345
21.64657 330
21.66668 323
21.6868 317
21.70691 312
21.72702 312
21.74714 305
21.76725 301
21.78737 301
21.80748 312
21.82759 328
21.84771 302
21.86782 318
21.88793 310
21.90805 359
21.92816 324
21.94828 386
21.96839 339
21.9885 316
22.00862 347
22.02873 300
22.04884 322
22.06896 348
22.08907 302
22.10919 312
22.1293 292
22.14941 323
22.16953 368
22.18964 344
22.20975 313
22.22987 335
22.24998 390
22.27009 381
22.29021 399
22.31032 376
22.33044 404
22.35055 388
22.37066 366
22.39078 388
22.41089 370
22.431 366
22.45112 364
22.47123 343
22.49135 334
22.51146 321
22.53157 374
22.55169 317
22.5718 373
22.59191 335
22.61203 336
22.63214 356
22.65225 302
22.67237 325
22.69248 324
22.7126 276
22.73271 298
22.75282 299
22.77294 318
22.79305 253
22.81316 299
22.83328 276
22.85339 295
22.87351 272
22.89362 323
22.91373 307
22.93385 293
22.95396 291
22.97407 332
22.99419 339
23.0143 381
23.03442 370
23.05453 388
23.07464 383
23.09476 427
23.11487 391
23.13498 472
23.1551 456
23.17521 463
23.19532 458
23.21544 483
23.23555 465
23.25567 457
23.27578 374
23.29589 415
23.31601 422
23.33612 395
23.35623 406
23.37635 395
23.39646 416
23.41658 413
23.43669 418
23.4568 398
23.47692 389
23.49703 362
23.51714 414
23.53726 420
23.55737 421
23.57749 394
23.5976 393
23.61771 419
23.63783 358
23.65794 395
23.67805 386
23.69817 386
23.71828 425
23.73839 421
23.75851 438
23.77862 434
23.79874 474
23.81885 490
23.83896 435
23.85908 433
23.87919 432
23.8993 459
23.91942 411
23.93953 467
23.95965 518
23.97976 500
23.99987 506
24.01999 463
24.0401 402
24.06021 366
24.08033 350
24.10044 369
24.12056 346
24.14067 299
24.16078 320
24.1809 315
24.20101 304
24.22112 372
24.24124 373
24.26135 351
24.28146 380
24.30158 345
24.32169 363
24.34181 377
24.36192 371
24.38203 352
24.40215 379
24.42226 357
24.44237 367
24.46249 359
24.4826 370
24.50272 378
24.52283 322
24.54294 345
24.56306 367
24.58317 345
24.60328 383
24.6234 362
24.64351 413
24.66362 394
24.68374 412
24.70385 442
24.72397 407
24.74408 417
24.76419 396
24.78431 430
24.80442 419
24.82453 429
24.84465 436
24.86476 469
24.88488 390
24.90499 388
24.9251 418
24.94522 385
24.96533 370
24.98544 372
25.00556 354
25.02567 369
25.04579 341
25.0659 387
25.08601 357
25.10613 355
25.12624 351
25.14635 314
25.16647 373
25.18658 358
25.20669 377
25.22681 350
25.24692 412
25.26704 415
25.28715 404
25.30726 400
25.32738 394
25.34749 391
25.3676 407
25.38772 401
25.40783 464
25.42795 494
25.44806 496
25.46817 559
25.48829 630
25.5084 635
25.52851 672
25.54863 766
25.56874 739
25.58886 745
25.60897 700
25.62908 693
25.6492 662
25.66931 602
25.68942 548
25.70954 544
25.72965 545
25.74976 437
25.76988 457
25.78999 426
25.81011 400
25.83022 372
25.85033 433
25.87045 420
25.89056 447
25.91067 397
25.93079 504
25.9509 412
25.97102 440
25.99113 453
26.01124 443
26.03136 462
26.05147 508
26.07158 468
26.0917 536
26.11181 539
26.13193 553
26.15204 627
26.17215 622
26.19227 623
26.21238 721
26.23249 776
26.25261 816
26.27272 917
26.29283 1028
26.31295 1077
26.33306 1272
26.35318 1475
26.37329 1684
26.3934 2081
26.41352 2514
26.43363 3137
26.45374 3940
26.47386 5223
26.49397 6627
26.51409 8740
26.5342 11424
26.55431 14257
26.57443 17095
26.59454 19375
26.61465 20679
26.63477 19205
26.65488 15761
26.67499 12242
26.69511 9058
26.71522 6272
26.73534 3943
26.75545 2313
26.77556 1685
26.79568 1432
26.81579 1239
26.8359 1177
26.85602 1107
26.87613 1173
26.89625 1121
26.91636 1137
26.93647 1108
26.95659 1130
26.9767 1189
26.99681 1201
27.01693 1214
27.03704 1178
27.05716 1195
27.07727 1104
27.09738 930
27.1175 826
27.13761 797
27.15772 761
27.17784 692
27.19795 682
27.21806 686
27.23818 691
27.25829 742
27.27841 773
27.29852 886
27.31863 889
27.33875 1044
27.35886 1150
27.37897 1299
27.39909 1463
27.4192 1603
27.43932 1603
27.45943 1526
27.47954 1261
27.49966 1201
27.51977 1087
27.53988 955
27.56 783
27.58011 643
27.60023 477
27.62034 493
27.64045 415
27.66057 378
27.68068 388
27.70079 429
27.72091 392
27.74102 410
27.76113 396
27.78125 397
27.80136 371
27.82148 349
27.84159 356
27.8617 358
27.88182 369
27.90193 368
27.92204 401
27.94216 338
27.96227 377
27.98239 346
28.0025 306
28.02261 347
28.04273 304
28.06284 291
28.08295 330
28.10307 304
28.12318 275
28.1433 319
28.16341 299
28.18352 338
28.20364 324
28.22375 297
28.24386 317
28.26398 256
28.28409 292
28.3042 291
28.32432 296
28.34443 315
28.36455 292
28.38466 279
28.40477 317
28.42489 295
28.445 276
28.46511 304
28.48523 282
28.50534 299
28.52546 262
28.54557 265
28.56568 301
28.5858 304
28.60591 287
28.62602 267
28.64614 273
28.66625 263
28.68636 286
28.70648 260
28.72659 261
28.74671 289
28.76682 259
28.78693 315
28.80705 269
28.82716 303
28.84727 262
28.86739 257
28.8875 257
28.90762 273
28.92773 270
28.94784 302
28.96796 266
28.98807 285
29.00818 282
29.0283 267
29.04841 267
29.06853 302
29.08864 298
29.10875 264
29.12887 262
29.14898 297
29.16909 286
29.18921 256
29.20932 282
29.22943 312
29.24955 317
29.26966 303
29.28978 299
29.30989 312
29.33 314
29.35012 362
29.37023 406
29.39034 334
29.41046 407
29.43057 399
29.45069 371
29.4708 388
29.49091 399
29.51103 363
29.53114 352
29.55125 390
29.57137 375
29.59148 362
29.6116 361
29.63171 322
29.65182 369
29.67194 359
29.69205 337
29.71216 377
29.73228 377
29.75239 345
29.7725 348
29.79262 361
29.81273 349
29.83285 376
29.85296 366
29.87307 396
29.89319 341
29.9133 388
29.93341 374
29.95353 358
29.97364 392
29.99376 365
30.01387 420
30.03398 410
30.0541 379
30.07421 414
30.09432 422
30.11444 432
30.13455 435
30.15467 387
30.17478 438
30.19489 425
30.21501 412
30.23512 390
30.25523 369
30.27535 350
30.29546 348
30.31557 370
30.33569 304
30.3558 315
30.37592 310
30.39603 321
30.41614 282
30.43626 318
30.45637 286
30.47648 304
30.4966 330
30.51671 344
30.53683 329
30.55694 330
30.57705 323
30.59717 344
30.61728 350
30.63739 375
30.65751 426
30.67762 446
30.69773 445
30.71785 486
30.73796 519
30.75808 548
30.77819 540
30.7983 503
30.81842 476
30.83853 462
30.85864 423
30.87876 386
30.89887 354
30.91899 327
30.9391 321
30.95921 267
30.97933 289
30.99944 276
31.01955 263
31.03967 268
31.05978 267
31.0799 237
31.10001 248
31.12012 275
31.14024 242
31.16035 248
31.18046 265
31.20058 232
31.22069 232
31.2408 273
31.26092 261
31.28103 253
31.30115 229
31.32126 199
31.34137 250
31.36149 256
31.3816 224
31.40171 246
31.42183 248
31.44194 250
31.46206 248
31.48217 241
31.50228 244
31.5224 228
31.54251 258
31.56262 243
31.58274 255
31.60285 245
31.62297 256
31.64308 247
31.66319 269
31.68331 261
31.70342 264
31.72353 252
31.74365 222
31.76376 233
31.78387 223
31.80399 242
31.8241 262
31.84422 247
31.86433 238
31.88444 250
31.90456 270
31.92467 262
31.94478 251
31.9649 252
31.98501 305
32.00513 284
32.02524 301
32.04535 264
32.06547 292
32.08558 266
32.10569 265
32.12581 302
32.14592 318
32.16604 311
32.18615 349
32.20626 318
32.22638 319
32.24649 323
32.2666 346
32.28672 312
32.30683 361
32.32694 362
32.34706 367
32.36717 381
32.38729 351
32.4074 403
32.42751 373
32.44763 394
32.46774 420
32.48785 343
32.50797 334
32.52808 318
32.5482 337
32.56831 336
32.58842 308
32.60854 261
32.62865 315
32.64876 263
32.66888 288
32.68899 262
32.7091 298
32.72922 246
32.74933 255
32.76945 248
32.78956 267
32.80967 277
32.82979 311
32.8499 291
32.87001 252
32.89013 279
32.91024 292
32.93036 271
32.95047 279
32.97058 244
32.9907 263
33.01081 236
33.03092 252
33.05104 290
33.07115 262
33.09127 261
33.11138 266
33.13149 276
33.15161 275
33.17172 294
33.19183 256
33.21195 270
33.23206 279
33.25217 255
33.27229 273
33.2924 274
33.31252 243
33.33263 272
33.35274 279
33.37286 251
33.39297 277
33.41308 222
33.4332 254
33.45331 266
33.47343 268
33.49354 232
33.51365 265
33.53377 234
33.55388 244
33.57399 225
33.59411 230
33.61422 267
33.63434 252
33.65445 242
33.67456 267
33.69468 247
33.71479 218
33.7349 250
33.75502 236
33.77513 271
33.79524 240
33.81536 250
33.83547 267
33.85559 270
33.8757 232
33.89581 230
33.91593 289
33.93604 212
33.95615 274
33.97627 289
33.99638 248
34.0165 280
34.03661 285
34.05672 291
34.07684 301
34.09695 337
34.11706 324
34.13718 358
34.15729 350
34.17741 359
34.19752 327
34.21763 326
34.23775 323
34.25786 327
34.27797 339
34.29809 343
34.3182 304
34.33831 337
34.35843 294
34.37854 329
34.39866 341
34.41877 376
34.43888 324
34.459 326
34.47911 351
34.49922 346
34.51934 332
34.53945 330
34.55957 353
34.57968 342
34.59979 317
34.61991 319
34.64002 328
34.66013 314
34.68025 333
34.70036 377
34.72047 309
34.74059 342
34.7607 314
34.78082 376
34.80093 369
34.82104 338
34.84116 403
34.86127 364
34.88138 416
34.9015 402
34.92161 387
34.94173 394
34.96184 387
34.98195 419
35.00207 408
35.02218 433
35.04229 420
35.06241 437
35.08252 421
35.10264 451
35.12275 414
35.14286 439
35.16298 422
35.18309 467
35.2032 421
35.22332 435
35.24343 404
35.26354 399
35.28366 388
35.30377 405
35.32389 383
35.344 385
35.36411 437
35.38423 377
35.40434 423
35.42445 422
35.44457 423
35.46468 471
35.4848 452
35.50491 472
35.52502 514
35.54514 437
35.56525 469
35.58536 426
35.60548 467
35.62559 418
35.64571 383
35.66582 392
35.68593 425
35.70605 376
35.72616 344
35.74627 364
35.76639 386
35.7865 352
35.80661 351
35.82673 351
35.84684 392
35.86696 341
35.88707 372
35.90718 368
35.9273 313
35.94741 369
35.96752 343
35.98764 301
36.00775 290
36.02787 312
36.04798 282
36.06809 315
36.08821 318
36.10832 330
36.12843 299
36.14855 287
36.16866 335
36.18878 334
36.20889 298
36.229 341
36.24912 360
36.26923 407
36.28934 411
36.30946 444
36.32957 473
36.34968 545
36.3698 637
36.38991 770
36.41003 863
36.43014 1008
36.45025 1258
36.47037 1366
36.49048 1458
36.51059 1557
36.53071 1430
36.55082 1257
36.57094 1039
36.59105 955
36.61116 880
36.63128 719
36.65139 638
36.6715 466
36.69162 389
36.71173 371
36.73184 353
36.75196 363
36.77207 329
36.79219 329
36.8123 360
36.83241 384
36.85253 379
36.87264 369
36.89275 355
36.91287 331
36.93298 337
36.9531 361
36.97321 352
36.99332 380
37.01344 363
37.03355 337
37.05366 338
37.07378 298
37.09389 305
37.11401 324
37.13412 294
37.15423 283
37.17435 287
37.19446 281
37.21457 277
37.23469 296
37.2548 288
37.27491 301
37.29503 256
37.31514 277
37.33526 268
37.35537 266
37.37548 316
37.3956 286
37.41571 286
37.43582 249
37.45594 253
37.47605 265
37.49617 241
37.51628 267
37.53639 308
37.55651 309
37.57662 266
37.59673 282
37.61685 298
37.63696 276
37.65708 258
37.67719 260
37.6973 283
37.71742 259
37.73753 283
37.75764 257
37.77776 258
37.79787 257
37.81798 283
37.8381 253
37.85821 263
37.87833 274
37.89844 262
37.91855 241
37.93867 277
37.95878 273
37.97889 242
37.99901 243
38.01912 284
38.03924 248
38.05935 271
38.07946 265
38.09958 305
38.11969 256
38.1398 284
38.15992 275
38.18003 259
38.20015 263
38.22026 329
38.24037 294
38.26049 281
38.2806 291
38.30071 289
38.32083 314
38.34094 332
38.36105 290
38.38117 320
38.40128 320
38.4214 319
38.44151 369
38.46162 335
38.48174 310
38.50185 321
38.52196 380
38.54208 333
38.56219 329
38.58231 296
38.60242 312
38.62253 314
38.64265 331
38.66276 278
38.68287 295
38.70299 272
38.7231 273
38.74321 243
38.76333 254
38.78344 269
38.80356 271
38.82367 277
38.84378 253
38.8639 273
38.88401 263
38.90412 260
38.92424 280
38.94435 269
38.96447 269
38.98458 278
39.00469 286
39.02481 304
39.04492 296
39.06503 287
39.08515 313
39.10526 286
39.12538 277
39.14549 331
39.1656 359
39.18572 389
39.20583 421
39.22594 456
39.24606 453
39.26617 546
39.28628 599
39.3064 683
39.32651 817
39.34663 989
39.36674 1100
39.38685 1220
39.40697 1390
39.42708 1410
39.44719 1332
39.46731 1203
39.48742 1005
39.50754 881
39.52765 791
39.54776 745
39.56788 614
39.58799 442
39.6081 363
39.62822 310
39.64833 278
39.66845 267
39.68856 274
39.70867 238
39.72879 255
39.7489 280
39.76901 245
39.78913 283
39.80924 313
39.82935 254
39.84947 273
39.86958 229
39.8897 274
39.90981 255
39.92992 244
39.95004 281
39.97015 258
39.99026 301
40.01038 318
40.03049 308
40.05061 330
40.07072 359
40.09083 391
40.11095 469
40.13106 510
40.15117 530
40.17129 607
40.1914 664
40.21152 764
40.23163 767
40.25174 857
40.27186 820
40.29197 713
40.31208 631
40.3322 586
40.35231 536
40.37242 489
40.39254 388
40.41265 389
40.43277 319
40.45288 304
40.47299 284
40.49311 287
40.51322 257
40.53333 251
40.55345 257
40.57356 290
40.59368 276
40.61379 238
40.6339 260
40.65402 251
40.67413 245
40.69424 267
40.71436 273
40.73447 247
40.75458 272
40.7747 236
40.79481 252
40.81493 272
40.83504 215
40.85515 212
40.87527 241
40.89538 238
40.91549 265
40.93561 250
40.95572 234
40.97584 240
40.99595 266
41.01606 253
41.03618 232
41.05629 289
41.0764 276
41.09652 272
41.11663 266
41.13675 237
41.15686 232
41.17697 282
41.19709 285
41.2172 271
41.23731 280
41.25743 269
41.27754 247
41.29765 274
41.31777 255
41.33788 253
41.358 270
41.37811 254
41.39822 286
41.41834 255
41.43845 245
41.45856 273
41.47868 263
41.49879 266
41.51891 276
41.53902 289
41.55913 303
41.57925 342
41.59936 329
41.61947 332
41.63959 343
41.6597 377
41.67982 413
41.69993 410
41.72004 448
41.74016 434
41.76027 465
41.78038 440
41.8005 456
41.82061 402
41.84072 406
41.86084 379
41.88095 378
41.90107 317
41.92118 338
41.94129 282
41.96141 298
41.98152 308
42.00163 277
42.02175 261
42.04186 284
42.06198 240
42.08209 280
42.1022 292
42.12232 279
42.14243 298
42.16254 329
42.18266 339
42.20277 346
42.22289 364
42.243 425
42.26311 488
42.28323 568
42.30334 560
42.32345 667
42.34357 810
42.36368 909
42.38379 978
42.40391 1086
42.42402 990
42.44414 1015
42.46425 803
42.48436 748
42.50448 644
42.52459 637
42.5447 589
42.56482 506
42.58493 389
42.60505 333
42.62516 302
42.64527 281
42.66539 264
42.6855 296
42.70561 264
42.72573 281
42.74584 307
42.76595 262
42.78607 275
42.80618 248
42.8263 279
42.84641 241
42.86652 262
42.88664 243
42.90675 249
42.92686 228
42.94698 241
42.96709 234
42.98721 237
43.00732 230
43.02743 244
43.04755 253
43.06766 246
43.08777 221
43.10789 227
43.128 217
43.14812 216
43.16823 227
43.18834 223
43.20846 218
43.22857 219
43.24868 238
43.2688 226
43.28891 187
43.30902 225
43.32914 213
43.34925 209
43.36937 223
43.38948 228
43.40959 224
43.42971 254
43.44982 226
43.46993 221
43.49005 242
43.51016 222
43.53028 273
43.55039 226
43.5705 237
43.59062 244
43.61073 236
43.63084 237
43.65096 218
43.67107 261
43.69119 265
43.7113 252
43.73141 239
43.75153 244
43.77164 220
43.79175 235
43.81187 228
43.83198 238
43.85209 219
43.87221 225
43.89232 264
43.91244 228
43.93255 218
43.95266 193
43.97278 233
43.99289 205
44.013 220
44.03312 234
44.05323 219
44.07335 262
44.09346 251
44.11357 260
44.13369 249
44.1538 215
44.17391 260
44.19403 258
44.21414 219
44.23426 248
44.25437 219
44.27448 225
44.2946 236
44.31471 222
44.33482 197
44.35494 227
44.37505 181
44.39516 214
44.41528 228
44.43539 227
44.45551 198
44.47562 238
44.49573 221
44.51585 213
44.53596 212
44.55607 237
44.57619 236
44.5963 214
44.61642 228
44.63653 203
44.65664 227
44.67676 233
44.69687 214
44.71698 214
44.7371 240
44.75721 204
44.77732 225
44.79744 216
44.81755 219
44.83767 223
44.85778 209
44.87789 201
44.89801 238
44.91812 241
44.93823 226
44.95835 223
44.97846 225
44.99858 233
45.01869 231
45.0388 244
45.05892 199
45.07903 228
45.09914 217
45.11926 227
45.13937 207
45.15949 226
45.1796 226
45.19971 221
45.21983 245
45.23994 231
45.26005 259
45.28017 272
45.30028 230
45.32039 274
45.34051 258
45.36062 287
45.38074 281
45.40085 325
45.42096 286
45.44108 272
45.46119 272
45.4813 291
45.50142 316
45.52153 330
45.54165 354
45.56176 379
45.58187 401
45.60199 456
45.6221 476
45.64221 520
45.66233 600
45.68244 636
45.70256 689
45.72267 819
45.74278 796
45.7629 786
45.78301 750
45.80312 673
45.82324 635
45.84335 507
45.86346 508
45.88358 453
45.90369 448
45.92381 380
45.94392 302
45.96403 305
45.98415 267
46.00426 268
46.02437 268
46.04449 240
46.0646 243
46.08472 262
46.10483 229
46.12494 289
46.14506 262
46.16517 207
46.18528 223
46.2054 267
46.22551 245
46.24563 239
46.26574 236
46.28585 241
46.30597 239
46.32608 215
46.34619 214
46.36631 248
46.38642 224
46.40653 215
46.42665 240
46.44676 223
46.46688 234
46.48699 210
46.5071 214
46.52722 222
46.54733 179
46.56744 198
46.58756 195
46.60767 219
46.62779 215
46.6479 214
46.66801 229
46.68813 223
46.70824 238
46.72835 211
46.74847 204
46.76858 200
46.78869 206
46.80881 235
46.82892 214
46.84904 244
46.86915 220
46.88926 202
46.90938 219
46.92949 231
46.9496 231
46.96972 247
46.98983 255
47.00995 245
47.03006 273
47.05017 256
47.07029 265
47.0904 273
47.11051 284
47.13063 292
47.15074 246
47.17086 255
47.19097 255
47.21108 282
47.2312 249
47.25131 245
47.27142 262
47.29154 235
47.31165 258
47.33176 249
47.35188 293
47.37199 261
47.39211 263
47.41222 283
47.43233 279
47.45245 262
47.47256 256
47.49267 272
47.51279 259
47.5329 269
47.55302 241
47.57313 262
47.59324 237
47.61336 250
47.63347 249
47.65358 255
47.6737 212
47.69381 235
47.71393 222
47.73404 212
47.75415 201
47.77427 235
47.79438 250
47.81449 228
47.83461 209
47.85472 220
47.87483 195
47.89495 216
47.91506 228
47.93518 225
47.95529 223
47.9754 216
47.99552 207
48.01563 215
48.03574 220
48.05586 215
48.07597 214
48.09609 252
48.1162 220
48.13631 215
48.15643 206
48.17654 234
48.19665 216
48.21677 203
48.23688 221
48.257 246
48.27711 205
48.29722 233
48.31734 238
48.33745 221
48.35756 211
48.37768 251
48.39779 245
48.4179 250
48.43802 212
48.45813 240
48.47825 248
48.49836 236
48.51847 245
48.53859 225
48.5587 244
48.57881 253
48.59893 235
48.61904 251
48.63916 250
48.65927 284
48.67938 274
48.6995 263
48.71961 261
48.73972 271
48.75984 296
48.77995 265
48.80006 304
48.82018 268
48.84029 274
48.86041 275
48.88052 278
48.90063 269
48.92075 262
48.94086 297
48.96097 266
48.98109 268
49.0012 240
49.02132 253
49.04143 276
49.06154 245
49.08166 237
49.10177 249
49.12188 238
49.142 263
49.16211 243
49.18223 265
49.20234 256
49.22245 258
49.24257 253
49.26268 228
49.28279 251
49.30291 249
49.32302 256
49.34313 233
49.36325 247
49.38336 252
49.40348 259
49.42359 249
49.4437 219
49.46382 250
49.48393 241
49.50404 234
49.52416 219
49.54427 231
49.56439 248
49.5845 254
49.60461 254
49.62473 274
49.64484 281
49.66495 286
49.68507 306
49.70518 297
49.7253 292
49.74541 310
49.76552 325
49.78564 383
49.80575 394
49.82586 405
49.84598 450
49.86609 517
49.8862 547
49.90632 620
49.92643 763
49.94655 845
49.96666 1006
49.98677 1166
50.00689 1364
50.027 1682
50.04711 1908
50.06723 1966
50.08734 2167
50.10746 2139
50.12757 1860
50.14768 1580
50.1678 1329
50.18791 1229
50.20802 1192
50.22814 1127
50.24825 1013
50.26837 845
50.28848 645
50.30859 521
50.32871 419
50.34882 398
50.36893 426
50.38905 429
50.40916 399
50.42927 433
50.44939 436
50.4695 444
50.48962 504
50.50973 474
50.52984 503
50.54996 444
50.57007 501
50.59018 422
50.6103 431
50.63041 421
50.65053 389
50.67064 386
50.69075 385
50.71087 393
50.73098 386
50.75109 320
50.77121 384
50.79132 293
50.81143 331
50.83155 308
50.85166 297
50.87178 318
50.89189 287
50.912 284
50.93212 267
50.95223 281
50.97234 263
50.99246 232
51.01257 252
51.03269 223
51.0528 212
51.07291 210
51.09303 217
51.11314 228
51.13325 227
51.15337 224
51.17348 240
51.1936 223
51.21371 215
51.23382 245
51.25394 219
51.27405 241
51.29416 215
51.31428 237
51.33439 180
51.3545 221
51.37462 202
51.39473 214
51.41485 205
51.43496 185
51.45507 185
51.47519 213
51.4953 218
51.51541 206
51.53553 233
51.55564 190
51.57576 210
51.59587 215
51.61598 212
51.6361 233
51.65621 213
51.67632 218
51.69644 215
51.71655 229
51.73667 228
51.75678 220
51.77689 199
51.79701 214
51.81712 237
51.83723 222
51.85735 223
51.87746 200
51.89757 238
51.91769 223
51.9378 229
51.95792 182
51.97803 226
51.99814 202
52.01826 196
52.03837 233
52.05848 226
52.0786 236
52.09871 224
52.11883 239
52.13894 211
52.15905 265
52.17917 241
52.19928 240
52.21939 211
52.23951 229
52.25962 217
52.27974 206
52.29985 189
52.31996 185
52.34008 203
52.36019 219
52.3803 214
52.40042 219
52.42053 213
52.44064 221
52.46076 219
52.48087 212
52.50099 222
52.5211 195
52.54121 186
52.56133 213
52.58144 231
52.60155 241
52.62167 235
52.64178 232
52.6619 244
52.68201 245
52.70212 228
52.72224 195
52.74235 255
52.76246 245
52.78258 218
52.80269 231
52.8228 230
52.84292 240
52.86303 233
52.88315 219
52.90326 181
52.92337 243
52.94349 237
52.9636 236
52.98371 254
53.00383 258
53.02394 233
53.04406 251
53.06417 235
53.08428 240
53.1044 227
53.12451 242
53.14462 239
53.16474 260
53.18485 261
53.20497 255
53.22508 242
53.24519 258
53.26531 235
53.28542 250
53.30553 268
53.32565 289
53.34576 298
53.36587 300
53.38599 275
53.4061 278
53.42622 275
53.44633 285
53.46644 297
53.48656 288
53.50667 269
53.52678 262
53.5469 255
53.56701 262
53.58713 266
53.60724 248
53.62735 254
53.64747 284
53.66758 252
53.68769 226
53.70781 265
53.72792 247
53.74804 247
53.76815 228
53.78826 234
53.80838 255
53.82849 248
53.8486 246
53.86872 264
53.88883 251
53.90894 264
53.92906 273
53.94917 257
53.96929 265
53.9894 253
54.00951 257
54.02963 260
54.04974 258
54.06985 258
54.08997 242
54.11008 232
54.1302 273
54.15031 275
54.17042 241
54.19054 257
54.21065 281
54.23076 264
54.25088 286
54.27099 260
54.29111 271
54.31122 248
54.33133 266
54.35145 240
54.37156 250
54.39167 292
54.41179 264
54.4319 276
54.45201 287
54.47213 269
54.49224 287
54.51236 275
54.53247 303
54.55258 288
54.5727 303
54.59281 325
54.61292 302
54.63304 376
54.65315 391
54.67327 418
54.69338 489
54.71349 510
54.73361 564
54.75372 657
54.77383 648
54.79395 757
54.81406 840
54.83417 795
54.85429 740
54.8744 619
54.89452 576
54.91463 558
54.93474 531
54.95486 549
54.97497 539
54.99508 516
55.0152 437
55.03531 390
55.05543 328
55.07554 316
55.09565 307
55.11577 369
55.13588 354
55.15599 380
55.17611 386
55.19622 377
55.21634 398
55.23645 457
55.25656 458
55.27668 489
55.29679 490
55.3169 452
55.33702 439
55.35713 374
55.37724 357
55.39736 352
55.41747 376
55.43759 353
55.4577 328
55.47781 347
55.49793 332
55.51804 306
55.53815 272
55.55827 270
55.57838 273
55.5985 290
55.61861 246
55.63872 262
55.65884 228
55.67895 242
55.69906 255
55.71918 232
55.73929 248
55.75941 246
55.77952 225
55.79963 220
55.81975 228
55.83986 242
55.85997 237
55.88009 245
55.9002 265
55.92031 223
55.94043 227
55.96054 214
55.98066 226
56.00077 205
56.02088 199
56.041 207
56.06111 211
56.08122 213
56.10134 239
56.12145 215
56.14157 211
56.16168 216
56.18179 228
56.20191 233
56.22202 223
56.24213 191
56.26225 213
56.28236 231
56.30248 225
56.32259 201
56.3427 213
56.36282 229
56.38293 177
56.40304 226
56.42316 196
56.44327 231
56.46338 212
56.4835 222
56.50361 219
56.52373 218
56.54384 229
56.56395 213
56.58407 220
56.60418 207
56.62429 238
56.64441 232
56.66452 227
56.68464 227
56.70475 219
56.72486 233
56.74498 240
56.76509 218
56.7852 218
56.80532 203
56.82543 236
56.84554 234
56.86566 222
56.88577 196
56.90589 200
56.926 217
56.94611 207
56.96623 232
56.98634 238
57.00645 217
57.02657 221
57.04668 209
57.0668 237
57.08691 243
57.10702 220
57.12714 220
57.14725 235
57.16736 245
57.18748 260
57.20759 244
57.22771 220
57.24782 235
57.26793 238
57.28805 222
57.30816 221
57.32827 227
57.34839 235
57.3685 214
57.38861 239
57.40873 239
57.42884 210
57.44896 201
57.46907 243
57.48918 202
57.5093 206
57.52941 214
57.54952 191
57.56964 211
57.58975 213
57.60987 222
57.62998 227
57.65009 213
57.67021 179
57.69032 206
57.71043 215
57.73055 198
57.75066 227
57.77078 203
57.79089 216
57.811 212
57.83112 213
57.85123 224
57.87134 200
57.89146 226
57.91157 222
57.93168 237
57.9518 210
57.97191 205
57.99203 187
58.01214 204
58.03225 215
58.05237 218
58.07248 202
58.09259 206
58.11271 218
58.13282 225
58.15294 237
58.17305 216
58.19316 205
58.21328 197
58.23339 255
58.2535 212
58.27362 234
58.29373 225
58.31385 226
58.33396 232
58.35407 218
58.37419 222
58.3943 210
58.41441 244
58.43453 220
58.45464 229
58.47475 255
58.49487 236
58.51498 217
58.5351 221
58.55521 243
58.57532 221
58.59544 239
58.61555 244
58.63566 218
58.65578 226
58.67589 217
58.69601 231
58.71612 228
58.73623 208
58.75635 207
58.77646 217
58.79657 216
58.81669 203
58.8368 224
58.85691 204
58.87703 219
58.89714 203
58.91726 198
58.93737 208
58.95748 195
58.9776 215
58.99771 201
59.01782 207
59.03794 207
59.05805 216
59.07817 208
59.09828 201
59.11839 219
59.13851 208
59.15862 208
59.17873 195
59.19885 211
59.21896 216
59.23908 197
59.25919 213
59.2793 228
59.29942 213
59.31953 247
59.33964 225
59.35976 227
59.37987 225
59.39998 212
59.4201 252
59.44021 241
59.46033 261
59.48044 280
59.50055 272
59.52067 273
59.54078 279
59.56089 278
59.58101 314
59.60112 319
59.62124 358
59.64135 387
59.66146 385
59.68158 432
59.70169 436
59.7218 561
59.74192 631
59.76203 687
59.78215 816
59.80226 934
59.82237 1084
59.84249 1104
59.8626 1331
59.88271 1385
59.90283 1419
59.92294 1341
59.94305 1267
59.96317 1088
59.98328 895
60.0034 803
60.02351 801
60.04362 752
60.06374 799
60.08385 734
60.10396 686
60.12408 585
60.14419 428
60.16431 346
60.18442 301
60.20453 290
60.22465 269
60.24476 272
60.26487 269
60.28499 232
60.3051 243
60.32522 243
60.34533 258
60.36544 240
60.38556 228
60.40567 206
60.42578 213
60.4459 247
60.46601 208
60.48612 211
60.50624 230
60.52635 217
60.54647 207
60.56658 210
60.58669 214
60.60681 212
60.62692 198
60.64703 194
60.66715 246
60.68726 217
60.70738 215
60.72749 236
60.7476 225
60.76772 231
60.78783 240
60.80794 217
60.82806 215
60.84817 224
60.86828 215
60.8884 217
60.90851 227
60.92863 227
60.94874 230
60.96885 225
60.98897 238
61.00908 212
61.02919 225
61.04931 238
61.06942 245
61.08954 260
61.10965 243
61.12976 252
61.14988 222
61.16999 232
61.1901 228
61.21022 217
61.23033 242
61.25045 266
61.27056 230
61.29067 229
61.31079 232
61.3309 241
61.35101 226
61.37113 224
61.39124 243
61.41135 237
61.43147 228
61.45158 280
61.4717 250
61.49181 245
61.51192 215
61.53204 212
61.55215 237
61.57226 214
61.59238 231
61.61249 225
61.63261 196
61.65272 244
61.67283 232
61.69295 232
61.71306 220
61.73317 250
61.75329 247
61.7734 226
61.79352 220
61.81363 223
61.83374 230
61.85386 244
61.87397 235
61.89408 239
61.9142 249
61.93431 234
61.95442 231
61.97454 245
61.99465 229
62.01477 277
62.03488 253
62.05499 222
62.07511 277
62.09522 242
62.11533 254
62.13545 236
62.15556 288
62.17568 253
62.19579 265
62.2159 269
62.23602 278
62.25613 269
62.27624 296
62.29636 240
62.31647 256
62.33659 282
62.3567 254
62.37681 240
62.39693 249
62.41704 227
62.43715 254
62.45727 234
62.47738 245
62.49749 224
62.51761 260
62.53772 266
62.55784 240
62.57795 245
62.59806 240
62.61818 249
62.63829 261
62.6584 252
62.67852 258
62.69863 251
62.71875 243
62.73886 262
62.75897 222
62.77909 255
62.7992 264
62.81931 236
62.83943 232
62.85954 224
62.87965 223
62.89977 227
62.91988 250
62.94 237
62.96011 227
62.98022 247
63.00034 265
63.02045 268
63.04056 232
63.06068 239
63.08079 235
63.10091 256
63.12102 236
63.14113 251
63.16125 259
63.18136 234
63.20147 238
63.22159 244
63.2417 199
63.26182 246
63.28193 226
63.30204 218
63.32216 237
63.34227 226
63.36238 252
63.3825 219
63.40261 223
63.42272 214
63.44284 230
63.46295 230
63.48307 215
63.50318 232
63.52329 233
63.54341 265
63.56352 253
63.58363 241
63.60375 238
63.62386 232
63.64398 245
63.66409 239
63.6842 225
63.70432 236
63.72443 274
63.74454 261
63.76466 300
63.78477 318
63.80489 319
63.825 333
63.84511 355
63.86523 363
63.88534 405
63.90545 421
63.92557 417
63.94568 443
63.96579 438
63.98591 493
64.00602 427
64.02614 426
64.04625 404
64.06636 347
64.08648 318
64.10659 342
64.1267 351
64.14682 337
64.16693 286
64.18705 307
64.20716 303
64.22727 280
64.24739 263
64.2675 234
64.28761 244
64.30773 239
64.32784 204
64.34796 213
64.36807 222
64.38818 214
64.4083 224
64.42841 207
64.44852 225
64.46864 205
64.48875 217
64.50886 204
64.52898 201
64.54909 189
64.56921 204
64.58932 203
64.60943 232
64.62955 218
64.64966 183
64.66977 226
64.68989 252
64.71 196
64.73012 206
64.75023 199
64.77034 206
64.79046 241
64.81057 193
64.83068 170
64.8508 211
64.87091 231
64.89102 233
64.91114 217
64.93125 232
64.95137 201
64.97148 215
64.99159 184
65.01171 208
65.03182 207
65.05193 223
65.07205 209
65.09216 209
65.11228 220
65.13239 222
65.1525 238
65.17262 231
65.19273 211
65.21284 250
65.23296 249
65.25307 215
65.27319 239
65.2933 220
65.31341 214
65.33353 222
65.35364 246
65.37375 239
65.39387 218
65.41398 215
65.43409 210
65.45421 229
65.47432 200
65.49444 209
65.51455 213
65.53466 210
65.55478 196
65.57489 203
65.595 227
65.61512 210
65.63523 221
65.65535 244
65.67546 229
65.69557 232
65.71569 247
65.7358 281
65.75591 251
65.77603 232
65.79614 235
65.81626 225
65.83637 209
65.85648 227
65.8766 224
65.89671 226
65.91682 215
65.93694 221
65.95705 247
65.97716 225
65.99728 182
66.01739 214
66.03751 202
66.05762 201
66.07773 225
66.09785 196
66.11796 209
66.13807 216
66.15819 246
66.1783 193
66.19842 229
66.21853 217
66.23864 228
66.25876 232
66.27887 223
66.29898 229
66.3191 233
66.33921 223
66.35933 233
66.37944 228
66.39955 219
66.41967 206
66.43978 234
66.45989 191
66.48001 235
66.50012 212
66.52023 217
66.54035 207
66.56046 208
66.58058 197
66.60069 208
66.6208 200
66.64092 204
66.66103 193
66.68114 213
66.70126 230
66.72137 224
66.74149 193
66.7616 162
66.78171 204
66.80183 187
66.82194 201
66.84205 189
66.86217 216
66.88228 200
66.90239 183
66.92251 201
66.94262 215
66.96274 222
66.98285 201
67.00296 214
67.02308 229
67.04319 195
67.0633 203
67.08342 215
67.10353 216
67.12365 206
67.14376 236
67.16387 243
67.18399 231
67.2041 200
67.22421 230
67.24433 229
67.26444 220
67.28456 228
67.30467 265
67.32478 235
67.3449 276
67.36501 279
67.38512 282
67.40524 272
67.42535 311
67.44546 337
67.46558 365
67.48569 381
67.50581 440
67.52592 449
67.54603 508
67.56615 570
67.58626 618
67.60637 748
67.62649 791
67.6466 787
67.66672 880
67.68683 906
67.70694 838
67.72706 840
67.74717 727
67.76728 654
67.7874 612
67.80751 648
67.82763 622
67.84774 658
67.86785 738
67.88797 728
67.90808 757
67.92819 720
67.94831 732
67.96842 811
67.98853 821
68.00865 928
68.02876 960
68.04888 1049
68.06899 1128
68.0891 1229
68.10922 1211
68.12933 1134
68.14944 1043
68.16956 978
68.18967 992
68.20979 1013
68.2299 1014
68.25001 1076
68.27013 1052
68.29024 1059
68.31035 947
68.33047 785
68.35058 585
68.3707 534
68.39081 531
68.41092 504
68.43104 520
68.45115 497
68.47126 461
68.49138 425
68.51149 386
68.5316 321
68.55172 311
68.57183 266
68.59195 250
68.61206 258
68.63217 229
68.65229 225
68.6724 233
68.69251 225
68.71263 239
68.73274 221
68.75286 217
68.77297 200
68.79308 247
68.8132 241
68.83331 183
68.85342 238
68.87354 227
68.89365 220
68.91376 196
68.93388 216
68.95399 202
68.97411 203
68.99422 177
69.01433 205
69.03445 194
69.05456 175
69.07467 199
69.09479 220
69.1149 196
69.13502 208
69.15513 198
69.17524 195
69.19536 191
69.21547 203
69.23558 173
69.2557 198
69.27581 181
69.29593 203
69.31604 193
69.33615 191
69.35627 191
69.37638 183
69.39649 213
69.41661 190
69.43672 185
69.45683 192
69.47695 203
69.49706 197
69.51718 192
69.53729 175
69.5574 188
69.57752 168
69.59763 170
69.61774 184
69.63786 209
69.65797 183
69.67809 164
69.6982 206
69.71831 173
69.73843 199
69.75854 184
69.77865 197
69.79877 185
69.81888 194
69.839 190
69.85911 177
69.87922 197
69.89934 168
69.91945 204
69.93956 202
69.95968 200
69.97979 215
69.9999 197
70.02002 208
70.04013 173
70.06025 181
70.08036 192
70.10047 200
70.12059 193
70.1407 168
70.16081 205
70.18093 195
70.20104 195
70.22116 195
70.24127 200
70.26138 217
70.2815 178
70.30161 210
70.32172 217
70.34184 180
70.36195 215
70.38207 197
70.40218 184
70.42229 189
70.44241 198
70.46252 172
70.48263 183
70.50275 172
70.52286 199
70.54297 168
70.56309 202
70.5832 204
70.60332 191
70.62343 202
70.64354 209
70.66366 199
70.68377 198
70.70388 192
70.724 196
70.74411 203
70.76423 194
70.78434 196
70.80445 208
70.82457 201
70.84468 185
70.86479 184
70.88491 189
70.90502 169
70.92513 193
70.94525 183
70.96536 173
70.98548 177
71.00559 177
71.0257 196
71.04582 156
71.06593 178
71.08604 193
71.10616 195
71.12627 180
71.14639 179
71.1665 172
71.18661 174
71.20673 165
71.22684 172
71.24695 195
71.26707 195
71.28718 189
71.3073 190
71.32741 214
71.34752 182
71.36764 185
71.38775 197
71.40786 199
71.42798 198
71.44809 196
71.4682 217
71.48832 219
71.50843 225
71.52855 217
71.54866 210
71.56877 208
71.58889 190
71.609 204
71.62911 198
71.64923 200
71.66934 188
71.68946 190
71.70957 203
71.72968 219
71.7498 205
71.76991 183
71.79002 192
71.81014 211
71.83025 199
71.85037 202
71.87048 199
71.89059 192
71.91071 189
71.93082 192
71.95093 217
71.97105 247
71.99116 213
72.01127 210
72.03139 196
72.0515 214
72.07162 202
72.09173 212
72.11184 198
72.13196 209
72.15207 199
72.17218 217
72.1923 205
72.21241 205
72.23253 199
72.25264 217
72.27275 208
72.29287 179
72.31298 219
72.33309 199
72.35321 235
72.37332 211
72.39344 199
72.41355 208
72.43366 211
72.45378 195
72.47389 194
72.494 196
72.51412 186
72.53423 221
72.55434 196
72.57446 192
72.59457 188
72.61469 164
72.6348 200
72.65491 233
72.67503 187
72.69514 199
72.71525 214
72.73537 183
72.75548 202
72.7756 214
72.79571 187
72.81582 199
72.83594 209
72.85605 216
72.87616 199
72.89628 184
72.91639 217
72.9365 217
72.95662 198
72.97673 225
72.99685 201
73.01696 221
73.03707 221
73.05719 233
73.0773 234
73.09741 211
73.11753 236
73.13764 245
73.15776 237
73.17787 263
73.19798 267
73.2181 242
73.23821 307
73.25832 328
73.27844 321
73.29855 320
73.31867 384
73.33878 376
73.35889 412
73.37901 394
73.39912 433
73.41923 429
73.43935 413
73.45946 410
73.47957 379
73.49969 342
73.5198 301
73.53992 290
73.56003 273
73.58014 298
73.60026 311
73.62037 312
73.64048 317
73.6606 269
73.68071 270
73.70083 233
73.72094 216
73.74105 238
73.76117 182
73.78128 186
73.80139 211
73.82151 202
73.84162 196
73.86174 213
73.88185 190
73.90196 183
73.92208 177
73.94219 202
73.9623 206
73.98242 181
74.00253 182
74.02264 192
74.04276 207
74.06287 192
74.08299 193
74.1031 221
74.12321 184
74.14333 203
74.16344 204
74.18355 206
74.20367 205
74.22378 182
74.2439 202
74.26401 189
74.28412 190
74.30424 197
74.32435 166
74.34446 210
74.36458 217
74.38469 210
74.40481 197
74.42492 192
74.44503 193
74.46515 191
74.48526 196
74.50537 193
74.52549 185
74.5456 222
74.56571 179
74.58583 227
74.60594 189
74.62606 197
74.64617 192
74.66628 206
74.6864 198
74.70651 192
74.72662 229
74.74674 202
74.76685 198
74.78697 202
74.80708 180
74.82719 209
74.84731 186
74.86742 183
74.88753 182
74.90765 212
74.92776 198
74.94787 198
74.96799 228
74.9881 201
75.00822 223
