3.00117 16615
3.02128 16481
3.0414 15917
3.06151 15712
3.08162 15203
3.10174 14439
3.12185 14356
3.14197 13793
3.16208 13473
3.18219 12962
3.20231 12298
3.22242 12150
3.24253 11503
3.26265 11453
3.28276 11160
3.30288 10627
3.32299 10253
3.3431 9771
3.36322 9448
3.38333 9452
3.40344 8691
3.42356 8703
3.44367 8310
3.46379 8024
3.4839 7640
3.50401 7289
3.52413 7171
3.54424 6657
3.56435 6544
3.58447 6445
3.60458 5772
3.62469 5843
3.64481 5558
3.66492 5305
3.68504 5247
3.70515 4819
3.72526 4721
3.74538 4567
3.76549 4390
3.7856 4299
3.80572 3845
3.82583 3762
3.84595 3598
3.86606 3586
3.88617 3595
3.90629 3014
3.9264 3145
3.94651 2865
3.96663 2824
3.98674 2787
4.00686 2449
4.02697 2407
4.04708 2353
4.0672 2317
4.08731 2256
4.10742 1968
4.12754 2063
4.14765 1983
4.16776 1950
4.18788 1873
4.20799 1668
4.22811 1687
4.24822 1691
4.26833 1646
4.28845 1659
4.30856 1526
4.32867 1519
4.34879 1410
4.3689 1422
4.38902 1483
4.40913 1267
4.42924 1333
4.44936 1298
4.46947 1313
4.48958 1313
4.5097 1193
4.52981 1162
4.54992 1166
4.57004 1115
4.59015 1119
4.61027 1032
4.63038 1026
4.65049 1064
4.67061 994
4.69072 967
4.71083 905
4.73095 984
4.75106 913
4.77118 927
4.79129 929
4.8114 802
4.83152 861
4.85163 832
4.87174 808
4.89186 840
4.91197 727
4.93209 756
4.9522 775
4.97231 771
4.99243 747
5.01254 714
5.03265 691
5.05277 618
5.07288 647
5.09299 601
5.11311 650
5.13322 623
5.15334 645
5.17345 668
5.19356 592
5.21368 665
5.23379 534
5.2539 607
5.27402 618
5.29413 560
5.31425 530
5.33436 545
5.35447 533
5.37459 528
5.3947 548
5.41481 490
5.43493 530
5.45504 547
5.47516 507
5.49527 509
5.51538 527
5.5355 477
5.55561 509
5.57572 521
5.59584 438
5.61595 461
5.63606 485
5.65618 490
5.67629 483
5.69641 425
5.71652 430
5.73663 480
5.75675 442
5.77686 463
5.79697 430
5.81709 454
5.8372 452
5.85732 414
5.87743 427
5.89754 433
5.91766 409
5.93777 412
5.95788 416
5.978 424
5.99811 446
6.01823 399
6.03834 398
6.05845 366
6.07857 386
6.09868 385
6.11879 371
6.13891 324
6.15902 397
6.17913 384
6.19925 351
6.21936 350
6.23948 312
6.25959 294
6.2797 334
6.29982 335
6.31993 298
6.34004 328
6.36016 338
6.38027 307
6.40039 373
6.4205 301
6.44061 348
6.46073 304
6.48084 286
6.50095 329
6.52107 323
6.54118 289
6.56129 287
6.58141 272
6.60152 275
6.62164 260
6.64175 288
6.66186 293
6.68198 285
6.70209 283
6.7222 279
6.74232 267
6.76243 285
6.78255 286
6.80266 263
6.82277 262
6.84289 263
6.863 221
6.88311 261
6.90323 257
6.92334 256
6.94346 230
6.96357 238
6.98368 253
7.0038 260
7.02391 261
7.04402 278
7.06414 290
7.08425 238
7.10436 265
7.12448 260
7.14459 247
7.16471 236
7.18482 243
7.20493 243
7.22505 242
7.24516 252
7.26527 263
7.28539 204
7.3055 278
7.32562 228
7.34573 234
7.36584 254
7.38596 259
7.40607 207
7.42618 263
7.4463 278
7.46641 230
7.48653 239
7.50664 236
7.52675 268
7.54687 245
7.56698 249
7.58709 243
7.60721 232
7.62732 230
7.64743 252
7.66755 244
7.68766 214
7.70778 248
7.72789 229
7.748 228
7.76812 231
7.78823 243
7.80834 231
7.82846 235
7.84857 261
7.86869 248
7.8888 243
7.90891 255
7.92903 227
7.94914 222
7.96925 252
7.98937 201
8.00948 239
8.0296 229
8.04971 229
8.06982 266
8.08994 237
8.11005 264
8.13016 231
8.15028 236
8.17039 228
8.1905 230
8.21062 198
8.23073 241
8.25085 203
8.27096 267
8.29107 247
8.31119 226
8.3313 229
8.35141 230
8.37153 207
8.39164 248
8.41176 225
8.43187 268
8.45198 217
8.4721 223
8.49221 252
8.51232 231
8.53244 238
8.55255 233
8.57266 300
8.59278 252
8.61289 251
8.63301 240
8.65312 268
8.67323 249
8.69335 289
8.71346 253
8.73357 244
8.75369 219
8.7738 251
8.79392 248
8.81403 251
8.83414 254
8.85426 277
8.87437 273
8.89448 261
8.9146 249
8.93471 252
8.95483 225
8.97494 255
8.99505 228
9.01517 272
9.03528 241
9.05539 269
9.07551 245
9.09562 255
9.11573 212
9.13585 254
9.15596 231
9.17608 247
9.19619 244
9.2163 239
9.23642 253
9.25653 260
9.27664 265
9.29676 237
9.31687 271
9.33699 236
9.3571 270
9.37721 229
9.39733 235
9.41744 261
9.43755 252
9.45767 249
9.47778 237
9.4979 226
9.51801 221
9.53812 242
9.55824 234
9.57835 255
9.59846 233
9.61858 259
9.63869 265
9.6588 253
9.67892 265
9.69903 226
9.71915 254
9.73926 275
9.75937 274
9.77949 240
9.7996 260
9.81971 258
9.83983 249
9.85994 277
9.88006 250
9.90017 275
9.92028 213
9.9404 241
9.96051 229
9.98062 264
10.00074 243
10.02085 234
10.04097 252
10.06108 224
10.08119 234
10.10131 259
10.12142 243
10.14153 225
10.16165 268
10.18176 270
10.20187 268
10.22199 253
10.2421 256
10.26222 264
10.28233 254
10.30244 216
10.32256 249
10.34267 249
10.36278 237
10.3829 236
10.40301 271
10.42313 250
10.44324 269
10.46335 253
10.48347 280
10.50358 259
10.52369 230
10.54381 252
10.56392 237
10.58403 269
10.60415 265
10.62426 244
10.64438 256
10.66449 203
10.6846 260
10.70472 240
10.72483 224
10.74494 219
10.76506 230
10.78517 260
10.80529 228
10.8254 228
10.84551 245
10.86563 218
10.88574 249
10.90585 259
10.92597 260
10.94608 235
10.9662 246
10.98631 236
11.00642 262
11.02654 235
11.04665 242
11.06676 248
11.08688 275
11.10699 253
11.1271 257
11.14722 263
11.16733 223
11.18745 219
11.20756 260
11.22767 229
11.24779 236
11.2679 224
11.28801 240
11.30813 231
11.32824 249
11.34836 224
11.36847 271
11.38858 244
11.4087 242
11.42881 238
11.44892 259
11.46904 233
11.48915 239
11.50927 272
11.52938 231
11.54949 235
11.56961 265
11.58972 231
11.60983 233
11.62995 213
11.65006 213
11.67017 247
11.69029 232
11.7104 267
11.73052 228
11.75063 249
11.77074 242
11.79086 262
11.81097 230
11.83108 282
11.8512 293
11.87131 273
11.89143 231
11.91154 249
11.93165 273
11.95177 260
11.97188 245
11.99199 250
12.01211 226
12.03222 244
12.05234 236
12.07245 264
12.09256 236
12.11268 254
12.13279 242
12.1529 257
12.17302 259
12.19313 224
12.21324 265
12.23336 272
12.25347 239
12.27359 252
12.2937 255
12.31381 281
12.33393 246
12.35404 252
12.37415 248
12.39427 264
12.41438 220
12.4345 205
12.45461 231
12.47472 224
12.49484 220
12.51495 239
12.53506 258
12.55518 219
12.57529 213
12.5954 255
12.61552 228
12.63563 252
12.65575 224
12.67586 209
12.69597 227
12.71609 235
12.7362 195
12.75631 230
12.77643 222
12.79654 232
12.81666 226
12.83677 219
12.85688 231
12.877 205
12.89711 211
12.91722 205
12.93734 179
12.95745 230
12.97757 201
12.99768 228
13.01779 224
13.03791 240
13.05802 254
13.07813 249
13.09825 250
13.11836 204
13.13847 257
13.15859 262
13.1787 221
13.19882 230
13.21893 219
13.23904 199
13.25916 274
13.27927 228
13.29938 228
13.3195 210
13.33961 225
13.35973 209
13.37984 229
13.39995 257
13.42007 220
13.44018 196
13.46029 244
13.48041 221
13.50052 224
13.52064 263
13.54075 234
13.56086 226
13.58098 207
13.60109 216
13.6212 261
13.64132 233
13.66143 220
13.68154 272
13.70166 243
13.72177 249
13.74189 269
13.762 254
13.78211 221
13.80223 283
13.82234 256
13.84245 265
13.86257 303
13.88268 274
13.9028 226
13.92291 278
13.94302 256
13.96314 235
13.98325 221
14.00336 201
14.02348 210
14.04359 232
14.06371 210
14.08382 213
14.10393 222
14.12405 196
14.14416 194
14.16427 196
14.18439 210
14.2045 215
14.22461 243
14.24473 237
14.26484 214
14.28496 246
14.30507 211
14.32518 205
14.3453 200
14.36541 200
14.38552 180
14.40564 230
14.42575 200
14.44587 213
14.46598 187
14.48609 205
14.50621 220
14.52632 216
14.54643 197
14.56655 201
14.58666 222
14.60677 206
14.62689 170
14.647 208
14.66712 224
14.68723 216
14.70734 209
14.72746 192
14.74757 191
14.76768 226
14.7878 192
14.80791 233
14.82803 225
14.84814 220
14.86825 239
14.88837 223
14.90848 237
14.92859 198
14.94871 225
14.96882 241
14.98894 203
15.00905 228
15.02916 233
15.04928 201
15.06939 220
15.0895 232
15.10962 199
15.12973 215
15.14984 210
15.16996 207
15.19007 219
15.21019 209
15.2303 196
15.25041 219
15.27053 213
15.29064 197
15.31075 217
15.33087 214
15.35098 181
15.3711 195
15.39121 176
15.41132 197
15.43144 210
15.45155 168
15.47166 195
15.49178 185
15.51189 188
15.53201 199
15.55212 246
15.57223 210
15.59235 195
15.61246 228
15.63257 191
15.65269 185
15.6728 241
15.69291 207
15.71303 196
15.73314 206
15.75326 223
15.77337 176
15.79348 222
15.8136 203
15.83371 172
15.85382 194
15.87394 178
15.89405 164
15.91417 188
15.93428 195
15.95439 194
15.97451 195
15.99462 197
16.01473 199
16.03485 173
16.05496 198
16.07508 168
16.09519 187
16.1153 204
16.13542 184
16.15553 209
16.17564 205
16.19576 170
16.21587 193
16.23598 188
16.2561 198
16.27621 178
16.29633 199
16.31644 177
16.33655 199
16.35667 187
16.37678 176
16.39689 184
16.41701 217
16.43712 175
16.45724 199
16.47735 195
16.49746 187
16.51758 193
16.53769 183
16.5578 183
16.57792 180
16.59803 184
16.61814 186
16.63826 160
16.65837 177
16.67849 170
16.6986 202
16.71871 199
16.73883 206
16.75894 190
16.77905 178
16.79917 199
16.81928 177
16.8394 200
16.85951 193
16.87962 187
16.89974 198
16.91985 190
16.93996 175
16.96008 180
16.98019 185
17.00031 183
17.02042 194
17.04053 191
17.06065 196
17.08076 197
17.10087 195
17.12099 189
17.1411 198
17.16121 193
17.18133 213
17.20144 162
17.22156 177
17.24167 182
17.26178 195
17.2819 162
17.30201 173
17.32212 191
17.34224 179
17.36235 197
17.38247 168
17.40258 195
17.42269 208
17.44281 196
17.46292 175
17.48303 180
17.50315 211
17.52326 179
17.54338 170
17.56349 196
17.5836 184
17.60372 158
17.62383 207
17.64394 185
17.66406 205
17.68417 197
17.70428 158
17.7244 190
17.74451 195
17.76463 166
17.78474 176
17.80485 193
17.82497 183
17.84508 214
17.86519 220
17.88531 171
17.90542 190
17.92554 166
17.94565 176
17.96576 173
17.98588 178
18.00599 159
18.0261 186
18.04622 211
18.06633 187
18.08645 196
18.10656 186
18.12667 207
18.14679 186
18.1669 199
18.18701 179
18.20713 201
18.22724 191
18.24735 200
18.26747 226
18.28758 196
18.3077 171
18.32781 177
18.34792 180
18.36804 173
18.38815 187
18.40826 202
18.42838 170
18.44849 205
18.46861 197
18.48872 178
18.50883 174
18.52895 212
18.54906 188
18.56917 201
18.58929 196
18.6094 178
18.62951 176
18.64963 174
18.66974 180
18.68986 208
18.70997 199
18.73008 212
18.7502 190
18.77031 182
18.79042 192
18.81054 194
18.83065 225
18.85077 181
18.87088 217
18.89099 203
18.91111 180
18.93122 220
18.95133 191
18.97145 173
18.99156 203
19.01168 215
19.03179 179
19.0519 196
19.07202 191
19.09213 194
19.11224 187
19.13236 207
19.15247 198
19.17258 201
19.1927 207
19.21281 203
19.23293 222
19.25304 218
19.27315 238
19.29327 218
19.31338 218
19.33349 233
19.35361 230
19.37372 200
19.39384 235
19.41395 257
19.43406 229
19.45418 260
19.47429 243
19.4944 271
19.51452 261
19.53463 264
19.55475 246
19.57486 281
19.59497 296
19.61509 342
19.6352 306
19.65531 333
19.67543 303
19.69554 311
19.71565 348
19.73577 315
19.75588 331
19.776 344
19.79611 357
19.81622 346
19.83634 358
19.85645 344
19.87656 346
19.89668 349
19.91679 367
19.93691 353
19.95702 323
19.97713 356
19.99725 324
20.01736 359
20.03747 330
20.05759 349
20.0777 336
20.09782 312
20.11793 309
20.13804 367
20.15816 367
20.17827 364
20.19838 341
20.2185 384
20.23861 364
20.25872 357
20.27884 339
20.29895 368
20.31907 374
20.33918 345
20.35929 360
20.37941 400
20.39952 408
20.41963 383
20.43975 403
20.45986 391
20.47998 379
20.50009 403
20.5202 464
20.54032 456
20.56043 506
20.58054 557
20.60066 590
20.62077 699
20.64088 842
20.661 1067
20.68111 1375
20.70123 1859
20.72134 2420
20.74145 3136
20.76157 3935
20.78168 4797
20.80179 5102
20.82191 5433
20.84202 5138
20.86214 4449
20.88225 3579
20.90236 2442
20.92248 1727
20.94259 1199
20.9627 858
20.98282 788
21.00293 729
21.02305 617
21.04316 570
21.06327 553
21.08339 476
21.1035 437
21.12361 434
21.14373 399
21.16384 409
21.18395 383
21.20407 354
21.22418 325
21.2443 308
21.26441 293
21.28452 329
21.30464 300
21.32475 302
21.34486 316
21.36498 230
21.38509 249
21.40521 263
21.42532 314
21.44543 266
21.46555 288
21.48566 301
21.50577 295
21.52589 286
21.546 255
21.56612 289
21.58623 276
21.60634 277
21.62646 317
21.64657 281
21.66668 274
21.6868 269
21.70691 291
21.72702 286
21.74714 276
21.76725 327
21.78737 335
21.80748 341
21.82759 379
21.84771 389
21.86782 392
21.88793 490
21.90805 518
21.92816 548
21.94828 591
21.96839 586
21.9885 618
22.00862 589
22.02873 465
22.04884 411
22.06896 388
22.08907 349
22.10919 377
22.1293 321
22.14941 321
22.16953 331
22.18964 354
22.20975 301
22.22987 303
22.24998 308
22.27009 291
22.29021 325
22.31032 333
22.33044 304
22.35055 324
22.37066 303
22.39078 280
22.41089 317
22.431 301
22.45112 267
22.47123 332
22.49135 280
22.51146 284
22.53157 276
22.55169 258
22.5718 237
22.59191 271
22.61203 280
22.63214 267
22.65225 274
22.67237 243
22.69248 276
22.7126 261
22.73271 303
22.75282 295
22.77294 284
22.79305 319
22.81316 263
22.83328 302
22.85339 360
22.87351 333
22.89362 331
22.91373 348
22.93385 314
22.95396 351
22.97407 327
22.99419 285
23.0143 313
23.03442 314
23.05453 271
23.07464 302
23.09476 289
23.11487 332
23.13498 377
23.1551 315
23.17521 316
23.19532 324
23.21544 281
23.23555 287
23.25567 314
23.27578 281
23.29589 291
23.31601 316
23.33612 280
23.35623 282
23.37635 292
23.39646 348
23.41658 321
23.43669 375
23.4568 363
23.47692 354
23.49703 397
23.51714 438
23.53726 388
23.55737 431
23.57749 414
23.5976 391
23.61771 410
23.63783 397
23.65794 330
23.67805 341
23.69817 350
23.71828 322
23.73839 332
23.75851 337
23.77862 349
23.79874 382
23.81885 400
23.83896 407
23.85908 407
23.87919 432
23.8993 449
23.91942 505
23.93953 533
23.95965 479
23.97976 511
23.99987 461
24.01999 378
24.0401 433
24.06021 325
24.08033 325
24.10044 335
24.12056 377
24.14067 352
24.16078 378
24.1809 401
24.20101 356
24.22112 442
24.24124 417
24.26135 399
24.28146 430
24.30158 393
24.32169 414
24.34181 363
24.36192 354
24.38203 341
24.40215 314
24.42226 318
24.44237 272
24.46249 301
24.4826 308
24.50272 259
24.52283 283
24.54294 320
24.56306 283
24.58317 300
24.60328 274
24.6234 254
24.64351 345
24.66362 294
24.68374 285
24.70385 280
24.72397 302
24.74408 298
24.76419 295
24.78431 295
24.80442 296
24.82453 313
24.84465 265
24.86476 213
24.88488 301
24.90499 294
24.9251 301
24.94522 319
24.96533 314
24.98544 263
25.00556 293
25.02567 300
25.04579 274
25.0659 286
25.08601 278
25.10613 282
25.12624 300
25.14635 293
25.16647 275
25.18658 338
25.20669 324
25.22681 333
25.24692 317
25.26704 294
25.28715 290
25.30726 308
25.32738 296
25.34749 333
25.3676 392
25.38772 359
25.40783 387
25.42795 398
25.44806 409
25.46817 423
25.48829 425
25.5084 450
25.52851 445
25.54863 433
25.56874 474
25.58886 452
25.60897 438
25.62908 449
25.6492 432
25.66931 463
25.68942 429
25.70954 444
25.72965 469
25.74976 442
25.76988 442
25.78999 456
25.81011 472
25.83022 413
25.85033 448
25.87045 427
25.89056 457
25.91067 446
25.93079 410
25.9509 461
25.97102 541
25.99113 478
26.01124 484
26.03136 581
26.05147 587
26.07158 578
26.0917 613
26.11181 676
26.13193 709
26.15204 760
26.17215 752
26.19227 860
26.21238 956
26.23249 973
26.25261 1067
26.27272 1207
26.29283 1414
26.31295 1510
26.33306 1827
26.35318 2175
26.37329 2566
26.3934 3224
26.41352 4056
26.43363 5212
26.45374 6906
26.47386 8825
26.49397 11593
26.51409 14632
26.5342 17610
26.55431 21224
26.57443 23451
26.59454 24822
26.61465 23877
26.63477 20468
26.65488 16592
26.67499 12455
26.69511 8767
26.71522 6023
26.73534 3769
26.75545 2286
26.77556 1664
26.79568 1490
26.81579 1325
26.8359 1125
26.85602 1030
26.87613 989
26.89625 910
26.91636 881
26.93647 820
26.95659 821
26.9767 776
26.99681 784
27.01693 682
27.03704 697
27.05716 631
27.07727 613
27.09738 597
27.1175 547
27.13761 553
27.15772 530
27.17784 496
27.19795 521
27.21806 525
27.23818 495
27.25829 513
27.27841 509
27.29852 570
27.31863 573
27.33875 642
27.35886 705
27.37897 682
27.39909 682
27.4192 780
27.43932 735
27.45943 671
27.47954 683
27.49966 565
27.51977 622
27.53988 586
27.56 538
27.58011 497
27.60023 551
27.62034 604
27.64045 644
27.66057 626
27.68068 765
27.70079 806
27.72091 832
27.74102 769
27.76113 847
27.78125 824
27.80136 886
27.82148 902
27.84159 871
27.8617 877
27.88182 901
27.90193 873
27.92204 815
27.94216 840
27.96227 739
27.98239 702
28.0025 646
28.02261 546
28.04273 478
28.06284 437
28.08295 412
28.10307 389
28.12318 401
28.1433 381
28.16341 390
28.18352 435
28.20364 397
28.22375 378
28.24386 456
28.26398 404
28.28409 370
28.3042 382
28.32432 354
28.34443 329
28.36455 322
28.38466 310
28.40477 307
28.42489 284
28.445 256
28.46511 276
28.48523 259
28.50534 281
28.52546 284
28.54557 277
28.56568 250
28.5858 251
28.60591 259
28.62602 256
28.64614 295
28.66625 239
28.68636 259
28.70648 261
28.72659 251
28.74671 255
28.76682 227
28.78693 255
28.80705 264
28.82716 253
28.84727 249
28.86739 238
28.8875 260
28.90762 249
28.92773 234
28.94784 237
28.96796 251
28.98807 224
29.00818 235
29.0283 217
29.04841 229
29.06853 232
29.08864 230
29.10875 258
29.12887 259
29.14898 262
29.16909 251
29.18921 251
29.20932 249
29.22943 261
29.24955 250
29.26966 267
29.28978 263
29.30989 260
29.33 294
29.35012 301
29.37023 304
29.39034 331
29.41046 312
29.43057 315
29.45069 290
29.4708 273
29.49091 295
29.51103 288
29.53114 262
29.55125 277
29.57137 268
29.59148 258
29.6116 307
29.63171 267
29.65182 308
29.67194 275
29.69205 313
29.71216 316
29.73228 277
29.75239 338
29.7725 355
29.79262 355
29.81273 316
29.83285 297
29.85296 297
29.87307 299
29.89319 278
29.9133 249
29.93341 278
29.95353 254
29.97364 254
29.99376 302
30.01387 275
30.03398 278
30.0541 290
30.07421 279
30.09432 301
30.11444 297
30.13455 287
30.15467 297
30.17478 340
30.19489 352
30.21501 319
30.23512 290
30.25523 328
30.27535 371
30.29546 357
30.31557 338
30.33569 398
30.3558 358
30.37592 377
30.39603 362
30.41614 337
30.43626 365
30.45637 328
30.47648 310
30.4966 282
30.51671 259
30.53683 238
30.55694 273
30.57705 267
30.59717 260
30.61728 268
30.63739 272
30.65751 300
30.67762 314
30.69773 269
30.71785 292
30.73796 288
30.75808 314
30.77819 289
30.7983 268
30.81842 287
30.83853 255
30.85864 262
30.87876 248
30.89887 264
30.91899 250
30.9391 220
30.95921 226
30.97933 193
30.99944 227
31.01955 181
31.03967 210
31.05978 232
31.0799 204
31.10001 186
31.12012 213
31.14024 226
31.16035 219
31.18046 213
31.20058 236
31.22069 203
31.2408 214
31.26092 258
31.28103 247
31.30115 274
31.32126 271
31.34137 296
31.36149 268
31.3816 248
31.40171 239
31.42183 237
31.44194 209
31.46206 220
31.48217 237
31.50228 189
31.5224 217
31.54251 213
31.56262 200
31.58274 214
31.60285 232
31.62297 201
31.64308 193
31.66319 198
31.68331 204
31.70342 192
31.72353 192
31.74365 211
31.76376 203
31.78387 195
31.80399 196
31.8241 187
31.84422 191
31.86433 187
31.88444 210
31.90456 200
31.92467 194
31.94478 220
31.9649 163
31.98501 233
32.00513 198
32.02524 205
32.04535 211
32.06547 213
32.08558 209
32.10569 217
32.12581 188
32.14592 205
32.16604 176
32.18615 217
32.20626 224
32.22638 209
32.24649 201
32.2666 210
32.28672 189
32.30683 223
32.32694 201
32.34706 228
32.36717 197
32.38729 191
32.4074 219
32.42751 220
32.44763 218
32.46774 186
32.48785 190
32.50797 188
32.52808 193
32.5482 205
32.56831 199
32.58842 176
32.60854 168
32.62865 170
32.64876 211
32.66888 190
32.68899 192
32.7091 193
32.72922 169
32.74933 190
32.76945 178
32.78956 187
32.80967 185
32.82979 184
32.8499 195
32.87001 182
32.89013 214
32.91024 168
32.93036 181
32.95047 191
32.97058 202
32.9907 191
33.01081 189
33.03092 184
33.05104 173
33.07115 165
33.09127 169
33.11138 178
33.13149 163
33.15161 178
33.17172 164
33.19183 187
33.21195 168
33.23206 174
33.25217 165
33.27229 174
33.2924 163
33.31252 190
33.33263 192
33.35274 181
33.37286 161
33.39297 184
33.41308 171
33.4332 171
33.45331 165
33.47343 171
33.49354 172
33.51365 157
33.53377 195
33.55388 145
33.57399 182
33.59411 182
33.61422 185
33.63434 219
33.65445 186
33.67456 182
33.69468 207
33.71479 185
33.7349 214
33.75502 198
33.77513 212
33.79524 190
33.81536 253
33.83547 203
33.85559 224
33.8757 204
33.89581 216
33.91593 202
33.93604 224
33.95615 223
33.97627 200
33.99638 190
34.0165 199
34.03661 189
34.05672 221
34.07684 232
34.09695 203
34.11706 237
34.13718 223
34.15729 228
34.17741 236
34.19752 209
34.21763 208
34.23775 242
34.25786 226
34.27797 239
34.29809 243
34.3182 213
34.33831 232
34.35843 276
34.37854 211
34.39866 245
34.41877 225
34.43888 236
34.459 257
34.47911 250
34.49922 234
34.51934 221
34.53945 242
34.55957 245
34.57968 247
34.59979 246
34.61991 237
34.64002 253
34.66013 237
34.68025 241
34.70036 234
34.72047 283
34.74059 242
34.7607 258
34.78082 272
34.80093 248
34.82104 253
34.84116 251
34.86127 278
34.88138 296
34.9015 234
34.92161 270
34.94173 279
34.96184 282
34.98195 240
35.00207 253
35.02218 279
35.04229 310
35.06241 292
35.08252 241
35.10264 262
35.12275 284
35.14286 313
35.16298 290
35.18309 301
35.2032 311
35.22332 319
35.24343 304
35.26354 303
35.28366 320
35.30377 309
35.32389 331
35.344 302
35.36411 283
35.38423 299
35.40434 290
35.42445 265
35.44457 285
35.46468 269
35.4848 280
35.50491 265
35.52502 282
35.54514 272
35.56525 275
35.58536 305
35.60548 252
35.62559 311
35.64571 230
35.66582 263
35.68593 294
35.70605 282
35.72616 234
35.74627 231
35.76639 264
35.7865 264
35.80661 243
35.82673 258
35.84684 257
35.86696 261
35.88707 249
35.90718 253
35.9273 234
35.94741 222
35.96752 257
35.98764 269
36.00775 252
36.02787 271
36.04798 289
36.06809 281
36.08821 280
36.10832 296
36.12843 318
36.14855 316
36.16866 310
36.18878 351
36.20889 366
36.229 398
36.24912 424
36.26923 506
36.28934 503
36.30946 575
36.32957 642
36.34968 796
36.3698 923
36.38991 1013
36.41003 1236
36.43014 1433
36.45025 1623
36.47037 1781
36.49048 1747
36.51059 1736
36.53071 1600
36.55082 1409
36.57094 1142
36.59105 931
36.61116 829
36.63128 661
36.65139 485
36.6715 404
36.69162 305
36.71173 321
36.73184 308
36.75196 288
36.77207 262
36.79219 290
36.8123 264
36.83241 267
36.85253 269
36.87264 265
36.89275 286
36.91287 275
36.93298 267
36.9531 292
36.97321 235
36.99332 256
37.01344 257
37.03355 241
37.05366 227
37.07378 235
37.09389 242
37.11401 254
37.13412 240
37.15423 221
37.17435 214
37.19446 216
37.21457 205
37.23469 226
37.2548 202
37.27491 201
37.29503 206
37.31514 211
37.33526 202
37.35537 228
37.37548 243
37.3956 224
37.41571 222
37.43582 222
37.45594 215
37.47605 236
37.49617 239
37.51628 233
37.53639 235
37.55651 231
37.57662 237
37.59673 248
37.61685 232
37.63696 228
37.65708 237
37.67719 238
37.6973 224
37.71742 255
37.73753 227
37.75764 212
37.77776 224
37.79787 207
37.81798 212
37.8381 193
37.85821 206
37.87833 189
37.89844 210
37.91855 203
37.93867 185
37.95878 221
37.97889 191
37.99901 202
38.01912 230
38.03924 222
38.05935 168
38.07946 203
38.09958 202
38.11969 239
38.1398 232
38.15992 241
38.18003 199
38.20015 229
38.22026 220
38.24037 186
38.26049 233
38.2806 215
38.30071 235
38.32083 230
38.34094 209
38.36105 227
38.38117 264
38.40128 236
38.4214 254
38.44151 218
38.46162 245
38.48174 191
38.50185 259
38.52196 250
38.54208 230
38.56219 217
38.58231 220
38.60242 229
38.62253 221
38.64265 194
38.66276 209
38.68287 200
38.70299 217
38.7231 235
38.74321 190
38.76333 215
38.78344 188
38.80356 208
38.82367 241
38.84378 209
38.8639 224
38.88401 219
38.90412 258
38.92424 217
38.94435 248
38.96447 235
38.98458 271
39.00469 267
39.02481 268
39.04492 263
39.06503 277
39.08515 266
39.10526 308
39.12538 334
39.14549 323
39.1656 383
39.18572 415
39.20583 431
39.22594 507
39.24606 569
39.26617 671
39.28628 809
39.3064 938
39.32651 1118
39.34663 1279
39.36674 1447
39.38685 1553
39.40697 1645
39.42708 1675
39.44719 1531
39.46731 1347
39.48742 1050
39.50754 946
39.52765 826
39.54776 668
39.56788 551
39.58799 443
39.6081 359
39.62822 309
39.64833 289
39.66845 286
39.68856 256
39.70867 250
39.72879 247
39.7489 226
39.76901 233
39.78913 219
39.80924 234
39.82935 221
39.84947 203
39.86958 249
39.8897 227
39.90981 247
39.92992 249
39.95004 254
39.97015 294
39.99026 281
40.01038 294
40.03049 324
40.05061 334
40.07072 382
40.09083 436
40.11095 458
40.13106 530
40.15117 655
40.17129 702
40.1914 780
40.21152 854
40.23163 929
40.25174 884
40.27186 783
40.29197 732
40.31208 648
40.3322 577
40.35231 492
40.37242 473
40.39254 418
40.41265 299
40.43277 263
40.45288 226
40.47299 203
40.49311 217
40.51322 232
40.53333 222
40.55345 188
40.57356 226
40.59368 197
40.61379 191
40.6339 192
40.65402 190
40.67413 189
40.69424 215
40.71436 202
40.73447 212
40.75458 186
40.7747 203
40.79481 187
40.81493 192
40.83504 199
40.85515 210
40.87527 220
40.89538 207
40.91549 179
40.93561 207
40.95572 181
40.97584 181
40.99595 190
41.01606 192
41.03618 191
41.05629 205
41.0764 198
41.09652 224
41.11663 215
41.13675 227
41.15686 200
41.17697 201
41.19709 196
41.2172 179
41.23731 204
41.25743 179
41.27754 226
41.29765 217
41.31777 222
41.33788 207
41.358 183
41.37811 221
41.39822 189
41.41834 171
41.43845 189
41.45856 188
41.47868 171
41.49879 191
41.51891 181
41.53902 221
41.55913 242
41.57925 207
41.59936 235
41.61947 221
41.63959 240
41.6597 281
41.67982 234
41.69993 244
41.72004 294
41.74016 240
41.76027 270
41.78038 248
41.8005 272
41.82061 269
41.84072 229
41.86084 248
41.88095 222
41.90107 241
41.92118 231
41.94129 231
41.96141 224
41.98152 223
42.00163 206
42.02175 243
42.04186 260
42.06198 265
42.08209 281
42.1022 280
42.12232 283
42.14243 332
42.16254 383
42.18266 374
42.20277 454
42.22289 459
42.243 568
42.26311 632
42.28323 738
42.30334 837
42.32345 987
42.34357 1019
42.36368 1153
42.38379 1255
42.40391 1202
42.42402 1132
42.44414 998
42.46425 888
42.48436 734
42.50448 703
42.52459 588
42.5447 509
42.56482 421
42.58493 337
42.60505 300
42.62516 281
42.64527 265
42.66539 280
42.6855 247
42.70561 251
42.72573 244
42.74584 267
42.76595 235
42.78607 234
42.80618 246
42.8263 230
42.84641 222
42.86652 195
42.88664 253
42.90675 226
42.92686 218
42.94698 224
42.96709 209
42.98721 231
43.00732 209
43.02743 206
43.04755 217
43.06766 212
43.08777 217
43.10789 197
43.128 205
43.14812 213
43.16823 204
43.18834 192
43.20846 190
43.22857 194
43.24868 188
43.2688 179
43.28891 170
43.30902 187
43.32914 184
43.34925 174
43.36937 196
43.38948 183
43.40959 163
43.42971 185
43.44982 175
43.46993 183
43.49005 160
43.51016 170
43.53028 192
43.55039 195
43.5705 158
43.59062 179
43.61073 176
43.63084 166
43.65096 189
43.67107 178
43.69119 174
43.7113 168
43.73141 193
43.75153 180
43.77164 185
43.79175 178
43.81187 200
43.83198 190
43.85209 175
43.87221 165
43.89232 197
43.91244 189
43.93255 172
43.95266 193
43.97278 167
43.99289 182
44.013 188
44.03312 177
44.05323 200
44.07335 186
44.09346 192
44.11357 187
44.13369 192
44.1538 183
44.17391 177
44.19403 183
44.21414 178
44.23426 173
44.25437 182
44.27448 168
44.2946 167
44.31471 174
44.33482 193
44.35494 210
44.37505 171
44.39516 186
44.41528 144
44.43539 197
44.45551 182
44.47562 198
44.49573 170
44.51585 170
44.53596 192
44.55607 187
44.57619 214
44.5963 163
44.61642 169
44.63653 168
44.65664 188
44.67676 199
44.69687 175
44.71698 173
44.7371 154
44.75721 192
44.77732 170
44.79744 178
44.81755 185
44.83767 182
44.85778 158
44.87789 184
44.89801 198
44.91812 202
44.93823 184
44.95835 184
44.97846 205
44.99858 193
45.01869 177
45.0388 190
45.05892 199
45.07903 174
45.09914 227
45.11926 193
45.13937 205
45.15949 178
45.1796 185
45.19971 181
45.21983 207
45.23994 183
45.26005 171
45.28017 223
45.30028 203
45.32039 186
45.34051 220
45.36062 237
45.38074 229
45.40085 232
45.42096 258
45.44108 275
45.46119 283
45.4813 286
45.50142 327
45.52153 308
45.54165 342
45.56176 380
45.58187 394
45.60199 486
45.6221 552
45.64221 590
45.66233 703
45.68244 757
45.70256 813
45.72267 867
45.74278 869
45.7629 813
45.78301 713
45.80312 669
45.82324 563
45.84335 508
45.86346 521
45.88358 450
45.90369 365
45.92381 292
45.94392 258
45.96403 235
45.98415 222
46.00426 235
46.02437 186
46.04449 212
46.0646 195
46.08472 181
46.10483 186
46.12494 186
46.14506 213
46.16517 207
46.18528 196
46.2054 199
46.22551 197
46.24563 183
46.26574 176
46.28585 186
46.30597 168
46.32608 163
46.34619 184
46.36631 146
46.38642 174
46.40653 145
46.42665 162
46.44676 167
46.46688 159
46.48699 190
46.5071 172
46.52722 170
46.54733 162
46.56744 152
46.58756 167
46.60767 161
46.62779 160
46.6479 169
46.66801 166
46.68813 182
46.70824 200
46.72835 162
46.74847 191
46.76858 191
46.78869 175
46.80881 171
46.82892 183
46.84904 183
46.86915 198
46.88926 173
46.90938 208
46.92949 155
46.9496 183
46.96972 183
46.98983 170
47.00995 176
47.03006 185
47.05017 172
47.07029 171
47.0904 178
47.11051 178
47.13063 177
47.15074 196
47.17086 192
47.19097 187
47.21108 164
47.2312 160
47.25131 193
47.27142 178
47.29154 194
47.31165 204
47.33176 167
47.35188 182
47.37199 163
47.39211 194
47.41222 196
47.43233 214
47.45245 213
47.47256 194
47.49267 202
47.51279 203
47.5329 178
47.55302 176
47.57313 181
47.59324 183
47.61336 157
47.63347 196
47.65358 173
47.6737 174
47.69381 155
47.71393 169
47.73404 168
47.75415 170
47.77427 153
47.79438 151
47.81449 164
47.83461 168
47.85472 174
47.87483 168
47.89495 165
47.91506 175
47.93518 176
47.95529 172
47.9754 197
47.99552 185
48.01563 162
48.03574 171
48.05586 172
48.07597 162
48.09609 171
48.1162 198
48.13631 173
48.15643 159
48.17654 185
48.19665 170
48.21677 212
48.23688 211
48.257 183
48.27711 213
48.29722 192
48.31734 194
48.33745 176
48.35756 192
48.37768 171
48.39779 169
48.4179 179
48.43802 184
48.45813 196
48.47825 151
48.49836 203
48.51847 168
48.53859 176
48.5587 164
48.57881 172
48.59893 183
48.61904 194
48.63916 198
48.65927 187
48.67938 200
48.6995 194
48.71961 205
48.73972 181
48.75984 179
48.77995 184
48.80006 172
48.82018 181
48.84029 188
48.86041 201
48.88052 185
48.90063 212
48.92075 198
48.94086 196
48.96097 204
48.98109 253
49.0012 201
49.02132 202
49.04143 205
49.06154 217
49.08166 209
49.10177 244
49.12188 224
49.142 203
49.16211 233
49.18223 224
49.20234 208
49.22245 209
49.24257 210
49.26268 195
49.28279 198
49.30291 189
49.32302 203
49.34313 204
49.36325 201
49.38336 225
49.40348 214
49.42359 199
49.4437 204
49.46382 205
49.48393 230
49.50404 210
49.52416 241
49.54427 224
49.56439 253
49.5845 268
49.60461 263
49.62473 299
49.64484 302
49.66495 313
49.68507 383
49.70518 384
49.7253 408
49.74541 406
49.76552 436
49.78564 489
49.80575 505
49.82586 594
49.84598 608
49.86609 719
49.8862 837
49.90632 934
49.92643 1093
49.94655 1250
49.96666 1453
49.98677 1732
50.00689 1963
50.027 2179
50.04711 2501
50.06723 2607
50.08734 2488
50.10746 2380
50.12757 2066
50.14768 1851
50.1678 1536
50.18791 1392
50.20802 1346
50.22814 1243
50.24825 1001
50.26837 806
50.28848 584
50.30859 449
50.32871 422
50.34882 344
50.36893 313
50.38905 299
50.40916 319
50.42927 330
50.44939 297
50.4695 333
50.48962 343
50.50973 326
50.52984 309
50.54996 331
50.57007 338
50.59018 343
50.6103 283
50.63041 279
50.65053 296
50.67064 303
50.69075 305
50.71087 293
50.73098 243
50.75109 206
50.77121 253
50.79132 251
50.81143 223
50.83155 250
50.85166 208
50.87178 221
50.89189 232
50.912 226
50.93212 192
50.95223 203
50.97234 207
50.99246 204
51.01257 210
51.03269 208
51.0528 223
51.07291 193
51.09303 227
51.11314 187
51.13325 207
51.15337 217
51.17348 219
51.1936 244
51.21371 222
51.23382 219
51.25394 249
51.27405 224
51.29416 215
51.31428 210
51.33439 194
51.3545 201
51.37462 195
51.39473 201
51.41485 184
51.43496 178
51.45507 174
51.47519 176
51.4953 181
51.51541 161
51.53553 164
51.55564 160
51.57576 163
51.59587 149
51.61598 166
51.6361 183
51.65621 189
51.67632 163
51.69644 162
51.71655 169
51.73667 152
51.75678 164
51.77689 158
51.79701 150
51.81712 181
51.83723 164
51.85735 187
51.87746 161
51.89757 157
51.91769 169
51.9378 147
51.95792 155
51.97803 180
51.99814 167
52.01826 179
52.03837 199
52.05848 187
52.0786 155
52.09871 167
52.11883 188
52.13894 155
52.15905 153
52.17917 151
52.19928 165
52.21939 175
52.23951 179
52.25962 182
52.27974 187
52.29985 164
52.31996 180
52.34008 165
52.36019 176
52.3803 197
52.40042 172
52.42053 151
52.44064 165
52.46076 185
52.48087 177
52.50099 164
52.5211 188
52.54121 185
52.56133 196
52.58144 184
52.60155 180
52.62167 183
52.64178 166
52.6619 211
52.68201 181
52.70212 193
52.72224 201
52.74235 190
52.76246 172
52.78258 169
52.80269 203
52.8228 198
52.84292 203
52.86303 202
52.88315 207
52.90326 180
52.92337 169
52.94349 181
52.9636 174
52.98371 147
53.00383 209
53.02394 190
53.04406 187
53.06417 194
53.08428 169
53.1044 195
53.12451 203
53.14462 202
53.16474 181
53.18485 190
53.20497 161
53.22508 210
53.24519 176
53.26531 195
53.28542 196
53.30553 185
53.32565 189
53.34576 173
53.36587 218
53.38599 186
53.4061 164
53.42622 184
53.44633 170
53.46644 174
53.48656 198
53.50667 193
53.52678 190
53.5469 210
53.56701 189
53.58713 187
53.60724 171
53.62735 206
53.64747 205
53.66758 208
53.68769 173
53.70781 175
53.72792 163
53.74804 199
53.76815 191
53.78826 199
53.80838 191
53.82849 194
53.8486 217
53.86872 186
53.88883 169
53.90894 169
53.92906 232
53.94917 190
53.96929 214
53.9894 196
54.00951 182
54.02963 202
54.04974 185
54.06985 211
54.08997 202
54.11008 215
54.1302 192
54.15031 222
54.17042 194
54.19054 214
54.21065 223
54.23076 210
54.25088 221
54.27099 210
54.29111 205
54.31122 190
54.33133 208
54.35145 223
54.37156 242
54.39167 245
54.41179 214
54.4319 225
54.45201 223
54.47213 265
54.49224 284
54.51236 272
54.53247 288
54.55258 295
54.5727 304
54.59281 337
54.61292 408
54.63304 407
54.65315 451
54.67327 477
54.69338 534
54.71349 585
54.73361 653
54.75372 782
54.77383 817
54.79395 795
54.81406 894
54.83417 834
54.85429 756
54.8744 666
54.89452 609
54.91463 596
54.93474 582
54.95486 529
54.97497 542
54.99508 440
55.0152 419
55.03531 390
55.05543 314
55.07554 288
55.09565 325
55.11577 323
55.13588 359
55.15599 368
55.17611 394
55.19622 419
55.21634 431
55.23645 481
55.25656 450
55.27668 495
55.29679 506
55.3169 434
55.33702 360
55.35713 356
55.37724 332
55.39736 305
55.41747 315
55.43759 318
55.4577 259
55.47781 279
55.49793 250
55.51804 204
55.53815 203
55.55827 207
55.57838 208
55.5985 185
55.61861 196
55.63872 187
55.65884 187
55.67895 219
55.69906 199
55.71918 196
55.73929 186
55.75941 200
55.77952 211
55.79963 186
55.81975 182
55.83986 182
55.85997 213
55.88009 183
55.9002 194
55.92031 167
55.94043 178
55.96054 199
55.98066 172
56.00077 171
56.02088 185
56.041 166
56.06111 180
56.08122 176
56.10134 154
56.12145 178
56.14157 165
56.16168 165
56.18179 140
56.20191 166
56.22202 186
56.24213 165
56.26225 162
56.28236 159
56.30248 162
56.32259 163
56.3427 162
56.36282 146
56.38293 180
56.40304 173
56.42316 152
56.44327 165
56.46338 169
56.4835 154
56.50361 143
56.52373 156
56.54384 176
56.56395 182
56.58407 167
56.60418 167
56.62429 175
56.64441 155
56.66452 141
56.68464 162
56.70475 176
56.72486 154
56.74498 201
56.76509 185
56.7852 172
56.80532 187
56.82543 187
56.84554 139
56.86566 165
56.88577 162
56.90589 164
56.926 185
56.94611 172
56.96623 158
56.98634 179
57.00645 160
57.02657 159
57.04668 182
57.0668 196
57.08691 179
57.10702 213
57.12714 207
57.14725 210
57.16736 215
57.18748 177
57.20759 198
57.22771 204
57.24782 189
57.26793 190
57.28805 215
57.30816 195
57.32827 188
57.34839 222
57.3685 161
57.38861 223
57.40873 178
57.42884 192
57.44896 150
57.46907 187
57.48918 177
57.5093 160
57.52941 157
57.54952 181
57.56964 161
57.58975 198
57.60987 160
57.62998 165
57.65009 192
57.67021 159
57.69032 190
57.71043 167
57.73055 187
57.75066 190
57.77078 170
57.79089 170
57.811 182
57.83112 201
57.85123 159
57.87134 173
57.89146 172
57.91157 188
57.93168 154
57.9518 197
57.97191 174
57.99203 158
58.01214 182
58.03225 177
58.05237 162
58.07248 178
58.09259 170
58.11271 162
58.13282 182
58.15294 181
58.17305 174
58.19316 178
58.21328 169
58.23339 187
58.2535 156
58.27362 188
58.29373 160
58.31385 174
58.33396 193
58.35407 190
58.37419 182
58.3943 183
58.41441 174
58.43453 189
58.45464 193
58.47475 170
58.49487 179
58.51498 178
58.5351 184
58.55521 165
58.57532 173
58.59544 175
58.61555 185
58.63566 204
58.65578 166
58.67589 183
58.69601 153
58.71612 172
58.73623 181
58.75635 190
58.77646 171
58.79657 196
58.81669 187
58.8368 187
58.85691 186
58.87703 178
58.89714 173
58.91726 161
58.93737 164
58.95748 165
58.9776 149
58.99771 174
59.01782 153
59.03794 164
59.05805 164
59.07817 181
59.09828 184
59.11839 171
59.13851 177
59.15862 190
59.17873 165
59.19885 181
59.21896 197
59.23908 188
59.25919 191
59.2793 201
59.29942 171
59.31953 183
59.33964 237
59.35976 205
59.37987 245
59.39998 242
59.4201 210
59.44021 255
59.46033 246
59.48044 234
59.50055 247
59.52067 286
59.54078 316
59.56089 319
59.58101 340
59.60112 398
59.62124 447
59.64135 440
59.66146 472
59.68158 536
59.70169 601
59.7218 663
59.74192 803
59.76203 939
59.78215 1018
59.80226 1116
59.82237 1304
59.84249 1476
59.8626 1575
59.88271 1693
59.90283 1633
59.92294 1507
59.94305 1347
59.96317 1164
59.98328 971
60.0034 916
60.02351 925
60.04362 907
60.06374 847
60.08385 764
60.10396 638
60.12408 501
60.14419 425
60.16431 346
60.18442 329
60.20453 251
60.22465 242
60.24476 233
60.26487 205
60.28499 215
60.3051 210
60.32522 228
60.34533 216
60.36544 212
60.38556 192
60.40567 188
60.42578 214
60.4459 160
60.46601 184
60.48612 214
60.50624 194
60.52635 166
60.54647 154
60.56658 169
60.58669 174
60.60681 196
60.62692 162
60.64703 183
60.66715 213
60.68726 179
60.70738 144
60.72749 194
60.7476 147
60.76772 155
60.78783 188
60.80794 183
60.82806 189
60.84817 186
60.86828 177
60.8884 162
60.90851 169
60.92863 175
60.94874 196
60.96885 201
60.98897 191
61.00908 190
61.02919 202
61.04931 170
61.06942 174
61.08954 185
61.10965 187
61.12976 186
61.14988 223
61.16999 209
61.1901 197
61.21022 190
61.23033 182
61.25045 193
61.27056 194
61.29067 200
61.31079 207
61.3309 209
61.35101 198
61.37113 181
61.39124 204
61.41135 159
61.43147 163
61.45158 214
61.4717 193
61.49181 142
61.51192 201
61.53204 186
61.55215 188
61.57226 204
61.59238 207
61.61249 187
61.63261 205
61.65272 157
61.67283 186
61.69295 213
61.71306 192
61.73317 171
61.75329 220
61.7734 196
61.79352 216
61.81363 197
61.83374 187
61.85386 186
61.87397 176
61.89408 186
61.9142 197
61.93431 184
61.95442 206
61.97454 197
61.99465 193
62.01477 219
62.03488 207
62.05499 200
62.07511 208
62.09522 189
62.11533 199
62.13545 177
62.15556 218
62.17568 212
62.19579 192
62.2159 190
62.23602 185
62.25613 193
62.27624 179
62.29636 166
62.31647 189
62.33659 183
62.3567 183
62.37681 170
62.39693 202
62.41704 181
62.43715 193
62.45727 189
62.47738 153
62.49749 181
62.51761 167
62.53772 183
62.55784 175
62.57795 175
62.59806 170
62.61818 153
62.63829 170
62.6584 170
62.67852 177
62.69863 155
62.71875 159
62.73886 157
62.75897 177
62.77909 157
62.7992 185
62.81931 185
62.83943 172
62.85954 152
62.87965 173
62.89977 165
62.91988 195
62.94 163
62.96011 175
62.98022 161
63.00034 183
63.02045 172
63.04056 184
63.06068 180
63.08079 167
63.10091 176
63.12102 170
63.14113 175
63.16125 204
63.18136 176
63.20147 180
63.22159 212
63.2417 186
63.26182 175
63.28193 169
63.30204 205
63.32216 159
63.34227 185
63.36238 185
63.3825 188
63.40261 172
63.42272 162
63.44284 187
63.46295 177
63.48307 163
63.50318 192
63.52329 197
63.54341 172
63.56352 194
63.58363 182
63.60375 203
63.62386 190
63.64398 196
63.66409 236
63.6842 220
63.70432 254
63.72443 258
63.74454 239
63.76466 267
63.78477 290
63.80489 256
63.825 315
63.84511 322
63.86523 368
63.88534 334
63.90545 411
63.92557 405
63.94568 372
63.96579 430
63.98591 394
64.00602 356
64.02614 371
64.04625 326
64.06636 291
64.08648 278
64.10659 286
64.1267 301
64.14682 270
64.16693 283
64.18705 263
64.20716 234
64.22727 183
64.24739 186
64.2675 189
64.28761 162
64.30773 161
64.32784 148
64.34796 151
64.36807 148
64.38818 166
64.4083 159
64.42841 167
64.44852 152
64.46864 159
64.48875 131
64.50886 158
64.52898 142
64.54909 144
64.56921 142
64.58932 170
64.60943 159
64.62955 150
64.64966 149
64.66977 188
64.68989 158
64.71 148
64.73012 152
64.75023 156
64.77034 162
64.79046 172
64.81057 160
64.83068 147
64.8508 183
64.87091 151
64.89102 178
64.91114 163
64.93125 145
64.95137 162
64.97148 170
64.99159 177
65.01171 163
65.03182 185
65.05193 160
65.07205 183
65.09216 149
65.11228 179
65.13239 172
65.1525 190
65.17262 174
65.19273 189
65.21284 181
65.23296 180
65.25307 197
65.27319 165
65.2933 153
65.31341 177
65.33353 186
65.35364 187
65.37375 193
65.39387 178
65.41398 193
65.43409 194
65.45421 180
65.47432 188
65.49444 192
65.51455 183
65.53466 184
65.55478 203
65.57489 202
65.595 221
65.61512 223
65.63523 215
65.65535 237
65.67546 221
65.69557 212
65.71569 235
65.7358 240
65.75591 214
65.77603 215
65.79614 192
65.81626 169
65.83637 180
65.85648 186
65.8766 218
65.89671 177
65.91682 195
65.93694 171
65.95705 185
65.97716 187
65.99728 184
66.01739 152
66.03751 185
66.05762 169
66.07773 173
66.09785 144
66.11796 163
66.13807 153
66.15819 170
66.1783 175
66.19842 166
66.21853 182
66.23864 172
66.25876 173
66.27887 163
66.29898 164
66.3191 172
66.33921 161
66.35933 169
66.37944 167
66.39955 175
66.41967 173
66.43978 168
66.45989 170
66.48001 161
66.50012 183
66.52023 156
66.54035 176
66.56046 166
66.58058 172
66.60069 164
66.6208 170
66.64092 165
66.66103 179
66.68114 184
66.70126 189
66.72137 172
66.74149 165
66.7616 177
66.78171 163
66.80183 186
66.82194 165
66.84205 200
66.86217 161
66.88228 158
66.90239 190
66.92251 166
66.94262 172
66.96274 183
66.98285 165
67.00296 180
67.02308 191
67.04319 169
67.0633 189
67.08342 185
67.10353 229
67.12365 190
67.14376 201
67.16387 190
67.18399 218
67.2041 226
67.22421 220
67.24433 227
67.26444 244
67.28456 231
67.30467 247
67.32478 266
67.3449 283
67.36501 289
67.38512 310
67.40524 337
67.42535 382
67.44546 368
67.46558 428
67.48569 459
67.50581 511
67.52592 511
67.54603 649
67.56615 731
67.58626 748
67.60637 908
67.62649 937
67.6466 1005
67.66672 1068
67.68683 1077
67.70694 1033
67.72706 911
67.74717 812
67.76728 758
67.7874 770
67.80751 799
67.82763 815
67.84774 892
67.86785 911
67.88797 920
67.90808 899
67.92819 909
67.94831 967
67.96842 987
67.98853 1132
68.00865 1188
68.02876 1321
68.04888 1381
68.06899 1425
68.0891 1436
68.10922 1333
68.12933 1329
68.14944 1234
68.16956 1230
68.18967 1215
68.20979 1253
68.2299 1219
68.25001 1215
68.27013 1201
68.29024 1102
68.31035 916
68.33047 804
68.35058 644
68.3707 584
68.39081 548
68.41092 580
68.43104 542
68.45115 504
68.47126 443
68.49138 387
68.51149 332
68.5316 286
68.55172 231
68.57183 229
68.59195 208
68.61206 216
68.63217 200
68.65229 197
68.6724 161
68.69251 210
68.71263 206
68.73274 205
68.75286 211
68.77297 206
68.79308 166
68.8132 177
68.83331 194
68.85342 192
68.87354 172
68.89365 181
68.91376 153
68.93388 163
68.95399 186
68.97411 180
68.99422 180
69.01433 187
69.03445 189
69.05456 166
69.07467 162
69.09479 151
69.1149 178
69.13502 143
69.15513 169
69.17524 173
69.19536 175
69.21547 164
69.23558 190
69.2557 207
69.27581 187
69.29593 174
69.31604 204
69.33615 213
69.35627 183
69.37638 191
69.39649 173
69.41661 169
69.43672 157
69.45683 175
69.47695 155
69.49706 172
69.51718 155
69.53729 169
69.5574 193
69.57752 154
69.59763 181
69.61774 189
69.63786 166
69.65797 159
69.67809 176
69.6982 162
69.71831 174
69.73843 172
69.75854 158
69.77865 150
69.79877 172
69.81888 172
69.839 172
69.85911 176
69.87922 150
69.89934 176
69.91945 185
69.93956 137
69.95968 156
69.97979 168
69.9999 159
70.02002 147
70.04013 144
70.06025 168
70.08036 173
70.10047 158
70.12059 155
70.1407 138
70.16081 152
70.18093 121
70.20104 162
70.22116 154
70.24127 130
70.26138 165
70.2815 158
70.30161 171
70.32172 160
70.34184 148
70.36195 144
70.38207 161
70.40218 144
70.42229 135
70.44241 163
70.46252 159
70.48263 132
70.50275 175
70.52286 159
70.54297 153
70.56309 128
70.5832 165
70.60332 128
70.62343 166
70.64354 149
70.66366 167
70.68377 131
70.70388 144
70.724 136
70.74411 161
70.76423 151
70.78434 148
70.80445 172
70.82457 167
70.84468 147
70.86479 150
70.88491 159
70.90502 146
70.92513 147
70.94525 159
70.96536 142
70.98548 137
71.00559 164
71.0257 157
71.04582 142
71.06593 150
71.08604 131
71.10616 132
71.12627 143
71.14639 144
71.1665 170
71.18661 138
71.20673 146
71.22684 143
71.24695 134
71.26707 123
71.28718 147
71.3073 164
71.32741 147
71.34752 165
71.36764 161
71.38775 141
71.40786 158
71.42798 179
71.44809 148
71.4682 166
71.48832 150
71.50843 146
71.52855 155
71.54866 141
71.56877 140
71.58889 169
71.609 145
71.62911 160
71.64923 154
71.66934 161
71.68946 141
71.70957 156
71.72968 144
71.7498 148
71.76991 141
71.79002 166
71.81014 151
71.83025 171
71.85037 157
71.87048 152
71.89059 158
71.91071 148
71.93082 143
71.95093 158
71.97105 174
71.99116 139
72.01127 162
72.03139 155
72.0515 152
72.07162 146
72.09173 158
72.11184 161
72.13196 148
72.15207 169
72.17218 143
72.1923 159
72.21241 169
72.23253 152
72.25264 162
72.27275 167
72.29287 134
72.31298 141
72.33309 179
72.35321 155
72.37332 160
72.39344 157
72.41355 132
72.43366 174
72.45378 140
72.47389 154
72.494 164
72.51412 156
72.53423 140
72.55434 153
72.57446 148
72.59457 155
72.61469 147
72.6348 143
72.65491 145
72.67503 177
72.69514 165
72.71525 176
72.73537 166
72.75548 149
72.7756 154
72.79571 153
72.81582 166
72.83594 179
72.85605 179
72.87616 201
72.89628 157
72.91639 177
72.9365 181
72.95662 168
72.97673 186
72.99685 192
73.01696 167
73.03707 194
73.05719 205
73.0773 193
73.09741 204
73.11753 206
73.13764 215
73.15776 246
73.17787 243
73.19798 243
73.2181 264
73.23821 287
73.25832 315
73.27844 304
73.29855 350
73.31867 383
73.33878 389
73.35889 455
73.37901 458
73.39912 449
73.41923 409
73.43935 394
73.45946 358
73.47957 311
73.49969 293
73.5198 267
73.53992 301
73.56003 279
73.58014 299
73.60026 270
73.62037 273
73.64048 286
73.6606 271
73.68071 244
73.70083 192
73.72094 166
73.74105 203
73.76117 158
73.78128 181
73.80139 155
73.82151 164
73.84162 186
73.86174 146
73.88185 179
73.90196 160
73.92208 155
73.94219 155
73.9623 194
73.98242 181
74.00253 187
74.02264 163
74.04276 161
74.06287 152
74.08299 166
74.1031 131
74.12321 166
74.14333 167
74.16344 148
74.18355 171
74.20367 145
74.22378 165
74.2439 157
74.26401 149
74.28412 152
74.30424 164
74.32435 150
74.34446 162
74.36458 150
74.38469 182
74.40481 166
74.42492 145
74.44503 160
74.46515 171
74.48526 173
74.50537 169
74.52549 164
74.5456 143
74.56571 165
74.58583 178
74.60594 159
74.62606 190
74.64617 189
74.66628 168
74.6864 177
74.70651 175
74.72662 168
74.74674 146
74.76685 147
74.78697 147
74.80708 153
74.82719 158
74.84731 167
74.86742 181
74.88753 133
74.90765 172
74.92776 178
74.94787 172
74.96799 159
74.9881 167
75.00822 169
