3.00117 20157
3.02128 19718
3.0414 19195
3.06151 18370
3.08162 17995
3.10174 17886
3.12185 17032
3.14197 16691
3.16208 15748
3.18219 15781
3.20231 15381
3.22242 14707
3.24253 14508
3.26265 13715
3.28276 13498
3.30288 13137
3.32299 12598
3.3431 12408
3.36322 11442
3.38333 11381
3.40344 11249
3.42356 10383
3.44367 10579
3.46379 9648
3.4839 9519
3.50401 9179
3.52413 8910
3.54424 8715
3.56435 8211
3.58447 8045
3.60458 7746
3.62469 7363
3.64481 7146
3.66492 6817
3.68504 6773
3.70515 6436
3.72526 6144
3.74538 5938
3.76549 5617
3.7856 5450
3.80572 5273
3.82583 4664
3.84595 4513
3.86606 4489
3.88617 4424
3.90629 4147
3.9264 3791
3.94651 3871
3.96663 3615
3.98674 3460
4.00686 3534
4.02697 3000
4.04708 3074
4.0672 2749
4.08731 2777
4.10742 2753
4.12754 2517
4.14765 2388
4.16776 2263
4.18788 2225
4.20799 2220
4.22811 2076
4.24822 2094
4.26833 1880
4.28845 1922
4.30856 1915
4.32867 1679
4.34879 1626
4.3689 1661
4.38902 1658
4.40913 1686
4.42924 1517
4.44936 1480
4.46947 1314
4.48958 1429
4.5097 1464
4.52981 1224
4.54992 1235
4.57004 1281
4.59015 1202
4.61027 1290
4.63038 1202
4.65049 1146
4.67061 1111
4.69072 1133
4.71083 1119
4.73095 1019
4.75106 954
4.77118 1009
4.79129 959
4.8114 973
4.83152 931
4.85163 917
4.87174 929
4.89186 832
4.91197 892
4.93209 772
4.9522 724
4.97231 821
4.99243 780
5.01254 854
5.03265 795
5.05277 768
5.07288 734
5.09299 725
5.11311 708
5.13322 604
5.15334 663
5.17345 607
5.19356 579
5.21368 623
5.23379 589
5.2539 613
5.27402 564
5.29413 583
5.31425 506
5.33436 521
5.35447 540
5.37459 561
5.3947 525
5.41481 424
5.43493 456
5.45504 448
5.47516 471
5.49527 464
5.51538 448
5.5355 423
5.55561 405
5.57572 477
5.59584 466
5.61595 418
5.63606 441
5.65618 420
5.67629 385
5.69641 413
5.71652 368
5.73663 355
5.75675 384
5.77686 378
5.79697 396
5.81709 339
5.8372 374
5.85732 351
5.87743 361
5.89754 352
5.91766 313
5.93777 318
5.95788 332
5.978 292
5.99811 344
6.01823 324
6.03834 318
6.05845 303
6.07857 304
6.09868 322
6.11879 300
6.13891 316
6.15902 354
6.17913 288
6.19925 303
6.21936 324
6.23948 291
6.25959 283
6.2797 252
6.29982 289
6.31993 289
6.34004 296
6.36016 301
6.38027 280
6.40039 286
6.4205 264
6.44061 304
6.46073 279
6.48084 258
6.50095 295
6.52107 279
6.54118 289
6.56129 292
6.58141 283
6.60152 269
6.62164 289
6.64175 238
6.66186 231
6.68198 251
6.70209 258
6.7222 257
6.74232 252
6.76243 250
6.78255 272
6.80266 304
6.82277 239
6.84289 277
6.863 247
6.88311 286
6.90323 269
6.92334 250
6.94346 284
6.96357 261
6.98368 254
7.0038 274
7.02391 241
7.04402 264
7.06414 259
7.08425 308
7.10436 276
7.12448 279
7.14459 274
7.16471 249
7.18482 233
7.20493 263
7.22505 269
7.24516 232
7.26527 256
7.28539 238
7.3055 262
7.32562 241
7.34573 267
7.36584 280
7.38596 312
7.40607 268
7.42618 259
7.4463 242
7.46641 294
7.48653 263
7.50664 283
7.52675 242
7.54687 252
7.56698 270
7.58709 255
7.60721 272
7.62732 250
7.64743 266
7.66755 237
7.68766 255
7.70778 249
7.72789 269
7.748 245
7.76812 246
7.78823 230
7.80834 274
7.82846 276
7.84857 246
7.86869 292
7.8888 262
7.90891 275
7.92903 261
7.94914 270
7.96925 274
7.98937 292
8.00948 240
8.0296 268
8.04971 294
8.06982 289
8.08994 265
8.11005 252
8.13016 263
8.15028 294
8.17039 265
8.1905 252
8.21062 273
8.23073 244
8.25085 272
8.27096 319
8.29107 239
8.31119 269
8.3313 291
8.35141 275
8.37153 290
8.39164 228
8.41176 308
8.43187 270
8.45198 297
8.4721 304
8.49221 293
8.51232 275
8.53244 263
8.55255 287
8.57266 296
8.59278 319
8.61289 275
8.63301 295
8.65312 291
8.67323 290
8.69335 310
8.71346 301
8.73357 304
8.75369 270
8.7738 302
8.79392 296
8.81403 310
8.83414 330
8.85426 311
8.87437 281
8.89448 298
8.9146 273
8.93471 285
8.95483 310
8.97494 294
8.99505 310
9.01517 315
9.03528 272
9.05539 299
9.07551 292
9.09562 297
9.11573 306
9.13585 260
9.15596 285
9.17608 246
9.19619 299
9.2163 287
9.23642 261
9.25653 292
9.27664 267
9.29676 300
9.31687 260
9.33699 258
9.3571 260
9.37721 299
9.39733 272
9.41744 274
9.43755 295
9.45767 301
9.47778 271
9.4979 253
9.51801 262
9.53812 282
9.55824 257
9.57835 291
9.59846 246
9.61858 272
9.63869 276
9.6588 299
9.67892 300
9.69903 288
9.71915 288
9.73926 254
9.75937 263
9.77949 231
9.7996 289
9.81971 264
9.83983 302
9.85994 282
9.88006 309
9.90017 262
9.92028 309
9.9404 320
9.96051 290
9.98062 292
10.00074 289
10.02085 254
10.04097 299
10.06108 297
10.08119 282
10.10131 248
10.12142 240
10.14153 258
10.16165 279
10.18176 282
10.20187 270
10.22199 275
10.2421 281
10.26222 306
10.28233 270
10.30244 294
10.32256 263
10.34267 298
10.36278 286
10.3829 276
10.40301 294
10.42313 259
10.44324 272
10.46335 303
10.48347 278
10.50358 277
10.52369 284
10.54381 267
10.56392 286
10.58403 275
10.60415 271
10.62426 298
10.64438 259
10.66449 312
10.6846 260
10.70472 278
10.72483 279
10.74494 279
10.76506 280
10.78517 266
10.80529 269
10.8254 296
10.84551 289
10.86563 276
10.88574 280
10.90585 291
10.92597 250
10.94608 277
10.9662 306
10.98631 280
11.00642 266
11.02654 274
11.04665 281
11.06676 274
11.08688 312
11.10699 314
11.1271 275
11.14722 275
11.16733 291
11.18745 277
11.20756 274
11.22767 300
11.24779 257
11.2679 289
11.28801 343
11.30813 310
11.32824 305
11.34836 293
11.36847 325
11.38858 286
11.4087 306
11.42881 284
11.44892 260
11.46904 296
11.48915 309
11.50927 279
11.52938 276
11.54949 308
11.56961 301
11.58972 266
11.60983 312
11.62995 303
11.65006 320
11.67017 307
11.69029 301
11.7104 325
11.73052 301
11.75063 289
11.77074 276
11.79086 319
11.81097 345
11.83108 346
11.8512 325
11.87131 364
11.89143 305
11.91154 339
11.93165 386
11.95177 391
11.97188 380
11.99199 411
12.01211 413
12.03222 424
12.05234 472
12.07245 435
12.09256 509
12.11268 523
12.13279 555
12.1529 528
12.17302 544
12.19313 563
12.21324 560
12.23336 633
12.25347 600
12.27359 611
12.2937 649
12.31381 657
12.33393 600
12.35404 642
12.37415 617
12.39427 612
12.41438 584
12.4345 561
12.45461 572
12.47472 491
12.49484 444
12.51495 436
12.53506 431
12.55518 401
12.57529 402
12.5954 362
12.61552 393
12.63563 353
12.65575 375
12.67586 341
12.69597 318
12.71609 354
12.7362 285
12.75631 311
12.77643 294
12.79654 325
12.81666 266
12.83677 315
12.85688 299
12.877 286
12.89711 270
12.91722 287
12.93734 247
12.95745 264
12.97757 231
12.99768 251
13.01779 250
13.03791 273
13.05802 292
13.07813 278
13.09825 239
13.11836 265
13.13847 260
13.15859 259
13.1787 216
13.19882 267
13.21893 245
13.23904 253
13.25916 226
13.27927 276
13.29938 219
13.3195 255
13.33961 262
13.35973 285
13.37984 248
13.39995 271
13.42007 247
13.44018 257
13.46029 239
13.48041 243
13.50052 243
13.52064 270
13.54075 265
13.56086 247
13.58098 213
13.60109 249
13.6212 238
13.64132 265
13.66143 214
13.68154 218
13.70166 214
13.72177 253
13.74189 268
13.762 229
13.78211 238
13.80223 255
13.82234 223
13.84245 254
13.86257 240
13.88268 244
13.9028 252
13.92291 246
13.94302 253
13.96314 233
13.98325 238
14.00336 240
14.02348 237
14.04359 226
14.06371 223
14.08382 206
14.10393 213
14.12405 235
14.14416 269
14.16427 216
14.18439 238
14.2045 228
14.22461 248
14.24473 211
14.26484 234
14.28496 251
14.30507 266
14.32518 229
14.3453 251
14.36541 284
14.38552 231
14.40564 245
14.42575 252
14.44587 235
14.46598 244
14.48609 229
14.50621 223
14.52632 245
14.54643 272
14.56655 237
14.58666 253
14.60677 235
14.62689 254
14.647 249
14.66712 215
14.68723 234
14.70734 223
14.72746 262
14.74757 213
14.76768 222
14.7878 218
14.80791 245
14.82803 191
14.84814 205
14.86825 247
14.88837 220
14.90848 199
14.92859 242
14.94871 230
14.96882 250
14.98894 252
15.00905 179
15.02916 203
15.04928 194
15.06939 247
15.0895 229
15.10962 236
15.12973 243
15.14984 219
15.16996 215
15.19007 218
15.21019 243
15.2303 233
15.25041 200
15.27053 230
15.29064 220
15.31075 211
15.33087 216
15.35098 221
15.3711 215
15.39121 199
15.41132 226
15.43144 242
15.45155 230
15.47166 221
15.49178 257
15.51189 211
15.53201 224
15.55212 214
15.57223 226
15.59235 218
15.61246 227
15.63257 209
15.65269 241
15.6728 202
15.69291 221
15.71303 236
15.73314 231
15.75326 223
15.77337 219
15.79348 227
15.8136 243
15.83371 211
15.85382 227
15.87394 243
15.89405 230
15.91417 223
15.93428 216
15.95439 230
15.97451 207
15.99462 220
16.01473 206
16.03485 216
16.05496 224
16.07508 218
16.09519 206
16.1153 211
16.13542 223
16.15553 237
16.17564 232
16.19576 231
16.21587 217
16.23598 227
16.2561 208
16.27621 207
16.29633 209
16.31644 228
16.33655 219
16.35667 236
16.37678 208
16.39689 223
16.41701 227
16.43712 212
16.45724 234
16.47735 219
16.49746 198
16.51758 214
16.53769 200
16.5578 208
16.57792 235
16.59803 203
16.61814 232
16.63826 189
16.65837 215
16.67849 230
16.6986 228
16.71871 223
16.73883 201
16.75894 224
16.77905 229
16.79917 268
16.81928 191
16.8394 223
16.85951 205
16.87962 181
16.89974 216
16.91985 246
16.93996 203
16.96008 243
16.98019 233
17.00031 231
17.02042 200
17.04053 214
17.06065 215
17.08076 266
17.10087 209
17.12099 221
17.1411 212
17.16121 207
17.18133 198
17.20144 229
17.22156 246
17.24167 225
17.26178 211
17.2819 208
17.30201 232
17.32212 227
17.34224 227
17.36235 240
17.38247 217
17.40258 205
17.42269 218
17.44281 240
17.46292 224
17.48303 231
17.50315 203
17.52326 230
17.54338 239
17.56349 219
17.5836 230
17.60372 207
17.62383 238
17.64394 224
17.66406 244
17.68417 233
17.70428 227
17.7244 247
17.74451 244
17.76463 238
17.78474 258
17.80485 284
17.82497 223
17.84508 225
17.86519 221
17.88531 233
17.90542 215
17.92554 230
17.94565 216
17.96576 243
17.98588 252
18.00599 255
18.0261 223
18.04622 240
18.06633 239
18.08645 245
18.10656 239
18.12667 279
18.14679 231
18.1669 256
18.18701 243
18.20713 248
18.22724 249
18.24735 238
18.26747 265
18.28758 264
18.3077 245
18.32781 289
18.34792 236
18.36804 253
18.38815 252
18.40826 229
18.42838 255
18.44849 223
18.46861 250
18.48872 218
18.50883 227
18.52895 239
18.54906 227
18.56917 262
18.58929 210
18.6094 229
18.62951 180
18.64963 231
18.66974 236
18.68986 260
18.70997 233
18.73008 234
18.7502 253
18.77031 241
18.79042 270
18.81054 228
18.83065 241
18.85077 209
18.87088 219
18.89099 232
18.91111 223
18.93122 254
18.95133 228
18.97145 195
18.99156 246
19.01168 239
19.03179 236
19.0519 217
19.07202 221
19.09213 228
19.11224 220
19.13236 232
19.15247 244
19.17258 231
19.1927 245
19.21281 226
19.23293 204
19.25304 238
19.27315 235
19.29327 220
19.31338 237
19.33349 217
19.35361 230
19.37372 246
19.39384 240
19.41395 251
19.43406 240
19.45418 227
19.47429 248
19.4944 226
19.51452 269
19.53463 279
19.55475 270
19.57486 259
19.59497 259
19.61509 291
19.6352 341
19.65531 327
19.67543 329
19.69554 376
19.71565 386
19.73577 421
19.75588 430
19.776 498
19.79611 529
19.81622 512
19.83634 557
19.85645 549
19.87656 528
19.89668 557
19.91679 609
19.93691 543
19.95702 518
19.97713 509
19.99725 504
20.01736 485
20.03747 485
20.05759 447
20.0777 514
20.09782 524
20.11793 504
20.13804 495
20.15816 532
20.17827 453
20.19838 545
20.2185 528
20.23861 502
20.25872 485
20.27884 470
20.29895 549
20.31907 531
20.33918 478
20.35929 524
20.37941 534
20.39952 544
20.41963 599
20.43975 588
20.45986 581
20.47998 500
20.50009 585
20.5202 627
20.54032 649
20.56043 651
20.58054 667
20.60066 712
20.62077 795
20.64088 916
20.661 1088
20.68111 1388
20.70123 1776
20.72134 2321
20.74145 2996
20.76157 3827
20.78168 4886
20.80179 5725
20.82191 6218
20.84202 6009
20.86214 5373
20.88225 4247
20.90236 3277
20.92248 2305
20.94259 1551
20.9627 1073
20.98282 820
21.00293 690
21.02305 646
21.04316 593
21.06327 585
21.08339 591
21.1035 509
21.12361 544
21.14373 557
21.16384 539
21.18395 537
21.20407 532
21.22418 477
21.2443 538
21.26441 523
21.28452 494
21.30464 465
21.32475 500
21.34486 477
21.36498 492
21.38509 483
21.40521 502
21.42532 508
21.44543 504
21.46555 492
21.48566 518
21.50577 458
21.52589 426
21.546 462
21.56612 439
21.58623 423
21.60634 417
21.62646 434
21.64657 466
21.66668 408
21.6868 365
21.70691 386
21.72702 396
21.74714 374
21.76725 383
21.78737 388
21.80748 386
21.82759 361
21.84771 393
21.86782 340
21.88793 386
21.90805 396
21.92816 361
21.94828 359
21.96839 368
21.9885 377
22.00862 379
22.02873 400
22.04884 355
22.06896 347
22.08907 378
22.10919 378
22.1293 374
22.14941 368
22.16953 361
22.18964 352
22.20975 408
22.22987 367
22.24998 334
22.27009 332
22.29021 324
22.31032 358
22.33044 349
22.35055 366
22.37066 338
22.39078 350
22.41089 358
22.431 348
22.45112 289
22.47123 347
22.49135 330
22.51146 312
22.53157 311
22.55169 304
22.5718 324
22.59191 314
22.61203 345
22.63214 324
22.65225 306
22.67237 327
22.69248 308
22.7126 295
22.73271 322
22.75282 324
22.77294 339
22.79305 346
22.81316 351
22.83328 338
22.85339 389
22.87351 301
22.89362 355
22.91373 329
22.93385 335
22.95396 322
22.97407 298
22.99419 307
23.0143 300
23.03442 310
23.05453 318
23.07464 294
23.09476 332
23.11487 351
23.13498 270
23.1551 315
23.17521 301
23.19532 304
23.21544 272
23.23555 299
23.25567 340
23.27578 293
23.29589 278
23.31601 276
23.33612 272
23.35623 300
23.37635 277
23.39646 270
23.41658 271
23.43669 281
23.4568 290
23.47692 310
23.49703 312
23.51714 291
23.53726 303
23.55737 293
23.57749 304
23.5976 288
23.61771 295
23.63783 275
23.65794 282
23.67805 291
23.69817 323
23.71828 313
23.73839 301
23.75851 306
23.77862 318
23.79874 340
23.81885 321
23.83896 350
23.85908 328
23.87919 332
23.8993 364
23.91942 361
23.93953 353
23.95965 367
23.97976 296
23.99987 369
24.01999 384
24.0401 368
24.06021 362
24.08033 336
24.10044 312
24.12056 299
24.14067 314
24.16078 313
24.1809 338
24.20101 304
24.22112 296
24.24124 325
24.26135 345
24.28146 340
24.30158 316
24.32169 357
24.34181 329
24.36192 310
24.38203 322
24.40215 363
24.42226 332
24.44237 351
24.46249 374
24.4826 335
24.50272 387
24.52283 360
24.54294 403
24.56306 405
24.58317 389
24.60328 395
24.6234 424
24.64351 440
24.66362 451
24.68374 440
24.70385 497
24.72397 480
24.74408 494
24.76419 543
24.78431 587
24.80442 549
24.82453 566
24.84465 587
24.86476 570
24.88488 536
24.90499 525
24.9251 534
24.94522 547
24.96533 489
24.98544 511
25.00556 486
25.02567 452
25.04579 461
25.0659 426
25.08601 455
25.10613 420
25.12624 426
25.14635 402
25.16647 417
25.18658 398
25.20669 400
25.22681 398
25.24692 445
25.26704 393
25.28715 356
25.30726 376
25.32738 382
25.34749 351
25.3676 373
25.38772 390
25.40783 339
25.42795 359
25.44806 388
25.46817 388
25.48829 382
25.5084 354
25.52851 372
25.54863 361
25.56874 356
25.58886 386
25.60897 357
25.62908 392
25.6492 380
25.66931 443
25.68942 450
25.70954 452
25.72965 498
25.74976 503
25.76988 458
25.78999 499
25.81011 524
25.83022 440
25.85033 469
25.87045 510
25.89056 483
25.91067 535
25.93079 531
25.9509 517
25.97102 510
25.99113 554
26.01124 546
26.03136 526
26.05147 560
26.07158 582
26.0917 665
26.11181 688
26.13193 710
26.15204 739
26.17215 758
26.19227 860
26.21238 894
26.23249 997
26.25261 1032
26.27272 1094
26.29283 1163
26.31295 1295
26.33306 1530
26.35318 1758
26.37329 2100
26.3934 2540
26.41352 3135
26.43363 4079
26.45374 5503
26.47386 7516
26.49397 10022
26.51409 13437
26.5342 17159
26.55431 21450
26.57443 24598
26.59454 26186
26.61465 26038
26.63477 23791
26.65488 19479
26.67499 14972
26.69511 10790
26.71522 7616
26.73534 4742
26.75545 3005
26.77556 2039
26.79568 1662
26.81579 1334
26.8359 1286
26.85602 1119
26.87613 1082
26.89625 951
26.91636 885
26.93647 864
26.95659 789
26.9767 677
26.99681 646
27.01693 582
27.03704 592
27.05716 532
27.07727 525
27.09738 474
27.1175 505
27.13761 482
27.15772 512
27.17784 456
27.19795 441
27.21806 414
27.23818 420
27.25829 436
27.27841 402
27.29852 423
27.31863 421
27.33875 434
27.35886 464
27.37897 434
27.39909 445
27.4192 449
27.43932 412
27.45943 439
27.47954 408
27.49966 369
27.51977 367
27.53988 349
27.56 385
27.58011 333
27.60023 376
27.62034 355
27.64045 361
27.66057 352
27.68068 335
27.70079 346
27.72091 351
27.74102 336
27.76113 339
27.78125 383
27.80136 361
27.82148 298
27.84159 358
27.8617 359
27.88182 354
27.90193 376
27.92204 385
27.94216 323
27.96227 344
27.98239 320
28.0025 318
28.02261 313
28.04273 329
28.06284 320
28.08295 310
28.10307 304
28.12318 312
28.1433 296
28.16341 327
28.18352 283
28.20364 278
28.22375 328
28.24386 304
28.26398 280
28.28409 321
28.3042 331
28.32432 350
28.34443 303
28.36455 286
28.38466 320
28.40477 295
28.42489 301
28.445 321
28.46511 286
28.48523 272
28.50534 332
28.52546 324
28.54557 303
28.56568 267
28.5858 303
28.60591 287
28.62602 256
28.64614 303
28.66625 297
28.68636 278
28.70648 280
28.72659 290
28.74671 291
28.76682 297
28.78693 247
28.80705 276
28.82716 266
28.84727 259
28.86739 287
28.8875 313
28.90762 282
28.92773 262
28.94784 289
28.96796 265
28.98807 246
29.00818 250
29.0283 275
29.04841 241
29.06853 275
29.08864 310
29.10875 239
29.12887 289
29.14898 286
29.16909 268
29.18921 269
29.20932 261
29.22943 286
29.24955 261
29.26966 285
29.28978 303
29.30989 246
29.33 260
29.35012 258
29.37023 270
29.39034 267
29.41046 268
29.43057 264
29.45069 259
29.4708 265
29.49091 257
29.51103 288
29.53114 252
29.55125 278
29.57137 251
29.59148 269
29.6116 280
29.63171 273
29.65182 267
29.67194 305
29.69205 285
29.71216 288
29.73228 283
29.75239 280
29.7725 246
29.79262 269
29.81273 279
29.83285 265
29.85296 296
29.87307 249
29.89319 309
29.9133 262
29.93341 306
29.95353 255
29.97364 262
29.99376 292
30.01387 268
30.03398 245
30.0541 245
30.07421 249
30.09432 246
30.11444 247
30.13455 278
30.15467 251
30.17478 252
30.19489 254
30.21501 269
30.23512 260
30.25523 230
30.27535 285
30.29546 275
30.31557 263
30.33569 261
30.3558 256
30.37592 272
30.39603 259
30.41614 243
30.43626 251
30.45637 270
30.47648 274
30.4966 279
30.51671 271
30.53683 241
30.55694 263
30.57705 241
30.59717 253
30.61728 266
30.63739 257
30.65751 268
30.67762 273
30.69773 262
30.71785 237
30.73796 253
30.75808 265
30.77819 263
30.7983 252
30.81842 262
30.83853 265
30.85864 251
30.87876 259
30.89887 271
30.91899 252
30.9391 265
30.95921 234
30.97933 252
30.99944 236
31.01955 268
31.03967 258
31.05978 267
31.0799 275
31.10001 241
31.12012 261
31.14024 268
31.16035 259
31.18046 261
31.20058 258
31.22069 250
31.2408 272
31.26092 264
31.28103 255
31.30115 243
31.32126 219
31.34137 213
31.36149 243
31.3816 243
31.40171 239
31.42183 245
31.44194 238
31.46206 233
31.48217 229
31.50228 214
31.5224 228
31.54251 246
31.56262 252
31.58274 240
31.60285 228
31.62297 226
31.64308 256
31.66319 268
31.68331 249
31.70342 241
31.72353 218
31.74365 235
31.76376 241
31.78387 241
31.80399 239
31.8241 216
31.84422 247
31.86433 235
31.88444 250
31.90456 223
31.92467 231
31.94478 249
31.9649 244
31.98501 253
32.00513 255
32.02524 256
32.04535 223
32.06547 256
32.08558 227
32.10569 259
32.12581 264
32.14592 234
32.16604 215
32.18615 239
32.20626 231
32.22638 249
32.24649 247
32.2666 248
32.28672 223
32.30683 253
32.32694 269
32.34706 207
32.36717 245
32.38729 254
32.4074 240
32.42751 215
32.44763 248
32.46774 286
32.48785 238
32.50797 252
32.52808 243
32.5482 234
32.56831 262
32.58842 243
32.60854 233
32.62865 252
32.64876 240
32.66888 244
32.68899 226
32.7091 221
32.72922 263
32.74933 244
32.76945 261
32.78956 241
32.80967 264
32.82979 264
32.8499 253
32.87001 227
32.89013 276
32.91024 261
32.93036 258
32.95047 252
32.97058 246
32.9907 277
33.01081 272
33.03092 286
33.05104 234
33.07115 250
33.09127 247
33.11138 255
33.13149 233
33.15161 273
33.17172 289
33.19183 285
33.21195 267
33.23206 234
33.25217 258
33.27229 295
33.2924 276
33.31252 290
33.33263 275
33.35274 291
33.37286 236
33.39297 248
33.41308 252
33.4332 264
33.45331 262
33.47343 267
33.49354 269
33.51365 263
33.53377 274
33.55388 273
33.57399 262
33.59411 261
33.61422 225
33.63434 278
33.65445 264
33.67456 246
33.69468 218
33.71479 251
33.7349 240
33.75502 236
33.77513 219
33.79524 243
33.81536 236
33.83547 258
33.85559 249
33.8757 241
33.89581 227
33.91593 227
33.93604 239
33.95615 249
33.97627 211
33.99638 218
34.0165 230
34.03661 216
34.05672 235
34.07684 229
34.09695 198
34.11706 249
34.13718 203
34.15729 191
34.17741 223
34.19752 230
34.21763 208
34.23775 253
34.25786 240
34.27797 220
34.29809 230
34.3182 236
34.33831 239
34.35843 260
34.37854 246
34.39866 244
34.41877 223
34.43888 275
34.459 241
34.47911 240
34.49922 265
34.51934 276
34.53945 259
34.55957 271
34.57968 272
34.59979 269
34.61991 316
34.64002 263
34.66013 298
34.68025 336
34.70036 309
34.72047 328
34.74059 353
34.7607 376
34.78082 367
34.80093 357
34.82104 403
34.84116 414
34.86127 377
34.88138 410
34.9015 430
34.92161 430
34.94173 429
34.96184 453
34.98195 392
35.00207 416
35.02218 409
35.04229 366
35.06241 404
35.08252 364
35.10264 336
35.12275 371
35.14286 344
35.16298 333
35.18309 316
35.2032 340
35.22332 320
35.24343 351
35.26354 336
35.28366 322
35.30377 355
35.32389 330
35.344 339
35.36411 332
35.38423 332
35.40434 365
35.42445 339
35.44457 363
35.46468 363
35.4848 347
35.50491 340
35.52502 388
35.54514 368
35.56525 355
35.58536 372
35.60548 365
35.62559 385
35.64571 338
35.66582 387
35.68593 364
35.70605 382
35.72616 386
35.74627 388
35.76639 378
35.7865 338
35.80661 385
35.82673 390
35.84684 391
35.86696 367
35.88707 385
35.90718 428
35.9273 381
35.94741 407
35.96752 380
35.98764 430
36.00775 404
36.02787 394
36.04798 380
36.06809 341
36.08821 354
36.10832 344
36.12843 347
36.14855 325
36.16866 363
36.18878 387
36.20889 397
36.229 402
36.24912 443
36.26923 477
36.28934 481
36.30946 543
36.32957 654
36.34968 722
36.3698 891
36.38991 997
36.41003 1298
36.43014 1478
36.45025 1692
36.47037 1902
36.49048 2059
36.51059 1936
36.53071 1742
36.55082 1536
36.57094 1350
36.59105 1127
36.61116 1006
36.63128 839
36.65139 657
36.6715 503
36.69162 424
36.71173 390
36.73184 378
36.75196 369
36.77207 368
36.79219 341
36.8123 336
36.83241 324
36.85253 371
36.87264 323
36.89275 326
36.91287 344
36.93298 339
36.9531 321
36.97321 314
36.99332 342
37.01344 268
37.03355 313
37.05366 285
37.07378 309
37.09389 294
37.11401 290
37.13412 305
37.15423 340
37.17435 302
37.19446 287
37.21457 344
37.23469 311
37.2548 299
37.27491 285
37.29503 276
37.31514 281
37.33526 302
37.35537 284
37.37548 301
37.3956 289
37.41571 328
37.43582 311
37.45594 258
37.47605 274
37.49617 295
37.51628 307
37.53639 279
37.55651 299
37.57662 319
37.59673 327
37.61685 313
37.63696 322
37.65708 332
37.67719 321
37.6973 306
37.71742 307
37.73753 298
37.75764 315
37.77776 339
37.79787 288
37.81798 326
37.8381 305
37.85821 314
37.87833 302
37.89844 274
37.91855 303
37.93867 262
37.95878 310
37.97889 311
37.99901 279
38.01912 301
38.03924 340
38.05935 345
38.07946 332
38.09958 340
38.11969 304
38.1398 336
38.15992 373
38.18003 384
38.20015 385
38.22026 357
38.24037 371
38.26049 372
38.2806 395
38.30071 421
38.32083 389
38.34094 372
38.36105 399
38.38117 402
38.40128 417
38.4214 414
38.44151 356
38.46162 368
38.48174 326
38.50185 367
38.52196 354
38.54208 351
38.56219 333
38.58231 353
38.60242 299
38.62253 333
38.64265 306
38.66276 310
38.68287 356
38.70299 321
38.7231 319
38.74321 309
38.76333 321
38.78344 324
38.80356 332
38.82367 294
38.84378 281
38.8639 326
38.88401 322
38.90412 315
38.92424 316
38.94435 313
38.96447 334
38.98458 340
39.00469 329
39.02481 354
39.04492 377
39.06503 387
39.08515 371
39.10526 376
39.12538 414
39.14549 432
39.1656 473
39.18572 471
39.20583 476
39.22594 529
39.24606 583
39.26617 684
39.28628 829
39.3064 973
39.32651 1190
39.34663 1333
39.36674 1593
39.38685 1732
39.40697 1773
39.42708 1854
39.44719 1686
39.46731 1525
39.48742 1311
39.50754 1110
39.52765 961
39.54776 868
39.56788 703
39.58799 535
39.6081 435
39.62822 381
39.64833 356
39.66845 346
39.68856 315
39.70867 298
39.72879 289
39.7489 304
39.76901 310
39.78913 292
39.80924 257
39.82935 286
39.84947 292
39.86958 292
39.8897 289
39.90981 304
39.92992 281
39.95004 304
39.97015 324
39.99026 289
40.01038 358
40.03049 380
40.05061 381
40.07072 418
40.09083 512
40.11095 542
40.13106 587
40.15117 705
40.17129 819
40.1914 909
40.21152 982
40.23163 1003
40.25174 952
40.27186 915
40.29197 896
40.31208 714
40.3322 682
40.35231 597
40.37242 554
40.39254 451
40.41265 390
40.43277 349
40.45288 291
40.47299 314
40.49311 314
40.51322 277
40.53333 327
40.55345 289
40.57356 276
40.59368 288
40.61379 247
40.6339 251
40.65402 258
40.67413 254
40.69424 271
40.71436 253
40.73447 282
40.75458 264
40.7747 275
40.79481 257
40.81493 293
40.83504 260
40.85515 292
40.87527 252
40.89538 253
40.91549 256
40.93561 275
40.95572 265
40.97584 251
40.99595 293
41.01606 278
41.03618 267
41.05629 244
41.0764 297
41.09652 283
41.11663 269
41.13675 286
41.15686 298
41.17697 261
41.19709 262
41.2172 270
41.23731 266
41.25743 257
41.27754 258
41.29765 246
41.31777 236
41.33788 262
41.358 287
41.37811 214
41.39822 244
41.41834 224
41.43845 225
41.45856 256
41.47868 265
41.49879 251
41.51891 271
41.53902 264
41.55913 226
41.57925 250
41.59936 272
41.61947 283
41.63959 250
41.6597 250
41.67982 249
41.69993 241
41.72004 271
41.74016 239
41.76027 246
41.78038 251
41.8005 260
41.82061 238
41.84072 265
41.86084 251
41.88095 269
41.90107 262
41.92118 257
41.94129 272
41.96141 277
41.98152 265
42.00163 266
42.02175 272
42.04186 282
42.06198 275
42.08209 310
42.1022 305
42.12232 311
42.14243 352
42.16254 302
42.18266 425
42.20277 416
42.22289 447
42.243 538
42.26311 632
42.28323 633
42.30334 845
42.32345 964
42.34357 1178
42.36368 1273
42.38379 1353
42.40391 1349
42.42402 1272
42.44414 1136
42.46425 1000
42.48436 897
42.50448 809
42.52459 682
42.5447 630
42.56482 519
42.58493 449
42.60505 311
42.62516 312
42.64527 275
42.66539 274
42.6855 256
42.70561 237
42.72573 233
42.74584 258
42.76595 220
42.78607 244
42.80618 224
42.8263 225
42.84641 267
42.86652 210
42.88664 201
42.90675 221
42.92686 215
42.94698 239
42.96709 229
42.98721 219
43.00732 228
43.02743 230
43.04755 232
43.06766 209
43.08777 204
43.10789 207
43.128 196
43.14812 237
43.16823 224
43.18834 209
43.20846 210
43.22857 214
43.24868 225
43.2688 225
43.28891 234
43.30902 221
43.32914 205
43.34925 213
43.36937 216
43.38948 225
43.40959 173
43.42971 201
43.44982 221
43.46993 209
43.49005 194
43.51016 192
43.53028 212
43.55039 230
43.5705 218
43.59062 168
43.61073 197
43.63084 204
43.65096 238
43.67107 227
43.69119 246
43.7113 180
43.73141 201
43.75153 205
43.77164 233
43.79175 185
43.81187 227
43.83198 206
43.85209 235
43.87221 218
43.89232 208
43.91244 209
43.93255 193
43.95266 213
43.97278 201
43.99289 213
44.013 202
44.03312 236
44.05323 229
44.07335 203
44.09346 253
44.11357 214
44.13369 232
44.1538 236
44.17391 243
44.19403 203
44.21414 235
44.23426 222
44.25437 204
44.27448 210
44.2946 253
44.31471 202
44.33482 188
44.35494 211
44.37505 187
44.39516 202
44.41528 192
44.43539 228
44.45551 219
44.47562 227
44.49573 208
44.51585 209
44.53596 190
44.55607 236
44.57619 213
44.5963 221
44.61642 212
44.63653 219
44.65664 200
44.67676 221
44.69687 209
44.71698 213
44.7371 224
44.75721 211
44.77732 210
44.79744 211
44.81755 205
44.83767 222
44.85778 234
44.87789 216
44.89801 228
44.91812 236
44.93823 234
44.95835 200
44.97846 240
44.99858 221
45.01869 241
45.0388 225
45.05892 228
45.07903 253
45.09914 224
45.11926 261
45.13937 230
45.15949 244
45.1796 243
45.19971 234
45.21983 251
45.23994 242
45.26005 269
45.28017 253
45.30028 273
45.32039 254
45.34051 291
45.36062 276
45.38074 297
45.40085 272
45.42096 303
45.44108 310
45.46119 328
45.4813 356
45.50142 305
45.52153 342
45.54165 393
45.56176 380
45.58187 418
45.60199 513
45.6221 526
45.64221 620
45.66233 693
45.68244 857
45.70256 905
45.72267 929
45.74278 986
45.7629 873
45.78301 819
45.80312 755
45.82324 645
45.84335 591
45.86346 571
45.88358 525
45.90369 397
45.92381 379
45.94392 296
45.96403 312
45.98415 266
46.00426 263
46.02437 266
46.04449 240
46.0646 243
46.08472 250
46.10483 226
46.12494 211
46.14506 237
46.16517 247
46.18528 200
46.2054 216
46.22551 233
46.24563 223
46.26574 212
46.28585 241
46.30597 227
46.32608 244
46.34619 220
46.36631 224
46.38642 223
46.40653 216
46.42665 211
46.44676 235
46.46688 202
46.48699 240
46.5071 221
46.52722 207
46.54733 240
46.56744 230
46.58756 203
46.60767 212
46.62779 215
46.6479 214
46.66801 254
46.68813 238
46.70824 214
46.72835 204
46.74847 236
46.76858 221
46.78869 250
46.80881 202
46.82892 230
46.84904 237
46.86915 214
46.88926 225
46.90938 196
46.92949 221
46.9496 209
46.96972 208
46.98983 210
47.00995 207
47.03006 214
47.05017 226
47.07029 212
47.0904 196
47.11051 217
47.13063 228
47.15074 206
47.17086 201
47.19097 213
47.21108 207
47.2312 213
47.25131 222
47.27142 204
47.29154 198
47.31165 212
47.33176 191
47.35188 200
47.37199 213
47.39211 186
47.41222 226
47.43233 239
47.45245 232
47.47256 219
47.49267 209
47.51279 186
47.5329 210
47.55302 213
47.57313 194
47.59324 241
47.61336 234
47.63347 213
47.65358 223
47.6737 191
47.69381 222
47.71393 211
47.73404 198
47.75415 227
47.77427 226
47.79438 206
47.81449 214
47.83461 232
47.85472 208
47.87483 248
47.89495 195
47.91506 234
47.93518 218
47.95529 199
47.9754 226
47.99552 211
48.01563 220
48.03574 225
48.05586 224
48.07597 195
48.09609 190
48.1162 198
48.13631 211
48.15643 222
48.17654 212
48.19665 201
48.21677 178
48.23688 216
48.257 205
48.27711 212
48.29722 193
48.31734 215
48.33745 191
48.35756 189
48.37768 213
48.39779 216
48.4179 209
48.43802 231
48.45813 209
48.47825 199
48.49836 207
48.51847 233
48.53859 230
48.5587 231
48.57881 213
48.59893 218
48.61904 247
48.63916 215
48.65927 224
48.67938 214
48.6995 227
48.71961 197
48.73972 233
48.75984 242
48.77995 239
48.80006 209
48.82018 226
48.84029 206
48.86041 224
48.88052 210
48.90063 219
48.92075 200
48.94086 218
48.96097 217
48.98109 219
49.0012 233
49.02132 229
49.04143 206
49.06154 222
49.08166 220
49.10177 234
49.12188 231
49.142 235
49.16211 215
49.18223 217
49.20234 233
49.22245 227
49.24257 216
49.26268 250
49.28279 241
49.30291 264
49.32302 260
49.34313 257
49.36325 247
49.38336 253
49.40348 238
49.42359 272
49.4437 248
49.46382 198
49.48393 254
49.50404 283
49.52416 254
49.54427 257
49.56439 264
49.5845 266
49.60461 299
49.62473 289
49.64484 278
49.66495 300
49.68507 327
49.70518 298
49.7253 330
49.74541 367
49.76552 372
49.78564 380
49.80575 469
49.82586 449
49.84598 536
49.86609 610
49.8862 712
49.90632 852
49.92643 1036
49.94655 1095
49.96666 1414
49.98677 1604
50.00689 1967
50.027 2289
50.04711 2522
50.06723 2748
50.08734 2724
50.10746 2503
50.12757 2278
50.14768 1993
50.1678 1784
50.18791 1583
50.20802 1398
50.22814 1294
50.24825 1141
50.26837 896
50.28848 668
50.30859 534
50.32871 397
50.34882 379
50.36893 329
50.38905 312
50.40916 313
50.42927 302
50.44939 286
50.4695 300
50.48962 325
50.50973 293
50.52984 294
50.54996 320
50.57007 297
50.59018 286
50.6103 301
50.63041 263
50.65053 252
50.67064 279
50.69075 254
50.71087 267
50.73098 250
50.75109 249
50.77121 234
50.79132 218
50.81143 271
50.83155 222
50.85166 216
50.87178 246
50.89189 219
50.912 228
50.93212 229
50.95223 245
50.97234 212
50.99246 213
51.01257 236
51.03269 238
51.0528 191
51.07291 195
51.09303 226
51.11314 224
51.13325 212
51.15337 223
51.17348 200
51.1936 226
51.21371 260
51.23382 217
51.25394 243
51.27405 192
51.29416 203
51.31428 190
51.33439 197
51.3545 217
51.37462 198
51.39473 193
51.41485 212
51.43496 218
51.45507 217
51.47519 204
51.4953 189
51.51541 201
51.53553 199
51.55564 171
51.57576 226
51.59587 194
51.61598 195
51.6361 195
51.65621 203
51.67632 189
51.69644 189
51.71655 189
51.73667 179
51.75678 191
51.77689 221
51.79701 185
51.81712 217
51.83723 194
51.85735 193
51.87746 212
51.89757 199
51.91769 207
51.9378 205
51.95792 199
51.97803 177
51.99814 192
52.01826 193
52.03837 170
52.05848 199
52.0786 194
52.09871 208
52.11883 192
52.13894 213
52.15905 213
52.17917 187
52.19928 203
52.21939 208
52.23951 177
52.25962 194
52.27974 171
52.29985 207
52.31996 206
52.34008 208
52.36019 197
52.3803 192
52.40042 213
52.42053 211
52.44064 204
52.46076 217
52.48087 202
52.50099 195
52.5211 191
52.54121 184
52.56133 212
52.58144 224
52.60155 180
52.62167 179
52.64178 199
52.6619 181
52.68201 210
52.70212 196
52.72224 206
52.74235 196
52.76246 190
52.78258 208
52.80269 205
52.8228 194
52.84292 218
52.86303 180
52.88315 216
52.90326 230
52.92337 194
52.94349 209
52.9636 198
52.98371 222
53.00383 209
53.02394 206
53.04406 181
53.06417 247
53.08428 211
53.1044 209
53.12451 212
53.14462 192
53.16474 224
53.18485 234
53.20497 212
53.22508 224
53.24519 248
53.26531 218
53.28542 217
53.30553 195
53.32565 218
53.34576 218
53.36587 240
53.38599 212
53.4061 204
53.42622 223
53.44633 229
53.46644 242
53.48656 242
53.50667 225
53.52678 224
53.5469 244
53.56701 230
53.58713 235
53.60724 226
53.62735 224
53.64747 246
53.66758 212
53.68769 275
53.70781 243
53.72792 243
53.74804 216
53.76815 217
53.78826 232
53.80838 245
53.82849 224
53.8486 260
53.86872 262
53.88883 252
53.90894 228
53.92906 232
53.94917 261
53.96929 247
53.9894 252
54.00951 283
54.02963 260
54.04974 256
54.06985 256
54.08997 256
54.11008 291
54.1302 277
54.15031 287
54.17042 297
54.19054 271
54.21065 285
54.23076 267
54.25088 274
54.27099 263
54.29111 270
54.31122 266
54.33133 269
54.35145 262
54.37156 276
54.39167 309
54.41179 310
54.4319 281
54.45201 298
54.47213 301
54.49224 374
54.51236 325
54.53247 331
54.55258 320
54.5727 316
54.59281 370
54.61292 407
54.63304 420
54.65315 457
54.67327 529
54.69338 608
54.71349 648
54.73361 784
54.75372 807
54.77383 889
54.79395 913
54.81406 955
54.83417 863
54.85429 835
54.8744 809
54.89452 723
54.91463 709
54.93474 618
54.95486 635
54.97497 602
54.99508 570
55.0152 475
55.03531 467
55.05543 436
55.07554 359
55.09565 392
55.11577 416
55.13588 437
55.15599 443
55.17611 477
55.19622 541
55.21634 542
55.23645 549
55.25656 566
55.27668 573
55.29679 589
55.3169 528
55.33702 448
55.35713 409
55.37724 414
55.39736 412
55.41747 374
55.43759 398
55.4577 339
55.47781 305
55.49793 296
55.51804 270
55.53815 267
55.55827 275
55.57838 267
55.5985 236
55.61861 258
55.63872 287
55.65884 257
55.67895 260
55.69906 265
55.71918 244
55.73929 216
55.75941 240
55.77952 266
55.79963 241
55.81975 243
55.83986 246
55.85997 205
55.88009 261
55.9002 242
55.92031 217
55.94043 235
55.96054 259
55.98066 232
56.00077 231
56.02088 222
56.041 194
56.06111 212
56.08122 238
56.10134 206
56.12145 244
56.14157 203
56.16168 222
56.18179 189
56.20191 214
56.22202 243
56.24213 237
56.26225 230
56.28236 234
56.30248 195
56.32259 204
56.3427 224
56.36282 205
56.38293 233
56.40304 229
56.42316 232
56.44327 239
56.46338 223
56.4835 240
56.50361 233
56.52373 224
56.54384 229
56.56395 245
56.58407 217
56.60418 227
56.62429 227
56.64441 252
56.66452 195
56.68464 212
56.70475 208
56.72486 234
56.74498 214
56.76509 212
56.7852 205
56.80532 230
56.82543 222
56.84554 235
56.86566 219
56.88577 213
56.90589 212
56.926 218
56.94611 205
56.96623 217
56.98634 214
57.00645 227
57.02657 209
57.04668 228
57.0668 204
57.08691 237
57.10702 242
57.12714 236
57.14725 229
57.16736 245
57.18748 262
57.20759 245
57.22771 221
57.24782 237
57.26793 239
57.28805 252
57.30816 229
57.32827 223
57.34839 202
57.3685 194
57.38861 230
57.40873 212
57.42884 166
57.44896 194
57.46907 206
57.48918 227
57.5093 224
57.52941 229
57.54952 226
57.56964 201
57.58975 215
57.60987 208
57.62998 213
57.65009 214
57.67021 193
57.69032 220
57.71043 209
57.73055 215
57.75066 210
57.77078 209
57.79089 212
57.811 184
57.83112 206
57.85123 196
57.87134 194
57.89146 214
57.91157 211
57.93168 189
57.9518 189
57.97191 210
57.99203 178
58.01214 226
58.03225 208
58.05237 203
58.07248 213
58.09259 194
58.11271 209
58.13282 218
58.15294 210
58.17305 211
58.19316 198
58.21328 201
58.23339 182
58.2535 194
58.27362 193
58.29373 200
58.31385 190
58.33396 211
58.35407 186
58.37419 197
58.3943 224
58.41441 194
58.43453 218
58.45464 208
58.47475 200
58.49487 181
58.51498 206
58.5351 207
58.55521 227
58.57532 229
58.59544 206
58.61555 197
58.63566 196
58.65578 220
58.67589 206
58.69601 235
58.71612 209
58.73623 209
58.75635 199
58.77646 204
58.79657 227
58.81669 215
58.8368 198
58.85691 177
58.87703 189
58.89714 201
58.91726 211
58.93737 190
58.95748 247
58.9776 205
58.99771 211
59.01782 229
59.03794 195
59.05805 200
59.07817 191
59.09828 244
59.11839 207
59.13851 232
59.15862 220
59.17873 204
59.19885 224
59.21896 209
59.23908 224
59.25919 218
59.2793 249
59.29942 231
59.31953 256
59.33964 244
59.35976 235
59.37987 249
59.39998 247
59.4201 283
59.44021 274
59.46033 304
59.48044 282
59.50055 296
59.52067 314
59.54078 319
59.56089 318
59.58101 332
59.60112 361
59.62124 378
59.64135 462
59.66146 474
59.68158 532
59.70169 590
59.7218 656
59.74192 753
59.76203 920
59.78215 1101
59.80226 1197
59.82237 1387
59.84249 1449
59.8626 1732
59.88271 1735
59.90283 1732
59.92294 1514
59.94305 1426
59.96317 1237
59.98328 1075
60.0034 1016
60.02351 1060
60.04362 949
60.06374 922
60.08385 840
60.10396 713
60.12408 616
60.14419 493
60.16431 382
60.18442 315
60.20453 313
60.22465 278
60.24476 261
60.26487 267
60.28499 248
60.3051 232
60.32522 212
60.34533 268
60.36544 274
60.38556 218
60.40567 207
60.42578 234
60.4459 216
60.46601 215
60.48612 183
60.50624 194
60.52635 240
60.54647 218
60.56658 213
60.58669 204
60.60681 194
60.62692 198
60.64703 241
60.66715 219
60.68726 199
60.70738 220
60.72749 197
60.7476 193
60.76772 196
60.78783 238
60.80794 200
60.82806 195
60.84817 209
60.86828 210
60.8884 205
60.90851 193
60.92863 225
60.94874 199
60.96885 181
60.98897 184
61.00908 217
61.02919 178
61.04931 190
61.06942 177
61.08954 186
61.10965 198
61.12976 193
61.14988 175
61.16999 184
61.1901 206
61.21022 219
61.23033 198
61.25045 195
61.27056 205
61.29067 209
61.31079 198
61.3309 195
61.35101 208
61.37113 196
61.39124 219
61.41135 207
61.43147 197
61.45158 235
61.4717 231
61.49181 215
61.51192 220
61.53204 234
61.55215 200
61.57226 205
61.59238 221
61.61249 236
61.63261 215
61.65272 242
61.67283 211
61.69295 238
61.71306 238
61.73317 213
61.75329 219
61.7734 233
61.79352 232
61.81363 190
61.83374 207
61.85386 241
61.87397 241
61.89408 231
61.9142 244
61.93431 249
61.95442 256
61.97454 242
61.99465 255
62.01477 265
62.03488 273
62.05499 300
62.07511 282
62.09522 313
62.11533 276
62.13545 314
62.15556 301
62.17568 307
62.19579 321
62.2159 295
62.23602 313
62.25613 278
62.27624 325
62.29636 277
62.31647 284
62.33659 265
62.3567 283
62.37681 280
62.39693 276
62.41704 292
62.43715 264
62.45727 256
62.47738 230
62.49749 215
62.51761 268
62.53772 226
62.55784 246
62.57795 226
62.59806 218
62.61818 236
62.63829 213
62.6584 229
62.67852 201
62.69863 209
62.71875 197
62.73886 208
62.75897 194
62.77909 174
62.7992 198
62.81931 190
62.83943 189
62.85954 201
62.87965 197
62.89977 206
62.91988 168
62.94 196
62.96011 188
62.98022 209
63.00034 194
63.02045 178
63.04056 196
63.06068 225
63.08079 214
63.10091 208
63.12102 226
63.14113 205
63.16125 216
63.18136 226
63.20147 203
63.22159 192
63.2417 225
63.26182 215
63.28193 184
63.30204 212
63.32216 202
63.34227 184
63.36238 194
63.3825 219
63.40261 211
63.42272 214
63.44284 203
63.46295 209
63.48307 206
63.50318 198
63.52329 195
63.54341 239
63.56352 219
63.58363 228
63.60375 214
63.62386 243
63.64398 217
63.66409 232
63.6842 236
63.70432 222
63.72443 249
63.74454 269
63.76466 273
63.78477 289
63.80489 299
63.825 318
63.84511 329
63.86523 355
63.88534 372
63.90545 425
63.92557 427
63.94568 468
63.96579 506
63.98591 441
64.00602 425
64.02614 417
64.04625 343
64.06636 378
64.08648 317
64.10659 354
64.1267 346
64.14682 327
64.16693 301
64.18705 317
64.20716 269
64.22727 245
64.24739 238
64.2675 204
64.28761 205
64.30773 201
64.32784 193
64.34796 185
64.36807 199
64.38818 185
64.4083 189
64.42841 215
64.44852 212
64.46864 202
64.48875 197
64.50886 196
64.52898 197
64.54909 181
64.56921 197
64.58932 172
64.60943 183
64.62955 204
64.64966 191
64.66977 188
64.68989 180
64.71 161
64.73012 199
64.75023 187
64.77034 193
64.79046 190
64.81057 167
64.83068 199
64.8508 209
64.87091 172
64.89102 197
64.91114 179
64.93125 185
64.95137 193
64.97148 195
64.99159 211
65.01171 196
65.03182 184
65.05193 191
65.07205 197
65.09216 163
65.11228 214
65.13239 162
65.1525 184
65.17262 182
65.19273 189
65.21284 184
65.23296 223
65.25307 219
65.27319 217
65.2933 211
65.31341 186
65.33353 218
65.35364 199
65.37375 214
65.39387 199
65.41398 198
65.43409 193
65.45421 195
65.47432 208
65.49444 198
65.51455 184
65.53466 215
65.55478 209
65.57489 220
65.595 238
65.61512 222
65.63523 243
65.65535 242
65.67546 268
65.69557 224
65.71569 251
65.7358 241
65.75591 239
65.77603 238
65.79614 222
65.81626 223
65.83637 226
65.85648 191
65.8766 227
65.89671 226
65.91682 213
65.93694 206
65.95705 211
65.97716 184
65.99728 190
66.01739 188
66.03751 211
66.05762 189
66.07773 192
66.09785 175
66.11796 185
66.13807 188
66.15819 202
66.1783 178
66.19842 171
66.21853 197
66.23864 182
66.25876 176
66.27887 175
66.29898 193
66.3191 194
66.33921 195
66.35933 201
66.37944 188
66.39955 172
66.41967 222
66.43978 197
66.45989 217
66.48001 186
66.50012 213
66.52023 190
66.54035 188
66.56046 194
66.58058 177
66.60069 185
66.6208 180
66.64092 169
66.66103 202
66.68114 197
66.70126 202
66.72137 192
66.74149 203
66.7616 199
66.78171 194
66.80183 201
66.82194 208
66.84205 206
66.86217 199
66.88228 197
66.90239 186
66.92251 197
66.94262 218
66.96274 211
66.98285 204
67.00296 203
67.02308 213
67.04319 212
67.0633 203
67.08342 229
67.10353 203
67.12365 201
67.14376 198
67.16387 205
67.18399 201
67.2041 241
67.22421 233
67.24433 245
67.26444 251
67.28456 262
67.30467 275
67.32478 244
67.3449 293
67.36501 292
67.38512 314
67.40524 316
67.42535 335
67.44546 386
67.46558 381
67.48569 426
67.50581 516
67.52592 564
67.54603 659
67.56615 703
67.58626 765
67.60637 908
67.62649 1014
67.6466 1053
67.66672 995
67.68683 1058
67.70694 991
67.72706 887
67.74717 847
67.76728 749
67.7874 789
67.80751 778
67.82763 794
67.84774 884
67.86785 853
67.88797 848
67.90808 890
67.92819 913
67.94831 920
67.96842 945
67.98853 1013
68.00865 1196
68.02876 1271
68.04888 1366
68.06899 1503
68.0891 1503
68.10922 1360
68.12933 1313
68.14944 1177
68.16956 1210
68.18967 1211
68.20979 1264
68.2299 1300
68.25001 1279
68.27013 1269
68.29024 1050
68.31035 952
68.33047 818
68.35058 678
68.3707 636
68.39081 555
68.41092 558
68.43104 540
68.45115 509
68.47126 459
68.49138 391
68.51149 354
68.5316 306
68.55172 277
68.57183 295
68.59195 270
68.61206 246
68.63217 235
68.65229 220
68.6724 168
68.69251 223
68.71263 235
68.73274 214
68.75286 219
68.77297 203
68.79308 210
68.8132 213
68.83331 209
68.85342 210
68.87354 197
68.89365 195
68.91376 212
68.93388 192
68.95399 206
68.97411 189
68.99422 195
69.01433 186
69.03445 193
69.05456 208
69.07467 193
69.09479 188
69.1149 161
69.13502 174
69.15513 192
69.17524 180
69.19536 183
69.21547 178
69.23558 195
69.2557 177
69.27581 176
69.29593 211
69.31604 189
69.33615 187
69.35627 205
69.37638 197
69.39649 189
69.41661 171
69.43672 197
69.45683 190
69.47695 212
69.49706 201
69.51718 189
69.53729 196
69.5574 188
69.57752 183
69.59763 181
69.61774 195
69.63786 171
69.65797 187
69.67809 180
69.6982 179
69.71831 187
69.73843 189
69.75854 160
69.77865 168
69.79877 163
69.81888 178
69.839 177
69.85911 173
69.87922 186
69.89934 174
69.91945 200
69.93956 185
69.95968 209
69.97979 168
69.9999 185
70.02002 178
70.04013 196
70.06025 195
70.08036 181
70.10047 180
70.12059 197
70.1407 199
70.16081 172
70.18093 186
70.20104 170
70.22116 190
70.24127 198
70.26138 196
70.2815 186
70.30161 184
70.32172 174
70.34184 178
70.36195 203
70.38207 178
70.40218 186
70.42229 164
70.44241 162
70.46252 192
70.48263 186
70.50275 198
70.52286 176
70.54297 192
70.56309 171
70.5832 186
70.60332 178
70.62343 175
70.64354 172
70.66366 201
70.68377 166
70.70388 151
70.724 172
70.74411 178
70.76423 174
70.78434 196
70.80445 153
70.82457 185
70.84468 168
70.86479 173
70.88491 183
70.90502 185
70.92513 187
70.94525 167
70.96536 180
70.98548 144
71.00559 182
71.0257 163
71.04582 177
71.06593 148
71.08604 177
71.10616 164
71.12627 182
71.14639 166
71.1665 169
71.18661 188
71.20673 191
71.22684 162
71.24695 171
71.26707 161
71.28718 162
71.3073 166
71.32741 169
71.34752 186
71.36764 153
71.38775 173
71.40786 183
71.42798 179
71.44809 183
71.4682 161
71.48832 174
71.50843 182
71.52855 172
71.54866 171
71.56877 179
71.58889 179
71.609 174
71.62911 152
71.64923 167
71.66934 180
71.68946 162
71.70957 188
71.72968 166
71.7498 191
71.76991 167
71.79002 174
71.81014 144
71.83025 168
71.85037 168
71.87048 164
71.89059 177
71.91071 197
71.93082 168
71.95093 187
71.97105 166
71.99116 177
72.01127 164
72.03139 176
72.0515 181
72.07162 184
72.09173 177
72.11184 179
72.13196 176
72.15207 199
72.17218 164
72.1923 198
72.21241 176
72.23253 186
72.25264 183
72.27275 158
72.29287 192
72.31298 171
72.33309 188
72.35321 185
72.37332 191
72.39344 161
72.41355 170
72.43366 204
72.45378 193
72.47389 179
72.494 170
72.51412 188
72.53423 181
72.55434 162
72.57446 172
72.59457 156
72.61469 180
72.6348 196
72.65491 161
72.67503 196
72.69514 177
72.71525 177
72.73537 181
72.75548 182
72.7756 188
72.79571 162
72.81582 177
72.83594 200
72.85605 160
72.87616 186
72.89628 192
72.91639 198
72.9365 174
72.95662 221
72.97673 185
72.99685 212
73.01696 208
73.03707 212
73.05719 199
73.0773 201
73.09741 211
73.11753 231
73.13764 226
73.15776 239
73.17787 243
73.19798 255
73.2181 298
73.23821 270
73.25832 305
73.27844 296
73.29855 358
73.31867 363
73.33878 429
73.35889 462
73.37901 445
73.39912 464
73.41923 467
73.43935 427
73.45946 427
73.47957 363
73.49969 298
73.5198 301
73.53992 299
73.56003 317
73.58014 302
73.60026 324
73.62037 304
73.64048 336
73.6606 302
73.68071 275
73.70083 237
73.72094 210
73.74105 210
73.76117 189
73.78128 186
73.80139 198
73.82151 194
73.84162 192
73.86174 197
73.88185 197
73.90196 200
73.92208 201
73.94219 204
73.9623 157
73.98242 172
74.00253 171
74.02264 178
74.04276 170
74.06287 172
74.08299 169
74.1031 170
74.12321 182
74.14333 173
74.16344 171
74.18355 161
74.20367 173
74.22378 183
74.2439 185
74.26401 165
74.28412 192
74.30424 164
74.32435 170
74.34446 165
74.36458 171
74.38469 170
74.40481 167
74.42492 172
74.44503 189
74.46515 181
74.48526 161
74.50537 176
74.52549 170
74.5456 167
74.56571 172
74.58583 181
74.60594 179
74.62606 167
74.64617 179
74.66628 194
74.6864 162
74.70651 163
74.72662 182
74.74674 171
74.76685 153
74.78697 185
74.80708 187
74.82719 174
74.84731 173
74.86742 157
74.88753 187
74.90765 182
74.92776 182
74.94787 177
74.96799 176
74.9881 180
75.00822 175
