3.00117 20712.4012277775
3.02128 20267.7928647263
3.0414 19321
3.06151 18868.7324239006
3.08162 18170.418498913
3.10174 17761.1150164283
3.12185 17220.2078818273
3.14197 16818.6540729581
3.16208 16289.5483825045
3.18219 15785.2269874912
3.20231 15432.9045117069
3.22242 15160.3549335002
3.24253 14383.4581485883
3.26265 14349.1796010062
3.28276 13606.2895807254
3.30288 13252.3630084013
3.32299 12706.2933657711
3.3431 12205
3.36322 11844.6777874174
3.38333 11494.3769821225
3.40344 11041.1723343872
3.42356 10738.3692121413
3.44367 10550.4675178104
3.46379 10091.2494079873
3.4839 9656
3.50401 9383.91713031236
3.52413 9177.39589652631
3.54424 8656.21038498996
3.56435 8450.4679427194
3.58447 8196.34234296337
3.60458 7977.31194950208
3.62469 7550.22587077194
3.64481 7139.81024742961
3.66492 6826.81172695221
3.68504 6729.81854362528
3.70515 6561.39876878093
3.72526 6250.75180625076
3.74538 5901.22461289926
3.76549 5755.10194630792
3.7856 5480
3.80572 5403.0187258407
3.82583 5318.49067521139
3.84595 4828.06144196393
3.86606 4630.42177975733
3.88617 4370.22064154226
3.90629 4332.04569282246
3.9264 4140
3.94651 4018.92636541984
3.96663 3774.50966226718
3.98674 3487.73962194838
4.00686 3507.89759377223
4.02697 3443.31229603062
4.04708 3163.24719727879
4.0672 3012
4.08731 2945.97936624782
4.10742 2897.91460630737
4.12754 2755.63071276266
4.14765 2575.34471818779
4.16776 2495.08144137117
4.18788 2430.13230440393
4.20799 2341.94327589472
4.22811 2470.89998276347
4.24822 2051.82019189006
4.26833 2195.14577536638
4.28845 2077.66841233407
4.30856 2047.01516213266
4.32867 1994.13001833979
4.34879 1904.03616968026
4.3689 1866
4.38902 1848.93242478296
4.40913 1794.09215394841
4.42924 1889.88953978334
4.44936 1699.24495202406
4.46947 1701.02615935276
4.48958 1609.07608490414
4.5097 1616
4.52981 1626.92904666442
4.54992 1409.8846063336
4.57004 1459.20569257013
4.59015 1479.22468181876
4.61027 1375.98679713687
4.63038 1460.00287147535
4.65049 1349.0386824734
4.67061 1346.98742919106
4.69072 1274.95681058519
4.71083 1304.10485933944
4.73095 1338.88615063851
4.75106 1243.13845024288
4.77118 1233.99016357063
4.79129 1220.01943810635
4.8114 1199
4.83152 1242.9422808927
4.85163 1096.82680533021
4.87174 1089.12120228119
4.89186 1142.9799229583
4.91197 1104.08475220081
4.93209 1075.99199148745
4.9522 1091
4.97231 1007.98353830636
4.99243 1037.02572813342
5.01254 1011.95180399026
5.03265 987.173553296763
5.05277 899.052227419648
5.07288 939.932100748392
5.09299 959.028861229623
5.11311 883.998066959822
5.13322 953.055544911969
5.15334 925.813291881555
5.17345 833.906031558573
5.19356 862.888669489514
5.21368 895.00306702535
5.23379 882.991759938117
5.2539 906
5.27402 831.951752197455
5.29413 825.976856594092
5.31425 797.013544722635
5.33436 822.036060032489
5.35447 763.052165033813
5.37459 784.976813425338
5.3947 815
5.41481 790.976984673707
5.43493 750.983095949499
5.45504 755.973641439242
5.47516 732.979272116378
5.49527 768.984021298511
5.51538 735.04672053126
5.5355 708
5.55561 714.003647029487
5.57572 711.988557120081
5.59584 689.93353744287
5.61595 652.085621100439
5.63606 633.993020130754
5.65618 638.021690108034
5.67629 611.991146556415
5.69641 660.008178941987
5.71652 624.955469208793
5.73663 606.00100736948
5.75675 617.0452139526
5.77686 628.014813692449
5.79697 619.96948043046
5.81709 642.016208051847
5.8372 583
5.85732 643.039339066445
5.87743 619.930561676878
5.89754 579.915478250988
5.91766 556.945110799517
5.93777 598.020291355067
5.95788 538.029588447982
5.978 560
5.99811 560.01117782431
6.01823 592.986293013563
6.03834 551.97994013996
6.05845 583.944483819125
6.07857 568.046549392603
6.09868 547.008432426843
6.11879 548.99601256392
6.13891 566.016621631109
6.15902 575.939578861292
6.17913 487.963068063379
6.19925 526.025387943601
6.21936 488.031947735398
6.23948 515.976060570226
6.25959 511.005555794599
6.2797 524
6.29982 550.952753460635
6.31993 462.943270212277
6.34004 496.069834794627
6.36016 495.012705061333
6.38027 508.956363112349
6.40039 521.016237772629
6.4205 472
6.44061 499.002418251923
6.46073 474.998604313571
6.48084 490.950427819087
6.50095 434.05475502407
6.52107 463.951977797777
6.54118 476.9778049513
6.56129 488.024588998829
6.58141 413.993354471689
6.60152 469.045883274172
6.62164 470.999433543424
6.64175 474.933060773978
6.66186 427.047262507466
6.68198 433.003681410449
6.70209 414.000208553034
6.7222 429
6.74232 396.976268935138
6.76243 406.049651292211
6.78255 431.989520060862
6.80266 411.00289055561
6.82277 424.020687051167
6.84289 392.998433874305
6.863 440
6.88311 455.994525932186
6.90323 424.92498826457
6.92334 388.016052412491
6.94346 422.97648179418
6.96357 410.980000257546
6.98368 447.990686008415
7.0038 405
7.02391 364.0066250058
7.04402 409.027332487361
7.06414 391.921555581273
7.08425 375.922390291686
7.10436 427.954893753913
7.12448 414.007417889505
7.14459 432.988992705546
7.16471 427.980560531844
7.18482 383.987227778992
7.20493 392.978450865386
7.22505 356.973693558055
7.24516 381.952838609886
7.26527 390.97365115809
7.28539 406.011140907519
7.3055 383
7.32562 464.004163138603
7.34573 383.90699459642
7.36584 383.004954436773
7.38596 360.038510211648
7.40607 355.013304461038
7.42618 343.992998008831
7.4463 360
7.46641 335.993212315281
7.48653 359.083656524427
7.50664 410.022870009042
7.52675 385.059498511126
7.54687 372.044355102423
7.56698 340.989179286996
7.58709 388.981604185427
7.60721 380.980720199865
7.62732 348.998093084242
7.64743 374.03818459636
7.66755 372.928882206157
7.68766 343.008089348856
7.70778 369.964100131341
7.72789 387.004124870609
7.748 367
7.76812 366.995667530243
7.78823 356.998821912922
7.80834 370.033077092888
7.82846 376.017375765167
7.84857 367.981793411529
7.86869 388.002106582869
7.8888 357
7.90891 355.009007201157
7.92903 361.956309546468
7.94914 315.963723072804
7.96925 340.903038481281
7.98937 361.999706547788
8.00948 354.000605885207
8.0296 361
8.04971 351.998937726587
8.06982 377.057152873236
8.08994 421.964810964446
8.11005 350.837298875806
8.13016 333.968911393088
8.15028 346.011617253128
8.17039 318.008357444203
8.1905 334
8.21062 366.992403486806
8.23073 337.999306648938
8.25085 370.046623356982
8.27096 359.023033350642
8.29107 366.972410806935
8.31119 379.999711748484
8.3313 357
8.35141 309.99628430665
8.37153 336.026440789891
8.39164 335.022752837438
8.41176 368.9300677609
8.43187 384.007949145129
8.45198 365.025547324362
8.4721 343
8.49221 340.005203504446
8.51232 357.015052307033
8.53244 359.978041212012
8.55255 347.994879177895
8.57266 349.059850917742
8.59278 310.992479097765
8.61289 358.985270164904
8.63301 348.994072831818
8.65312 351.997144708301
8.67323 344.012477757471
8.69335 367.036193490606
8.71346 354.072492623823
8.73357 318.023472693699
8.75369 329.986501559307
8.7738 345
8.79392 331.023290344736
8.81403 375.012548590643
8.83414 336.921551403513
8.85426 332.953653882025
8.87437 353.008320237808
8.89448 336.988862549871
8.9146 367
8.93471 336.989206348314
8.95483 343.018269572461
8.97494 340.969436656195
8.99505 326.996845510478
9.01517 336.006899632641
9.03528 312.027514702379
9.05539 298.997897352564
9.07551 325.02473049724
9.09562 369.006879221994
9.11573 343.96931173858
9.13585 342.993656171606
9.15596 325.051782269344
9.17608 310.989245028707
9.19619 329.002654652975
9.2163 309
9.23642 348.043702203573
9.25653 356.945570108249
9.27664 315.005537443027
9.29676 345.02128143505
9.31687 303.989746545383
9.33699 357.989187802217
9.3571 334
9.37721 351.987728426806
9.39733 298.996132521709
9.41744 344.022922692812
9.43755 304.070206157814
9.45767 313.982951945937
9.47778 313.987539531321
9.4979 337
9.51801 314.980528237058
9.53812 290.008160160583
9.55824 314.006819128364
9.57835 298.004551203957
9.59846 325.950125431912
9.61858 326.018160300295
9.63869 301.013407976103
9.6588 289
9.67892 317.014608068265
9.69903 318.019578807113
9.71915 337.989795316412
9.73926 303.082467283221
9.75937 286.974430411564
9.77949 321.985249775563
9.7996 330
9.81971 311.983715633083
9.83983 282.995057959058
9.85994 303.038211332317
9.88006 309.985326917863
9.90017 317.010217249191
9.92028 298.015793022197
9.9404 304
9.96051 335.0008060218
9.98062 305.968285562465
10.00074 301.047767888614
10.02085 327.003159611977
10.04097 303.019455110231
10.06108 310.994716945173
10.08119 315.984671831637
10.10131 352.998672862418
10.12142 306.952940574471
10.14153 286.990995226022
10.16165 282.998715908991
10.18176 287.978037938108
10.20187 297.998037153489
10.22199 300.988671986841
10.2421 320
10.26222 275.005077357724
10.28233 318.000478056433
10.30244 278.004473115868
10.32256 325.971370662339
10.34267 287.049285361662
10.36278 300.957689175339
10.3829 328
10.40301 297.001160909426
10.42313 330.016308916393
10.44324 306.967460071915
10.46335 315.969105646852
10.48347 304.063016990875
10.50358 271.975497382977
10.52369 322.999787165138
10.54381 275.992970647108
10.56392 319.044101793342
10.58403 329.998048420671
10.60415 325.954832164215
10.62426 305.995959296815
10.64438 328.980933328837
10.66449 331.001820043196
10.6846 321
10.70472 284.979842813852
10.72483 282.993529061641
10.74494 278.033013180793
10.76506 312.945034539108
10.78517 314.028931514627
10.80529 292.006439724878
10.8254 299
10.84551 318.994700449154
10.86563 286.97078798178
10.88574 294.028186120357
10.90585 301.980555629748
10.92597 309.996396578979
10.94608 298.029254081125
10.9662 274
10.98631 308.015055701925
11.00642 311.985659990949
11.02654 292.96485663267
11.04665 283.997099296113
11.06676 285.021625884954
11.08688 279.969754656202
11.10699 321.001433816444
11.1271 288
11.14722 329.005747080049
11.16733 283.939255521269
11.18745 277.003047375605
11.20756 280.946949969074
11.22767 319.968675287802
11.24779 311.010152861943
11.2679 306
11.28801 332.004270962778
11.30813 316.969997184916
11.32824 305.987826840914
11.34836 301.00664315367
11.36847 299.002180118445
11.38858 292.017717205587
11.4087 279
11.42881 301.998406700876
11.44892 291.035859133162
11.46904 350.006279302471
11.48915 291.12011921817
11.50927 299.940019706485
11.52938 324.013570388231
11.54949 300.991269297742
11.56961 343.000133657192
11.58972 303.990262995739
11.60983 337.031506630642
11.62995 320.940550629746
11.65006 312.994824950437
11.67017 321.975164353415
11.69029 319.025465294821
11.7104 255
11.73052 304.056931477273
11.75063 324.990578484862
11.77074 318.019796750808
11.79086 335.007086655617
11.81097 317.99377354781
11.83108 346.97743924319
11.8512 346
11.87131 338.998291679988
11.89143 341.014262855424
11.91154 342.954597148049
11.93165 308.042302114551
11.95177 320.962619250716
11.97188 330.01713699755
11.99199 307.997527259009
12.01211 345.021020190407
12.03222 354.967066637078
12.05234 307.958303578314
12.07245 317.008146493015
12.09256 319.913288528964
12.11268 374.006789258585
12.13279 330.991539105189
12.1529 403
12.17302 360.970681383214
12.19313 382.044120625212
12.21324 380.942417881501
12.23336 355.983478017868
12.25347 399.921062272122
12.27359 422.010867967586
12.2937 379
12.31381 381.006143427996
12.33393 393.031320741943
12.35404 418.029388434193
12.37415 411.06456954574
12.39427 372.072826755919
12.41438 337.997855592033
12.4345 365
12.45461 350.98057859683
12.47472 321.005195025292
12.49484 348.01845750595
12.51495 337.978659020995
12.53506 356.039138042036
12.55518 306.02532849732
12.57529 319.993352893364
12.5954 317
12.61552 333.005542675946
12.63563 310.932162554524
12.65575 269.968199767899
12.67586 291.921419546279
12.69597 313.024296492773
12.71609 277.009484565461
12.7362 288
12.75631 296.002981336961
12.77643 293.964890995442
12.79654 263.984067627833
12.81666 278.979133673506
12.83677 274.005954310008
12.85688 278.994587754568
12.877 284
12.89711 291.992335531602
12.91722 259.977447213919
12.93734 263.038208939045
12.95745 279.985776312997
12.97757 275.009288499013
12.99768 286.960061517075
13.01779 316.015641213754
13.03791 252.99197012165
13.05802 293.027085997247
13.07813 285.004593138415
13.09825 305.998952961253
13.11836 283.014673748686
13.13847 298.986563142452
13.15859 290.003746892373
13.1787 293
13.19882 282.974085822024
13.21893 250.962676128075
13.23904 237.982416668728
13.25916 240.93982284071
13.27927 280.974948456378
13.29938 276.989230311941
13.3195 291
13.33961 239.999486530878
13.35973 284.020008451064
13.37984 260.013999274195
13.39995 301.969644251436
13.42007 271.034171570742
13.44018 274.004678900004
13.46029 258.997137264006
13.48041 277.996811965204
13.50052 256.010751527362
13.52064 294.02252295583
13.54075 266.941487109713
13.56086 267.990339580316
13.58098 275.968946038225
13.60109 311.000394329638
13.6212 285
13.64132 312.007453927504
13.66143 284.956337274486
13.68154 271.979333989719
13.70166 267.960631962831
13.72177 294.999610899022
13.74189 269.00873916565
13.762 272
13.78211 262.997773698544
13.80223 271.020789948325
13.82234 289.053313983346
13.84245 305.047616439834
13.86257 262.04658261995
13.88268 257.997153184603
13.9028 249
13.92291 239.008546881505
13.94302 279.040400352235
13.96314 284.916870058188
13.98325 233.027779567626
14.00336 265.940811938588
14.02348 266.008594111336
14.04359 259.008026061551
14.06371 253.017029278801
14.08382 296.993289711199
14.10393 242.943968694588
14.12405 258.100173068327
14.14416 280.025183668237
14.16427 244.047579995615
14.18439 245.981063404454
14.2045 285
14.22461 251.98503426102
14.24473 256.046165763438
14.26484 280.986828462965
14.28496 248.056074751271
14.30507 244.982696172483
14.32518 251.009221018421
14.3453 232
14.36541 248.0268867424
14.38552 301.004238152109
14.40564 249.869877003667
14.42575 225.919276013059
14.44587 271.997327349909
14.46598 230.027118782938
14.48609 251.9765735462
14.50621 276.989948701701
14.52632 237.991710005129
14.54643 261.00853000892
14.56655 244.008246343712
14.58666 272.966353046035
14.60677 255.056811926014
14.62689 234.989330087375
14.647 278
14.66712 258.966073596476
14.68723 247.033337625354
14.70734 283.033702065435
14.72746 271.035854965888
14.74757 260.020630196181
14.76768 247.995703951356
14.7878 252
14.80791 222.013889332515
14.82803 289.040207855193
14.84814 260.961828627304
14.86825 274.980773691532
14.88837 261.017331224195
14.90848 271.970488044417
14.92859 294.004028990313
14.94871 275.005900264781
14.96882 306.999747768758
14.98894 260.894362224576
15.00905 232.977072311701
15.02916 236.964206653729
15.04928 254.996787068803
15.06939 250.994444040541
15.0895 276
15.10962 266.9767025387
15.12973 258.036805633748
15.14984 285.963970835922
15.16996 239.017821353335
15.19007 271.98171897802
15.21019 247.0078482914
15.2303 253
15.25041 227.991692437275
15.27053 238.041807923175
15.29064 254.97138976441
15.31075 223.03804686702
15.33087 237.963143746312
15.35098 247.011458785152
15.3711 230
15.39121 245.007752220459
15.41132 247.99417587901
15.43144 243.003637691432
15.45155 250.981409772406
15.47166 248.033323652735
15.49178 220.033173606865
15.51189 199.996957435788
15.53201 231.020794843374
15.55212 261.009591374737
15.57223 264.02773855103
15.59235 278.92538281309
15.61246 228.012797652791
15.63257 261.992411923208
15.65269 229.005262482857
15.6728 251
15.69291 226.993895300018
15.71303 246.044720010817
15.73314 263.000697398007
15.75326 255.008657640572
15.77337 257.996869572505
15.79348 250.01890899271
15.8136 239
15.83371 271.007004148497
15.85382 257.983709256418
15.87394 254.000913673653
15.89405 249.030738811345
15.91417 241.980551198518
15.93428 263.99493290517
15.95439 249.006116746729
15.97451 250.00103112606
15.99462 248.000974678816
16.01473 243.964166317418
16.03485 222.042399399748
16.05496 270.927287197277
16.07508 262.043329269988
16.09519 224.001582170868
16.1153 246
16.13542 238.012492331219
16.15553 261.984666494089
16.17564 217.936786661803
16.19576 230.912122895491
16.21587 273.965583162821
16.23598 262.042956924595
16.2561 221
16.27621 246.015925868591
16.29633 254.974744125289
16.31644 232.993188185271
16.33655 245.991070134823
16.35667 236.99838857341
16.37678 252.987060483011
16.39689 248.009978201917
16.41701 231.000637872193
16.43712 250.020882245275
16.45724 255.979499306435
16.47735 244.00532565408
16.49746 254.008408751152
16.51758 240.99428059782
16.53769 265.991473329496
16.5578 260
16.57792 253.012959160838
16.59803 265.974944226819
16.61814 224.940083631476
16.63826 230.936027398113
16.65837 263.97235615383
16.67849 266.00054273413
16.6986 263
16.71871 244.001813023736
16.73883 257.981427906254
16.75894 226.989882195564
16.77905 247.00059630668
16.79917 225.995362784847
16.81928 257.979488435108
16.8394 247
16.85951 235.000143143859
16.87962 238.99733443214
16.89974 243.0686060489
16.91985 280.030782583996
16.93996 226.071784951332
16.96008 240.960896656519
16.98019 260.009572363729
17.00031 230.002396549236
17.02042 261.003063127337
17.04053 230.978625726135
17.06065 246.023399142318
17.08076 226.075818695076
17.10087 203.974457021663
17.12099 247.982433879321
17.1411 246
17.16121 213.996089252511
17.18133 240.068502678032
17.20144 267.972541627471
17.22156 240.975466965851
17.24167 287.96327813505
17.26178 263.044239388776
17.2819 236
17.30201 245.000584841592
17.32212 242.015890655831
17.34224 259.960085363355
17.36235 220.99651472901
17.38247 266.947041282527
17.40258 263.017113446024
17.42269 256.998330328505
17.44281 264.003355658913
17.46292 259.97873497247
17.48303 234.987609450638
17.50315 247.039161227001
17.52326 261.948152381201
17.54338 283.012157879713
17.56349 249.007964605753
17.5836 260
17.60372 257.011161377359
17.62383 273.985067646982
17.64394 239.955378262807
17.66406 240.004380302924
17.68417 241.944326862712
17.70428 290.994277363812
17.7244 256
17.74451 274.007653245828
17.76463 266.984213169852
17.78474 252.928189286778
17.80485 212.024225379029
17.82497 245.919044611429
17.84508 285.985406408465
17.86519 270.020272204113
17.88531 239.003696117651
17.90542 270.011054914542
17.92554 249.96214398223
17.94565 250.012831558341
17.96576 256.96166630545
17.98588 277.998370348101
18.00599 259.009804794329
18.0261 253
18.04622 248.980989998384
18.06633 230.007764070587
18.08645 256.048450442487
18.10656 260.980751588037
18.12667 274.006475977897
18.14679 257.002067790606
18.1669 265
18.18701 232.978288887972
18.20713 215.045858133913
18.22724 269.057756396115
18.24735 245.140644792846
18.26747 211.960798742348
18.28758 262.99496693225
18.3077 217
18.32781 232.013307973873
18.34792 246.011085987202
18.36804 253.989363823011
18.38815 235.05611699481
18.40826 228.958782921219
18.42838 255.997554614674
18.44849 229.015127614513
18.46861 228.017512389628
18.48872 267.003589108763
18.50883 232.94798591298
18.52895 226.032239889938
18.54906 239.992131065131
18.56917 232.016271714276
18.58929 233.989230833254
18.6094 260
18.62951 248.99518743611
18.64963 252.009659380338
18.66974 256.009494140646
18.68986 258.015022894502
18.70997 251.980005511687
18.73008 263.030989992879
18.7502 225
18.77031 299.00862313035
18.79042 247.96916600321
18.81054 261.991664543443
18.83065 234.978169286808
18.85077 273.99253103108
18.87088 238.019416883183
18.89099 252.995061599523
18.91111 240.994445856956
18.93122 242.001778769991
18.95133 243.014941468182
18.97145 252.978053580773
18.99156 242.949993592002
19.01168 281.007704820394
19.03179 233.011903072616
19.0519 249
19.07202 230.988488508294
19.09213 254.080741747388
19.11224 300.004429150601
19.13236 272.017738507989
19.15247 287.008087425809
19.17258 255.020110173093
19.1927 264
19.21281 269.998269938312
19.23293 261.986177005116
19.25304 260.021027906508
19.27315 276.970547648238
19.29327 281.98817897857
19.31338 290.004507144483
19.33349 279.997879126616
19.35361 299.007175808507
19.37372 296.989032420466
19.39384 288.999348188179
19.41395 296.023438825208
19.43406 304.979086213436
19.45418 319.97971729962
19.47429 345.984616870696
19.4944 366
19.51452 334.96059917282
19.53463 332.093495569586
19.55475 421.117733270596
19.57486 407.054169857768
19.59497 418.917441142493
19.61509 471.999671646914
19.6352 421
19.65531 427.035678829021
19.67543 510.047673926624
19.69554 480.92431158329
19.71565 491.836225884993
19.73577 558.98734137652
19.75588 525.997332552538
19.776 575
19.79611 561.99559158002
19.81622 597.072688030815
19.83634 638.895512109214
19.85645 551.994282307057
19.87656 641.895399896863
19.89668 608.043626611671
19.91679 590.016465931258
19.93691 555.008621366417
19.95702 609.020814120484
19.97713 563.889035281099
19.99725 523.046321341502
20.01736 565.988352751681
20.03747 529.036221473415
20.05759 529.009930160706
20.0777 501
20.09782 541.978423716751
20.11793 474.982470780117
20.13804 522.018265534989
20.15816 490.954168348969
20.17827 558.985529718068
20.19838 498.04005112438
20.2185 512
20.23861 504.008831974131
20.25872 545.017865551597
20.27884 535.006558211581
20.29895 553.017786671488
20.31907 517.042682324494
20.33918 520.974697010717
20.35929 541.999109551794
20.37941 532.000241257818
20.39952 538.987370064567
20.41963 520.021238325807
20.43975 555.009842527489
20.45986 525.029927423382
20.47998 538.991752161386
20.50009 531.99855763131
20.5202 561
20.54032 597.00766025577
20.56043 585.997001569162
20.58054 604.042753451322
20.60066 620.958580593927
20.62077 638.004474230911
20.64088 642.943011644603
20.661 745
20.68111 846.086270320017
20.70123 1084.34173843754
20.72134 1319.65607566031
20.74145 1753.85721007671
20.76157 2279.93670200384
20.78168 3166.07924934909
20.80179 4042.56613422654
20.82191 4931.43699444557
20.84202 5644.41490555485
20.86214 5661.29217736887
20.88225 5011.79129294258
20.90236 3998.14369340365
20.92248 2921.06529243112
20.94259 1952.38432538363
20.9627 1371
20.98282 948.712942093215
21.00293 808.934071442671
21.02305 772.844493254457
21.04316 684.158759552187
21.06327 630.069139930871
21.08339 591.00695258839
21.1035 604
21.12361 607.9842369415
21.14373 553.929153607125
21.16384 523.939704324884
21.18395 500.975478208314
21.20407 519.035787510756
21.22418 471.00363545573
21.2443 507
21.26441 462.985300876664
21.28452 463.987055942692
21.30464 430.971140492718
21.32475 456.876309984446
21.34486 488.026986220366
21.36498 442.039782332627
21.38509 426.006239862113
21.40521 422.015009531789
21.42532 457.987951708435
21.44543 411.982151112974
21.46555 446.060416183319
21.48566 434.038263595456
21.50577 425.015532045578
21.52589 430.974203818554
21.546 479
21.56612 375.924113368776
21.58623 390.11002174522
21.60634 447.995009267953
21.62646 400.066441371192
21.64657 408.971088010255
21.66668 405.028944727142
21.6868 374
21.70691 388.004774783256
21.72702 377.981518710862
21.74714 370.021383741689
21.76725 390.964128833547
21.78737 385.035146135362
21.80748 376.96234694111
21.82759 419.012949736609
21.84771 338.976386525313
21.86782 356.027008620719
21.88793 373.060982142772
21.90805 425.041097873523
21.92816 396.075397393447
21.94828 382.990891550197
21.96839 400.991967553792
21.9885 410
22.00862 422.017696592372
22.02873 434.994887154447
22.04884 414.949789702684
22.06896 394.036546713502
22.08907 376.026847781319
22.10919 373.984928767209
22.1293 404
22.14941 342.977035841103
22.16953 348.053837308647
22.18964 371.977829229931
22.20975 348.971449005388
22.22987 383.002689779568
22.24998 342.024853723254
22.27009 371.965890449811
22.29021 411.980376798458
22.31032 341.99911230544
22.33044 408.062381468348
22.35055 381.987159960851
22.37066 402.056785222327
22.39078 335.021410191353
22.41089 376.980415197154
22.431 364
22.45112 320.988529011771
22.47123 336.016754559717
22.49135 343.081136577181
22.51146 383.995838630315
22.53157 356.003462233828
22.55169 374.0114812496
22.5718 325
22.59191 373.006580018761
22.61203 331.949638123637
22.63214 351.11171771697
22.65225 394.012632911924
22.67237 355.035979773624
22.69248 360.997645425492
22.7126 346
22.73271 350.006912419703
22.75282 351.974819920683
22.77294 310.940771825378
22.79305 319.880115762101
22.81316 374.942585601555
22.83328 364.031067988661
22.85339 339.005893897019
22.87351 332.992815775517
22.89362 321.015527499623
22.91373 352.013626836447
22.93385 342.026679811869
22.95396 371.984357658657
22.97407 345.049712052479
22.99419 339.985402339552
23.0143 374
23.03442 351.995407311811
23.05453 372.01463260335
23.07464 360.984568253243
23.09476 363.011445723095
23.11487 348.012200348208
23.13498 363.958870179457
23.1551 409
23.17521 394.974552914865
23.19532 350.001910917213
23.21544 386.033141243806
23.23555 366.05088226247
23.25567 370.969948639483
23.27578 376.029995792932
23.29589 337.000686898608
23.31601 373.013198046659
23.33612 366.985203342744
23.35623 353.964104021482
23.37635 338.060006366022
23.39646 384.959536156365
23.41658 366.021674580151
23.43669 361.002575318925
23.4568 352
23.47692 361.003192652367
23.49703 364.033814134169
23.51714 389.986563625916
23.53726 365.979318665173
23.55737 404.98466313329
23.57749 376.01053685152
23.5976 387
23.61771 381.978749871064
23.63783 342.023063716942
23.65794 390.010520876804
23.67805 339.112434882359
23.69817 344.939297045353
23.71828 376.006663291952
23.73839 351.99636311905
23.75851 382.999163331872
23.77862 349.993316720586
23.79874 369.979431371676
23.81885 330.976786885269
23.83896 369.905656957852
23.85908 390.003529416102
23.87919 372.013471003014
23.8993 352
23.91942 373.038374472798
23.93953 415.055046145658
23.95965 443.059308163339
23.97976 457.012762051989
23.99987 441.006498742973
24.01999 449.00014489209
24.0401 430
24.06021 405.990646228352
24.08033 387.965184360826
24.10044 361.960341709233
24.12056 354.991736784605
24.14067 373.941214674792
24.16078 409.996824517678
24.1809 375
24.20101 357.016754568689
24.22112 400.992305200007
24.24124 353.976233537041
24.26135 393.914731642313
24.28146 398.980718097363
24.30158 406.036915554942
24.32169 341.017447021018
24.34181 364.025514422592
24.36192 387.970952725084
24.38203 336.97658045826
24.40215 370.095358615579
24.42226 370.076855251886
24.44237 331.001415114173
24.46249 375.970129311645
24.4826 401
24.50272 345.967381081795
24.52283 354.029366687577
24.54294 366.02799641131
24.56306 366.079222750161
24.58317 319.989224243309
24.60328 373.965698615016
24.6234 361
24.64351 360.005655347951
24.66362 373.012412043562
24.68374 378.991441982138
24.70385 374.973456702193
24.72397 389.012569807779
24.74408 370.98889073429
24.76419 409.986771008153
24.78431 406.995283315873
24.80442 409.008350581829
24.82453 418.013318559782
24.84465 415.94237071012
24.86476 391.988407109637
24.88488 429.958219839369
24.90499 449.001390579482
24.9251 439
24.94522 435.978849074094
24.96533 404.980133909397
24.98544 409.993353276026
25.00556 398.982679359068
25.02567 421.993199648125
25.04579 401.010313013181
25.0659 396
25.08601 393.999093336523
25.10613 396.01032683053
25.12624 406.020255067627
25.14635 405.051111231983
25.16647 390.959635960559
25.18658 431.009849625862
25.20669 380.010031570569
25.22681 408.010661728345
25.24692 405.009272677843
25.26704 432.026605270075
25.28715 424.992454998701
25.30726 430.014319791984
25.32738 406.024981430677
25.34749 400.989745251237
25.3676 422
25.38772 389.984179216466
25.40783 402.019697578726
25.42795 409.049982113453
25.44806 425.048820014836
25.46817 384.991125426491
25.48829 429.992383938963
25.5084 413
25.52851 474.024518426709
25.54863 473.95352536846
25.56874 440.952635926087
25.58886 439.951561371159
25.60897 466.993310169592
25.62908 465.964296832713
25.6492 521
25.66931 483.981630685567
25.68942 492.046842442874
25.70954 532.991253712691
25.72965 501.998697200315
25.74976 535.977499489343
25.76988 503.042158579116
25.78999 486.994421543237
25.81011 501.997221399591
25.83022 490.019994075342
25.85033 539.054307790679
25.87045 534.923073755575
25.89056 510.9931807449
25.91067 525.018665072389
25.93079 491.006542492446
25.9509 508
25.97102 496.974934875357
25.99113 492.057869168112
26.01124 547.040454991039
26.03136 517.089225379444
26.05147 506.941589496841
26.07158 561.977159363586
26.0917 569
26.11181 637.992018788371
26.13193 565.999748772389
26.15204 660.16633574115
26.17215 683.951974905325
26.19227 722.959074928472
26.21238 736.970050812979
26.23249 799.958675030808
26.25261 874.024163015872
26.27272 904.034434888736
26.29283 954.079223851459
26.31295 1023.2741543257
26.33306 1148.82150243372
26.35318 1204.92488717879
26.37329 1331.92177603796
26.3934 1496
26.41352 1755.43584867131
26.43363 2292.69865294407
26.45374 2745.30603104186
26.47386 3685.84742808686
26.49397 4950.56709067901
26.51409 7027.79714311272
26.5342 9815
26.55431 13512.9370033635
26.57443 17489.1898110788
26.59454 21584.3953068202
26.61465 24499.9960863442
26.63477 25295.963982637
26.65488 23167.420489382
26.67499 18893.3923698443
26.69511 14246.9747910999
26.71522 10695.5343448976
26.73534 7142.4381830031
26.75545 4357.20243413989
26.77556 2550.2978705524
26.79568 1906.39404284986
26.81579 1541.14119513231
26.8359 1353
26.85602 1232.87243385927
26.87613 1113.88634871271
26.89625 1074.89830580547
26.91636 1010.14223546473
26.93647 943.102061823639
26.95659 878.025368419859
26.9767 842
26.99681 799.970022239355
27.01693 734.926447292855
27.03704 710.981267641669
27.05716 702.023594692284
27.07727 671.093932562105
27.09738 612.006194398522
27.1175 645
27.13761 595.960263044772
27.15772 540.998070518123
27.17784 567.001578882355
27.19795 521.151106613481
27.21806 486.99494810871
27.23818 506.991821553676
27.25829 494.007141603518
27.27841 501.015530655746
27.29852 536.015413242323
27.31863 549.075793650031
27.33875 605.978768462765
27.35886 554.997486324544
27.37897 626.900617352895
27.39909 645.997225827689
27.4192 657
27.43932 660.031552100292
27.45943 695.983649872122
27.47954 641.915843181276
27.49966 632.023122800689
27.51977 593.086316692277
27.53988 539.035772203054
27.56 519
27.58011 491.988473815452
27.60023 479.994303017639
27.62034 467.93314241885
27.64045 424.072982741287
27.66057 430.939855571496
27.68068 468.997074082039
27.70079 450.995955543865
27.72091 468.982291437569
27.74102 394.966264957897
27.76113 425.059037697003
27.78125 438.011336498321
27.80136 431.078791459192
27.82148 387.996015426436
27.84159 447.96303123708
27.8617 487
27.88182 465.996878057949
27.90193 477.984994441687
27.92204 458.038262868131
27.94216 494.037740410886
27.96227 425.063442448955
27.98239 436.991219935623
28.0025 432
28.02261 430.996506164967
28.04273 412.967481467323
28.06284 400.002432858454
28.08295 412.958264257121
28.10307 421.008120273127
28.12318 401.030736035406
28.1433 375
28.16341 372.9913713334
28.18352 346.994321506724
28.20364 358.996534343852
28.22375 353.076007563231
28.24386 397.013160102136
28.26398 353.004320236854
28.28409 398.985182066284
28.3042 376
28.32432 348.000277475116
28.34443 366.022012452472
28.36455 357.926796789029
28.38466 327.027428629338
28.40477 333.980779727998
28.42489 342.994899405196
28.445 353
28.46511 355.006616464131
28.48523 359.947207023118
28.50534 304.956092776679
28.52546 337.885983705352
28.54557 376.987087389405
28.56568 355.040424208053
28.5858 335
28.60591 371.989948151359
28.62602 297.942002177143
28.64614 312.1467182973
28.66625 382.95569999608
28.68636 341.116348284969
28.70648 320.970116360619
28.72659 358.00543030961
28.74671 308.988962844633
28.76682 328.00977897068
28.78693 318.014583029771
28.80705 348.027962475307
28.82716 332.02539426211
28.84727 338.980882880809
28.86739 339.008696872412
28.8875 321
28.90762 331.98382837749
28.92773 296.984616871657
28.94784 321.049269471106
28.96796 330.973953305158
28.98807 342.021366622969
29.00818 321.982743965661
29.0283 361
29.04841 319.984982149375
29.06853 326.021108725928
29.08864 323.971165062978
29.10875 313.980519581835
29.12887 335.971385713349
29.14898 330.036259523504
29.16909 284.014556051728
29.18921 294.022605558096
29.20932 331.991507882722
29.22943 287.955929515176
29.24955 303.099391129343
29.26966 338.955544489958
29.28978 346.000760409349
29.30989 347.996139333269
29.33 363
29.35012 380.005360512494
29.37023 381.017469219079
29.39034 393.979771060628
29.41046 381.936609546924
29.43057 447.933309481135
29.45069 451.001650823196
29.4708 448
29.49091 396.983454454461
29.51103 396.012640301288
29.53114 396.998680152523
29.55125 395.021799944637
29.57137 370.067384742834
29.59148 329.008488813235
29.6116 347
29.63171 345.008073673151
29.65182 379.020969232328
29.67194 359.889075408312
29.69205 315.024432215358
29.71216 355.991099969422
29.73228 324.000860349022
29.75239 367.982671003261
29.7725 365
29.79262 354.987982717437
29.81273 329.938321092281
29.83285 309.098256524403
29.85296 375.958136378045
29.87307 330.091183822896
29.89319 300.002316784869
29.9133 315
29.93341 342.99756839964
29.95353 319.999852705999
29.97364 344.016963009541
29.99376 316.090848689231
30.01387 292.968227634659
30.03398 336.976946014645
30.0541 325
30.07421 323.003046245309
30.09432 321.984372066748
30.11444 305.005360629151
30.13455 331.91380504787
30.15467 353.991853962854
30.17478 357.978481934739
30.19489 378.009968663441
30.21501 328.985908919696
30.23512 329.989508430013
30.25523 304.997637514037
30.27535 331.049976500264
30.29546 316.090763305739
30.31557 284.963577238726
30.33569 339.990287116461
30.3558 321
30.37592 348.985241039088
30.39603 304.003768589727
30.41614 341.968331925337
30.43626 275.050509892754
30.45637 320.918161237272
30.47648 335.013808404155
30.4966 312
30.51671 297.002306504438
30.53683 314.020396447798
30.55694 310.965329417789
30.57705 297.979955536763
30.59717 316.995169228444
30.61728 307.99093760256
30.63739 337.988447664949
30.65751 328.980605979824
30.67762 296.006709118855
30.69773 336.049581565594
30.71785 334.943158069502
30.73796 324.950047343419
30.75808 356.01443073049
30.77819 313.999936886647
30.7983 357
30.81842 328.977507054386
30.83853 337.020514265424
30.85864 335.977226338379
30.87876 320.037365398985
30.89887 308.991434412612
30.91899 325.993195094499
30.9391 330
30.95921 328.992603009709
30.97933 300.955060103956
30.99944 282.994795917765
31.01955 294.944168157513
31.03967 304.036203677675
31.05978 275.982300429211
31.0799 324
31.10001 286.982053202067
31.12012 286.017505535192
31.14024 296.991417210315
31.16035 281.037825147666
31.18046 279.971684791377
31.20058 299.984930411524
31.22069 292.019283572893
31.2408 259
31.26092 308.018646622094
31.28103 279.956346708269
31.30115 281.043356120116
31.32126 293.997108310656
31.34137 290.990162050145
31.36149 301.003435197382
31.3816 273
31.40171 259.006306023056
31.42183 279.000346228001
31.44194 266.014411638586
31.46206 294.963097052589
31.48217 293.996498955241
31.50228 305.995000377812
31.5224 295
31.54251 278.99580205871
31.56262 269.978247928662
31.58274 254.041635401845
31.60285 293.975244782432
31.62297 266.03710900805
31.64308 276.961777329938
31.66319 302.010395439087
31.68331 253.988228985894
31.70342 273.028557432891
31.72353 275.962325734646
31.74365 251.015459247239
31.76376 274.011046142195
31.78387 250.976302687747
31.80399 302.985740956502
31.8241 281
31.84422 250.977487205214
31.86433 245.034444163557
31.88444 282.046736181238
31.90456 280.02399660588
31.92467 268.02582577395
31.94478 261.97286629736
31.9649 303
31.98501 276.982885710188
32.00513 267.024872336991
32.02524 291.019610317419
32.04535 276.071924109169
32.06547 266.949448910284
32.08558 313.992892617293
32.10569 277.01601812418
32.12581 275.002298490125
32.14592 277.0136139344
32.16604 292.9893684261
32.18615 275.003692856755
32.20626 292.007104418658
32.22638 266.014136371049
32.24649 276.992370296646
32.2666 281
32.28672 275.990309049009
32.30683 264.9896926353
32.32694 272.050663481075
32.34706 301.968609584834
32.36717 299.011745756216
32.38729 297.998151840405
32.4074 301
32.42751 296.99866617005
32.44763 303.02651538812
32.46774 315.977360513534
32.48785 294.990554376037
32.50797 327.951991288519
32.52808 318.063043700258
32.5482 254
32.56831 306.014468221328
32.58842 291.997983507437
32.60854 313.000227220299
32.62865 282.070114099915
32.64876 273.014304917252
32.66888 262.003032687866
32.68899 270.993366326699
32.7091 280
32.72922 278.995886243851
32.74933 280.019191827135
32.76945 295.00182410449
32.78956 286.989783328921
32.80967 299.013814927268
32.82979 267.013880418882
32.8499 266
32.87001 292.007663821143
32.89013 289.982780924303
32.91024 275.965596537813
32.93036 259.024065348403
32.95047 263.955481982733
32.97058 302.975513565874
32.9907 302
33.01081 290.998047370006
33.03092 287.987922528162
33.05104 272.996944235652
33.07115 283.984476663774
33.09127 283.985760234824
33.11138 301.990521728651
33.13149 297.004270458872
33.15161 292.998914944556
33.17172 287.99034368438
33.19183 273.97607926617
33.21195 269.042010139064
33.23206 289.013033722665
33.25217 269.981867999237
33.27229 309.989724663228
33.2924 293
33.31252 276.983417538239
33.33263 258.985650756835
33.35274 268.056233829532
33.37286 290.020976763161
33.39297 257.028779007226
33.41308 262.993521225889
33.4332 259
33.45331 263.999735255395
33.47343 266.035667672258
33.49354 307.067897685559
33.51365 314.040938620486
33.53377 283.060224575738
33.55388 257.990170086258
33.57399 291.986247783201
33.59411 283.978883388517
33.61422 238.98323009232
33.63434 260.07575944693
33.65445 287.021248135115
33.67456 277.04221877272
33.69468 258.01054724767
33.71479 260.992259232623
33.7349 281
33.75502 286.993148382676
33.77513 271.974874747159
33.79524 263.004503214978
33.81536 269.996500062868
33.83547 263.013930878691
33.85559 256.003192824352
33.8757 258
33.89581 283.003680196742
33.91593 270.984125359256
33.93604 270.998476488655
33.95615 267.988318660449
33.97627 277.000076890396
33.99638 270.995449489915
34.0165 272
34.03661 237.013296375702
34.05672 295.998517025247
34.07684 235.952135132745
34.09695 274.914098540575
34.11706 274.9942750925
34.13718 294.986221199083
34.15729 292.003599373099
34.17741 288.998558151334
34.19752 293.021734946648
34.21763 320.012796138792
34.23775 317.039210743448
34.25786 332.070584358823
34.27797 280.973017145994
34.29809 344.00073559391
34.3182 282
34.33831 336.006808991915
34.35843 288.962947103278
34.37854 317.057848361127
34.39866 322.979297425614
34.41877 335.025189935978
34.43888 304.996698799762
34.459 344
34.47911 350.005029249881
34.49922 370.007180907596
34.51934 348.916162444092
34.53945 321.956619610796
34.55957 363.973893315511
34.57968 343.024059713033
34.59979 350.980002630846
34.61991 393.0066047825
34.64002 379.993640062255
34.66013 384.982615396993
34.68025 371.064575284805
34.70036 416.992688519965
34.72047 384.998473282336
34.74059 424.992100789307
34.7607 410
34.78082 443.999121691739
34.80093 418.025128923779
34.82104 472.035596169144
34.84116 442.032334810799
34.86127 462.96989657596
34.88138 454.028195836757
34.9015 441
34.92161 479.998608291062
34.94173 435.953470576749
34.96184 438.003542394222
34.98195 439.910804367847
35.00207 478.037978647523
35.02218 414.01155556133
35.04229 457.994238186783
35.06241 410.978317309041
35.08252 402.997924158346
35.10264 389.97789922946
35.12275 404.123672594493
35.14286 451.009951600972
35.16298 408.017995184122
35.18309 419.009335233331
35.2032 369
35.22332 398.050628114145
35.24343 423.97779882246
35.26354 400.02873894787
35.28366 438.996226673656
35.30377 407.001917061168
35.32389 434.006009565449
35.344 379
35.36411 390.008673130861
35.38423 386.982892522575
35.40434 378.990898763673
35.42445 382.956057893505
35.44457 402.991322085869
35.46468 387.028637866286
35.4848 375
35.50491 414.004111116231
35.52502 391.992522524421
35.54514 407.001778120598
35.56525 380.079091124139
35.58536 375.933527461376
35.60548 414.997172315803
35.62559 386.007255572851
35.64571 402.00817667322
35.66582 398.987815938052
35.68593 371.914126878034
35.70605 320.013385122207
35.72616 373.91676759165
35.74627 377.003040980621
35.76639 387.99586692689
35.7865 384
35.80661 369.989298759237
35.82673 361.040751698325
35.84684 403.022878852948
35.86696 371.085556976882
35.88707 354.975107629137
35.90718 387.97309751515
35.9273 393
35.94741 379.996060361587
35.96752 375.991499935843
35.98764 369.018117826136
36.00775 390.957876752848
36.02787 386.038748599542
36.04798 364.991010575185
36.06809 394.991712324013
36.08821 387.996708818561
36.10832 385.982925752472
36.12843 357.977884400357
36.14855 370.071224020475
36.16866 391.001721084411
36.18878 374.013318891003
36.20889 381.986379885279
36.229 404
36.24912 393.030262917735
36.26923 452.042890244031
36.28934 443.008605328445
36.30946 484.895653402978
36.32957 533.912749229577
36.34968 589.971458182419
36.3698 613
36.38991 738.07933235154
36.41003 894.210695996346
36.43014 1045.39181545979
36.45025 1288.37082328247
36.47037 1516.69537768809
36.49048 1705.81902122966
36.51059 1869.93660349411
36.53071 1904.95295264791
36.55082 1714.78664294363
36.57094 1511.54874878488
36.59105 1284.58036735425
36.61116 1187.14233166232
36.63128 1076.16949249351
36.65139 860.113320894017
36.6715 660
36.69162 541.940229420062
36.71173 508.931329757051
36.73184 438.870494720688
36.75196 406.004439629369
36.77207 420.969432191222
36.79219 420.018748927992
36.8123 364
36.83241 361.011554315804
36.85253 377.984607754547
36.87264 354.999726148925
36.89275 385.914022258571
36.91287 403.987072888867
36.93298 405.012057126419
36.9531 393
36.97321 402.98933326852
36.99332 355.967958538707
37.01344 362.054611496829
37.03355 377.036333891929
37.05366 345.03996392301
37.07378 344.004232135175
37.09389 332.999453102915
37.11401 339.993929388793
37.13412 312.987710267701
37.15423 315.984622922264
37.17435 300.036121750949
37.19446 338.958157119302
37.21457 326.031176169893
37.23469 318.000230948487
37.2548 317
37.27491 313.001301527082
37.29503 324.022159747622
37.31514 328.972023996976
37.33526 306.024711821042
37.35537 309.98963976403
37.37548 312.994381619663
37.3956 324
37.41571 325.991803238524
37.43582 302.990478390057
37.45594 309.007626543605
37.47605 308.969790953022
37.49617 339.939683171434
37.51628 357.029645234763
37.53639 308.008457778239
37.55651 340.023228180751
37.57662 349.95631310054
37.59673 294.990749914749
37.61685 335.059896888084
37.63696 318.042096645881
37.65708 315.996511532874
37.67719 322.989012976095
37.6973 359
37.71742 369.97054201759
37.73753 322.95996265037
37.75764 323.998272352783
37.77776 320.951796886049
37.79787 345.049307974625
37.81798 283.005621410313
37.8381 342
37.85821 336.99132298805
37.87833 331.990376322184
37.89844 317.972477112682
37.91855 314.973202082391
37.93867 323.021225465373
37.95878 301.992779938251
37.97889 328.998487402227
37.99901 301.990386419796
38.01912 302.996365431811
38.03924 302.067606731656
38.05935 351.029966509732
38.07946 316.079638233807
38.09958 303.992829208472
38.11969 318.990012014268
38.1398 336
38.15992 335.997041145476
38.18003 339.018580698006
38.20015 352.002977360295
38.22026 336.051926422831
38.24037 322.975679810051
38.26049 368.970323306456
38.2806 392
38.30071 320.994157015155
38.32083 362.007510489221
38.34094 321.988397219179
38.36105 366.918016679811
38.38117 347.076207837641
38.40128 309.999542194417
38.4214 340
38.44151 338.98731738905
38.46162 329.040819924366
38.48174 382.986993097452
38.50185 323.081015257282
38.52196 344.954219993839
38.54208 342.002315590012
38.56219 350.997855607803
38.58231 334.982134627372
38.60242 308.010312658646
38.62253 349.054694837133
38.64265 356.97479041974
38.66276 341.039726175046
38.68287 314.057859280146
38.70299 282.999452501125
38.7231 313
38.74321 323.998389401854
38.76333 309.959153768622
38.78344 287.003374094458
38.80356 314.929747920729
38.82367 329.025572870169
38.84378 302.005523384146
38.8639 320
38.88401 315.999379518725
38.90412 326.010779253871
38.92424 320.94593201994
38.94435 291.01722768856
38.96447 304.989446026061
38.98458 296.006262557364
39.00469 308.985043108294
39.02481 339.007450060651
39.04492 334.988033923165
39.06503 331.013661157766
39.08515 349.043535239353
39.10526 351.038121399881
39.12538 326.009838318699
39.14549 334.994714709316
39.1656 352
39.18572 408.026626805732
39.20583 399.987084847277
39.22594 418.075641617853
39.24606 455.951856407113
39.26617 479.924352358164
39.28628 558.918578851248
39.3064 631
39.32651 738.077201161856
39.34663 934.318520338459
39.36674 1139.38638995953
39.38685 1339.44078236743
39.40697 1556.76484418948
39.42708 1649.92487268263
39.44719 1715.99128045107
39.46731 1647.9246249751
39.48742 1459.82131678933
39.50754 1295.62957850184
39.52765 1109.68656560886
39.54776 1036.1753747563
39.56788 891.175971258521
39.58799 729.062342703341
39.6081 619
39.62822 456.862131855061
39.64833 371.927706742255
39.66845 357.081200568914
39.68856 394.032101398568
39.70867 317.131708772687
39.72879 273.995486594427
39.7489 314
39.76901 324.986440743678
39.78913 297.022798059076
39.80924 337.004884389911
39.82935 299.046987149913
39.84947 309.016142629697
39.86958 280.991753253207
39.8897 328
39.90981 319.985560690025
39.92992 298.994730879716
39.95004 312.052366869065
39.97015 332.995385328221
39.99026 323.001846072145
40.01038 342.968462274157
40.03049 364.001445432569
40.05061 347.997519751816
40.07072 368.034765779507
40.09083 397.018242663333
40.11095 403.052489926746
40.13106 463.793998240764
40.15117 574.880616841076
40.17129 610.991115682953
40.1914 673
40.21152 842.103776892009
40.23163 877.07713340252
40.25174 973.163783480232
40.27186 1004.00076299574
40.29197 965.157010871055
40.31208 821.12668270364
40.3322 730
40.35231 640.975135332955
40.37242 627.984783399014
40.39254 577.844734825625
40.41265 483.264429217305
40.43277 393.075324402823
40.45288 373.022043398928
40.47299 345.002437703564
40.49311 349.986391373882
40.51322 302.988287048895
40.53333 324.999467740948
40.55345 305.047418101682
40.57356 347.019698713022
40.59368 278.060248190038
40.61379 270.988039250675
40.6339 299
40.65402 309.983828019479
40.67413 273.944167936705
40.69424 252.990003221275
40.71436 264.939592465671
40.73447 297.972469990835
40.75458 293.01987893331
40.7747 281
40.79481 297.996413066497
40.81493 273.995934809383
40.83504 298.03652699001
40.85515 291.048797453656
40.87527 277.999835083261
40.89538 278.01980433781
40.91549 257.990252601256
40.93561 306.012626573443
40.95572 290.97784079653
40.97584 281.983568906429
40.99595 271.995706400704
41.01606 276.999630047468
41.03618 273.993055820375
41.05629 298.981176632554
41.0764 320
41.09652 274.971788156126
41.11663 291.070186531967
41.13675 327.998142621536
41.15686 291.087224208345
41.17697 280.947307318358
41.19709 325.996382113811
41.2172 293
41.23731 284.991533070795
41.25743 274.058875384659
41.27754 338.036912921232
41.29765 293.139988950939
41.31777 274.973518645837
41.33788 297.002925995313
41.358 277
41.37811 291.993640146433
41.39822 267.020806892855
41.41834 326.062353293816
41.43845 301.109672743861
41.45856 274.021714303956
41.47868 282.966627206372
41.49879 313.003163894393
41.51891 282.996039948291
41.53902 305.014250925875
41.55913 286.944051869844
41.57925 265.039011745012
41.59936 307.925419257655
41.61947 315.0237984365
41.63959 295.006238046641
41.6597 302
41.67982 322.988191671909
41.69993 291.985432982605
41.72004 313.0420977079
41.74016 313.023583028662
41.76027 305.99228999057
41.78038 315.002882020457
41.8005 303
41.82061 315.006424938869
41.84072 310.974917539093
41.86084 284.995833163329
41.88095 300.991117627905
41.90107 291.986850814084
41.92118 320.979060685816
41.94129 316.010403699585
41.96141 294.992365614823
41.98152 293.013268285457
42.00163 303.983610541091
42.02175 272.926406266693
42.04186 265.969291253889
42.06198 289.981121072208
42.08209 301.99169279017
42.1022 307
42.12232 267.017435908571
42.14243 338.086633152994
42.16254 349.997982722204
42.18266 355.006126140532
42.20277 349.980147680747
42.22289 385.978759954544
42.243 417
42.26311 437.021280509
42.28323 503.104592203197
42.30334 569.145046501476
42.32345 667.672043923119
42.34357 832.716273917448
42.36368 1031.80141408567
42.38379 1197.94694744232
42.40391 1266.03785228322
42.42402 1317.94925633596
42.44414 1185.77601801939
42.46425 1115.74053747967
42.48436 956.314990286601
42.50448 849.061366470058
42.52459 811.015070014271
42.5447 762
42.56482 641.83681214902
42.58493 479.833082007274
42.60505 418.857651917247
42.62516 360.037060822145
42.64527 361.062091706413
42.66539 288.015206557202
42.6855 309
42.70561 281.990737843634
42.72573 289.010065426418
42.74584 285.001096593245
42.76595 295.970324048029
42.78607 288.058639141484
42.80618 256.971751727576
42.8263 322
42.84641 292.98513045908
42.86652 288.993308082804
42.88664 269.97560785489
42.90675 267.025119606632
42.92686 259.954727798064
42.94698 287.021084837107
42.96709 231.012312653465
42.98721 257.014959914034
43.00732 265.006324771581
43.02743 279.015726533596
43.04755 273.946230467829
43.06766 248.033517407209
43.08777 251.965321047842
43.10789 278.991659337827
43.128 275
43.14812 255.999372942649
43.16823 274.031209811838
43.18834 280.983907476133
43.20846 270.001026072044
43.22857 282.975791044512
43.24868 288.01029864937
43.2688 270
43.28891 264.998154918225
43.30902 255.986616795573
43.32914 247.007029992242
43.34925 258.979506172087
43.36937 260.991888081078
43.38948 268.999998802137
43.40959 250.019092333749
43.42971 215.997306092787
43.44982 246.047910653369
43.46993 274.984709374081
43.49005 246.98914825817
43.51016 267.986622164751
43.53028 251.010502129051
43.55039 253.004738721211
43.5705 233
43.59062 244.003739601414
43.61073 239.012251448442
43.63084 252.981058552389
43.65096 236.95258409058
43.67107 282.99366096401
43.69119 243.011141377
43.7113 258
43.73141 242.990570000429
43.75153 239.01274246448
43.77164 252.023601785091
43.79175 257.005071197679
43.81187 248.023504160582
43.83198 245.968126749946
43.85209 282.005244316964
43.87221 235.990206208718
43.89232 253.002428931034
43.91244 225.959778901389
43.93255 236.068885261019
43.95266 253.019133726475
43.97278 228.013318970762
43.99289 244.980556938302
44.013 277
44.03312 255.978055266427
44.05323 246.991495020451
44.07335 246.037062278963
44.09346 263.011803804032
44.11357 241.009384646667
44.13369 252.999545412202
44.1538 241
44.17391 254.997269599471
44.19403 236.0064170438
44.21414 261.01295252914
44.23426 245.006513764168
44.25437 254.021413116717
44.27448 231.978285887192
44.2946 276
44.31471 225.994569203608
44.33482 267.023934445147
44.35494 243.937270031704
44.37505 229.029141037203
44.39516 228.933128715284
44.41528 268.005989207716
44.43539 223.013579088006
44.45551 239.013996330684
44.47562 250.998684881072
44.49573 245.997190754714
44.51585 258.074511115695
44.53596 282.019984583286
44.55607 250.020879350441
44.57619 258.003084241856
44.5963 227
44.61642 226.030904040134
44.63653 261.011967255078
44.65664 237.945479436701
44.67676 231.970948379776
44.69687 257.956589183023
44.71698 271.013840693729
44.7371 247
44.75721 263.007505100476
44.77732 261.990943665654
44.79744 258.012616172927
44.81755 260.055053601132
44.83767 234.980168610492
44.85778 270.001281874918
44.87789 235.003940764042
44.89801 262.004405824356
44.91812 245.002365300848
44.93823 271.013090428149
44.95835 251.958555451899
44.97846 253.986200319291
44.99858 259.987079189329
45.01869 274.997963163458
45.0388 262
45.05892 240.987311306987
45.07903 244.030480840054
45.09914 261.988260771278
45.11926 239.023222642022
45.13937 244.001859289718
45.15949 242.985712274212
45.1796 279
45.19971 239.998562568433
45.21983 279.030365329522
45.23994 263.986452543095
45.26005 278.983101276526
45.28017 270.003492898943
45.30028 283.982589080151
45.32039 288.0067896249
45.34051 276.006550989255
45.36062 304.008987464609
45.38074 297.027126440491
45.40085 324.999177107261
45.42096 290.065873578903
45.44108 279.004997478221
45.46119 278.989980974976
45.4813 315
45.50142 320.976292424563
45.52153 299.022194327599
45.54165 353.150935911968
45.56176 387.98221824258
45.58187 386.992473358079
45.60199 402.992129899289
45.6221 432
45.64221 526.043025385173
45.66233 581.051202819819
45.68244 639.229644049242
45.70256 773.837597779464
45.72267 811.887247808634
45.74278 913.964264960733
45.7629 889
45.78301 941.999576158209
45.80312 844.859567106538
45.82324 724.829740462465
45.84335 666.13079870708
45.86346 607.113626314701
45.88358 571.004096973204
45.90369 571.017207461367
45.92381 488.948542795759
45.94392 390.908811558228
45.96403 320.949422284723
45.98415 307.946284748587
46.00426 283.981357132057
46.02437 315.987636829231
46.04449 281.025485150994
46.0646 249
46.08472 263.014328706995
46.10483 270.014399248904
46.12494 281.002041055768
46.14506 267.044939086253
46.16517 249.009780303337
46.18528 247.011232673988
46.2054 232
46.22551 253.013042595934
46.24563 257.958626095914
46.26574 226.007060905542
46.28585 268.885252140412
46.30597 274.066125232751
46.32608 227.991639117366
46.34619 272.996320996186
46.36631 225.978189388197
46.38642 227.030002026897
46.40653 255.015320970603
46.42665 240.926832868242
46.44676 231.923794861151
46.46688 279.009691780697
46.48699 219.018925187933
46.5071 229
46.52722 227.014634258104
46.54733 250.993173021117
46.56744 233.042633391546
46.58756 275.018555799713
46.60767 222.025930672511
46.62779 255.989346117277
46.6479 235
46.66801 228.005892413017
46.68813 240.999877659573
46.70824 226.970854411283
46.72835 228.943853075623
46.74847 252.001035129828
46.76858 231.013539288528
46.78869 237.993503698919
46.80881 246.003163953595
46.82892 246.988549719241
46.84904 230.989342366277
46.86915 240.030084523237
46.88926 253.948778144279
46.90938 267.034091046594
46.92949 217.998243796765
46.9496 266
46.96972 229.964701865814
46.98983 241.074889124945
47.00995 289.029455283334
47.03006 266.044911573086
47.05017 260.012647847172
47.07029 249.995769719274
47.0904 266
47.11051 235.989963638764
47.13063 238.006465567861
47.15074 243.047433537842
47.17086 271.001757885428
47.19097 239.048516783561
47.21108 232.983251520347
47.2312 251
47.25131 236.99549116286
47.27142 249.029112433725
47.29154 275.011987648827
47.31165 260.050377268066
47.33176 249.005835008281
47.35188 249.998108265711
47.37199 252.99635911257
47.39211 258.997912286106
47.41222 245.988494514547
47.43233 247.021651888951
47.45245 263.011375870732
47.47256 248.059016420915
47.49267 229.977372783757
47.51279 265.988691026378
47.5329 263
47.55302 260.990607501023
47.57313 244.98623962501
47.59324 241.978855109305
47.61336 228.99242012512
47.63347 245.988833147879
47.65358 240.997653662118
47.6737 253
47.69381 241.992295822491
47.71393 241.032797867627
47.73404 269.017290838941
47.75415 252.058689273359
47.77427 245.975007539276
47.79438 266.998548579869
47.81449 244.01415701632
47.83461 224.993224203892
47.85472 225.025837730387
47.87483 256.004198553344
47.89495 232.966579308385
47.91506 242.976221556946
47.93518 238.019231046319
47.95529 224.994316167224
47.9754 252
47.99552 246.992382613518
48.01563 249.009140405742
48.03574 250.990341972826
48.05586 237.044812046803
48.07597 220.99241031471
48.09609 237.997513256252
48.1162 229
48.13631 249.016051160719
48.15643 274.010407626123
48.17654 254.915689776009
48.19665 214.04258357826
48.21677 228.950486230128
48.23688 255.989742481751
48.257 247
48.27711 235.0039622826
48.29722 252.003460501292
48.31734 234.956254577175
48.33745 230.04620123416
48.35756 257.96714831011
48.37768 258.997879083576
48.39779 266.999020903389
48.4179 255
48.43802 234.990050251657
48.45813 239.02099109912
48.47825 254.02680170652
48.49836 252.03608011211
48.51847 239.970558888679
48.53859 277.991565148962
48.5587 260
48.57881 251.00602852892
48.59893 260.973141877486
48.61904 220.939573541868
48.63916 225.931593784957
48.65927 256.998670656046
48.67938 233.016599685223
48.6995 246
48.71961 266.993803222941
48.73972 241.002003681575
48.75984 276.062826990869
48.77995 277.050573020124
48.80006 255.026509618076
48.82018 253.995528154175
48.84029 256.999347054353
48.86041 255.998139089853
48.88052 250.995668125653
48.90063 243.977826421047
48.92075 232.016889111655
48.94086 244.024321170539
48.96097 217.999903623711
48.98109 240.998653046561
49.0012 225
49.02132 253.995725549796
49.04143 218.983323745046
49.06154 255.104161259803
49.08166 284.006899310776
49.10177 259.040055441529
49.12188 240.021091431375
49.142 216
49.16211 221.016735992906
49.18223 262.031036126821
49.20234 262.011904345974
49.22245 275.014374269288
49.24257 250.02809367201
49.26268 247.002977701352
49.28279 232.011536791179
49.30291 220.007360147076
49.32302 251.020959193222
49.34313 259.026681705489
49.36325 284.016117455126
49.38336 265.051153434531
49.40348 255.987611226615
49.42359 269.006070169653
49.4437 248
49.46382 280.998430281392
49.48393 244.977071720253
49.50404 272.072318320446
49.52416 282.037894060098
49.54427 260.990089661116
49.56439 287.994910719028
49.5845 275
49.60461 276.989509989377
49.62473 244.999821106292
49.64484 281.067466547555
49.66495 295.957159588232
49.68507 316.992769222196
49.70518 305.009418138517
49.7253 311
49.74541 327.007716476882
49.76552 344.02187152295
49.78564 367.032978127973
49.80575 379.041457795394
49.82586 409.909818556211
49.84598 449.985428201565
49.86609 456.981481152292
49.8862 530
49.90632 595.070918354011
49.92643 668.078457174353
49.94655 719.224953787063
49.96666 880.557145980194
49.98677 1131.61776412214
50.00689 1377.87856898136
50.027 1632
50.04711 1918.15198282674
50.06723 2259.58445535769
50.08734 2591.29245568377
50.10746 2581.02863894442
50.12757 2587.15216283575
50.14768 2289.45033062708
50.1678 1843
50.18791 1656.9165731587
50.20802 1484.91607452102
50.22814 1482.96719000336
50.24825 1391.32459297051
50.26837 1231.32281174792
50.28848 974.25365063202
50.30859 737.122426209743
50.32871 510.925531661618
50.34882 445.972211937756
50.36893 417.973797493217
50.38905 396.878444276105
50.40916 341.03491201428
50.42927 361.978254059076
50.44939 352.003785826181
50.4695 353
50.48962 330.989135761273
50.50973 344.041683075413
50.52984 363.996428106033
50.54996 347.023171629815
50.57007 353.972434689753
50.59018 369.993325768621
50.6103 356
50.63041 310.98671411908
50.65053 323.070434564113
50.67064 359.970075849614
50.69075 302.123284959717
50.71087 291.985579864889
50.73098 301.989286665133
50.75109 297.018760720376
50.77121 260.007073391397
50.79132 306.007919121304
50.81143 265.957725232005
50.83155 267.97892625299
50.85166 244.007345616701
50.87178 271.964859190137
50.89189 282.011740077927
50.912 241
50.93212 242.038769213539
50.95223 283.006005634619
50.97234 248.931551012694
50.99246 243.966957991296
51.01257 256.016194028801
51.03269 232.004480841811
51.0528 256
51.07291 286.993304593737
51.09303 240.943143604593
51.11314 243.067924856343
51.13325 275.984212681216
51.15337 257.026485636791
51.17348 248.019276533271
51.1936 222
51.21371 238.014004833927
51.23382 257.002050596741
51.25394 233.903396147699
51.27405 193.991511280867
51.29416 235.918148548072
51.31428 242.023664159816
51.33439 219.996940172692
51.3545 241
51.37462 214.994523063214
51.39473 240.034506430401
51.41485 238.962376728836
51.43496 232.967509122138
51.45507 251.021059792504
51.47519 215.006764256183
51.4953 232
51.51541 222.995886476111
51.53553 221.987497096535
51.55564 217.047289876788
51.57576 251.99386975395
51.59587 221.036337581997
51.61598 225.98390357122
51.6361 239
51.65621 250.000716416026
51.67632 239.983691950286
51.69644 226.990309197281
51.71655 228.000223619159
51.73667 221.018975273777
51.75678 216.982133592694
51.77689 242.996626813864
51.79701 229.99701395168
51.81712 236.999293242607
51.83723 225.995202201137
51.85735 226.959198003941
51.87746 203.994236484404
51.89757 234.95680901223
51.91769 241.003765842174
51.9378 232
51.95792 230.004971379376
51.97803 238.008419331828
51.99814 230.950960119054
52.01826 208.98791675983
52.03837 238.963386772607
52.05848 232.034894037388
52.0786 204
52.09871 236.001731496013
52.11883 214.007684538067
52.13894 250.036277079154
52.15905 227.096581651803
52.17917 204.996730343058
52.19928 225.973275640354
52.21939 241.999319718573
52.23951 232.994387624897
52.25962 222.986834967282
52.27974 217.032338857105
52.29985 247.050835230612
52.31996 244.033887999964
52.34008 219.036148622078
52.36019 194.992347830837
52.3803 240
52.40042 247.992867912525
52.42053 245.008956226915
52.44064 237.906695278959
52.46076 184.996173442024
52.48087 233.958745893682
52.50099 220.003584353164
52.5211 237
52.54121 227.995212617697
52.56133 232.019897847405
52.58144 247.026517956742
52.60155 251.02401752984
52.62167 231.033869827565
52.64178 220.989638494969
52.6619 236
52.68201 216.996964618746
52.70212 227.001524969259
52.72224 222.02975462949
52.74235 238.070274269704
52.76246 194.966012927103
52.78258 262.965969194831
52.80269 243.004834353478
52.8228 262
52.84292 239.994218722106
52.86303 253.996640051811
52.88315 234.999236230051
52.90326 246.040492899223
52.92337 218.949706071135
52.94349 293.98556823528
52.9636 260
52.98371 267.99982649808
53.00383 241.961172592194
53.02394 237.022999325396
53.04406 248.004482720137
53.06417 241.981597015304
53.08428 263.002191850875
53.1044 244
53.12451 273.010784397665
53.14462 266.979672277283
53.16474 259.036009049469
53.18485 283.010038424506
53.20497 259.003014574896
53.22508 285.979176917937
53.24519 277.013739843846
53.26531 261.007274309299
53.28542 288.002161519135
53.30553 265.987379041527
53.32565 291.101719251785
53.34576 312.034311175808
53.36587 274.034551878701
53.38599 285.984254259653
53.4061 310
53.42622 292.971608185024
53.44633 268.980124652617
53.46644 261.977849464733
53.48656 251.986259177286
53.50667 265.011038197877
53.52678 253.971333125539
53.5469 303
53.56701 267.99481508214
53.58713 284.972876064139
53.60724 237.985655525424
53.62735 277.935883941779
53.64747 266.017840233246
53.66758 279.972142637788
53.68769 297.003522323954
53.70781 273.991247772482
53.72792 272.002500356701
53.74804 270.997080254907
53.76815 274.023358984848
53.78826 279.024006806962
53.80838 262.994178599755
53.82849 289.989280276625
53.8486 288
53.86872 268.98364116528
53.88883 261.002728566346
53.90894 268.012315043131
53.92906 273.975521538219
53.94917 290.979870814949
53.96929 293.00457552959
53.9894 280
54.00951 278.00141462889
54.02963 276.983980957687
54.04974 272.043963658309
54.06985 298.036539680854
54.08997 247.057158746695
54.11008 263.934651090643
54.1302 318
54.15031 260.986069149741
54.17042 284.021714174608
54.19054 287.037111700403
54.21065 308.060703505848
54.23076 265.968268104729
54.25088 327.980180797517
54.27099 281.025072824053
54.29111 276.012778697325
54.31122 300.004597794086
54.33133 287.987654133755
54.35145 286.97389995679
54.37156 272.989509372962
54.39167 295.975417414203
54.41179 294.00400775817
54.4319 298
54.45201 317.996460117244
54.47213 296.000985951495
54.49224 319.015323330222
54.51236 308.985043069464
54.53247 335.980307697073
54.55258 328.003129812654
54.5727 337
54.59281 324.992426367578
54.61292 331.040417842255
54.63304 387.077292134302
54.65315 406.921589342308
54.67327 439.014036271215
54.69338 406.993641815004
54.71349 483.941011462556
54.73361 603.053336408175
54.75372 688.064214659995
54.77383 764.175629238372
54.79395 886.146427011917
54.81406 891.94020872702
54.83417 956.950165424741
54.85429 913.049850446175
54.8744 821
54.89452 814.967791487898
54.91463 722.814178376913
54.93474 628.945187469422
54.95486 652.950821268453
54.97497 633.088448656561
54.99508 585.988529427966
55.0152 613
55.03531 489.944919916507
55.05543 432.925675712785
55.07554 377.947941486111
55.09565 380.010858135917
55.11577 364.992772910925
55.13588 390.98225378221
55.15599 389.002047618593
55.17611 414.033662742428
55.19622 482.012398628173
55.21634 451.992575766098
55.23645 512.231618432298
55.25656 577.982728208509
55.27668 543.035409058107
55.29679 539.990217775117
55.3169 541
55.33702 460.940222922883
55.35713 443.998056405908
55.37724 436.986661884957
55.39736 433.009589619905
55.41747 423.023772326132
55.43759 404.00916652454
55.4577 397
55.47781 410.996462061187
55.49793 379.948887107728
55.51804 352.940596181245
55.53815 322.049655214979
55.55827 314.010399491059
55.57838 301.015091979148
55.5985 294
55.61861 299.99082616563
55.63872 263.976178838274
55.65884 272.060433501288
55.67895 296.99681501436
55.69906 283.005380271203
55.71918 294.996648751453
55.73929 281.00831970855
55.75941 268.992798881769
55.77952 258.005596052758
55.79963 269.992584395703
55.81975 256.020327145957
55.83986 279.995528398325
55.85997 263.990004707888
55.88009 294.992174006914
55.9002 284
55.92031 277.985914577288
55.94043 229.941507931127
55.96054 227.06435190797
55.98066 267.953280255
56.00077 267.009963347081
56.02088 269.990815817561
56.041 274
56.06111 252.988494229279
56.08122 245.014753428216
56.10134 269.02363470254
56.12145 259.05038938125
56.14157 242.017589380377
56.16168 240.986734164425
56.18179 259.993839027453
56.20191 260.99858468378
56.22202 249.969135002604
56.24213 227.037205996413
56.26225 274.008776902676
56.28236 235.029948382758
56.30248 260.982321595422
56.32259 247.009939499562
56.3427 245
56.36282 261.005260880287
56.38293 257.00092824217
56.40304 260.984595282501
56.42316 246.005077096025
56.44327 256.990962295196
56.46338 251.006571416108
56.4835 248
56.50361 242.00307982401
56.52373 253.999831352626
56.54384 246.012271542067
56.56395 263.986730211195
56.58407 252.014253120803
56.60418 252.003145194119
56.62429 252.987462059669
56.64441 285.000621717196
56.66452 249.960865506509
56.68464 236.01828538339
56.70475 251.014203983919
56.72486 246.99818265243
56.74498 254.997417009489
56.76509 251.998146236577
56.7852 263
56.80532 259.99437779746
56.82543 254.988251631576
56.84554 241.966361711797
56.86566 229.998795513813
56.88577 238.991615126561
56.90589 236.002501763197
56.926 241
56.94611 255.991521217201
56.96623 222.990516589966
56.98634 240.995446854209
57.00645 219.98371864458
57.02657 256.964164654222
57.04668 255.994495589768
57.0668 274
57.08691 258.992168171272
57.10702 257.007177727279
57.12714 262.997789848754
57.14725 256.014233732323
57.16736 257.982044759808
57.18748 274.973582738345
57.20759 295.002117455604
57.22771 272.992319788665
57.24782 268.988119466948
57.26793 254.009210961481
57.28805 268.968504707985
57.30816 243.971314172561
57.32827 289.97302193514
57.34839 256.025066694977
57.3685 238
57.38861 278.003045612387
57.40873 251.984918957149
57.42884 262.979122193742
57.44896 230.027178277636
57.46907 245.978580875882
57.48918 241.010625386195
57.5093 239
57.52941 246.999571502136
57.54952 245.013991032789
57.56964 259.967391214641
57.58975 228.99109437969
57.60987 258.00578798449
57.62998 217.02368401207
57.65009 235.983608629039
57.67021 250.996996135785
57.69032 236.994216913372
57.71043 246.021439318346
57.73055 249.968401414783
57.75066 229.028664464261
57.77078 232.980599533347
57.79089 252.995854065783
57.811 252
57.83112 254.980914868465
57.85123 224.987204066849
57.87134 238.005306492533
57.89146 226.992161635357
57.91157 243.005067569974
57.93168 221.008145542906
57.9518 233
57.97191 231.006980527994
57.99203 258.019197814207
58.01214 246.964804722475
58.03225 240.982825228835
58.05237 242.037048781294
58.07248 216.979567882901
58.09259 264.994308187114
58.11271 233.992462499513
58.13282 250.004282663989
58.15294 232.989738120932
58.17305 249.033732023481
58.19316 242.043784417636
58.21328 231.976657327886
58.23339 264.002981986289
58.2535 219
58.27362 226.045323511604
58.29373 271.018207927482
58.31385 248.936228339547
58.33396 238.016786282457
58.35407 236.964815992565
58.37419 265.002513999316
58.3943 234
58.41441 257.015029305613
58.43453 260.958732146437
58.45464 221.950720618906
58.47475 230.909011634517
58.49487 262.002415999114
58.51498 235.01775382089
58.5351 240
58.55521 229.987649200303
58.57532 214.014350498831
58.59544 236.97648027861
58.61555 203.000113813171
58.63566 246.916413975052
58.65578 253.017703434318
58.67589 238.997367915412
58.69601 250.995297384534
58.71612 232.011415557005
58.73623 259.986091562416
58.75635 221.988971650113
58.77646 257.958219221841
58.79657 246.011488255016
58.81669 251.005618162298
58.8368 237
58.85691 274.989885647226
58.87703 204.939297684819
58.89714 223.054754213699
58.91726 225.018662086942
58.93737 218.007644987004
58.95748 220.982257851236
58.9776 238
58.99771 220.002155565493
59.01782 246.012958463573
59.03794 234.977032089738
59.05805 230.036562149507
59.07817 215.979849003738
59.09828 248.982603235941
59.11839 243.001159977581
59.13851 248.995926985041
59.15862 235.010990905283
59.17873 259.995676566358
59.19885 236.008380715731
59.21896 264.99122618752
59.23908 241.006059387383
59.25919 264.990118586769
59.2793 268
59.29942 274.979583369956
59.31953 241.994491441742
59.33964 275.070822394774
59.35976 282.037232498916
59.37987 261.999868483356
59.39998 284.9729666247
59.4201 294
59.44021 267.986525960154
59.46033 257.015162281946
59.48044 278.032975731845
59.50055 283.988973553241
59.52067 288.00662963783
59.54078 283.986686378544
59.56089 318.978203505948
59.58101 345.998670932196
59.60112 328.996849658871
59.62124 359.108483100181
59.64135 396.972837474298
59.66146 363.991852701438
59.68158 422.927786568677
59.70169 462.998732202708
59.7218 475
59.74192 595.099512364062
59.76203 648.067640774515
59.78215 726.278364275856
59.80226 857.730639088454
59.82237 1006.7197804922
59.84249 1227.88889903749
59.8626 1407
59.88271 1521.08951204516
59.90283 1743.25285574934
59.92294 1789.89745505089
59.94305 1673.42757829462
59.96317 1459.37620224284
59.98328 1217.18673752574
60.0034 1084
60.02351 977.980615447802
60.04362 1008.05040717334
60.06374 1036.02039603462
60.08385 1019.14510020105
60.10396 926.211820131467
60.12408 815.1271689795
60.14419 664.083698965377
60.16431 504.935731847256
60.18442 418.950333784474
60.20453 391.98506517008
60.22465 378.925267058646
60.24476 333.092152018054
60.26487 301.027148101871
60.28499 286.010963812946
60.3051 272
60.32522 307.007527632477
60.34533 279.961434723127
60.36544 273.993854023577
60.38556 262.031083451536
60.40567 250.009402488911
60.42578 247.004204753313
60.4459 239
60.46601 240.011139997318
60.48612 268.007201196415
60.50624 244.927353325431
60.52635 233.908617483664
60.54647 288.967892029296
60.56658 261.041265713488
60.58669 237.005766153253
60.60681 236.006369823994
60.62692 257.020295907088
60.64703 258.961975892243
60.66715 234.031006832011
60.68726 265.012627817339
60.70738 229.002168751689
60.72749 262.995569974533
60.7476 234
60.76772 237.989590822468
60.78783 217.013596104227
60.80794 258.068266666807
60.82806 261.028642151238
60.84817 250.996846572235
60.86828 263.98523710769
60.8884 270
60.90851 253.986571118342
60.92863 240.033578105517
60.94874 275.000381163727
60.96885 237.079545654324
60.98897 245.939047140108
61.00908 279.005540028769
61.02919 252.000180469951
61.04931 279.003435598959
61.06942 260.999630774553
61.08954 281.001327665304
61.10965 259.986130158644
61.12976 275.98682469811
61.14988 267.996946550379
61.16999 282.998976600912
61.1901 275
61.21022 289.980019450862
61.23033 249.993157651113
61.25045 276.999178458768
61.27056 246.012108972098
61.29067 274.971999094496
61.31079 272.993935355004
61.3309 302
61.35101 289.992505502474
61.37113 279.971335090407
61.39124 267.045543883333
61.41135 302.016077295297
61.43147 264.009098727657
61.45158 293.993436532897
61.4717 270
61.49181 300.009883474092
61.51192 290.9856239242
61.53204 281.968025362701
61.55215 282.864579690871
61.57226 347.013704967824
61.59238 276.046786312984
61.61249 294.980678119389
61.63261 306.992337955018
61.65272 283.989807165053
61.67283 298.044035110052
61.69295 313.955643309704
61.71306 278.035835518765
61.73317 293.955059252832
61.75329 311.001737740138
61.7734 296
61.79352 291.986847679076
61.81363 279.017796639985
61.83374 305.009316514398
61.85386 277.072357786848
61.87397 261.982140494922
61.89408 286.981794630346
61.9142 302
61.93431 324.978134117474
61.95442 252.993843652133
61.97454 326.143505979597
61.99465 326.157232985749
62.01477 265.999027981967
62.03488 314.97301180316
62.05499 301.001982255306
62.07511 320.001869469684
62.09522 295.973970627923
62.11533 287.002916583312
62.13545 297.05331123453
62.15556 321.966033560019
62.17568 316.032786876517
62.19579 283.999570201333
62.2159 310
62.23602 293.983623793938
62.25613 290.996301377081
62.27624 280.974780203321
62.29636 277.971833402623
62.31647 297.98943113756
62.33659 292.998682316705
62.3567 297
62.37681 253.981634165785
62.39693 261.090307505963
62.41704 321.998083054375
62.43715 265.110155696123
62.45727 262.997991264335
62.47738 248.012051727149
62.49749 254.988527086197
62.51761 284.013839645081
62.53772 291.976719456094
62.55784 253.951599177524
62.57795 256.032242796996
62.59806 258.030739075963
62.61818 239.002171905286
62.63829 257.988018735129
62.6584 268
62.67852 257.001591003607
62.69863 268.001249155146
62.71875 253.965029087181
62.73886 256.955546949085
62.75897 279.000445713529
62.77909 255.01339820984
62.7992 238
62.81931 224.998371287143
62.83943 239.046423571534
62.85954 263.99177008215
62.87965 243.006249902018
62.89977 263.978830849622
62.91988 251.029975702639
62.94 229
62.96011 239.995769860015
62.98022 214.990605208715
63.00034 230.032620199294
63.02045 235.983235837942
63.04056 247.979151114371
63.06068 248.012531848651
63.08079 236.996537498832
63.10091 258.007308014627
63.12102 252.982296566064
63.14113 231.967828734042
63.16125 221.020114395946
63.18136 244.944260678726
63.20147 257.018416070057
63.22159 235.004209698101
63.2417 243
63.26182 242.012769620851
63.28193 270.038218094102
63.30204 274.967386714413
63.32216 253.021645284583
63.34227 246.040057904603
63.36238 215.992676711513
63.3825 247
63.40261 224.007958470146
63.42272 273.013889038173
63.44284 237.940153258034
63.46295 241.966705138528
63.48307 246.994538096287
63.50318 251.001002912854
63.52329 242.007260392028
63.54341 236.007171239242
63.56352 251.987007971819
63.58363 218.980120926156
63.60375 243.09853582416
63.62386 260.044201930677
63.64398 219.02280861645
63.66409 231.985176582905
63.6842 256
63.70432 268.019357650221
63.72443 293.027660163155
63.74454 290.950794836124
63.76466 262.024625306525
63.78477 274.960461328805
63.80489 294.997344274867
63.825 303
63.84511 346.001408017329
63.86523 327.036519587291
63.88534 382.015229663917
63.90545 356.913670290265
63.92557 453.896903739414
63.94568 461.995749982939
63.96579 496.978700930137
63.98591 519.999227059718
64.00602 503.984445400757
64.02614 482.906540571189
64.04625 423.908637382305
64.06636 408.060896610147
64.08648 367.011355347767
64.10659 382.000944306264
64.1267 361
64.14682 392.027534484844
64.16693 391.971785258629
64.18705 365.924984899673
64.20716 331.085472831944
64.22727 292.029170954078
64.24739 285.008478409472
64.2675 256
64.28761 251.999581422731
64.30773 245.990490422564
64.32784 239.980762364565
64.34796 231.993828693976
64.36807 242.99055062336
64.38818 239.007330038613
64.4083 232
64.42841 229.008353589336
64.44852 250.999707032818
64.46864 225.950757309439
64.48875 217.998963321579
64.50886 222.971703760449
64.52898 236.003354529906
64.54909 222.001816589539
64.56921 234.005939263267
64.58932 238.003841166331
64.60943 244.003925308067
64.62955 232.926658925916
64.64966 205.00300760131
64.66977 221.000285052751
64.68989 201.004750587094
64.71 220
64.73012 244.999972220319
64.75023 230.996463187798
64.77034 242.001236115747
64.79046 223.047557797196
64.81057 215.974463921101
64.83068 242.984788455506
64.8508 236
64.87091 218.992757687553
64.89102 216.016354811309
64.91114 251.089399778479
64.93125 267.107253725353
64.95137 197.0513412062
64.97148 218.963807226114
64.99159 234.998572257562
65.01171 233.998600248805
65.03182 225.981464392791
65.05193 209.003459781445
65.07205 232.06848616739
65.09216 243.021010115405
65.11228 224.009395205138
65.13239 227.99836988459
65.1525 223
65.17262 221.00237013234
65.19273 226.009178561124
65.21284 231.00600203495
65.23296 229.018257362478
65.25307 223.981064766314
65.27319 241.002843459049
65.2933 218
65.31341 225.995924204518
65.33353 203.997803246702
65.35364 229.046413842632
65.37375 235.989943453492
65.39387 240.009966407697
65.41398 231.989323603525
65.43409 250.003152439686
65.45421 216.984927601933
65.47432 214.0195301681
65.49444 230.987631085573
65.51455 209.982613367827
65.53466 227.950144950602
65.55478 247.979457797882
65.57489 264.998320398679
65.595 243
65.61512 217.048950130574
65.63523 293.003844040717
65.65535 227.93271466282
65.67546 277.879723479255
65.69557 300.993922626301
65.71569 301.003784477177
65.7358 291
65.75591 299.008010496371
65.77603 302.962923225776
65.79614 266.97434752541
65.81626 277.003088291982
65.83637 255.025143705527
65.85648 250.01206885206
65.8766 239
65.89671 271.002705096056
65.91682 248.990794004739
65.93694 271.063132334403
65.95705 284.031688866787
65.97716 260.027633554853
65.99728 254.021739337348
66.01739 222.00629425965
66.03751 235.007654574592
66.05762 240.005028206794
66.07773 243.987158643167
66.09785 222.945908651159
66.11796 214.982724338683
66.13807 227.001265851352
66.15819 220.993619481531
66.1783 251
66.19842 246.97922180697
66.21853 231.003037337465
66.23864 239.983756191405
66.25876 219.010421482198
66.27887 238.960854405935
66.29898 245.021542491086
66.3191 221
66.33921 254.011210471626
66.35933 241.949594151094
66.37944 206.943295411275
66.39955 204.908754370801
66.41967 251.975100679961
66.43978 231.025017563523
66.45989 224.00005995836
66.48001 216.991839943679
66.50012 209.020651322212
66.52023 240.003689970108
66.54035 216.98295408774
66.56046 233.986154063153
66.58058 223.999993932381
66.60069 225.016918718428
66.6208 181
66.64092 239.047234406957
66.66103 236.95626796927
66.68114 212.983445675279
66.70126 216.994796086073
66.72137 219.971867377256
66.74149 241.003054517097
66.7616 212
66.78171 225.015457850953
66.80183 253.02526162069
66.82194 246.934440204448
66.84205 213.012216700584
66.86217 234.974931597667
66.88228 228.017113704942
66.90239 224.989041932931
66.92251 256.006467334623
66.94262 247.994921711537
66.96274 256.014868395121
66.98285 247.938027542398
67.00296 225.00135462817
67.02308 241.990211276125
67.04319 238.998328231537
67.0633 250
67.08342 236.987893686053
67.10353 234.000032029776
67.12365 236.022656366831
67.14376 246.995071102254
67.16387 250.961425637278
67.18399 275.010958171147
67.2041 222
67.22421 247.018187125097
67.24433 259.988538807899
67.26444 253.024110139076
67.28456 273.003766000713
67.30467 255.993584389086
67.32478 286.973640162595
67.3449 284
67.36501 263.003186671581
67.38512 284.000628839905
67.40524 271.02987025057
67.42535 317.898281420687
67.44546 324.039568318836
67.46558 321.949454439046
67.48569 387.995801391124
67.50581 365.022238676525
67.52592 475.073653574867
67.54603 505.117853338426
67.56615 600.970807418225
67.58626 534.885718551636
67.60637 740.698843544167
67.62649 826.994115022286
67.6466 861
67.66672 1039.17839512975
67.68683 1159.09748189902
67.70694 1157.83264100132
67.72706 1026.25163165718
67.74717 935.11569721398
67.76728 855.076178694617
67.7874 772
67.80751 680.987903825904
67.82763 714.04277779127
67.84774 737.15435382449
67.86785 849.830945820018
67.88797 851.012401821607
67.90808 859.007616422626
67.92819 840.995515956555
67.94831 870.002232733373
67.96842 839.970050613558
67.98853 856.110619539994
68.00865 968.293596122884
68.02876 1063.84803212721
68.04888 1151.87362196598
68.06899 1294.94606683904
68.0891 1392
68.10922 1550.01838595599
68.12933 1430.82496348635
68.14944 1368.81682669421
68.16956 1235.20079770386
68.18967 1194.04157751227
68.20979 1175.98245330965
68.2299 1265
68.25001 1339.02742340117
68.27013 1384.05499023057
68.29024 1365.7575309895
68.31035 1189.33001390135
68.33047 1101.20992331781
68.35058 903.161516719631
68.3707 801
68.39081 661.940596873188
68.41092 605.000129250957
68.43104 627.027950622505
68.45115 605.866583183679
68.47126 552.047862090958
68.49138 555.002562422785
68.51149 508.048550537864
68.5316 399
68.55172 371.989362411099
68.57183 351.965124690065
68.59195 319.870845002898
68.61206 271.022917870986
68.63217 298.947074522339
68.65229 307.011096111716
68.6724 272
68.69251 256.990491730512
68.71263 241.015858602055
68.73274 267.013516475647
68.75286 257.973858572445
68.77297 287.994602584394
68.79308 262.015278711844
68.8132 259
68.83331 219.001756402138
68.85342 257.009229727296
68.87354 222.942598848598
68.89365 230.930245042958
68.91376 247.02242017786
68.93388 231.979820694276
68.95399 276.990063908023
68.97411 247.97408447935
68.99422 216.005459101178
69.01433 249.049737030847
69.03445 253.937896952504
69.05456 219.046177122158
69.07467 215.993830779159
69.09479 220.993715183793
69.1149 248
69.13502 273.981113497799
69.15513 226.957324081671
69.17524 232.015140316321
69.19536 225.01542098667
69.21547 225.991944926596
69.23558 231.992902074956
69.2557 230
69.27581 201.995341137319
69.29593 214.017085463517
69.31604 220.03486468934
69.33615 240.009075363417
69.35627 222.991059208852
69.37638 245.005446337222
69.39649 208.014390972524
69.41661 218.019981818822
69.43672 263.033097296405
69.45683 263.947199118743
69.47695 223.977961282701
69.49706 242.984274194114
69.51718 218.040516421404
69.53729 198.988539054973
69.5574 247
69.57752 244.973264070151
69.59763 221.995576198095
69.61774 234.011690702983
69.63786 224.028709711979
69.65797 219.9852537114
69.67809 235.994628248195
69.6982 244
69.71831 256.988271447056
69.73843 211.969149631487
69.75854 223.009051896142
69.77865 211.001175622496
69.79877 230.968265106078
69.81888 235.012490048493
69.839 216
69.85911 213.005186509231
69.87922 227.007237380614
69.89934 220.968972059689
69.91945 211.017661421364
69.93956 231.960118026783
69.95968 234.018343060808
69.97979 208.009050273693
69.9999 213
70.02002 238.998432202908
70.04013 214.976080202442
70.06025 222.036911376834
70.08036 230.990914722343
70.10047 226.031655158333
70.12059 201.004778200311
70.1407 210
70.16081 207.992147108771
70.18093 202.041199653743
70.20104 248.050918051632
70.22116 235.061397253951
70.24127 215.001717125441
70.26138 229.979807667935
70.2815 242
70.30161 232.992474947556
70.32172 212.972664458876
70.34184 197.03399295332
70.36195 230.967813070315
70.38207 213.031314921809
70.40218 205.0069721776
70.42229 202.990548615174
70.44241 229.001457103649
70.46252 211.996228485992
70.48263 225.000489093999
70.50275 209.990967657
70.52286 218.013364413495
70.54297 201.99028396981
70.56309 227.994796579978
70.5832 216
70.60332 221.996854738454
70.62343 206.987889869305
70.64354 214.023337282343
70.66366 224.970057923533
70.68377 237.004584225352
70.70388 219.020522968084
70.724 207
70.74411 210.005630348851
70.76423 212.965835526639
70.78434 187.022175780023
70.80445 226.950106031405
70.82457 214.015718619987
70.84468 217.007913233176
70.86479 201.996814762382
70.88491 223.00012520923
70.90502 194.971623681069
70.92513 194.040214358707
70.94525 230.06434490606
70.96536 232.032869738323
70.98548 213.010826286039
71.00559 213.99701934102
71.0257 215
71.04582 203.992454093808
71.06593 210.033589580666
71.08604 235.021149637252
71.10616 222.05745332155
71.12627 200.000068773413
71.14639 215.994595744423
71.1665 213
71.18661 220.009345996782
71.20673 231.979437342881
71.22684 208.000355019049
71.24695 228.990063645061
71.26707 208.024078601501
71.28718 208.999519323209
71.3073 213
71.32741 249.001301113092
71.34752 212.96040090429
71.36764 201.025278887981
71.38775 218.982881170434
71.40786 216.984825619311
71.42798 234.989565358561
71.44809 225.012697564835
71.4682 207
71.48832 229.006857089264
71.50843 226.032384839271
71.52855 259.998567656494
71.54866 220.074036979621
71.56877 213.98262101446
71.58889 216.010680195427
71.609 192
71.62911 216.995658017835
71.64923 188.021804954203
71.66934 243.057121100442
71.68946 230.006898548333
71.70957 250.98647300442
71.72968 232.026498188051
71.7498 215
71.76991 215.008809046272
71.79002 230.987750425345
71.81014 203.996938252084
71.83025 232.939619534532
71.85037 229.030820334085
71.87048 212.004543561977
71.89059 216.998584683542
71.91071 219.007067726798
71.93082 235.997359171387
71.95093 215.981049147096
71.97105 219.006342417154
71.99116 211.024717654839
72.01127 205.987794957557
72.03139 219.996714033721
72.0515 220
72.07162 235.008677636782
72.09173 228.977035566451
72.11184 220.015589560736
72.13196 232.013868464509
72.15207 210.014948856612
72.17218 217.995117942212
72.1923 219
72.21241 243.0001887396
72.23253 227.007514379652
72.25264 245.977423026579
72.27275 208.040789956602
72.29287 224.979006403536
72.31298 221.000824090546
72.33309 229.997901397699
72.35321 224.997997662406
72.37332 220.984965523886
72.39344 211.044774461832
72.41355 255.068233618601
72.43366 250.030487528473
72.45378 234.029075101823
72.47389 216.98346413815
72.494 272
72.51412 224.950529334196
72.53423 215.026834793257
72.55434 233.003750061551
72.57446 221.014837233318
72.59457 232.958259528319
72.61469 251.00721479823
72.6348 216
72.65491 228.014429333263
72.67503 244.987763674167
72.69514 231.025233654149
72.71525 258.008997585912
72.73537 226.019732140337
72.75548 246.976793865555
72.7756 246
72.79571 222.992493841304
72.81582 221.005410572245
72.83594 223.992699821681
72.85605 212.043803658147
72.87616 206.953852589803
72.89628 236.003401809743
72.91639 210.000177444096
72.9365 238
72.95662 222.996311070171
72.97673 241.019710502113
72.99685 238.996981085109
73.01696 246.980939445681
73.03707 248.015129986798
73.05719 243.989034084124
73.0773 271
73.09741 232.990730617851
73.11753 253.044375416755
73.13764 268.009179700896
73.15776 273.970845723233
73.17787 289.995999577436
73.19798 283.995289236255
73.2181 298
73.23821 283.993048117076
73.25832 294.041453153053
73.27844 336.006650898509
73.29855 319.943339882825
73.31867 388.90412676224
73.33878 431.943954017292
73.35889 493.987367257098
73.37901 472.982699140369
73.39912 475.056573250854
73.41923 548.04851421188
73.43935 530.952068400178
73.45946 534.988799731255
73.47957 511.094119088761
73.49969 427.038346236
73.5198 381
73.53992 381.013531366117
73.56003 386.973449861845
73.58014 363.006860084119
73.60026 385.004125615999
73.62037 355.028711183028
73.64048 363.984208477147
73.6606 363
73.68071 333.987661384779
73.70083 313.958908572822
73.72094 285.9818742893
73.74105 291.012293520012
73.76117 267.041746678772
73.78128 246.01806683067
73.80139 233.000707198903
73.82151 242.005873667359
73.84162 251.008139139903
73.86174 254.98894979008
73.88185 243.982455438324
73.90196 242.010242429727
73.92208 230.014194475487
73.94219 221.000389777397
73.9623 225
73.98242 221.994307403491
74.00253 221.012732216359
74.02264 234.01523153646
74.04276 230.024082033594
74.06287 226.970537823383
74.08299 248.006483315742
74.1031 222
74.12321 265.998570766968
74.14333 209.93716819942
74.16344 214.031121537015
74.18355 215.013492582801
74.20367 220.959787136148
74.22378 245.012401649314
74.2439 208
74.26401 225.007927921293
74.28412 219.988111214732
74.30424 216.009727181982
74.32435 230.937353196728
74.34446 242.055229726082
74.36458 197.015689677492
74.38469 214.995186259268
74.40481 205.000552927381
74.42492 223.009904849797
74.44503 217.997003119373
74.46515 224.00279912685
74.48526 216.016810202876
74.50537 210.013839805161
74.52549 207.989275873706
74.5456 238
74.56571 223.999257872446
74.58583 239.003000232185
74.60594 227.004588486844
74.62606 242.998646036762
74.64617 221.034447098553
74.66628 220.974551842749
74.6864 245
74.70651 215.994469482894
74.72662 231.009858727449
74.74674 216.948994896087
74.76685 206.948721406551
74.78697 241.972880655052
74.80708 231.021023731975
74.82719 218.002796695957
74.84731 219.003778872703
74.86742 228.005214039309
74.88753 219.96175992622
74.90765 201.040452172447
74.92776 240.953482919691
74.94787 230.034394508601
74.96799 222.992616800943
74.9881 244
75.00822 224.968849182562
