3.00117 20891
3.02128 20416
3.0414 19806
3.06151 19514
3.08162 18639
3.10174 18291
3.12185 17995
3.14197 17137
3.16208 16738
3.18219 16227
3.20231 15914
3.22242 15570
3.24253 14767
3.26265 14646
3.28276 13862
3.30288 13568
3.32299 13077
3.3431 12831
3.36322 12455
3.38333 11776
3.40344 11441
3.42356 11415
3.44367 10874
3.46379 10569
3.4839 9853
3.50401 9929
3.52413 9266
3.54424 9126
3.56435 8862
3.58447 8262
3.60458 8142
3.62469 7849
3.64481 7408
3.66492 7275
3.68504 6860
3.70515 6713
3.72526 6278
3.74538 6229
3.76549 6125
3.7856 5502
3.80572 5397
3.82583 5304
3.84595 4974
3.86606 4896
3.88617 4619
3.90629 4465
3.9264 4345
3.94651 3962
3.96663 3982
3.98674 3629
4.00686 3565
4.02697 3387
4.04708 3245
4.0672 3309
4.08731 2970
4.10742 2903
4.12754 2817
4.14765 2673
4.16776 2700
4.18788 2444
4.20799 2373
4.22811 2297
4.24822 2279
4.26833 2241
4.28845 2027
4.30856 2022
4.32867 1995
4.34879 1875
4.3689 1958
4.38902 1800
4.40913 1811
4.42924 1865
4.44936 1711
4.46947 1699
4.48958 1567
4.5097 1529
4.52981 1643
4.54992 1573
4.57004 1510
4.59015 1396
4.61027 1463
4.63038 1482
4.65049 1461
4.67061 1353
4.69072 1311
4.71083 1305
4.73095 1293
4.75106 1307
4.77118 1323
4.79129 1221
4.8114 1165
4.83152 1165
4.85163 1120
4.87174 1095
4.89186 1166
4.91197 1049
4.93209 1095
4.9522 1080
4.97231 1039
4.99243 1007
5.01254 967
5.03265 968
5.05277 1004
5.07288 959
5.09299 925
5.11311 875
5.13322 844
5.15334 858
5.17345 855
5.19356 848
5.21368 859
5.23379 886
5.2539 791
5.27402 742
5.29413 742
5.31425 735
5.33436 787
5.35447 734
5.37459 703
5.3947 722
5.41481 739
5.43493 684
5.45504 771
5.47516 635
5.49527 649
5.51538 630
5.5355 640
5.55561 634
5.57572 617
5.59584 626
5.61595 648
5.63606 665
5.65618 640
5.67629 612
5.69641 575
5.71652 562
5.73663 507
5.75675 553
5.77686 559
5.79697 573
5.81709 541
5.8372 527
5.85732 522
5.87743 564
5.89754 576
5.91766 544
5.93777 563
5.95788 593
5.978 545
5.99811 549
6.01823 572
6.03834 532
6.05845 494
6.07857 505
6.09868 546
6.11879 495
6.13891 479
6.15902 527
6.17913 491
6.19925 495
6.21936 535
6.23948 540
6.25959 523
6.2797 532
6.29982 546
6.31993 482
6.34004 504
6.36016 479
6.38027 497
6.40039 519
6.4205 498
6.44061 478
6.46073 526
6.48084 459
6.50095 511
6.52107 512
6.54118 484
6.56129 445
6.58141 506
6.60152 458
6.62164 491
6.64175 474
6.66186 502
6.68198 510
6.70209 481
6.7222 481
6.74232 442
6.76243 541
6.78255 505
6.80266 496
6.82277 510
6.84289 496
6.863 447
6.88311 511
6.90323 480
6.92334 536
6.94346 446
6.96357 483
6.98368 461
7.0038 461
7.02391 494
7.04402 487
7.06414 467
7.08425 478
7.10436 487
7.12448 463
7.14459 526
7.16471 494
7.18482 499
7.20493 494
7.22505 544
7.24516 456
7.26527 498
7.28539 433
7.3055 478
7.32562 507
7.34573 473
7.36584 498
7.38596 502
7.40607 487
7.42618 523
7.4463 500
7.46641 453
7.48653 464
7.50664 455
7.52675 441
7.54687 503
7.56698 511
7.58709 460
7.60721 443
7.62732 512
7.64743 467
7.66755 455
7.68766 458
7.70778 492
7.72789 465
7.748 509
7.76812 527
7.78823 491
7.80834 460
7.82846 487
7.84857 521
7.86869 499
7.8888 513
7.90891 476
7.92903 493
7.94914 462
7.96925 538
7.98937 492
8.00948 486
8.0296 477
8.04971 482
8.06982 429
8.08994 458
8.11005 468
8.13016 495
8.15028 490
8.17039 464
8.1905 497
8.21062 448
8.23073 464
8.25085 514
8.27096 454
8.29107 463
8.31119 528
8.3313 494
8.35141 501
8.37153 450
8.39164 454
8.41176 458
8.43187 513
8.45198 475
8.4721 456
8.49221 483
8.51232 475
8.53244 502
8.55255 471
8.57266 461
8.59278 466
8.61289 484
8.63301 442
8.65312 454
8.67323 491
8.69335 522
8.71346 479
8.73357 507
8.75369 475
8.7738 496
8.79392 470
8.81403 469
8.83414 480
8.85426 477
8.87437 496
8.89448 489
8.9146 483
8.93471 492
8.95483 526
8.97494 486
8.99505 487
9.01517 510
9.03528 489
9.05539 484
9.07551 454
9.09562 493
9.11573 503
9.13585 455
9.15596 485
9.17608 506
9.19619 504
9.2163 463
9.23642 458
9.25653 475
9.27664 481
9.29676 557
9.31687 428
9.33699 485
9.3571 483
9.37721 472
9.39733 418
9.41744 472
9.43755 496
9.45767 406
9.47778 467
9.4979 500
9.51801 479
9.53812 488
9.55824 482
9.57835 532
9.59846 487
9.61858 518
9.63869 497
9.6588 491
9.67892 502
9.69903 490
9.71915 508
9.73926 513
9.75937 488
9.77949 507
9.7996 511
9.81971 531
9.83983 492
9.85994 488
9.88006 536
9.90017 491
9.92028 494
9.9404 432
9.96051 490
9.98062 485
10.00074 499
10.02085 500
10.04097 450
10.06108 480
10.08119 470
10.10131 485
10.12142 502
10.14153 494
10.16165 508
10.18176 511
10.20187 508
10.22199 503
10.2421 469
10.26222 508
10.28233 476
10.30244 489
10.32256 506
10.34267 476
10.36278 462
10.3829 484
10.40301 476
10.42313 436
10.44324 505
10.46335 514
10.48347 473
10.50358 476
10.52369 503
10.54381 507
10.56392 503
10.58403 502
10.60415 457
10.62426 482
10.64438 525
10.66449 478
10.6846 444
10.70472 501
10.72483 511
10.74494 525
10.76506 495
10.78517 472
10.80529 480
10.8254 527
10.84551 470
10.86563 473
10.88574 467
10.90585 437
10.92597 485
10.94608 474
10.9662 491
10.98631 482
11.00642 507
11.02654 489
11.04665 500
11.06676 504
11.08688 531
11.10699 491
11.1271 502
11.14722 484
11.16733 514
11.18745 469
11.20756 512
11.22767 494
11.24779 499
11.2679 489
11.28801 523
11.30813 498
11.32824 520
11.34836 505
11.36847 483
11.38858 481
11.4087 523
11.42881 499
11.44892 506
11.46904 506
11.48915 494
11.50927 565
11.52938 476
11.54949 539
11.56961 521
11.58972 518
11.60983 502
11.62995 524
11.65006 530
11.67017 545
11.69029 519
11.7104 538
11.73052 518
11.75063 531
11.77074 553
11.79086 575
11.81097 556
11.83108 549
11.8512 567
11.87131 588
11.89143 603
11.91154 647
11.93165 633
11.95177 622
11.97188 629
11.99199 637
12.01211 639
12.03222 725
12.05234 730
12.07245 719
12.09256 720
12.11268 828
12.13279 855
12.1529 868
12.17302 886
12.19313 913
12.21324 908
12.23336 961
12.25347 919
12.27359 1009
12.2937 1006
12.31381 961
12.33393 920
12.35404 910
12.37415 822
12.39427 857
12.41438 836
12.4345 737
12.45461 710
12.47472 721
12.49484 674
12.51495 625
12.53506 655
12.55518 603
12.57529 631
12.5954 609
12.61552 592
12.63563 588
12.65575 550
12.67586 531
12.69597 529
12.71609 538
12.7362 496
12.75631 477
12.77643 517
12.79654 438
12.81666 510
12.83677 534
12.85688 462
12.877 467
12.89711 495
12.91722 537
12.93734 482
12.95745 486
12.97757 447
12.99768 462
13.01779 518
13.03791 474
13.05802 486
13.07813 473
13.09825 495
13.11836 423
13.13847 534
13.15859 502
13.1787 511
13.19882 482
13.21893 451
13.23904 470
13.25916 467
13.27927 515
13.29938 499
13.3195 514
13.33961 504
13.35973 436
13.37984 476
13.39995 465
13.42007 479
13.44018 487
13.46029 480
13.48041 509
13.50052 488
13.52064 486
13.54075 457
13.56086 496
13.58098 516
13.60109 483
13.6212 484
13.64132 457
13.66143 433
13.68154 487
13.70166 455
13.72177 455
13.74189 498
13.762 483
13.78211 450
13.80223 486
13.82234 499
13.84245 507
13.86257 488
13.88268 474
13.9028 479
13.92291 456
13.94302 425
13.96314 465
13.98325 454
14.00336 485
14.02348 442
14.04359 525
14.06371 487
14.08382 448
14.10393 507
14.12405 452
14.14416 475
14.16427 497
14.18439 429
14.2045 434
14.22461 435
14.24473 435
14.26484 464
14.28496 470
14.30507 464
14.32518 414
14.3453 430
14.36541 457
14.38552 414
14.40564 432
14.42575 481
14.44587 453
14.46598 493
14.48609 502
14.50621 444
14.52632 476
14.54643 483
14.56655 468
14.58666 448
14.60677 444
14.62689 477
14.647 494
14.66712 488
14.68723 464
14.70734 443
14.72746 456
14.74757 489
14.76768 453
14.7878 472
14.80791 474
14.82803 490
14.84814 478
14.86825 466
14.88837 460
14.90848 470
14.92859 458
14.94871 436
14.96882 489
14.98894 484
15.00905 470
15.02916 474
15.04928 475
15.06939 458
15.0895 493
15.10962 470
15.12973 477
15.14984 477
15.16996 468
15.19007 447
15.21019 426
15.2303 456
15.25041 474
15.27053 444
15.29064 467
15.31075 472
15.33087 454
15.35098 471
15.3711 447
15.39121 484
15.41132 486
15.43144 474
15.45155 469
15.47166 485
15.49178 491
15.51189 496
15.53201 428
15.55212 479
15.57223 508
15.59235 454
15.61246 457
15.63257 467
15.65269 463
15.6728 481
15.69291 444
15.71303 473
15.73314 476
15.75326 444
15.77337 472
15.79348 490
15.8136 482
15.83371 490
15.85382 462
15.87394 457
15.89405 475
15.91417 425
15.93428 448
15.95439 501
15.97451 463
15.99462 427
16.01473 462
16.03485 446
16.05496 487
16.07508 446
16.09519 466
16.1153 442
16.13542 462
16.15553 470
16.17564 449
16.19576 486
16.21587 418
16.23598 440
16.2561 469
16.27621 442
16.29633 483
16.31644 512
16.33655 489
16.35667 458
16.37678 487
16.39689 489
16.41701 483
16.43712 478
16.45724 414
16.47735 421
16.49746 487
16.51758 469
16.53769 472
16.5578 465
16.57792 418
16.59803 447
16.61814 485
16.63826 489
16.65837 431
16.67849 466
16.6986 499
16.71871 488
16.73883 480
16.75894 502
16.77905 458
16.79917 466
16.81928 437
16.8394 482
16.85951 446
16.87962 455
16.89974 494
16.91985 501
16.93996 454
16.96008 466
16.98019 467
17.00031 476
17.02042 478
17.04053 445
17.06065 469
17.08076 480
17.10087 462
17.12099 483
17.1411 438
17.16121 483
17.18133 462
17.20144 459
17.22156 484
17.24167 420
17.26178 437
17.2819 438
17.30201 506
17.32212 465
17.34224 485
17.36235 446
17.38247 472
17.40258 455
17.42269 448
17.44281 486
17.46292 455
17.48303 480
17.50315 436
17.52326 523
17.54338 491
17.56349 486
17.5836 457
17.60372 427
17.62383 506
17.64394 426
17.66406 515
17.68417 499
17.70428 434
17.7244 456
17.74451 504
17.76463 480
17.78474 513
17.80485 476
17.82497 486
17.84508 482
17.86519 453
17.88531 494
17.90542 490
17.92554 453
17.94565 465
17.96576 544
17.98588 486
18.00599 540
18.0261 461
18.04622 531
18.06633 525
18.08645 496
18.10656 477
18.12667 568
18.14679 549
18.1669 566
18.18701 599
18.20713 618
18.22724 625
18.24735 615
18.26747 603
18.28758 602
18.3077 626
18.32781 605
18.34792 533
18.36804 579
18.38815 506
18.40826 484
18.42838 538
18.44849 509
18.46861 473
18.48872 493
18.50883 491
18.52895 458
18.54906 488
18.56917 481
18.58929 488
18.6094 479
18.62951 456
18.64963 453
18.66974 452
18.68986 504
18.70997 496
18.73008 478
18.7502 522
18.77031 479
18.79042 495
18.81054 520
18.83065 506
18.85077 509
18.87088 451
18.89099 447
18.91111 476
18.93122 474
18.95133 483
18.97145 513
18.99156 503
19.01168 482
19.03179 479
19.0519 433
19.07202 471
19.09213 516
19.11224 498
19.13236 491
19.15247 473
19.17258 487
19.1927 475
19.21281 530
19.23293 549
19.25304 494
19.27315 472
19.29327 510
19.31338 503
19.33349 476
19.35361 489
19.37372 514
19.39384 473
19.41395 493
19.43406 523
19.45418 489
19.47429 511
19.4944 525
19.51452 486
19.53463 504
19.55475 482
19.57486 528
19.59497 518
19.61509 559
19.6352 526
19.65531 566
19.67543 616
19.69554 581
19.71565 649
19.73577 682
19.75588 701
19.776 683
19.79611 692
19.81622 758
19.83634 746
19.85645 800
19.87656 764
19.89668 785
19.91679 745
19.93691 722
19.95702 725
19.97713 739
19.99725 767
20.01736 740
20.03747 651
20.05759 795
20.0777 731
20.09782 721
20.11793 771
20.13804 762
20.15816 786
20.17827 719
20.19838 779
20.2185 775
20.23861 801
20.25872 775
20.27884 822
20.29895 818
20.31907 738
20.33918 788
20.35929 765
20.37941 764
20.39952 813
20.41963 751
20.43975 822
20.45986 819
20.47998 809
20.50009 790
20.5202 825
20.54032 835
20.56043 855
20.58054 920
20.60066 888
20.62077 984
20.64088 1130
20.661 1218
20.68111 1375
20.70123 1664
20.72134 1864
20.74145 2297
20.76157 2579
20.78168 2917
20.80179 3142
20.82191 2965
20.84202 2719
20.86214 2241
20.88225 1923
20.90236 1485
20.92248 1178
20.94259 1001
20.9627 914
20.98282 862
21.00293 799
21.02305 836
21.04316 776
21.06327 802
21.08339 814
21.1035 765
21.12361 760
21.14373 794
21.16384 833
21.18395 789
21.20407 824
21.22418 796
21.2443 791
21.26441 803
21.28452 776
21.30464 763
21.32475 855
21.34486 850
21.36498 813
21.38509 794
21.40521 803
21.42532 798
21.44543 763
21.46555 768
21.48566 722
21.50577 690
21.52589 779
21.546 715
21.56612 698
21.58623 661
21.60634 680
21.62646 692
21.64657 667
21.66668 701
21.6868 678
21.70691 662
21.72702 638
21.74714 657
21.76725 629
21.78737 625
21.80748 601
21.82759 640
21.84771 625
21.86782 687
21.88793 603
21.90805 638
21.92816 604
21.94828 637
21.96839 585
21.9885 632
22.00862 662
22.02873 593
22.04884 618
22.06896 654
22.08907 596
22.10919 611
22.1293 606
22.14941 613
22.16953 567
22.18964 596
22.20975 579
22.22987 582
22.24998 553
22.27009 676
22.29021 576
22.31032 619
22.33044 591
22.35055 553
22.37066 605
22.39078 628
22.41089 548
22.431 588
22.45112 586
22.47123 553
22.49135 568
22.51146 570
22.53157 576
22.55169 601
22.5718 615
22.59191 569
22.61203 589
22.63214 566
22.65225 568
22.67237 546
22.69248 609
22.7126 576
22.73271 539
22.75282 558
22.77294 545
22.79305 566
22.81316 633
22.83328 544
22.85339 554
22.87351 577
22.89362 552
22.91373 569
22.93385 565
22.95396 541
22.97407 564
22.99419 603
23.0143 556
23.03442 577
23.05453 572
23.07464 529
23.09476 572
23.11487 614
23.13498 535
23.1551 577
23.17521 564
23.19532 573
23.21544 518
23.23555 598
23.25567 547
23.27578 548
23.29589 622
23.31601 591
23.33612 577
23.35623 566
23.37635 576
23.39646 508
23.41658 572
23.43669 601
23.4568 507
23.47692 575
23.49703 576
23.51714 547
23.53726 539
23.55737 557
23.57749 622
23.5976 572
23.61771 522
23.63783 597
23.65794 614
23.67805 605
23.69817 622
23.71828 588
23.73839 602
23.75851 620
23.77862 613
23.79874 614
23.81885 573
23.83896 607
23.85908 680
23.87919 659
23.8993 628
23.91942 603
23.93953 640
23.95965 643
23.97976 647
23.99987 666
24.01999 639
24.0401 693
24.06021 646
24.08033 691
24.10044 677
24.12056 691
24.14067 676
24.16078 725
24.1809 672
24.20101 676
24.22112 651
24.24124 636
24.26135 659
24.28146 690
24.30158 658
24.32169 661
24.34181 657
24.36192 615
24.38203 633
24.40215 628
24.42226 731
24.44237 630
24.46249 655
24.4826 694
24.50272 675
24.52283 693
24.54294 717
24.56306 682
24.58317 747
24.60328 763
24.6234 761
24.64351 776
24.66362 807
24.68374 794
24.70385 798
24.72397 827
24.74408 880
24.76419 835
24.78431 953
24.80442 907
24.82453 888
24.84465 891
24.86476 903
24.88488 866
24.90499 830
24.9251 876
24.94522 820
24.96533 771
24.98544 813
25.00556 766
25.02567 835
25.04579 755
25.0659 726
25.08601 725
25.10613 760
25.12624 784
25.14635 760
25.16647 704
25.18658 821
25.20669 771
25.22681 732
25.24692 752
25.26704 670
25.28715 659
25.30726 631
25.32738 662
25.34749 600
25.3676 624
25.38772 684
25.40783 559
25.42795 620
25.44806 588
25.46817 591
25.48829 588
25.5084 612
25.52851 606
25.54863 551
25.56874 607
25.58886 621
25.60897 600
25.62908 626
25.6492 613
25.66931 608
25.68942 627
25.70954 615
25.72965 641
25.74976 652
25.76988 595
25.78999 642
25.81011 658
25.83022 657
25.85033 634
25.87045 660
25.89056 658
25.91067 581
25.93079 667
25.9509 673
25.97102 702
25.99113 708
26.01124 700
26.03136 675
26.05147 667
26.07158 717
26.0917 753
26.11181 763
26.13193 792
26.15204 788
26.17215 830
26.19227 877
26.21238 924
26.23249 894
26.25261 895
26.27272 1017
26.29283 1054
26.31295 1171
26.33306 1277
26.35318 1458
26.37329 1799
26.3934 2284
26.41352 2781
26.43363 3416
26.45374 4198
26.47386 5341
26.49397 6871
26.51409 8325
26.5342 9869
26.55431 11160
26.57443 11748
26.59454 11518
26.61465 10245
26.63477 8568
26.65488 6784
26.67499 5072
26.69511 3754
26.71522 2582
26.73534 1873
26.75545 1547
26.77556 1213
26.79568 1133
26.81579 1016
26.8359 968
26.85602 889
26.87613 877
26.89625 904
26.91636 886
26.93647 830
26.95659 764
26.9767 732
26.99681 733
27.01693 705
27.03704 685
27.05716 662
27.07727 591
27.09738 611
27.1175 626
27.13761 627
27.15772 625
27.17784 577
27.19795 644
27.21806 613
27.23818 593
27.25829 631
27.27841 588
27.29852 582
27.31863 607
27.33875 658
27.35886 599
27.37897 575
27.39909 590
27.4192 636
27.43932 575
27.45943 573
27.47954 602
27.49966 566
27.51977 606
27.53988 543
27.56 590
27.58011 569
27.60023 536
27.62034 548
27.64045 572
27.66057 512
27.68068 576
27.70079 564
27.72091 544
27.74102 550
27.76113 508
27.78125 516
27.80136 527
27.82148 512
27.84159 553
27.8617 554
27.88182 556
27.90193 609
27.92204 550
27.94216 518
27.96227 545
27.98239 536
28.0025 539
28.02261 542
28.04273 595
28.06284 537
28.08295 535
28.10307 503
28.12318 545
28.1433 525
28.16341 537
28.18352 558
28.20364 520
28.22375 539
28.24386 550
28.26398 515
28.28409 560
28.3042 532
28.32432 522
28.34443 488
28.36455 503
28.38466 550
28.40477 495
28.42489 498
28.445 500
28.46511 493
28.48523 541
28.50534 520
28.52546 521
28.54557 538
28.56568 583
28.5858 544
28.60591 525
28.62602 538
28.64614 522
28.66625 528
28.68636 515
28.70648 529
28.72659 493
28.74671 539
28.76682 485
28.78693 512
28.80705 518
28.82716 521
28.84727 504
28.86739 524
28.8875 452
28.90762 509
28.92773 519
28.94784 541
28.96796 536
28.98807 525
29.00818 540
29.0283 515
29.04841 491
29.06853 511
29.08864 466
29.10875 487
29.12887 581
29.14898 561
29.16909 449
29.18921 513
29.20932 507
29.22943 550
29.24955 542
29.26966 519
29.28978 517
29.30989 488
29.33 543
29.35012 490
29.37023 540
29.39034 536
29.41046 487
29.43057 544
29.45069 495
29.4708 519
29.49091 510
29.51103 481
29.53114 473
29.55125 481
29.57137 486
29.59148 536
29.6116 502
29.63171 544
29.65182 493
29.67194 519
29.69205 510
29.71216 514
29.73228 536
29.75239 537
29.7725 514
29.79262 506
29.81273 525
29.83285 534
29.85296 541
29.87307 515
29.89319 551
29.9133 493
29.93341 561
29.95353 561
29.97364 512
29.99376 523
30.01387 554
30.03398 528
30.0541 535
30.07421 492
30.09432 543
30.11444 525
30.13455 538
30.15467 572
30.17478 534
30.19489 530
30.21501 501
30.23512 535
30.25523 488
30.27535 499
30.29546 535
30.31557 506
30.33569 511
30.3558 498
30.37592 520
30.39603 475
30.41614 497
30.43626 509
30.45637 492
30.47648 490
30.4966 547
30.51671 519
30.53683 501
30.55694 519
30.57705 554
30.59717 462
30.61728 498
30.63739 495
30.65751 505
30.67762 504
30.69773 538
30.71785 467
30.73796 487
30.75808 493
30.77819 496
30.7983 491
30.81842 526
30.83853 544
30.85864 504
30.87876 510
30.89887 487
30.91899 513
30.9391 504
30.95921 459
30.97933 473
30.99944 517
31.01955 533
31.03967 518
31.05978 504
31.0799 513
31.10001 498
31.12012 481
31.14024 469
31.16035 481
31.18046 502
31.20058 518
31.22069 539
31.2408 538
31.26092 509
31.28103 520
31.30115 526
31.32126 519
31.34137 505
31.36149 494
31.3816 515
31.40171 493
31.42183 576
31.44194 489
31.46206 496
31.48217 499
31.50228 514
31.5224 506
31.54251 497
31.56262 501
31.58274 531
31.60285 493
31.62297 514
31.64308 524
31.66319 478
31.68331 494
31.70342 496
31.72353 526
31.74365 499
31.76376 537
31.78387 533
31.80399 506
31.8241 522
31.84422 500
31.86433 545
31.88444 521
31.90456 498
31.92467 507
31.94478 515
31.9649 522
31.98501 514
32.00513 533
32.02524 557
32.04535 566
32.06547 565
32.08558 548
32.10569 555
32.12581 519
32.14592 543
32.16604 509
32.18615 535
32.20626 548
32.22638 524
32.24649 533
32.2666 557
32.28672 545
32.30683 598
32.32694 550
32.34706 562
32.36717 606
32.38729 637
32.4074 609
32.42751 611
32.44763 640
32.46774 572
32.48785 655
32.50797 627
32.52808 594
32.5482 642
32.56831 578
32.58842 645
32.60854 612
32.62865 601
32.64876 622
32.66888 611
32.68899 603
32.7091 619
32.72922 589
32.74933 603
32.76945 682
32.78956 644
32.80967 648
32.82979 619
32.8499 687
32.87001 635
32.89013 681
32.91024 626
32.93036 705
32.95047 704
32.97058 746
32.9907 774
33.01081 748
33.03092 815
33.05104 790
33.07115 785
33.09127 848
33.11138 874
33.13149 814
33.15161 801
33.17172 795
33.19183 770
33.21195 749
33.23206 761
33.25217 722
33.27229 691
33.2924 705
33.31252 689
33.33263 662
33.35274 643
33.37286 591
33.39297 629
33.41308 609
33.4332 602
33.45331 596
33.47343 619
33.49354 589
33.51365 623
33.53377 603
33.55388 604
33.57399 582
33.59411 583
33.61422 619
33.63434 581
33.65445 565
33.67456 584
33.69468 571
33.71479 538
33.7349 587
33.75502 583
33.77513 525
33.79524 538
33.81536 563
33.83547 551
33.85559 598
33.8757 529
33.89581 522
33.91593 565
33.93604 545
33.95615 528
33.97627 534
33.99638 546
34.0165 531
34.03661 550
34.05672 534
34.07684 523
34.09695 528
34.11706 556
34.13718 512
34.15729 475
34.17741 539
34.19752 549
34.21763 535
34.23775 558
34.25786 517
34.27797 502
34.29809 562
34.3182 528
34.33831 513
34.35843 571
34.37854 510
34.39866 539
34.41877 508
34.43888 533
34.459 524
34.47911 525
34.49922 593
34.51934 537
34.53945 533
34.55957 533
34.57968 537
34.59979 565
34.61991 583
34.64002 565
34.66013 581
34.68025 558
34.70036 641
34.72047 636
34.74059 666
34.7607 637
34.78082 598
34.80093 618
34.82104 697
34.84116 662
34.86127 701
34.88138 679
34.9015 699
34.92161 630
34.94173 705
34.96184 693
34.98195 724
35.00207 685
35.02218 759
35.04229 659
35.06241 648
35.08252 688
35.10264 731
35.12275 705
35.14286 674
35.16298 668
35.18309 721
35.2032 720
35.22332 792
35.24343 738
35.26354 715
35.28366 741
35.30377 744
35.32389 793
35.344 780
35.36411 841
35.38423 806
35.40434 815
35.42445 850
35.44457 844
35.46468 837
35.4848 880
35.50491 863
35.52502 880
35.54514 910
35.56525 875
35.58536 925
35.60548 917
35.62559 917
35.64571 930
35.66582 914
35.68593 948
35.70605 892
35.72616 872
35.74627 893
35.76639 823
35.7865 747
35.80661 768
35.82673 737
35.84684 783
35.86696 756
35.88707 736
35.90718 767
35.9273 744
35.94741 739
35.96752 696
35.98764 714
36.00775 683
36.02787 703
36.04798 677
36.06809 617
36.08821 615
36.10832 648
36.12843 586
36.14855 654
36.16866 676
36.18878 661
36.20889 696
36.229 646
36.24912 657
36.26923 703
36.28934 734
36.30946 723
36.32957 835
36.34968 836
36.3698 930
36.38991 1052
36.41003 1111
36.43014 1179
36.45025 1255
36.47037 1319
36.49048 1295
36.51059 1280
36.53071 1112
36.55082 1021
36.57094 928
36.59105 889
36.61116 834
36.63128 744
36.65139 631
36.6715 683
36.69162 629
36.71173 617
36.73184 539
36.75196 642
36.77207 603
36.79219 622
36.8123 634
36.83241 594
36.85253 613
36.87264 569
36.89275 617
36.91287 555
36.93298 642
36.9531 622
36.97321 646
36.99332 620
37.01344 592
37.03355 630
37.05366 609
37.07378 595
37.09389 610
37.11401 617
37.13412 637
37.15423 579
37.17435 624
37.19446 586
37.21457 594
37.23469 558
37.2548 583
37.27491 554
37.29503 542
37.31514 608
37.33526 572
37.35537 592
37.37548 558
37.3956 595
37.41571 568
37.43582 626
37.45594 564
37.47605 596
37.49617 617
37.51628 587
37.53639 616
37.55651 574
37.57662 624
37.59673 589
37.61685 541
37.63696 604
37.65708 647
37.67719 656
37.6973 587
37.71742 561
37.73753 616
37.75764 597
37.77776 599
37.79787 574
37.81798 521
37.8381 584
37.85821 598
37.87833 599
37.89844 618
37.91855 620
37.93867 566
37.95878 601
37.97889 597
37.99901 636
38.01912 625
38.03924 593
38.05935 642
38.07946 675
38.09958 599
38.11969 644
38.1398 637
38.15992 700
38.18003 681
38.20015 660
38.22026 651
38.24037 667
38.26049 708
38.2806 695
38.30071 694
38.32083 683
38.34094 705
38.36105 613
38.38117 717
38.40128 641
38.4214 693
38.44151 689
38.46162 726
38.48174 645
38.50185 668
38.52196 654
38.54208 614
38.56219 643
38.58231 612
38.60242 621
38.62253 635
38.64265 620
38.66276 575
38.68287 579
38.70299 645
38.7231 600
38.74321 550
38.76333 616
38.78344 635
38.80356 596
38.82367 545
38.84378 606
38.8639 623
38.88401 585
38.90412 585
38.92424 569
38.94435 562
38.96447 584
38.98458 614
39.00469 609
39.02481 624
39.04492 638
39.06503 682
39.08515 630
39.10526 673
39.12538 651
39.14549 666
39.1656 706
39.18572 710
39.20583 719
39.22594 780
39.24606 884
39.26617 876
39.28628 878
39.3064 915
39.32651 1074
39.34663 1135
39.36674 1244
39.38685 1192
39.40697 1187
39.42708 1227
39.44719 1106
39.46731 953
39.48742 957
39.50754 832
39.52765 756
39.54776 767
39.56788 661
39.58799 658
39.6081 592
39.62822 593
39.64833 587
39.66845 538
39.68856 567
39.70867 564
39.72879 528
39.7489 560
39.76901 518
39.78913 564
39.80924 566
39.82935 553
39.84947 568
39.86958 527
39.8897 573
39.90981 559
39.92992 564
39.95004 572
39.97015 567
39.99026 606
40.01038 582
40.03049 601
40.05061 653
40.07072 643
40.09083 700
40.11095 769
40.13106 711
40.15117 785
40.17129 825
40.1914 881
40.21152 890
40.23163 884
40.25174 828
40.27186 826
40.29197 763
40.31208 724
40.3322 733
40.35231 655
40.37242 615
40.39254 616
40.41265 565
40.43277 542
40.45288 572
40.47299 568
40.49311 561
40.51322 626
40.53333 557
40.55345 595
40.57356 600
40.59368 549
40.61379 577
40.6339 545
40.65402 535
40.67413 587
40.69424 633
40.71436 626
40.73447 623
40.75458 609
40.7747 643
40.79481 598
40.81493 571
40.83504 584
40.85515 607
40.87527 585
40.89538 624
40.91549 637
40.93561 595
40.95572 625
40.97584 596
40.99595 572
41.01606 608
41.03618 595
41.05629 584
41.0764 571
41.09652 612
41.11663 562
41.13675 562
41.15686 570
41.17697 539
41.19709 497
41.2172 567
41.23731 552
41.25743 562
41.27754 522
41.29765 542
41.31777 515
41.33788 562
41.358 551
41.37811 520
41.39822 550
41.41834 528
41.43845 488
41.45856 552
41.47868 561
41.49879 553
41.51891 486
41.53902 542
41.55913 524
41.57925 519
41.59936 519
41.61947 548
41.63959 526
41.6597 516
41.67982 537
41.69993 489
41.72004 520
41.74016 551
41.76027 513
41.78038 499
41.8005 505
41.82061 507
41.84072 495
41.86084 511
41.88095 503
41.90107 522
41.92118 517
41.94129 530
41.96141 536
41.98152 549
42.00163 559
42.02175 515
42.04186 514
42.06198 520
42.08209 511
42.1022 530
42.12232 521
42.14243 560
42.16254 588
42.18266 603
42.20277 621
42.22289 700
42.243 690
42.26311 729
42.28323 803
42.30334 868
42.32345 841
42.34357 935
42.36368 986
42.38379 1023
42.40391 945
42.42402 911
42.44414 805
42.46425 807
42.48436 708
42.50448 708
42.52459 633
42.5447 564
42.56482 569
42.58493 530
42.60505 542
42.62516 547
42.64527 490
42.66539 497
42.6855 497
42.70561 488
42.72573 517
42.74584 514
42.76595 519
42.78607 499
42.80618 522
42.8263 465
42.84641 484
42.86652 491
42.88664 491
42.90675 478
42.92686 490
42.94698 531
42.96709 498
42.98721 493
43.00732 500
43.02743 438
43.04755 517
43.06766 490
43.08777 463
43.10789 484
43.128 461
43.14812 495
43.16823 505
43.18834 482
43.20846 485
43.22857 488
43.24868 477
43.2688 494
43.28891 482
43.30902 458
43.32914 519
43.34925 445
43.36937 469
43.38948 471
43.40959 491
43.42971 498
43.44982 450
43.46993 519
43.49005 461
43.51016 454
43.53028 485
43.55039 469
43.5705 474
43.59062 461
43.61073 484
43.63084 478
43.65096 446
43.67107 475
43.69119 460
43.7113 511
43.73141 470
43.75153 539
43.77164 468
43.79175 441
43.81187 494
43.83198 496
43.85209 472
43.87221 485
43.89232 450
43.91244 461
43.93255 496
43.95266 486
43.97278 481
43.99289 506
44.013 480
44.03312 495
44.05323 471
44.07335 483
44.09346 494
44.11357 443
44.13369 460
44.1538 499
44.17391 524
44.19403 509
44.21414 477
44.23426 491
44.25437 464
44.27448 466
44.2946 551
44.31471 522
44.33482 479
44.35494 483
44.37505 470
44.39516 508
44.41528 480
44.43539 496
44.45551 498
44.47562 488
44.49573 475
44.51585 515
44.53596 481
44.55607 488
44.57619 456
44.5963 464
44.61642 478
44.63653 491
44.65664 486
44.67676 513
44.69687 464
44.71698 472
44.7371 498
44.75721 530
44.77732 517
44.79744 505
44.81755 493
44.83767 470
44.85778 483
44.87789 510
44.89801 491
44.91812 482
44.93823 489
44.95835 521
44.97846 530
44.99858 543
45.01869 489
45.0388 472
45.05892 484
45.07903 527
45.09914 536
45.11926 521
45.13937 512
45.15949 543
45.1796 492
45.19971 517
45.21983 527
45.23994 516
45.26005 559
45.28017 499
45.30028 504
45.32039 558
45.34051 548
45.36062 556
45.38074 561
45.40085 555
45.42096 548
45.44108 587
45.46119 563
45.4813 568
45.50142 586
45.52153 588
45.54165 587
45.56176 610
45.58187 680
45.60199 681
45.6221 720
45.64221 717
45.66233 824
45.68244 863
45.70256 827
45.72267 800
45.74278 764
45.7629 739
45.78301 743
45.80312 713
45.82324 662
45.84335 627
45.86346 662
45.88358 630
45.90369 577
45.92381 571
45.94392 527
45.96403 525
45.98415 477
46.00426 483
46.02437 519
46.04449 517
46.0646 485
46.08472 552
46.10483 475
46.12494 514
46.14506 478
46.16517 513
46.18528 543
46.2054 492
46.22551 521
46.24563 517
46.26574 478
46.28585 468
46.30597 481
46.32608 508
46.34619 452
46.36631 504
46.38642 518
46.40653 496
46.42665 450
46.44676 542
46.46688 477
46.48699 516
46.5071 494
46.52722 481
46.54733 458
46.56744 513
46.58756 526
46.60767 489
46.62779 518
46.6479 492
46.66801 492
46.68813 495
46.70824 485
46.72835 434
46.74847 491
46.76858 481
46.78869 517
46.80881 514
46.82892 525
46.84904 492
46.86915 515
46.88926 507
46.90938 479
46.92949 491
46.9496 494
46.96972 504
46.98983 487
47.00995 539
47.03006 488
47.05017 488
47.07029 506
47.0904 500
47.11051 470
47.13063 477
47.15074 497
47.17086 518
47.19097 484
47.21108 557
47.2312 522
47.25131 482
47.27142 481
47.29154 470
47.31165 487
47.33176 510
47.35188 477
47.37199 538
47.39211 530
47.41222 466
47.43233 533
47.45245 507
47.47256 487
47.49267 476
47.51279 480
47.5329 522
47.55302 515
47.57313 479
47.59324 499
47.61336 483
47.63347 532
47.65358 532
47.6737 540
47.69381 521
47.71393 528
47.73404 566
47.75415 513
47.77427 499
47.79438 499
47.81449 547
47.83461 479
47.85472 520
47.87483 545
47.89495 515
47.91506 510
47.93518 522
47.95529 527
47.9754 476
47.99552 510
48.01563 485
48.03574 467
48.05586 547
48.07597 511
48.09609 500
48.1162 560
48.13631 489
48.15643 546
48.17654 541
48.19665 535
48.21677 486
48.23688 536
48.257 466
48.27711 520
48.29722 482
48.31734 515
48.33745 503
48.35756 476
48.37768 457
48.39779 548
48.4179 491
48.43802 469
48.45813 468
48.47825 518
48.49836 478
48.51847 496
48.53859 500
48.5587 534
48.57881 532
48.59893 519
48.61904 498
48.63916 494
48.65927 509
48.67938 539
48.6995 513
48.71961 465
48.73972 528
48.75984 533
48.77995 507
48.80006 474
48.82018 491
48.84029 500
48.86041 476
48.88052 484
48.90063 552
48.92075 496
48.94086 499
48.96097 493
48.98109 493
49.0012 514
49.02132 505
49.04143 509
49.06154 525
49.08166 540
49.10177 563
49.12188 572
49.142 533
49.16211 548
49.18223 565
49.20234 573
49.22245 542
49.24257 560
49.26268 553
49.28279 566
49.30291 589
49.32302 591
49.34313 604
49.36325 567
49.38336 569
49.40348 574
49.42359 615
49.4437 617
49.46382 608
49.48393 602
49.50404 565
49.52416 592
49.54427 590
49.56439 595
49.5845 619
49.60461 597
49.62473 579
49.64484 579
49.66495 578
49.68507 566
49.70518 609
49.7253 602
49.74541 598
49.76552 646
49.78564 680
49.80575 674
49.82586 694
49.84598 738
49.86609 785
49.8862 820
49.90632 945
49.92643 986
49.94655 1100
49.96666 1275
49.98677 1286
50.00689 1462
50.027 1594
50.04711 1649
50.06723 1686
50.08734 1634
50.10746 1435
50.12757 1335
50.14768 1177
50.1678 1151
50.18791 1097
50.20802 1034
50.22814 933
50.24825 820
50.26837 672
50.28848 645
50.30859 591
50.32871 594
50.34882 575
50.36893 520
50.38905 540
50.40916 552
50.42927 541
50.44939 577
50.4695 542
50.48962 573
50.50973 548
50.52984 553
50.54996 559
50.57007 553
50.59018 544
50.6103 568
50.63041 550
50.65053 543
50.67064 510
50.69075 519
50.71087 509
50.73098 524
50.75109 498
50.77121 510
50.79132 551
50.81143 513
50.83155 482
50.85166 506
50.87178 517
50.89189 508
50.912 528
50.93212 511
50.95223 482
50.97234 488
50.99246 501
51.01257 491
51.03269 472
51.0528 506
51.07291 512
51.09303 518
51.11314 482
51.13325 451
51.15337 489
51.17348 524
51.1936 505
51.21371 486
51.23382 519
51.25394 527
51.27405 487
51.29416 500
51.31428 485
51.33439 502
51.3545 475
51.37462 467
51.39473 510
51.41485 492
51.43496 490
51.45507 527
51.47519 498
51.4953 463
51.51541 451
51.53553 471
51.55564 466
51.57576 524
51.59587 481
51.61598 465
51.6361 452
51.65621 479
51.67632 453
51.69644 508
51.71655 476
51.73667 480
51.75678 463
51.77689 464
51.79701 501
51.81712 495
51.83723 450
51.85735 434
51.87746 428
51.89757 518
51.91769 477
51.9378 499
51.95792 472
51.97803 477
51.99814 482
52.01826 437
52.03837 508
52.05848 479
52.0786 469
52.09871 450
52.11883 498
52.13894 503
52.15905 475
52.17917 515
52.19928 454
52.21939 480
52.23951 473
52.25962 470
52.27974 438
52.29985 489
52.31996 494
52.34008 471
52.36019 485
52.3803 461
52.40042 513
52.42053 458
52.44064 473
52.46076 466
52.48087 484
52.50099 498
52.5211 458
52.54121 449
52.56133 487
52.58144 464
52.60155 458
52.62167 460
52.64178 499
52.6619 512
52.68201 509
52.70212 505
52.72224 495
52.74235 489
52.76246 484
52.78258 520
52.80269 475
52.8228 465
52.84292 492
52.86303 536
52.88315 532
52.90326 513
52.92337 501
52.94349 498
52.9636 501
52.98371 531
53.00383 523
53.02394 508
53.04406 535
53.06417 514
53.08428 545
53.1044 512
53.12451 526
53.14462 540
53.16474 500
53.18485 526
53.20497 509
53.22508 531
53.24519 505
53.26531 553
53.28542 473
53.30553 544
53.32565 534
53.34576 543
53.36587 581
53.38599 492
53.4061 538
53.42622 543
53.44633 579
53.46644 543
53.48656 543
53.50667 530
53.52678 549
53.5469 581
53.56701 530
53.58713 607
53.60724 639
53.62735 601
53.64747 604
53.66758 627
53.68769 657
53.70781 631
53.72792 656
53.74804 614
53.76815 609
53.78826 643
53.80838 637
53.82849 697
53.8486 684
53.86872 631
53.88883 675
53.90894 686
53.92906 639
53.94917 673
53.96929 694
53.9894 656
54.00951 692
54.02963 708
54.04974 666
54.06985 697
54.08997 700
54.11008 702
54.1302 679
54.15031 597
54.17042 622
54.19054 623
54.21065 646
54.23076 616
54.25088 634
54.27099 664
54.29111 607
54.31122 683
54.33133 664
54.35145 643
54.37156 635
54.39167 586
54.41179 629
54.4319 634
54.45201 634
54.47213 635
54.49224 619
54.51236 629
54.53247 648
54.55258 668
54.5727 642
54.59281 661
54.61292 643
54.63304 671
54.65315 682
54.67327 741
54.69338 735
54.71349 801
54.73361 862
54.75372 869
54.77383 901
54.79395 937
54.81406 912
54.83417 839
54.85429 835
54.8744 782
54.89452 799
54.91463 735
54.93474 743
54.95486 731
54.97497 713
54.99508 664
55.0152 632
55.03531 602
55.05543 637
55.07554 616
55.09565 615
55.11577 668
55.13588 623
55.15599 675
55.17611 642
55.19622 710
55.21634 711
55.23645 680
55.25656 674
55.27668 658
55.29679 705
55.3169 602
55.33702 648
55.35713 648
55.37724 608
55.39736 603
55.41747 650
55.43759 517
55.4577 594
55.47781 556
55.49793 548
55.51804 538
55.53815 557
55.55827 586
55.57838 549
55.5985 501
55.61861 512
55.63872 522
55.65884 539
55.67895 536
55.69906 506
55.71918 513
55.73929 535
55.75941 499
55.77952 478
55.79963 523
55.81975 513
55.83986 517
55.85997 516
55.88009 496
55.9002 518
55.92031 502
55.94043 541
55.96054 486
55.98066 489
56.00077 497
56.02088 502
56.041 474
56.06111 507
56.08122 525
56.10134 517
56.12145 516
56.14157 509
56.16168 506
56.18179 532
56.20191 497
56.22202 515
56.24213 519
56.26225 510
56.28236 537
56.30248 509
56.32259 506
56.3427 512
56.36282 527
56.38293 487
56.40304 484
56.42316 521
56.44327 521
56.46338 527
56.4835 513
56.50361 507
56.52373 470
56.54384 509
56.56395 549
56.58407 527
56.60418 486
56.62429 576
56.64441 534
56.66452 532
56.68464 547
56.70475 503
56.72486 539
56.74498 508
56.76509 530
56.7852 548
56.80532 534
56.82543 520
56.84554 529
56.86566 485
56.88577 529
56.90589 527
56.926 499
56.94611 495
56.96623 505
56.98634 511
57.00645 562
57.02657 529
57.04668 534
57.0668 506
57.08691 543
57.10702 541
57.12714 543
57.14725 522
57.16736 549
57.18748 499
57.20759 532
57.22771 510
57.24782 508
57.26793 494
57.28805 523
57.30816 508
57.32827 538
57.34839 498
57.3685 494
57.38861 504
57.40873 521
57.42884 504
57.44896 511
57.46907 551
57.48918 526
57.5093 510
57.52941 513
57.54952 518
57.56964 459
57.58975 491
57.60987 496
57.62998 497
57.65009 463
57.67021 473
57.69032 515
57.71043 492
57.73055 492
57.75066 511
57.77078 476
57.79089 523
57.811 493
57.83112 472
57.85123 490
57.87134 500
57.89146 494
57.91157 511
57.93168 509
57.9518 518
57.97191 493
57.99203 489
58.01214 506
58.03225 485
58.05237 465
58.07248 491
58.09259 477
58.11271 468
58.13282 510
58.15294 513
58.17305 475
58.19316 509
58.21328 499
58.23339 477
58.2535 461
58.27362 475
58.29373 454
58.31385 478
58.33396 431
58.35407 502
58.37419 487
58.3943 510
58.41441 483
58.43453 470
58.45464 486
58.47475 471
58.49487 493
58.51498 466
58.5351 452
58.55521 474
58.57532 473
58.59544 493
58.61555 457
58.63566 456
58.65578 504
58.67589 430
58.69601 500
58.71612 490
58.73623 481
58.75635 520
58.77646 474
58.79657 471
58.81669 497
58.8368 447
58.85691 492
58.87703 449
58.89714 461
58.91726 479
58.93737 494
58.95748 487
58.9776 479
58.99771 525
59.01782 459
59.03794 517
59.05805 484
59.07817 466
59.09828 497
59.11839 492
59.13851 467
59.15862 500
59.17873 521
59.19885 474
59.21896 515
59.23908 457
59.25919 485
59.2793 506
59.29942 523
59.31953 504
59.33964 514
59.35976 552
59.37987 520
59.39998 481
59.4201 487
59.44021 511
59.46033 526
59.48044 511
59.50055 574
59.52067 550
59.54078 544
59.56089 596
59.58101 575
59.60112 609
59.62124 612
59.64135 602
59.66146 678
59.68158 667
59.70169 686
59.7218 795
59.74192 864
59.76203 844
59.78215 939
59.80226 1022
59.82237 1116
59.84249 1241
59.8626 1224
59.88271 1285
59.90283 1228
59.92294 1106
59.94305 989
59.96317 932
59.98328 878
60.0034 880
60.02351 937
60.04362 878
60.06374 806
60.08385 745
60.10396 663
60.12408 643
60.14419 571
60.16431 565
60.18442 562
60.20453 500
60.22465 519
60.24476 517
60.26487 493
60.28499 514
60.3051 496
60.32522 522
60.34533 499
60.36544 485
60.38556 476
60.40567 478
60.42578 512
60.4459 504
60.46601 486
60.48612 503
60.50624 512
60.52635 512
60.54647 491
60.56658 482
60.58669 497
60.60681 525
60.62692 481
60.64703 462
60.66715 462
60.68726 476
60.70738 513
60.72749 428
60.7476 478
60.76772 471
60.78783 498
60.80794 492
60.82806 473
60.84817 454
60.86828 440
60.8884 459
60.90851 460
60.92863 485
60.94874 453
60.96885 430
60.98897 495
61.00908 504
61.02919 483
61.04931 475
61.06942 504
61.08954 470
61.10965 462
61.12976 445
61.14988 454
61.16999 490
61.1901 487
61.21022 504
61.23033 473
61.25045 481
61.27056 506
61.29067 495
61.31079 464
61.3309 441
61.35101 474
61.37113 505
61.39124 534
61.41135 479
61.43147 476
61.45158 538
61.4717 511
61.49181 468
61.51192 476
61.53204 477
61.55215 509
61.57226 503
61.59238 497
61.61249 519
61.63261 495
61.65272 487
61.67283 507
61.69295 504
61.71306 548
61.73317 505
61.75329 532
61.7734 527
61.79352 516
61.81363 512
61.83374 556
61.85386 524
61.87397 539
61.89408 559
61.9142 553
61.93431 574
61.95442 595
61.97454 579
61.99465 632
62.01477 604
62.03488 586
62.05499 578
62.07511 612
62.09522 633
62.11533 687
62.13545 665
62.15556 680
62.17568 644
62.19579 665
62.2159 661
62.23602 684
62.25613 682
62.27624 616
62.29636 669
62.31647 657
62.33659 691
62.3567 662
62.37681 637
62.39693 671
62.41704 701
62.43715 630
62.45727 626
62.47738 625
62.49749 626
62.51761 604
62.53772 604
62.55784 568
62.57795 572
62.59806 563
62.61818 552
62.63829 585
62.6584 550
62.67852 573
62.69863 587
62.71875 583
62.73886 540
62.75897 535
62.77909 528
62.7992 542
62.81931 557
62.83943 551
62.85954 514
62.87965 560
62.89977 489
62.91988 490
62.94 536
62.96011 493
62.98022 520
63.00034 486
63.02045 502
63.04056 528
63.06068 545
63.08079 505
63.10091 531
63.12102 494
63.14113 482
63.16125 497
63.18136 530
63.20147 469
63.22159 511
63.2417 497
63.26182 531
63.28193 533
63.30204 501
63.32216 524
63.34227 545
63.36238 523
63.3825 499
63.40261 515
63.42272 525
63.44284 535
63.46295 524
63.48307 504
63.50318 548
63.52329 517
63.54341 561
63.56352 593
63.58363 530
63.60375 521
63.62386 560
63.64398 549
63.66409 521
63.6842 589
63.70432 568
63.72443 556
63.74454 578
63.76466 604
63.78477 582
63.80489 601
63.825 598
63.84511 636
63.86523 657
63.88534 671
63.90545 660
63.92557 691
63.94568 691
63.96579 721
63.98591 716
64.00602 686
64.02614 730
64.04625 657
64.06636 644
64.08648 684
64.10659 594
64.1267 627
64.14682 561
64.16693 640
64.18705 607
64.20716 547
64.22727 553
64.24739 569
64.2675 553
64.28761 542
64.30773 570
64.32784 521
64.34796 533
64.36807 523
64.38818 527
64.4083 525
64.42841 504
64.44852 497
64.46864 496
64.48875 473
64.50886 507
64.52898 495
64.54909 498
64.56921 507
64.58932 507
64.60943 503
64.62955 481
64.64966 442
64.66977 495
64.68989 480
64.71 487
64.73012 494
64.75023 460
64.77034 487
64.79046 529
64.81057 480
64.83068 444
64.8508 469
64.87091 503
64.89102 485
64.91114 477
64.93125 472
64.95137 492
64.97148 493
64.99159 515
65.01171 513
65.03182 484
65.05193 474
65.07205 506
65.09216 476
65.11228 520
65.13239 473
65.1525 452
65.17262 428
65.19273 425
65.21284 477
65.23296 457
65.25307 458
65.27319 434
65.2933 472
65.31341 417
65.33353 460
65.35364 482
65.37375 455
65.39387 463
65.41398 463
65.43409 505
65.45421 470
65.47432 469
65.49444 468
65.51455 478
65.53466 456
65.55478 535
65.57489 469
65.595 476
65.61512 502
65.63523 515
65.65535 528
65.67546 510
65.69557 475
65.71569 496
65.7358 517
65.75591 480
65.77603 491
65.79614 488
65.81626 508
65.83637 468
65.85648 493
65.8766 501
65.89671 445
65.91682 503
65.93694 489
65.95705 467
65.97716 467
65.99728 482
66.01739 511
66.03751 469
66.05762 470
66.07773 465
66.09785 465
66.11796 478
66.13807 453
66.15819 484
66.1783 430
66.19842 457
66.21853 493
66.23864 448
66.25876 445
66.27887 479
66.29898 516
66.3191 469
66.33921 442
66.35933 477
66.37944 486
66.39955 417
66.41967 457
66.43978 511
66.45989 503
66.48001 488
66.50012 453
66.52023 478
66.54035 475
66.56046 490
66.58058 420
66.60069 437
66.6208 492
66.64092 486
66.66103 505
66.68114 474
66.70126 503
66.72137 455
66.74149 474
66.7616 478
66.78171 504
66.80183 490
66.82194 472
66.84205 444
66.86217 463
66.88228 464
66.90239 461
66.92251 455
66.94262 468
66.96274 448
66.98285 458
67.00296 495
67.02308 480
67.04319 468
67.0633 519
67.08342 500
67.10353 504
67.12365 522
67.14376 489
67.16387 497
67.18399 481
67.2041 494
67.22421 454
67.24433 490
67.26444 512
67.28456 527
67.30467 507
67.32478 497
67.3449 523
67.36501 539
67.38512 521
67.40524 524
67.42535 503
67.44546 583
67.46558 569
67.48569 595
67.50581 663
67.52592 702
67.54603 763
67.56615 785
67.58626 811
67.60637 825
67.62649 878
67.6466 919
67.66672 930
67.68683 851
67.70694 839
67.72706 793
67.74717 780
67.76728 772
67.7874 757
67.80751 763
67.82763 779
67.84774 776
67.86785 830
67.88797 825
67.90808 810
67.92819 850
67.94831 812
67.96842 863
67.98853 957
68.00865 992
68.02876 1026
68.04888 1056
68.06899 1087
68.0891 1043
68.10922 1050
68.12933 991
68.14944 954
68.16956 1011
68.18967 957
68.20979 1052
68.2299 1032
68.25001 1014
68.27013 955
68.29024 946
68.31035 779
68.33047 726
68.35058 691
68.3707 698
68.39081 662
68.41092 648
68.43104 646
68.45115 609
68.47126 621
68.49138 530
68.51149 524
68.5316 522
68.55172 503
68.57183 489
68.59195 500
68.61206 511
68.63217 478
68.65229 470
68.6724 467
68.69251 479
68.71263 467
68.73274 499
68.75286 468
68.77297 501
68.79308 503
68.8132 471
68.83331 520
68.85342 433
68.87354 451
68.89365 482
68.91376 454
68.93388 488
68.95399 491
68.97411 486
68.99422 494
69.01433 467
69.03445 456
69.05456 477
69.07467 469
69.09479 450
69.1149 501
69.13502 466
69.15513 477
69.17524 430
69.19536 445
69.21547 473
69.23558 473
69.2557 472
69.27581 473
69.29593 458
69.31604 464
69.33615 453
69.35627 456
69.37638 462
69.39649 457
69.41661 462
69.43672 442
69.45683 457
69.47695 501
69.49706 459
69.51718 481
69.53729 467
69.5574 456
69.57752 460
69.59763 466
69.61774 467
69.63786 459
69.65797 469
69.67809 461
69.6982 448
69.71831 472
69.73843 449
69.75854 468
69.77865 500
69.79877 463
69.81888 506
69.839 514
69.85911 463
69.87922 448
69.89934 474
69.91945 434
69.93956 454
69.95968 507
69.97979 485
69.9999 473
70.02002 441
70.04013 449
70.06025 457
70.08036 466
70.10047 446
70.12059 507
70.1407 501
70.16081 455
70.18093 439
70.20104 459
70.22116 457
70.24127 440
70.26138 435
70.2815 446
70.30161 438
70.32172 436
70.34184 443
70.36195 456
70.38207 459
70.40218 436
70.42229 455
70.44241 427
70.46252 447
70.48263 465
70.50275 463
70.52286 476
70.54297 481
70.56309 484
70.5832 450
70.60332 460
70.62343 455
70.64354 477
70.66366 476
70.68377 464
70.70388 472
70.724 415
70.74411 455
70.76423 457
70.78434 446
70.80445 440
70.82457 446
70.84468 439
70.86479 441
70.88491 464
70.90502 445
70.92513 432
70.94525 449
70.96536 443
70.98548 467
71.00559 402
71.0257 413
71.04582 447
71.06593 450
71.08604 481
71.10616 466
71.12627 471
71.14639 435
71.1665 455
71.18661 437
71.20673 472
71.22684 469
71.24695 444
71.26707 483
71.28718 444
71.3073 403
71.32741 457
71.34752 425
71.36764 471
71.38775 463
71.40786 455
71.42798 467
71.44809 434
71.4682 485
71.48832 458
71.50843 497
71.52855 488
71.54866 456
71.56877 430
71.58889 472
71.609 492
71.62911 421
71.64923 475
71.66934 495
71.68946 455
71.70957 445
71.72968 471
71.7498 477
71.76991 511
71.79002 497
71.81014 419
71.83025 467
71.85037 492
71.87048 455
71.89059 491
71.91071 487
71.93082 481
71.95093 449
71.97105 463
71.99116 447
72.01127 487
72.03139 508
72.0515 469
72.07162 450
72.09173 455
72.11184 498
72.13196 502
72.15207 473
72.17218 446
72.1923 451
72.21241 463
72.23253 451
72.25264 505
72.27275 443
72.29287 473
72.31298 429
72.33309 488
72.35321 479
72.37332 479
72.39344 459
72.41355 493
72.43366 451
72.45378 462
72.47389 479
72.494 450
72.51412 448
72.53423 464
72.55434 454
72.57446 461
72.59457 463
72.61469 430
72.6348 481
72.65491 453
72.67503 458
72.69514 445
72.71525 466
72.73537 451
72.75548 469
72.7756 464
72.79571 463
72.81582 462
72.83594 441
72.85605 448
72.87616 437
72.89628 430
72.91639 455
72.9365 431
72.95662 471
72.97673 486
72.99685 487
73.01696 469
73.03707 436
73.05719 500
73.0773 480
73.09741 434
73.11753 481
73.13764 483
73.15776 469
73.17787 469
73.19798 495
73.2181 507
73.23821 543
73.25832 531
73.27844 533
73.29855 559
73.31867 555
73.33878 628
73.35889 597
73.37901 606
73.39912 611
73.41923 575
73.43935 568
73.45946 520
73.47957 558
73.49969 548
73.5198 513
73.53992 536
73.56003 505
73.58014 567
73.60026 554
73.62037 496
73.64048 552
73.6606 503
73.68071 451
73.70083 500
73.72094 471
73.74105 469
73.76117 483
73.78128 464
73.80139 473
73.82151 441
73.84162 481
73.86174 486
73.88185 459
73.90196 445
73.92208 449
73.94219 455
73.9623 440
73.98242 464
74.00253 439
74.02264 449
74.04276 391
74.06287 466
74.08299 481
74.1031 446
74.12321 506
74.14333 485
74.16344 408
74.18355 434
74.20367 440
74.22378 470
74.2439 454
74.26401 463
74.28412 445
74.30424 445
74.32435 457
74.34446 451
74.36458 421
74.38469 425
74.40481 430
74.42492 443
74.44503 473
74.46515 466
74.48526 443
74.50537 447
74.52549 426
74.5456 428
74.56571 416
74.58583 421
74.60594 450
74.62606 460
74.64617 452
74.66628 467
74.6864 462
74.70651 461
74.72662 454
74.74674 414
74.76685 453
74.78697 473
74.80708 461
74.82719 483
74.84731 437
74.86742 449
74.88753 488
74.90765 495
74.92776 453
74.94787 422
74.96799 415
74.9881 422
75.00822 429
