3.00117 20034
3.02128 19477
3.0414 18981
3.06151 18428
3.08162 17961
3.10174 17549
3.12185 16849
3.14197 16800
3.16208 15923
3.18219 15821
3.20231 15109
3.22242 14732
3.24253 14825
3.26265 13836
3.28276 13890
3.30288 13194
3.32299 12661
3.3431 12882
3.36322 11921
3.38333 11621
3.40344 11365
3.42356 10893
3.44367 10661
3.46379 10023
3.4839 10076
3.50401 9605
3.52413 9094
3.54424 9103
3.56435 8505
3.58447 8604
3.60458 8126
3.62469 7583
3.64481 7627
3.66492 7023
3.68504 6934
3.70515 6916
3.72526 6451
3.74538 6175
3.76549 5801
3.7856 5802
3.80572 5515
3.82583 5182
3.84595 5218
3.86606 4981
3.88617 4866
3.90629 4517
3.9264 4214
3.94651 4129
3.96663 3845
3.98674 3857
4.00686 3790
4.02697 3358
4.04708 3402
4.0672 3218
4.08731 3051
4.10742 3076
4.12754 2774
4.14765 2806
4.16776 2498
4.18788 2489
4.20799 2558
4.22811 2212
4.24822 2320
4.26833 2165
4.28845 2164
4.30856 2176
4.32867 1887
4.34879 1902
4.3689 1873
4.38902 1857
4.40913 1906
4.42924 1733
4.44936 1815
4.46947 1739
4.48958 1601
4.5097 1643
4.52981 1564
4.54992 1551
4.57004 1588
4.59015 1491
4.61027 1586
4.63038 1412
4.65049 1414
4.67061 1363
4.69072 1352
4.71083 1372
4.73095 1259
4.75106 1229
4.77118 1256
4.79129 1215
4.8114 1268
4.83152 1152
4.85163 1138
4.87174 1122
4.89186 1154
4.91197 1128
4.93209 1044
4.9522 1067
4.97231 1125
4.99243 1013
5.01254 1036
5.03265 964
5.05277 996
5.07288 933
5.09299 977
5.11311 924
5.13322 913
5.15334 904
5.17345 860
5.19356 872
5.21368 851
5.23379 868
5.2539 820
5.27402 848
5.29413 782
5.31425 815
5.33436 870
5.35447 838
5.37459 824
5.3947 808
5.41481 733
5.43493 712
5.45504 758
5.47516 742
5.49527 783
5.51538 763
5.5355 679
5.55561 683
5.57572 650
5.59584 668
5.61595 652
5.63606 641
5.65618 666
5.67629 668
5.69641 661
5.71652 593
5.73663 683
5.75675 624
5.77686 644
5.79697 629
5.81709 572
5.8372 613
5.85732 660
5.87743 622
5.89754 584
5.91766 616
5.93777 620
5.95788 604
5.978 576
5.99811 546
6.01823 595
6.03834 576
6.05845 578
6.07857 547
6.09868 568
6.11879 557
6.13891 569
6.15902 596
6.17913 561
6.19925 562
6.21936 573
6.23948 591
6.25959 548
6.2797 548
6.29982 593
6.31993 517
6.34004 546
6.36016 546
6.38027 551
6.40039 518
6.4205 577
6.44061 541
6.46073 525
6.48084 562
6.50095 550
6.52107 529
6.54118 532
6.56129 556
6.58141 522
6.60152 498
6.62164 575
6.64175 518
6.66186 502
6.68198 517
6.70209 500
6.7222 531
6.74232 534
6.76243 510
6.78255 538
6.80266 493
6.82277 534
6.84289 498
6.863 513
6.88311 511
6.90323 490
6.92334 512
6.94346 530
6.96357 492
6.98368 502
7.0038 529
7.02391 482
7.04402 515
7.06414 529
7.08425 519
7.10436 526
7.12448 500
7.14459 509
7.16471 494
7.18482 464
7.20493 503
7.22505 504
7.24516 538
7.26527 524
7.28539 492
7.3055 470
7.32562 529
7.34573 486
7.36584 508
7.38596 492
7.40607 537
7.42618 540
7.4463 503
7.46641 530
7.48653 471
7.50664 495
7.52675 519
7.54687 497
7.56698 520
7.58709 518
7.60721 494
7.62732 504
7.64743 521
7.66755 466
7.68766 470
7.70778 512
7.72789 526
7.748 499
7.76812 480
7.78823 465
7.80834 489
7.82846 502
7.84857 520
7.86869 498
7.8888 491
7.90891 481
7.92903 479
7.94914 490
7.96925 502
7.98937 530
8.00948 499
8.0296 523
8.04971 492
8.06982 529
8.08994 495
8.11005 471
8.13016 510
8.15028 496
8.17039 530
8.1905 450
8.21062 502
8.23073 458
8.25085 478
8.27096 517
8.29107 503
8.31119 482
8.3313 440
8.35141 486
8.37153 476
8.39164 490
8.41176 519
8.43187 454
8.45198 501
8.4721 523
8.49221 504
8.51232 505
8.53244 540
8.55255 499
8.57266 537
8.59278 507
8.61289 522
8.63301 543
8.65312 564
8.67323 562
8.69335 606
8.71346 599
8.73357 602
8.75369 692
8.7738 698
8.79392 697
8.81403 782
8.83414 872
8.85426 823
8.87437 793
8.89448 746
8.9146 726
8.93471 678
8.95483 609
8.97494 553
8.99505 590
9.01517 513
9.03528 495
9.05539 488
9.07551 528
9.09562 507
9.11573 495
9.13585 500
9.15596 493
9.17608 523
9.19619 487
9.2163 450
9.23642 497
9.25653 468
9.27664 498
9.29676 464
9.31687 531
9.33699 502
9.3571 482
9.37721 471
9.39733 505
9.41744 570
9.43755 500
9.45767 485
9.47778 503
9.4979 516
9.51801 502
9.53812 488
9.55824 511
9.57835 483
9.59846 494
9.61858 462
9.63869 467
9.6588 526
9.67892 498
9.69903 474
9.71915 481
9.73926 483
9.75937 491
9.77949 467
9.7996 492
9.81971 479
9.83983 464
9.85994 508
9.88006 457
9.90017 477
9.92028 449
9.9404 450
9.96051 526
9.98062 505
10.00074 489
10.02085 506
10.04097 449
10.06108 479
10.08119 460
10.10131 458
10.12142 489
10.14153 479
10.16165 510
10.18176 480
10.20187 488
10.22199 491
10.2421 498
10.26222 465
10.28233 478
10.30244 442
10.32256 484
10.34267 467
10.36278 489
10.3829 491
10.40301 489
10.42313 510
10.44324 456
10.46335 447
10.48347 445
10.50358 464
10.52369 472
10.54381 519
10.56392 481
10.58403 493
10.60415 497
10.62426 487
10.64438 453
10.66449 474
10.6846 498
10.70472 445
10.72483 476
10.74494 484
10.76506 456
10.78517 467
10.80529 471
10.8254 492
10.84551 475
10.86563 502
10.88574 463
10.90585 477
10.92597 500
10.94608 479
10.9662 519
10.98631 472
11.00642 493
11.02654 461
11.04665 458
11.06676 472
11.08688 493
11.10699 529
11.1271 459
11.14722 492
11.16733 480
11.18745 442
11.20756 468
11.22767 537
11.24779 488
11.2679 493
11.28801 526
11.30813 473
11.32824 481
11.34836 520
11.36847 487
11.38858 479
11.4087 504
11.42881 500
11.44892 518
11.46904 526
11.48915 508
11.50927 481
11.52938 516
11.54949 493
11.56961 516
11.58972 481
11.60983 526
11.62995 522
11.65006 530
11.67017 533
11.69029 517
11.7104 603
11.73052 509
11.75063 508
11.77074 554
11.79086 541
11.81097 581
11.83108 539
11.8512 593
11.87131 565
11.89143 596
11.91154 584
11.93165 570
11.95177 593
11.97188 630
11.99199 625
12.01211 628
12.03222 633
12.05234 641
12.07245 705
12.09256 659
12.11268 675
12.13279 691
12.1529 754
12.17302 728
12.19313 874
12.21324 808
12.23336 864
12.25347 965
12.27359 1052
12.2937 1040
12.31381 1141
12.33393 1287
12.35404 1175
12.37415 1151
12.39427 1116
12.41438 979
12.4345 928
12.45461 816
12.47472 758
12.49484 705
12.51495 673
12.53506 653
12.55518 668
12.57529 634
12.5954 563
12.61552 600
12.63563 576
12.65575 581
12.67586 548
12.69597 510
12.71609 565
12.7362 546
12.75631 530
12.77643 490
12.79654 509
12.81666 522
12.83677 494
12.85688 547
12.877 473
12.89711 514
12.91722 526
12.93734 468
12.95745 448
12.97757 522
12.99768 488
13.01779 468
13.03791 476
13.05802 493
13.07813 458
13.09825 467
13.11836 455
13.13847 407
13.15859 470
13.1787 462
13.19882 475
13.21893 466
13.23904 446
13.25916 466
13.27927 502
13.29938 488
13.3195 469
13.33961 424
13.35973 447
13.37984 469
13.39995 479
13.42007 461
13.44018 447
13.46029 486
13.48041 415
13.50052 485
13.52064 464
13.54075 487
13.56086 466
13.58098 432
13.60109 438
13.6212 461
13.64132 431
13.66143 477
13.68154 428
13.70166 435
13.72177 433
13.74189 416
13.762 457
13.78211 433
13.80223 416
13.82234 483
13.84245 443
13.86257 462
13.88268 395
13.9028 452
13.92291 455
13.94302 481
13.96314 441
13.98325 433
14.00336 430
14.02348 440
14.04359 443
14.06371 424
14.08382 444
14.10393 476
14.12405 455
14.14416 441
14.16427 461
14.18439 422
14.2045 444
14.22461 469
14.24473 436
14.26484 436
14.28496 449
14.30507 445
14.32518 467
14.3453 439
14.36541 416
14.38552 465
14.40564 425
14.42575 433
14.44587 449
14.46598 428
14.48609 465
14.50621 414
14.52632 452
14.54643 429
14.56655 418
14.58666 425
14.60677 445
14.62689 450
14.647 455
14.66712 437
14.68723 439
14.70734 453
14.72746 425
14.74757 450
14.76768 412
14.7878 405
14.80791 427
14.82803 456
14.84814 466
14.86825 459
14.88837 454
14.90848 409
14.92859 463
14.94871 440
14.96882 437
14.98894 462
15.00905 431
15.02916 419
15.04928 455
15.06939 410
15.0895 402
15.10962 425
15.12973 422
15.14984 444
15.16996 432
15.19007 473
15.21019 424
15.2303 428
15.25041 442
15.27053 401
15.29064 426
15.31075 451
15.33087 458
15.35098 474
15.3711 420
15.39121 447
15.41132 461
15.43144 409
15.45155 428
15.47166 442
15.49178 420
15.51189 429
15.53201 436
15.55212 466
15.57223 451
15.59235 417
15.61246 446
15.63257 461
15.65269 418
15.6728 453
15.69291 437
15.71303 461
15.73314 393
15.75326 410
15.77337 440
15.79348 464
15.8136 455
15.83371 467
15.85382 450
15.87394 495
15.89405 496
15.91417 524
15.93428 512
15.95439 544
15.97451 530
15.99462 504
16.01473 423
16.03485 432
16.05496 447
16.07508 453
16.09519 440
16.1153 467
16.13542 450
16.15553 439
16.17564 449
16.19576 464
16.21587 427
16.23598 431
16.2561 482
16.27621 444
16.29633 446
16.31644 428
16.33655 418
16.35667 456
16.37678 423
16.39689 449
16.41701 390
16.43712 391
16.45724 424
16.47735 404
16.49746 427
16.51758 463
16.53769 425
16.5578 490
16.57792 392
16.59803 429
16.61814 393
16.63826 430
16.65837 401
16.67849 420
16.6986 417
16.71871 395
16.73883 390
16.75894 463
16.77905 419
16.79917 440
16.81928 442
16.8394 471
16.85951 454
16.87962 431
16.89974 440
16.91985 452
16.93996 426
16.96008 420
16.98019 455
17.00031 384
17.02042 445
17.04053 452
17.06065 446
17.08076 429
17.10087 409
17.12099 427
17.1411 425
17.16121 457
17.18133 429
17.20144 445
17.22156 443
17.24167 420
17.26178 421
17.2819 476
17.30201 436
17.32212 444
17.34224 447
17.36235 449
17.38247 453
17.40258 503
17.42269 453
17.44281 432
17.46292 473
17.48303 414
17.50315 441
17.52326 475
17.54338 444
17.56349 448
17.5836 444
17.60372 481
17.62383 452
17.64394 540
17.66406 509
17.68417 468
17.70428 588
17.7244 539
17.74451 514
17.76463 562
17.78474 527
17.80485 567
17.82497 478
17.84508 440
17.86519 523
17.88531 500
17.90542 527
17.92554 479
17.94565 501
17.96576 496
17.98588 483
18.00599 468
18.0261 479
18.04622 457
18.06633 494
18.08645 487
18.10656 477
18.12667 473
18.14679 552
18.1669 499
18.18701 481
18.20713 509
18.22724 529
18.24735 600
18.26747 636
18.28758 609
18.3077 585
18.32781 573
18.34792 507
18.36804 509
18.38815 486
18.40826 489
18.42838 485
18.44849 484
18.46861 461
18.48872 495
18.50883 476
18.52895 470
18.54906 459
18.56917 460
18.58929 418
18.6094 454
18.62951 435
18.64963 428
18.66974 450
18.68986 435
18.70997 476
18.73008 452
18.7502 450
18.77031 437
18.79042 465
18.81054 463
18.83065 407
18.85077 465
18.87088 467
18.89099 495
18.91111 433
18.93122 445
18.95133 469
18.97145 431
18.99156 445
19.01168 492
19.03179 459
19.0519 420
19.07202 455
19.09213 463
19.11224 460
19.13236 493
19.15247 470
19.17258 453
19.1927 455
19.21281 475
19.23293 437
19.25304 482
19.27315 496
19.29327 490
19.31338 459
19.33349 496
19.35361 494
19.37372 487
19.39384 506
19.41395 496
19.43406 569
19.45418 588
19.47429 571
19.4944 645
19.51452 560
19.53463 639
19.55475 684
19.57486 643
19.59497 601
19.61509 655
19.6352 670
19.65531 657
19.67543 675
19.69554 803
19.71565 792
19.73577 847
19.75588 891
19.776 999
19.79611 1048
19.81622 1108
19.83634 1114
19.85645 1132
19.87656 1185
19.89668 1218
19.91679 1195
19.93691 1169
19.95702 1073
19.97713 1056
19.99725 1028
20.01736 968
20.03747 995
20.05759 907
20.0777 847
20.09782 880
20.11793 816
20.13804 891
20.15816 938
20.17827 930
20.19838 887
20.2185 970
20.23861 852
20.25872 900
20.27884 897
20.29895 885
20.31907 861
20.33918 895
20.35929 893
20.37941 925
20.39952 851
20.41963 849
20.43975 807
20.45986 884
20.47998 805
20.50009 860
20.5202 905
20.54032 828
20.56043 809
20.58054 838
20.60066 814
20.62077 907
20.64088 917
20.661 906
20.68111 988
20.70123 999
20.72134 1057
20.74145 1174
20.76157 1415
20.78168 1613
20.80179 1807
20.82191 2015
20.84202 1994
20.86214 1858
20.88225 1759
20.90236 1496
20.92248 1242
20.94259 1002
20.9627 955
20.98282 880
21.00293 886
21.02305 877
21.04316 811
21.06327 860
21.08339 855
21.1035 847
21.12361 866
21.14373 877
21.16384 861
21.18395 898
21.20407 910
21.22418 861
21.2443 968
21.26441 948
21.28452 937
21.30464 939
21.32475 909
21.34486 919
21.36498 922
21.38509 934
21.40521 922
21.42532 912
21.44543 863
21.46555 867
21.48566 852
21.50577 802
21.52589 869
21.546 806
21.56612 806
21.58623 779
21.60634 792
21.62646 803
21.64657 753
21.66668 751
21.6868 801
21.70691 714
21.72702 750
21.74714 745
21.76725 695
21.78737 689
21.80748 710
21.82759 651
21.84771 654
21.86782 727
21.88793 653
21.90805 618
21.92816 680
21.94828 627
21.96839 633
21.9885 679
22.00862 662
22.02873 658
22.04884 629
22.06896 664
22.08907 637
22.10919 648
22.1293 633
22.14941 647
22.16953 629
22.18964 677
22.20975 632
22.22987 685
22.24998 707
22.27009 687
22.29021 679
22.31032 685
22.33044 641
22.35055 667
22.37066 620
22.39078 651
22.41089 669
22.431 622
22.45112 605
22.47123 619
22.49135 661
22.51146 665
22.53157 680
22.55169 610
22.5718 656
22.59191 642
22.61203 643
22.63214 646
22.65225 611
22.67237 618
22.69248 637
22.7126 655
22.73271 604
22.75282 626
22.77294 654
22.79305 619
22.81316 717
22.83328 652
22.85339 662
22.87351 687
22.89362 638
22.91373 687
22.93385 675
22.95396 642
22.97407 635
22.99419 622
23.0143 607
23.03442 625
23.05453 656
23.07464 658
23.09476 611
23.11487 538
23.13498 579
23.1551 561
23.17521 624
23.19532 528
23.21544 598
23.23555 566
23.25567 562
23.27578 617
23.29589 606
23.31601 591
23.33612 563
23.35623 574
23.37635 588
23.39646 570
23.41658 576
23.43669 574
23.4568 610
23.47692 585
23.49703 581
23.51714 559
23.53726 531
23.55737 588
23.57749 583
23.5976 613
23.61771 558
23.63783 640
23.65794 602
23.67805 582
23.69817 621
23.71828 647
23.73839 666
23.75851 676
23.77862 677
23.79874 696
23.81885 711
23.83896 650
23.85908 695
23.87919 660
23.8993 675
23.91942 671
23.93953 697
23.95965 659
23.97976 638
23.99987 622
24.01999 628
24.0401 583
24.06021 639
24.08033 625
24.10044 642
24.12056 671
24.14067 584
24.16078 595
24.1809 603
24.20101 626
24.22112 600
24.24124 588
24.26135 642
24.28146 597
24.30158 607
24.32169 607
24.34181 591
24.36192 606
24.38203 628
24.40215 608
24.42226 630
24.44237 640
24.46249 619
24.4826 680
24.50272 647
24.52283 613
24.54294 676
24.56306 729
24.58317 715
24.60328 682
24.6234 672
24.64351 779
24.66362 791
24.68374 738
24.70385 742
24.72397 747
24.74408 811
24.76419 886
24.78431 952
24.80442 981
24.82453 1036
24.84465 1015
24.86476 1084
24.88488 1040
24.90499 1065
24.9251 934
24.94522 907
24.96533 815
24.98544 809
25.00556 775
25.02567 779
25.04579 722
25.0659 677
25.08601 716
25.10613 692
25.12624 668
25.14635 691
25.16647 672
25.18658 687
25.20669 690
25.22681 717
25.24692 707
25.26704 724
25.28715 701
25.30726 668
25.32738 679
25.34749 667
25.3676 662
25.38772 719
25.40783 723
25.42795 723
25.44806 760
25.46817 679
25.48829 752
25.5084 774
25.52851 711
25.54863 700
25.56874 675
25.58886 660
25.60897 667
25.62908 607
25.6492 547
25.66931 646
25.68942 630
25.70954 611
25.72965 646
25.74976 636
25.76988 612
25.78999 622
25.81011 635
25.83022 581
25.85033 597
25.87045 651
25.89056 593
25.91067 600
25.93079 660
25.9509 590
25.97102 638
25.99113 610
26.01124 624
26.03136 632
26.05147 640
26.07158 677
26.0917 605
26.11181 607
26.13193 665
26.15204 651
26.17215 690
26.19227 703
26.21238 669
26.23249 707
26.25261 709
26.27272 717
26.29283 737
26.31295 835
26.33306 780
26.35318 832
26.37329 861
26.3934 944
26.41352 995
26.43363 1192
26.45374 1309
26.47386 1709
26.49397 2110
26.51409 2766
26.5342 3636
26.55431 4647
26.57443 5866
26.59454 6529
26.61465 6790
26.63477 6318
26.65488 5377
26.67499 4474
26.69511 3545
26.71522 2717
26.73534 1945
26.75545 1483
26.77556 1139
26.79568 1034
26.81579 973
26.8359 855
26.85602 814
26.87613 781
26.89625 753
26.91636 743
26.93647 675
26.95659 660
26.9767 622
26.99681 619
27.01693 618
27.03704 625
27.05716 575
27.07727 623
27.09738 627
27.1175 582
27.13761 612
27.15772 550
27.17784 563
27.19795 598
27.21806 598
27.23818 578
27.25829 561
27.27841 611
27.29852 602
27.31863 621
27.33875 589
27.35886 614
27.37897 662
27.39909 644
27.4192 675
27.43932 659
27.45943 627
27.47954 591
27.49966 609
27.51977 602
27.53988 547
27.56 567
27.58011 554
27.60023 553
27.62034 574
27.64045 543
27.66057 553
27.68068 580
27.70079 585
27.72091 672
27.74102 659
27.76113 614
27.78125 612
27.80136 631
27.82148 663
27.84159 736
27.8617 631
27.88182 622
27.90193 614
27.92204 671
27.94216 621
27.96227 599
27.98239 599
28.0025 582
28.02261 573
28.04273 551
28.06284 517
28.08295 584
28.10307 553
28.12318 541
28.1433 514
28.16341 525
28.18352 521
28.20364 532
28.22375 490
28.24386 528
28.26398 535
28.28409 522
28.3042 509
28.32432 514
28.34443 531
28.36455 523
28.38466 496
28.40477 539
28.42489 530
28.445 540
28.46511 512
28.48523 485
28.50534 513
28.52546 527
28.54557 460
28.56568 465
28.5858 518
28.60591 521
28.62602 533
28.64614 524
28.66625 531
28.68636 493
28.70648 535
28.72659 486
28.74671 521
28.76682 522
28.78693 532
28.80705 515
28.82716 544
28.84727 519
28.86739 481
28.8875 518
28.90762 481
28.92773 480
28.94784 458
28.96796 500
28.98807 540
29.00818 508
29.0283 459
29.04841 451
29.06853 489
29.08864 505
29.10875 507
29.12887 538
29.14898 495
29.16909 503
29.18921 457
29.20932 533
29.22943 511
29.24955 493
29.26966 481
29.28978 489
29.30989 504
29.33 493
29.35012 486
29.37023 503
29.39034 532
29.41046 505
29.43057 460
29.45069 457
29.4708 498
29.49091 476
29.51103 483
29.53114 527
29.55125 470
29.57137 487
29.59148 525
29.6116 486
29.63171 491
29.65182 505
29.67194 523
29.69205 525
29.71216 583
29.73228 571
29.75239 540
29.7725 531
29.79262 614
29.81273 584
29.83285 654
29.85296 586
29.87307 607
29.89319 604
29.9133 560
29.93341 565
29.95353 588
29.97364 550
29.99376 520
30.01387 522
30.03398 583
30.0541 539
30.07421 519
30.09432 545
30.11444 516
30.13455 480
30.15467 516
30.17478 499
30.19489 530
30.21501 454
30.23512 513
30.25523 490
30.27535 499
30.29546 506
30.31557 530
30.33569 542
30.3558 509
30.37592 504
30.39603 501
30.41614 513
30.43626 486
30.45637 496
30.47648 495
30.4966 465
30.51671 494
30.53683 503
30.55694 506
30.57705 506
30.59717 482
30.61728 498
30.63739 469
30.65751 470
30.67762 502
30.69773 529
30.71785 473
30.73796 487
30.75808 501
30.77819 451
30.7983 508
30.81842 473
30.83853 545
30.85864 510
30.87876 498
30.89887 522
30.91899 491
30.9391 486
30.95921 509
30.97933 533
30.99944 514
31.01955 522
31.03967 510
31.05978 522
31.0799 527
31.10001 542
31.12012 527
31.14024 569
31.16035 567
31.18046 539
31.20058 588
31.22069 560
31.2408 583
31.26092 535
31.28103 577
31.30115 559
31.32126 514
31.34137 540
31.36149 533
31.3816 553
31.40171 504
31.42183 501
31.44194 501
31.46206 522
31.48217 480
31.50228 497
31.5224 485
31.54251 483
31.56262 464
31.58274 538
31.60285 511
31.62297 496
31.64308 487
31.66319 502
31.68331 483
31.70342 506
31.72353 478
31.74365 463
31.76376 523
31.78387 515
31.80399 496
31.8241 525
31.84422 536
31.86433 491
31.88444 529
31.90456 534
31.92467 490
31.94478 544
31.9649 523
31.98501 544
32.00513 559
32.02524 563
32.04535 548
32.06547 553
32.08558 552
32.10569 535
32.12581 561
32.14592 556
32.16604 603
32.18615 603
32.20626 546
32.22638 603
32.24649 551
32.2666 541
32.28672 584
32.30683 550
32.32694 564
32.34706 498
32.36717 543
32.38729 538
32.4074 510
32.42751 524
32.44763 561
32.46774 524
32.48785 494
32.50797 529
32.52808 536
32.5482 563
32.56831 543
32.58842 548
32.60854 580
32.62865 552
32.64876 498
32.66888 531
32.68899 515
32.7091 557
32.72922 537
32.74933 517
32.76945 528
32.78956 538
32.80967 559
32.82979 513
32.8499 537
32.87001 516
32.89013 558
32.91024 516
32.93036 544
32.95047 522
32.97058 550
32.9907 590
33.01081 602
33.03092 598
33.05104 630
33.07115 588
33.09127 594
33.11138 593
33.13149 577
33.15161 593
33.17172 645
33.19183 618
33.21195 607
33.23206 603
33.25217 591
33.27229 618
33.2924 537
33.31252 629
33.33263 596
33.35274 593
33.37286 583
33.39297 556
33.41308 603
33.4332 569
33.45331 588
33.47343 538
33.49354 550
33.51365 602
33.53377 586
33.55388 554
33.57399 575
33.59411 582
33.61422 601
33.63434 573
33.65445 570
33.67456 580
33.69468 574
33.71479 524
33.7349 535
33.75502 547
33.77513 547
33.79524 542
33.81536 474
33.83547 556
33.85559 522
33.8757 538
33.89581 515
33.91593 498
33.93604 478
33.95615 528
33.97627 559
33.99638 494
34.0165 516
34.03661 499
34.05672 460
34.07684 503
34.09695 491
34.11706 520
34.13718 562
34.15729 519
34.17741 499
34.19752 489
34.21763 494
34.23775 521
34.25786 484
34.27797 525
34.29809 507
34.3182 548
34.33831 512
34.35843 554
34.37854 520
34.39866 544
34.41877 570
34.43888 587
34.459 525
34.47911 568
34.49922 611
34.51934 632
34.53945 634
34.55957 607
34.57968 677
34.59979 686
34.61991 641
34.64002 686
34.66013 682
34.68025 667
34.70036 692
34.72047 736
34.74059 715
34.7607 724
34.78082 805
34.80093 749
34.82104 846
34.84116 793
34.86127 857
34.88138 941
34.9015 943
34.92161 983
34.94173 1040
34.96184 1040
34.98195 1076
35.00207 1054
35.02218 1054
35.04229 1017
35.06241 996
35.08252 977
35.10264 924
35.12275 902
35.14286 920
35.16298 791
35.18309 802
35.2032 814
35.22332 735
35.24343 766
35.26354 745
35.28366 763
35.30377 781
35.32389 730
35.344 751
35.36411 741
35.38423 730
35.40434 740
35.42445 747
35.44457 751
35.46468 703
35.4848 775
35.50491 727
35.52502 741
35.54514 745
35.56525 718
35.58536 827
35.60548 799
35.62559 803
35.64571 801
35.66582 798
35.68593 806
35.70605 784
35.72616 826
35.74627 834
35.76639 810
35.7865 835
35.80661 828
35.82673 864
35.84684 826
35.86696 865
35.88707 841
35.90718 889
35.9273 862
35.94741 831
35.96752 848
35.98764 794
36.00775 808
36.02787 817
36.04798 721
36.06809 777
36.08821 814
36.10832 718
36.12843 724
36.14855 746
36.16866 687
36.18878 684
36.20889 635
36.229 683
36.24912 669
36.26923 630
36.28934 663
36.30946 735
36.32957 702
36.34968 765
36.3698 796
36.38991 807
36.41003 850
36.43014 888
36.45025 891
36.47037 1007
36.49048 1055
36.51059 1132
36.53071 1003
36.55082 986
36.57094 991
36.59105 924
36.61116 820
36.63128 827
36.65139 758
36.6715 726
36.69162 677
36.71173 707
36.73184 713
36.75196 676
36.77207 641
36.79219 715
36.8123 675
36.83241 623
36.85253 724
36.87264 696
36.89275 633
36.91287 695
36.93298 694
36.9531 694
36.97321 637
36.99332 669
37.01344 688
37.03355 645
37.05366 665
37.07378 684
37.09389 640
37.11401 653
37.13412 638
37.15423 663
37.17435 687
37.19446 664
37.21457 597
37.23469 616
37.2548 581
37.27491 667
37.29503 634
37.31514 590
37.33526 606
37.35537 604
37.37548 669
37.3956 645
37.41571 611
37.43582 659
37.45594 603
37.47605 627
37.49617 633
37.51628 624
37.53639 624
37.55651 655
37.57662 676
37.59673 650
37.61685 682
37.63696 657
37.65708 705
37.67719 705
37.6973 673
37.71742 720
37.73753 703
37.75764 687
37.77776 640
37.79787 690
37.81798 697
37.8381 624
37.85821 662
37.87833 632
37.89844 594
37.91855 585
37.93867 595
37.95878 625
37.97889 603
37.99901 606
38.01912 583
38.03924 580
38.05935 612
38.07946 594
38.09958 617
38.11969 625
38.1398 658
38.15992 715
38.18003 662
38.20015 650
38.22026 637
38.24037 664
38.26049 684
38.2806 763
38.30071 718
38.32083 689
38.34094 733
38.36105 740
38.38117 720
38.40128 767
38.4214 783
38.44151 739
38.46162 732
38.48174 731
38.50185 720
38.52196 720
38.54208 696
38.56219 698
38.58231 674
38.60242 662
38.62253 679
38.64265 674
38.66276 637
38.68287 674
38.70299 667
38.7231 660
38.74321 646
38.76333 629
38.78344 659
38.80356 627
38.82367 607
38.84378 603
38.8639 610
38.88401 599
38.90412 586
38.92424 620
38.94435 572
38.96447 617
38.98458 617
39.00469 547
39.02481 604
39.04492 632
39.06503 597
39.08515 590
39.10526 627
39.12538 629
39.14549 633
39.1656 652
39.18572 610
39.20583 663
39.22594 675
39.24606 668
39.26617 661
39.28628 663
39.3064 678
39.32651 685
39.34663 756
39.36674 750
39.38685 863
39.40697 931
39.42708 899
39.44719 868
39.46731 850
39.48742 805
39.50754 804
39.52765 679
39.54776 688
39.56788 667
39.58799 620
39.6081 519
39.62822 553
39.64833 535
39.66845 547
39.68856 513
39.70867 572
39.72879 554
39.7489 550
39.76901 533
39.78913 501
39.80924 555
39.82935 492
39.84947 519
39.86958 566
39.8897 557
39.90981 563
39.92992 510
39.95004 599
39.97015 524
39.99026 558
40.01038 597
40.03049 585
40.05061 580
40.07072 603
40.09083 607
40.11095 622
40.13106 624
40.15117 626
40.17129 733
40.1914 673
40.21152 708
40.23163 703
40.25174 718
40.27186 761
40.29197 688
40.31208 651
40.3322 677
40.35231 641
40.37242 623
40.39254 600
40.41265 600
40.43277 579
40.45288 559
40.47299 579
40.49311 562
40.51322 557
40.53333 554
40.55345 548
40.57356 552
40.59368 575
40.61379 504
40.6339 546
40.65402 545
40.67413 547
40.69424 526
40.71436 561
40.73447 537
40.75458 532
40.7747 544
40.79481 573
40.81493 540
40.83504 511
40.85515 566
40.87527 571
40.89538 562
40.91549 561
40.93561 599
40.95572 531
40.97584 602
40.99595 574
41.01606 582
41.03618 583
41.05629 568
41.0764 587
41.09652 603
41.11663 574
41.13675 583
41.15686 582
41.17697 620
41.19709 619
41.2172 575
41.23731 564
41.25743 567
41.27754 612
41.29765 597
41.31777 580
41.33788 539
41.358 600
41.37811 578
41.39822 590
41.41834 593
41.43845 559
41.45856 597
41.47868 563
41.49879 536
41.51891 626
41.53902 582
41.55913 574
41.57925 572
41.59936 558
41.61947 539
41.63959 530
41.6597 524
41.67982 490
41.69993 538
41.72004 548
41.74016 500
41.76027 488
41.78038 530
41.8005 513
41.82061 565
41.84072 539
41.86084 525
41.88095 512
41.90107 522
41.92118 528
41.94129 508
41.96141 525
41.98152 528
42.00163 536
42.02175 534
42.04186 528
42.06198 557
42.08209 501
42.1022 505
42.12232 541
42.14243 553
42.16254 539
42.18266 541
42.20277 552
42.22289 614
42.243 627
42.26311 586
42.28323 597
42.30334 650
42.32345 686
42.34357 737
42.36368 764
42.38379 786
42.40391 821
42.42402 815
42.44414 799
42.46425 760
42.48436 690
42.50448 725
42.52459 585
42.5447 601
42.56482 572
42.58493 542
42.60505 532
42.62516 500
42.64527 474
42.66539 498
42.6855 498
42.70561 478
42.72573 490
42.74584 436
42.76595 485
42.78607 495
42.80618 481
42.8263 456
42.84641 465
42.86652 465
42.88664 474
42.90675 459
42.92686 465
42.94698 474
42.96709 464
42.98721 489
43.00732 482
43.02743 450
43.04755 518
43.06766 466
43.08777 458
43.10789 465
43.128 471
43.14812 478
43.16823 456
43.18834 480
43.20846 478
43.22857 462
43.24868 483
43.2688 507
43.28891 429
43.30902 491
43.32914 491
43.34925 472
43.36937 429
43.38948 459
43.40959 465
43.42971 464
43.44982 477
43.46993 473
43.49005 472
43.51016 477
43.53028 434
43.55039 460
43.5705 499
43.59062 494
43.61073 456
43.63084 500
43.65096 469
43.67107 470
43.69119 471
43.7113 474
43.73141 473
43.75153 490
43.77164 449
43.79175 465
43.81187 485
43.83198 456
43.85209 506
43.87221 484
43.89232 493
43.91244 497
43.93255 501
43.95266 486
43.97278 480
43.99289 460
44.013 467
44.03312 475
44.05323 458
44.07335 443
44.09346 456
44.11357 440
44.13369 481
44.1538 466
44.17391 486
44.19403 472
44.21414 503
44.23426 473
44.25437 433
44.27448 476
44.2946 493
44.31471 485
44.33482 459
44.35494 466
44.37505 449
44.39516 469
44.41528 479
44.43539 458
44.45551 481
44.47562 439
44.49573 487
44.51585 463
44.53596 490
44.55607 473
44.57619 476
44.5963 468
44.61642 455
44.63653 481
44.65664 455
44.67676 448
44.69687 441
44.71698 479
44.7371 491
44.75721 479
44.77732 506
44.79744 470
44.81755 498
44.83767 479
44.85778 496
44.87789 501
44.89801 497
44.91812 517
44.93823 503
44.95835 496
44.97846 503
44.99858 458
45.01869 510
45.0388 504
45.05892 517
45.07903 469
45.09914 489
45.11926 533
45.13937 554
45.15949 549
45.1796 510
45.19971 554
45.21983 522
45.23994 554
45.26005 551
45.28017 582
45.30028 615
45.32039 580
45.34051 560
45.36062 575
45.38074 573
45.40085 612
45.42096 637
45.44108 572
45.46119 590
45.4813 565
45.50142 564
45.52153 560
45.54165 536
45.56176 543
45.58187 557
45.60199 577
45.6221 611
45.64221 603
45.66233 601
45.68244 663
45.70256 618
45.72267 672
45.74278 663
45.7629 659
45.78301 669
45.80312 665
45.82324 633
45.84335 615
45.86346 636
45.88358 626
45.90369 570
45.92381 532
45.94392 595
45.96403 545
45.98415 537
46.00426 571
46.02437 505
46.04449 496
46.0646 522
46.08472 503
46.10483 530
46.12494 491
46.14506 525
46.16517 523
46.18528 488
46.2054 485
46.22551 464
46.24563 472
46.26574 491
46.28585 484
46.30597 486
46.32608 473
46.34619 538
46.36631 474
46.38642 489
46.40653 485
46.42665 513
46.44676 491
46.46688 462
46.48699 500
46.5071 496
46.52722 476
46.54733 499
46.56744 512
46.58756 487
46.60767 462
46.62779 488
46.6479 474
46.66801 455
46.68813 478
46.70824 450
46.72835 490
46.74847 482
46.76858 523
46.78869 492
46.80881 512
46.82892 434
46.84904 476
46.86915 479
46.88926 505
46.90938 461
46.92949 456
46.9496 483
46.96972 454
46.98983 432
47.00995 458
47.03006 424
47.05017 451
47.07029 442
47.0904 500
47.11051 483
47.13063 458
47.15074 453
47.17086 449
47.19097 468
47.21108 474
47.2312 441
47.25131 448
47.27142 468
47.29154 467
47.31165 481
47.33176 462
47.35188 430
47.37199 475
47.39211 494
47.41222 493
47.43233 483
47.45245 453
47.47256 499
47.49267 452
47.51279 472
47.5329 453
47.55302 457
47.57313 482
47.59324 458
47.61336 462
47.63347 417
47.65358 446
47.6737 461
47.69381 429
47.71393 454
47.73404 467
47.75415 445
47.77427 457
47.79438 458
47.81449 448
47.83461 487
47.85472 462
47.87483 512
47.89495 502
47.91506 466
47.93518 463
47.95529 457
47.9754 488
47.99552 469
48.01563 480
48.03574 462
48.05586 471
48.07597 458
48.09609 419
48.1162 454
48.13631 465
48.15643 488
48.17654 501
48.19665 452
48.21677 442
48.23688 487
48.257 431
48.27711 463
48.29722 455
48.31734 457
48.33745 459
48.35756 486
48.37768 472
48.39779 458
48.4179 446
48.43802 470
48.45813 458
48.47825 458
48.49836 465
48.51847 455
48.53859 499
48.5587 439
48.57881 440
48.59893 461
48.61904 467
48.63916 468
48.65927 477
48.67938 433
48.6995 478
48.71961 499
48.73972 489
48.75984 487
48.77995 521
48.80006 451
48.82018 437
48.84029 429
48.86041 466
48.88052 481
48.90063 448
48.92075 484
48.94086 471
48.96097 484
48.98109 475
49.0012 461
49.02132 465
49.04143 462
49.06154 469
49.08166 457
49.10177 515
49.12188 462
49.142 513
49.16211 473
49.18223 464
49.20234 482
49.22245 481
49.24257 467
49.26268 482
49.28279 468
49.30291 478
49.32302 445
49.34313 444
49.36325 515
49.38336 519
49.40348 472
49.42359 447
49.4437 494
49.46382 502
49.48393 498
49.50404 504
49.52416 479
49.54427 484
49.56439 507
49.5845 478
49.60461 527
49.62473 502
49.64484 477
49.66495 521
49.68507 482
49.70518 483
49.7253 508
49.74541 489
49.76552 457
49.78564 504
49.80575 546
49.82586 499
49.84598 500
49.86609 542
49.8862 562
49.90632 534
49.92643 586
49.94655 598
49.96666 651
49.98677 723
50.00689 834
50.027 886
50.04711 950
50.06723 991
50.08734 1020
50.10746 1051
50.12757 931
50.14768 862
50.1678 829
50.18791 765
50.20802 787
50.22814 754
50.24825 718
50.26837 641
50.28848 528
50.30859 514
50.32871 529
50.34882 523
50.36893 502
50.38905 520
50.40916 470
50.42927 494
50.44939 494
50.4695 451
50.48962 520
50.50973 487
50.52984 470
50.54996 513
50.57007 478
50.59018 475
50.6103 498
50.63041 470
50.65053 454
50.67064 504
50.69075 451
50.71087 458
50.73098 447
50.75109 487
50.77121 430
50.79132 477
50.81143 459
50.83155 483
50.85166 487
50.87178 450
50.89189 458
50.912 478
50.93212 466
50.95223 463
50.97234 465
50.99246 442
51.01257 468
51.03269 462
51.0528 491
51.07291 461
51.09303 500
51.11314 460
51.13325 440
51.15337 448
51.17348 472
51.1936 477
51.21371 394
51.23382 448
51.25394 444
51.27405 425
51.29416 447
51.31428 440
51.33439 424
51.3545 432
51.37462 443
51.39473 475
51.41485 434
51.43496 445
51.45507 412
51.47519 434
51.4953 415
51.51541 433
51.53553 431
51.55564 454
51.57576 410
51.59587 423
51.61598 449
51.6361 477
51.65621 456
51.67632 464
51.69644 460
51.71655 418
51.73667 430
51.75678 467
51.77689 477
51.79701 425
51.81712 453
51.83723 418
51.85735 481
51.87746 480
51.89757 387
51.91769 421
51.9378 429
51.95792 449
51.97803 432
51.99814 432
52.01826 459
52.03837 461
52.05848 455
52.0786 464
52.09871 465
52.11883 445
52.13894 437
52.15905 443
52.17917 463
52.19928 447
52.21939 476
52.23951 475
52.25962 430
52.27974 456
52.29985 447
52.31996 456
52.34008 417
52.36019 426
52.3803 447
52.40042 413
52.42053 438
52.44064 459
52.46076 425
52.48087 417
52.50099 451
52.5211 442
52.54121 428
52.56133 465
52.58144 459
52.60155 419
52.62167 439
52.64178 461
52.6619 461
52.68201 469
52.70212 460
52.72224 475
52.74235 476
52.76246 440
52.78258 454
52.80269 463
52.8228 486
52.84292 500
52.86303 476
52.88315 426
52.90326 458
52.92337 460
52.94349 487
52.9636 501
52.98371 483
53.00383 495
53.02394 501
53.04406 460
53.06417 504
53.08428 521
53.1044 505
53.12451 507
53.14462 477
53.16474 467
53.18485 510
53.20497 492
53.22508 463
53.24519 474
53.26531 503
53.28542 505
53.30553 457
53.32565 497
53.34576 513
53.36587 505
53.38599 508
53.4061 495
53.42622 545
53.44633 523
53.46644 517
53.48656 548
53.50667 531
53.52678 553
53.5469 474
53.56701 496
53.58713 500
53.60724 580
53.62735 526
53.64747 546
53.66758 539
53.68769 515
53.70781 571
53.72792 549
53.74804 544
53.76815 560
53.78826 559
53.80838 550
53.82849 551
53.8486 547
53.86872 587
53.88883 555
53.90894 602
53.92906 614
53.94917 600
53.96929 582
53.9894 507
54.00951 627
54.02963 582
54.04974 622
54.06985 611
54.08997 590
54.11008 606
54.1302 583
54.15031 657
54.17042 615
54.19054 611
54.21065 682
54.23076 693
54.25088 661
54.27099 611
54.29111 584
54.31122 626
54.33133 585
54.35145 668
54.37156 604
54.39167 622
54.41179 638
54.4319 577
54.45201 626
54.47213 643
54.49224 628
54.51236 614
54.53247 624
54.55258 615
54.5727 599
54.59281 597
54.61292 586
54.63304 611
54.65315 627
54.67327 651
54.69338 611
54.71349 650
54.73361 697
54.75372 673
54.77383 714
54.79395 731
54.81406 721
54.83417 725
54.85429 748
54.8744 698
54.89452 671
54.91463 671
54.93474 685
54.95486 714
54.97497 700
54.99508 661
55.0152 616
55.03531 654
55.05543 638
55.07554 621
55.09565 676
55.11577 636
55.13588 605
55.15599 614
55.17611 604
55.19622 673
55.21634 649
55.23645 662
55.25656 684
55.27668 702
55.29679 663
55.3169 607
55.33702 630
55.35713 627
55.37724 620
55.39736 630
55.41747 611
55.43759 648
55.4577 608
55.47781 567
55.49793 572
55.51804 567
55.53815 587
55.55827 544
55.57838 559
55.5985 571
55.61861 542
55.63872 573
55.65884 590
55.67895 588
55.69906 602
55.71918 590
55.73929 565
55.75941 588
55.77952 561
55.79963 575
55.81975 585
55.83986 561
55.85997 532
55.88009 517
55.9002 552
55.92031 579
55.94043 555
55.96054 503
55.98066 545
56.00077 518
56.02088 555
56.041 535
56.06111 518
56.08122 558
56.10134 522
56.12145 546
56.14157 515
56.16168 566
56.18179 534
56.20191 578
56.22202 512
56.24213 519
56.26225 581
56.28236 513
56.30248 508
56.32259 509
56.3427 541
56.36282 533
56.38293 530
56.40304 504
56.42316 518
56.44327 506
56.46338 505
56.4835 534
56.50361 519
56.52373 512
56.54384 506
56.56395 549
56.58407 490
56.60418 509
56.62429 515
56.64441 549
56.66452 484
56.68464 484
56.70475 496
56.72486 518
56.74498 517
56.76509 517
56.7852 534
56.80532 518
56.82543 495
56.84554 481
56.86566 470
56.88577 494
56.90589 489
56.926 513
56.94611 505
56.96623 515
56.98634 477
57.00645 510
57.02657 484
57.04668 481
57.0668 496
57.08691 493
57.10702 492
57.12714 460
57.14725 490
57.16736 517
57.18748 476
57.20759 465
57.22771 540
57.24782 547
57.26793 462
57.28805 504
57.30816 498
57.32827 499
57.34839 526
57.3685 508
57.38861 489
57.40873 481
57.42884 466
57.44896 494
57.46907 487
57.48918 481
57.5093 528
57.52941 466
57.54952 508
57.56964 485
57.58975 508
57.60987 508
57.62998 537
57.65009 524
57.67021 501
57.69032 521
57.71043 527
57.73055 491
57.75066 501
57.77078 485
57.79089 493
57.811 523
57.83112 469
57.85123 507
57.87134 439
57.89146 503
57.91157 470
57.93168 456
57.9518 525
57.97191 505
57.99203 491
58.01214 497
58.03225 481
58.05237 494
58.07248 466
58.09259 475
58.11271 481
58.13282 450
58.15294 427
58.17305 501
58.19316 443
58.21328 482
58.23339 472
58.2535 496
58.27362 453
58.29373 493
58.31385 462
58.33396 476
58.35407 470
58.37419 480
58.3943 450
58.41441 470
58.43453 454
58.45464 443
58.47475 448
58.49487 453
58.51498 413
58.5351 445
58.55521 507
58.57532 436
58.59544 461
58.61555 471
58.63566 461
58.65578 494
58.67589 428
58.69601 451
58.71612 460
58.73623 471
58.75635 475
58.77646 506
58.79657 463
58.81669 484
58.8368 457
58.85691 485
58.87703 477
58.89714 493
58.91726 456
58.93737 503
58.95748 455
58.9776 475
58.99771 430
59.01782 462
59.03794 493
59.05805 474
59.07817 466
59.09828 477
59.11839 488
59.13851 495
59.15862 504
59.17873 471
59.19885 476
59.21896 466
59.23908 512
59.25919 476
59.2793 510
59.29942 496
59.31953 497
59.33964 506
59.35976 523
59.37987 495
59.39998 519
59.4201 497
59.44021 496
59.46033 505
59.48044 481
59.50055 501
59.52067 450
59.54078 535
59.56089 497
59.58101 547
59.60112 508
59.62124 541
59.64135 574
59.66146 519
59.68158 549
59.70169 597
59.7218 558
59.74192 588
59.76203 587
59.78215 650
59.80226 666
59.82237 739
59.84249 787
59.8626 861
59.88271 851
59.90283 861
59.92294 860
59.94305 816
59.96317 787
59.98328 775
60.0034 716
60.02351 684
60.04362 728
60.06374 709
60.08385 667
60.10396 663
60.12408 635
60.14419 543
60.16431 548
60.18442 543
60.20453 515
60.22465 494
60.24476 474
60.26487 502
60.28499 493
60.3051 496
60.32522 485
60.34533 450
60.36544 470
60.38556 475
60.40567 461
60.42578 468
60.4459 480
60.46601 492
60.48612 479
60.50624 517
60.52635 518
60.54647 486
60.56658 485
60.58669 522
60.60681 472
60.62692 496
60.64703 488
60.66715 452
60.68726 510
60.70738 523
60.72749 488
60.7476 479
60.76772 472
60.78783 514
60.80794 461
60.82806 451
60.84817 467
60.86828 471
60.8884 477
60.90851 447
60.92863 456
60.94874 492
60.96885 498
60.98897 483
61.00908 490
61.02919 466
61.04931 507
61.06942 456
61.08954 438
61.10965 492
61.12976 510
61.14988 483
61.16999 464
61.1901 477
61.21022 457
61.23033 469
61.25045 479
61.27056 512
61.29067 451
61.31079 495
61.3309 473
61.35101 464
61.37113 476
61.39124 487
61.41135 452
61.43147 486
61.45158 495
61.4717 500
61.49181 538
61.51192 524
61.53204 566
61.55215 501
61.57226 525
61.59238 529
61.61249 546
61.63261 531
61.65272 565
61.67283 556
61.69295 576
61.71306 576
61.73317 613
61.75329 580
61.7734 601
61.79352 599
61.81363 600
61.83374 632
61.85386 609
61.87397 549
61.89408 624
61.9142 667
61.93431 638
61.95442 630
61.97454 692
61.99465 607
62.01477 650
62.03488 667
62.05499 670
62.07511 684
62.09522 639
62.11533 626
62.13545 635
62.15556 707
62.17568 678
62.19579 737
62.2159 716
62.23602 743
62.25613 705
62.27624 694
62.29636 659
62.31647 695
62.33659 683
62.3567 695
62.37681 708
62.39693 680
62.41704 615
62.43715 656
62.45727 622
62.47738 618
62.49749 666
62.51761 622
62.53772 615
62.55784 570
62.57795 569
62.59806 595
62.61818 571
62.63829 568
62.6584 541
62.67852 584
62.69863 571
62.71875 556
62.73886 540
62.75897 510
62.77909 536
62.7992 538
62.81931 530
62.83943 581
62.85954 555
62.87965 509
62.89977 474
62.91988 562
62.94 509
62.96011 521
62.98022 512
63.00034 515
63.02045 537
63.04056 476
63.06068 538
63.08079 521
63.10091 535
63.12102 523
63.14113 509
63.16125 508
63.18136 513
63.20147 550
63.22159 535
63.2417 558
63.26182 552
63.28193 520
63.30204 477
63.32216 510
63.34227 495
63.36238 527
63.3825 462
63.40261 508
63.42272 500
63.44284 497
63.46295 511
63.48307 488
63.50318 496
63.52329 479
63.54341 493
63.56352 509
63.58363 520
63.60375 488
63.62386 482
63.64398 515
63.66409 507
63.6842 525
63.70432 495
63.72443 515
63.74454 493
63.76466 531
63.78477 504
63.80489 535
63.825 541
63.84511 539
63.86523 531
63.88534 513
63.90545 543
63.92557 603
63.94568 588
63.96579 574
63.98591 565
64.00602 595
64.02614 566
64.04625 533
64.06636 582
64.08648 564
64.10659 572
64.1267 535
64.14682 542
64.16693 543
64.18705 563
64.20716 534
64.22727 525
64.24739 506
64.2675 494
64.28761 483
64.30773 466
64.32784 495
64.34796 466
64.36807 516
64.38818 486
64.4083 519
64.42841 463
64.44852 475
64.46864 462
64.48875 496
64.50886 461
64.52898 530
64.54909 474
64.56921 453
64.58932 476
64.60943 491
64.62955 495
64.64966 461
64.66977 478
64.68989 459
64.71 459
64.73012 450
64.75023 478
64.77034 466
64.79046 457
64.81057 523
64.83068 435
64.8508 470
64.87091 493
64.89102 472
64.91114 480
64.93125 471
64.95137 453
64.97148 452
64.99159 471
65.01171 432
65.03182 483
65.05193 466
65.07205 464
65.09216 490
65.11228 438
65.13239 448
65.1525 434
65.17262 484
65.19273 475
65.21284 476
65.23296 500
65.25307 465
65.27319 458
65.2933 462
65.31341 424
65.33353 452
65.35364 435
65.37375 474
65.39387 484
65.41398 463
65.43409 427
65.45421 453
65.47432 429
65.49444 463
65.51455 428
65.53466 481
65.55478 439
65.57489 448
65.595 398
65.61512 479
65.63523 416
65.65535 459
65.67546 471
65.69557 440
65.71569 462
65.7358 445
65.75591 405
65.77603 463
65.79614 478
65.81626 436
65.83637 471
65.85648 467
65.8766 463
65.89671 447
65.91682 457
65.93694 459
65.95705 426
65.97716 468
65.99728 454
66.01739 445
66.03751 426
66.05762 460
66.07773 449
66.09785 443
66.11796 436
66.13807 429
66.15819 456
66.1783 461
66.19842 456
66.21853 478
66.23864 412
66.25876 462
66.27887 438
66.29898 446
66.3191 425
66.33921 456
66.35933 454
66.37944 447
66.39955 422
66.41967 443
66.43978 461
66.45989 438
66.48001 471
66.50012 422
66.52023 413
66.54035 450
66.56046 450
66.58058 425
66.60069 440
66.6208 458
66.64092 457
66.66103 433
66.68114 424
66.70126 441
66.72137 436
66.74149 480
66.7616 479
66.78171 430
66.80183 429
66.82194 423
66.84205 444
66.86217 491
66.88228 419
66.90239 443
66.92251 493
66.94262 479
66.96274 450
66.98285 460
67.00296 475
67.02308 425
67.04319 445
67.0633 436
67.08342 419
67.10353 458
67.12365 456
67.14376 479
67.16387 453
67.18399 434
67.2041 498
67.22421 422
67.24433 459
67.26444 464
67.28456 428
67.30467 471
67.32478 478
67.3449 431
67.36501 459
67.38512 468
67.40524 501
67.42535 481
67.44546 455
67.46558 489
67.48569 479
67.50581 464
67.52592 517
67.54603 540
67.56615 528
67.58626 554
67.60637 581
67.62649 651
67.6466 638
67.66672 682
67.68683 734
67.70694 632
67.72706 705
67.74717 628
67.76728 619
67.7874 588
67.80751 534
67.82763 582
67.84774 591
67.86785 602
67.88797 612
67.90808 577
67.92819 578
67.94831 581
67.96842 612
67.98853 634
68.00865 642
68.02876 707
68.04888 714
68.06899 775
68.0891 787
68.10922 799
68.12933 782
68.14944 675
68.16956 640
68.18967 640
68.20979 688
68.2299 734
68.25001 761
68.27013 728
68.29024 670
68.31035 723
68.33047 577
68.35058 566
68.3707 564
68.39081 540
68.41092 519
68.43104 555
68.45115 537
68.47126 508
68.49138 510
68.51149 479
68.5316 499
68.55172 476
68.57183 447
68.59195 446
68.61206 494
68.63217 475
68.65229 475
68.6724 457
68.69251 468
68.71263 444
68.73274 438
68.75286 427
68.77297 442
68.79308 442
68.8132 443
68.83331 428
68.85342 477
68.87354 463
68.89365 437
68.91376 465
68.93388 468
68.95399 442
68.97411 462
68.99422 459
69.01433 418
69.03445 447
69.05456 441
69.07467 433
69.09479 445
69.1149 435
69.13502 466
69.15513 485
69.17524 458
69.19536 457
69.21547 507
69.23558 437
69.2557 498
69.27581 477
69.29593 496
69.31604 473
69.33615 507
69.35627 439
69.37638 472
69.39649 453
69.41661 438
69.43672 477
69.45683 436
69.47695 479
69.49706 432
69.51718 461
69.53729 462
69.5574 489
69.57752 467
69.59763 480
69.61774 457
69.63786 434
69.65797 448
69.67809 478
69.6982 460
69.71831 477
69.73843 465
69.75854 485
69.77865 483
69.79877 418
69.81888 478
69.839 478
69.85911 445
69.87922 459
69.89934 462
69.91945 482
69.93956 468
69.95968 448
69.97979 448
69.9999 462
70.02002 452
70.04013 448
70.06025 483
70.08036 492
70.10047 459
70.12059 485
70.1407 449
70.16081 454
70.18093 499
70.20104 478
70.22116 465
70.24127 462
70.26138 467
70.2815 469
70.30161 451
70.32172 456
70.34184 490
70.36195 425
70.38207 478
70.40218 453
70.42229 463
70.44241 439
70.46252 432
70.48263 413
70.50275 443
70.52286 450
70.54297 441
70.56309 469
70.5832 439
70.60332 400
70.62343 459
70.64354 444
70.66366 460
70.68377 419
70.70388 404
70.724 438
70.74411 457
70.76423 431
70.78434 451
70.80445 432
70.82457 444
70.84468 461
70.86479 403
70.88491 450
70.90502 438
70.92513 425
70.94525 424
70.96536 443
70.98548 414
71.00559 473
71.0257 447
71.04582 443
71.06593 424
71.08604 435
71.10616 456
71.12627 418
71.14639 428
71.1665 406
71.18661 428
71.20673 421
71.22684 453
71.24695 424
71.26707 409
71.28718 430
71.3073 443
71.32741 414
71.34752 460
71.36764 420
71.38775 410
71.40786 446
71.42798 423
71.44809 433
71.4682 435
71.48832 485
71.50843 429
71.52855 417
71.54866 448
71.56877 460
71.58889 440
71.609 436
71.62911 454
71.64923 438
71.66934 426
71.68946 446
71.70957 436
71.72968 414
71.7498 460
71.76991 437
71.79002 412
71.81014 487
71.83025 441
71.85037 439
71.87048 445
71.89059 438
71.91071 491
71.93082 451
71.95093 432
71.97105 468
71.99116 461
72.01127 467
72.03139 462
72.0515 460
72.07162 479
72.09173 454
72.11184 465
72.13196 445
72.15207 411
72.17218 454
72.1923 436
72.21241 437
72.23253 439
72.25264 432
72.27275 472
72.29287 463
72.31298 420
72.33309 444
72.35321 439
72.37332 421
72.39344 442
72.41355 426
72.43366 434
72.45378 490
72.47389 422
72.494 477
72.51412 447
72.53423 414
72.55434 455
72.57446 444
72.59457 428
72.61469 442
72.6348 455
72.65491 423
72.67503 452
72.69514 481
72.71525 463
72.73537 476
72.75548 450
72.7756 457
72.79571 471
72.81582 455
72.83594 449
72.85605 489
72.87616 449
72.89628 445
72.91639 450
72.9365 478
72.95662 497
72.97673 468
72.99685 491
73.01696 456
73.03707 473
73.05719 470
73.0773 480
73.09741 497
73.11753 476
73.13764 506
73.15776 485
73.17787 514
73.19798 518
73.2181 490
73.23821 489
73.25832 512
73.27844 489
73.29855 550
73.31867 507
73.33878 507
73.35889 529
73.37901 541
73.39912 521
73.41923 564
73.43935 591
73.45946 551
73.47957 540
73.49969 502
73.5198 520
73.53992 495
73.56003 516
73.58014 490
73.60026 532
73.62037 506
73.64048 525
73.6606 506
73.68071 477
73.70083 493
73.72094 481
73.74105 500
73.76117 462
73.78128 441
73.80139 470
73.82151 498
73.84162 436
73.86174 462
73.88185 469
73.90196 461
73.92208 449
73.94219 444
73.9623 464
73.98242 440
74.00253 468
74.02264 431
74.04276 485
74.06287 462
74.08299 431
74.1031 476
74.12321 465
74.14333 451
74.16344 426
74.18355 424
74.20367 442
74.22378 470
74.2439 416
74.26401 456
74.28412 439
74.30424 423
74.32435 433
74.34446 435
74.36458 447
74.38469 459
74.40481 442
74.42492 452
74.44503 426
74.46515 451
74.48526 457
74.50537 462
74.52549 449
74.5456 423
74.56571 463
74.58583 449
74.60594 455
74.62606 463
74.64617 417
74.66628 426
74.6864 433
74.70651 440
74.72662 448
74.74674 467
74.76685 453
74.78697 438
74.80708 411
74.82719 478
74.84731 462
74.86742 451
74.88753 414
74.90765 412
74.92776 455
74.94787 433
74.96799 458
74.9881 416
75.00822 398
