3.00117 22228
3.02128 20850
3.0414 20837
3.06151 20124
3.08162 19320
3.10174 19098
3.12185 18004
3.14197 17985
3.16208 17498
3.18219 16934
3.20231 16685
3.22242 15845
3.24253 15404
3.26265 15341
3.28276 14633
3.30288 14219
3.32299 13513
3.3431 13330
3.36322 12949
3.38333 12495
3.40344 12088
3.42356 11382
3.44367 11206
3.46379 10991
3.4839 10434
3.50401 10203
3.52413 9581
3.54424 9458
3.56435 8997
3.58447 8628
3.60458 8325
3.62469 7806
3.64481 7845
3.66492 7502
3.68504 7200
3.70515 6945
3.72526 6544
3.74538 6478
3.76549 6169
3.7856 5895
3.80572 5674
3.82583 5204
3.84595 5145
3.86606 5001
3.88617 4746
3.90629 4665
3.9264 4267
3.94651 4072
3.96663 4050
3.98674 3803
4.00686 3557
4.02697 3482
4.04708 3451
4.0672 3402
4.08731 3046
4.10742 3043
4.12754 2885
4.14765 2737
4.16776 2820
4.18788 2552
4.20799 2454
4.22811 2292
4.24822 2255
4.26833 2167
4.28845 2073
4.30856 2009
4.32867 1966
4.34879 1952
4.3689 1952
4.38902 1897
4.40913 1829
4.42924 1768
4.44936 1732
4.46947 1736
4.48958 1622
4.5097 1581
4.52981 1613
4.54992 1616
4.57004 1507
4.59015 1414
4.61027 1427
4.63038 1381
4.65049 1293
4.67061 1311
4.69072 1263
4.71083 1317
4.73095 1247
4.75106 1255
4.77118 1242
4.79129 1123
4.8114 1171
4.83152 1090
4.85163 1057
4.87174 1169
4.89186 1012
4.91197 1061
4.93209 1020
4.9522 972
4.97231 1018
4.99243 909
5.01254 956
5.03265 867
5.05277 875
5.07288 972
5.09299 869
5.11311 859
5.13322 839
5.15334 822
5.17345 814
5.19356 731
5.21368 753
5.23379 825
5.2539 750
5.27402 762
5.29413 679
5.31425 664
5.33436 736
5.35447 721
5.37459 646
5.3947 648
5.41481 581
5.43493 589
5.45504 638
5.47516 615
5.49527 553
5.51538 555
5.5355 585
5.55561 594
5.57572 611
5.59584 550
5.61595 582
5.63606 583
5.65618 578
5.67629 576
5.69641 549
5.71652 536
5.73663 537
5.75675 521
5.77686 484
5.79697 493
5.81709 488
5.8372 496
5.85732 502
5.87743 476
5.89754 494
5.91766 511
5.93777 488
5.95788 510
5.978 453
5.99811 456
6.01823 465
6.03834 443
6.05845 469
6.07857 425
6.09868 450
6.11879 455
6.13891 441
6.15902 465
6.17913 408
6.19925 392
6.21936 462
6.23948 388
6.25959 390
6.2797 450
6.29982 422
6.31993 430
6.34004 396
6.36016 399
6.38027 386
6.40039 410
6.4205 427
6.44061 407
6.46073 458
6.48084 388
6.50095 425
6.52107 387
6.54118 440
6.56129 404
6.58141 396
6.60152 386
6.62164 363
6.64175 411
6.66186 420
6.68198 398
6.70209 441
6.7222 385
6.74232 410
6.76243 412
6.78255 373
6.80266 390
6.82277 444
6.84289 388
6.863 372
6.88311 392
6.90323 397
6.92334 401
6.94346 420
6.96357 390
6.98368 337
7.0038 383
7.02391 392
7.04402 389
7.06414 407
7.08425 374
7.10436 378
7.12448 340
7.14459 384
7.16471 416
7.18482 362
7.20493 357
7.22505 366
7.24516 396
7.26527 377
7.28539 400
7.3055 420
7.32562 416
7.34573 377
7.36584 379
7.38596 408
7.40607 372
7.42618 390
7.4463 365
7.46641 436
7.48653 388
7.50664 371
7.52675 405
7.54687 394
7.56698 410
7.58709 375
7.60721 397
7.62732 404
7.64743 367
7.66755 360
7.68766 386
7.70778 385
7.72789 393
7.748 370
7.76812 384
7.78823 357
7.80834 402
7.82846 396
7.84857 389
7.86869 382
7.8888 415
7.90891 400
7.92903 434
7.94914 403
7.96925 395
7.98937 339
8.00948 441
8.0296 397
8.04971 360
8.06982 391
8.08994 426
8.11005 436
8.13016 429
8.15028 370
8.17039 382
8.1905 360
8.21062 416
8.23073 394
8.25085 391
8.27096 434
8.29107 407
8.31119 405
8.3313 374
8.35141 396
8.37153 432
8.39164 362
8.41176 413
8.43187 424
8.45198 450
8.4721 403
8.49221 442
8.51232 409
8.53244 379
8.55255 431
8.57266 449
8.59278 437
8.61289 384
8.63301 443
8.65312 405
8.67323 432
8.69335 448
8.71346 486
8.73357 510
8.75369 493
8.7738 466
8.79392 465
8.81403 507
8.83414 486
8.85426 455
8.87437 491
8.89448 514
8.9146 500
8.93471 483
8.95483 443
8.97494 459
8.99505 418
9.01517 435
9.03528 413
9.05539 449
9.07551 391
9.09562 401
9.11573 414
9.13585 369
9.15596 399
9.17608 394
9.19619 408
9.2163 359
9.23642 408
9.25653 432
9.27664 380
9.29676 368
9.31687 388
9.33699 369
9.3571 352
9.37721 363
9.39733 408
9.41744 391
9.43755 383
9.45767 401
9.47778 390
9.4979 335
9.51801 389
9.53812 390
9.55824 385
9.57835 394
9.59846 343
9.61858 407
9.63869 341
9.6588 390
9.67892 346
9.69903 373
9.71915 385
9.73926 326
9.75937 380
9.77949 365
9.7996 378
9.81971 397
9.83983 371
9.85994 393
9.88006 363
9.90017 353
9.92028 374
9.9404 391
9.96051 346
9.98062 382
10.00074 352
10.02085 367
10.04097 370
10.06108 341
10.08119 403
10.10131 410
10.12142 386
10.14153 378
10.16165 370
10.18176 398
10.20187 370
10.22199 367
10.2421 365
10.26222 393
10.28233 359
10.30244 359
10.32256 392
10.34267 374
10.36278 360
10.3829 358
10.40301 367
10.42313 351
10.44324 351
10.46335 377
10.48347 343
10.50358 374
10.52369 354
10.54381 401
10.56392 373
10.58403 392
10.60415 374
10.62426 380
10.64438 375
10.66449 377
10.6846 373
10.70472 350
10.72483 376
10.74494 373
10.76506 374
10.78517 354
10.80529 363
10.8254 357
10.84551 363
10.86563 375
10.88574 385
10.90585 362
10.92597 387
10.94608 358
10.9662 371
10.98631 393
11.00642 383
11.02654 358
11.04665 345
11.06676 380
11.08688 339
11.10699 349
11.1271 326
11.14722 384
11.16733 366
11.18745 342
11.20756 394
11.22767 371
11.24779 399
11.2679 374
11.28801 367
11.30813 402
11.32824 397
11.34836 406
11.36847 368
11.38858 373
11.4087 390
11.42881 389
11.44892 371
11.46904 382
11.48915 393
11.50927 358
11.52938 349
11.54949 380
11.56961 383
11.58972 401
11.60983 351
11.62995 386
11.65006 403
11.67017 415
11.69029 427
11.7104 380
11.73052 388
11.75063 369
11.77074 349
11.79086 384
11.81097 366
11.83108 409
11.8512 394
11.87131 368
11.89143 449
11.91154 416
11.93165 437
11.95177 425
11.97188 416
11.99199 445
12.01211 415
12.03222 456
12.05234 465
12.07245 440
12.09256 461
12.11268 460
12.13279 439
12.1529 482
12.17302 479
12.19313 514
12.21324 494
12.23336 502
12.25347 525
12.27359 566
12.2937 531
12.31381 550
12.33393 528
12.35404 506
12.37415 521
12.39427 474
12.41438 473
12.4345 461
12.45461 471
12.47472 436
12.49484 488
12.51495 464
12.53506 405
12.55518 417
12.57529 420
12.5954 422
12.61552 392
12.63563 383
12.65575 425
12.67586 389
12.69597 375
12.71609 373
12.7362 406
12.75631 350
12.77643 350
12.79654 365
12.81666 347
12.83677 348
12.85688 361
12.877 359
12.89711 370
12.91722 338
12.93734 357
12.95745 355
12.97757 342
12.99768 346
13.01779 372
13.03791 362
13.05802 350
13.07813 378
13.09825 336
13.11836 358
13.13847 355
13.15859 364
13.1787 359
13.19882 343
13.21893 373
13.23904 379
13.25916 346
13.27927 325
13.29938 364
13.3195 318
13.33961 361
13.35973 356
13.37984 347
13.39995 316
13.42007 348
13.44018 320
13.46029 398
13.48041 359
13.50052 342
13.52064 296
13.54075 311
13.56086 363
13.58098 349
13.60109 359
13.6212 349
13.64132 342
13.66143 359
13.68154 338
13.70166 324
13.72177 325
13.74189 360
13.762 332
13.78211 384
13.80223 341
13.82234 349
13.84245 341
13.86257 310
13.88268 348
13.9028 351
13.92291 349
13.94302 346
13.96314 385
13.98325 321
14.00336 305
14.02348 317
14.04359 313
14.06371 356
14.08382 346
14.10393 360
14.12405 327
14.14416 360
14.16427 319
14.18439 334
14.2045 330
14.22461 342
14.24473 354
14.26484 315
14.28496 334
14.30507 340
14.32518 297
14.3453 342
14.36541 316
14.38552 358
14.40564 315
14.42575 328
14.44587 309
14.46598 360
14.48609 347
14.50621 331
14.52632 338
14.54643 307
14.56655 302
14.58666 341
14.60677 300
14.62689 347
14.647 317
14.66712 342
14.68723 329
14.70734 299
14.72746 323
14.74757 323
14.76768 307
14.7878 332
14.80791 328
14.82803 305
14.84814 359
14.86825 298
14.88837 294
14.90848 337
14.92859 363
14.94871 301
14.96882 326
14.98894 354
15.00905 319
15.02916 354
15.04928 337
15.06939 319
15.0895 303
15.10962 328
15.12973 263
15.14984 361
15.16996 350
15.19007 338
15.21019 343
15.2303 290
15.25041 287
15.27053 296
15.29064 307
15.31075 330
15.33087 319
15.35098 309
15.3711 319
15.39121 313
15.41132 350
15.43144 348
15.45155 313
15.47166 301
15.49178 314
15.51189 324
15.53201 312
15.55212 349
15.57223 333
15.59235 321
15.61246 339
15.63257 355
15.65269 341
15.6728 335
15.69291 307
15.71303 306
15.73314 314
15.75326 344
15.77337 353
15.79348 309
15.8136 325
15.83371 319
15.85382 376
15.87394 385
15.89405 350
15.91417 349
15.93428 388
15.95439 337
15.97451 315
15.99462 331
16.01473 309
16.03485 305
16.05496 322
16.07508 302
16.09519 327
16.1153 319
16.13542 346
16.15553 279
16.17564 314
16.19576 321
16.21587 312
16.23598 312
16.2561 325
16.27621 344
16.29633 323
16.31644 358
16.33655 315
16.35667 311
16.37678 310
16.39689 347
16.41701 324
16.43712 332
16.45724 330
16.47735 329
16.49746 332
16.51758 332
16.53769 331
16.5578 337
16.57792 314
16.59803 341
16.61814 336
16.63826 338
16.65837 294
16.67849 348
16.6986 305
16.71871 291
16.73883 305
16.75894 331
16.77905 335
16.79917 327
16.81928 322
16.8394 342
16.85951 317
16.87962 301
16.89974 328
16.91985 319
16.93996 317
16.96008 330
16.98019 339
17.00031 337
17.02042 327
17.04053 362
17.06065 357
17.08076 339
17.10087 325
17.12099 349
17.1411 354
17.16121 327
17.18133 315
17.20144 339
17.22156 379
17.24167 364
17.26178 313
17.2819 349
17.30201 339
17.32212 325
17.34224 333
17.36235 349
17.38247 338
17.40258 341
17.42269 342
17.44281 356
17.46292 336
17.48303 339
17.50315 343
17.52326 379
17.54338 344
17.56349 338
17.5836 375
17.60372 365
17.62383 338
17.64394 332
17.66406 371
17.68417 340
17.70428 397
17.7244 362
17.74451 365
17.76463 335
17.78474 393
17.80485 384
17.82497 345
17.84508 394
17.86519 364
17.88531 361
17.90542 354
17.92554 363
17.94565 363
17.96576 386
17.98588 371
18.00599 387
18.0261 353
18.04622 319
18.06633 352
18.08645 323
18.10656 372
18.12667 358
18.14679 378
18.1669 329
18.18701 378
18.20713 351
18.22724 337
18.24735 326
18.26747 329
18.28758 319
18.3077 339
18.32781 349
18.34792 363
18.36804 336
18.38815 389
18.40826 324
18.42838 325
18.44849 327
18.46861 343
18.48872 361
18.50883 331
18.52895 310
18.54906 349
18.56917 330
18.58929 356
18.6094 321
18.62951 368
18.64963 341
18.66974 341
18.68986 376
18.70997 344
18.73008 336
18.7502 339
18.77031 346
18.79042 356
18.81054 352
18.83065 322
18.85077 380
18.87088 374
18.89099 353
18.91111 341
18.93122 360
18.95133 359
18.97145 362
18.99156 339
19.01168 311
19.03179 359
19.0519 342
19.07202 371
19.09213 365
19.11224 301
19.13236 364
19.15247 368
19.17258 345
19.1927 358
19.21281 368
19.23293 350
19.25304 372
19.27315 361
19.29327 390
19.31338 375
19.33349 345
19.35361 357
19.37372 391
19.39384 408
19.41395 394
19.43406 440
19.45418 406
19.47429 385
19.4944 439
19.51452 414
19.53463 421
19.55475 454
19.57486 435
19.59497 487
19.61509 518
19.6352 560
19.65531 527
19.67543 598
19.69554 614
19.71565 717
19.73577 683
19.75588 797
19.776 839
19.79611 761
19.81622 787
19.83634 815
19.85645 832
19.87656 818
19.89668 800
19.91679 799
19.93691 755
19.95702 712
19.97713 658
19.99725 677
20.01736 642
20.03747 645
20.05759 601
20.0777 636
20.09782 587
20.11793 655
20.13804 624
20.15816 620
20.17827 633
20.19838 606
20.2185 601
20.23861 608
20.25872 590
20.27884 576
20.29895 632
20.31907 636
20.33918 665
20.35929 639
20.37941 645
20.39952 620
20.41963 644
20.43975 630
20.45986 653
20.47998 607
20.50009 664
20.5202 745
20.54032 748
20.56043 694
20.58054 766
20.60066 823
20.62077 838
20.64088 924
20.661 1098
20.68111 1329
20.70123 1530
20.72134 1966
20.74145 2367
20.76157 2944
20.78168 3622
20.80179 4191
20.82191 4486
20.84202 4353
20.86214 3999
20.88225 3297
20.90236 2608
20.92248 1832
20.94259 1399
20.9627 1104
20.98282 956
21.00293 753
21.02305 748
21.04316 749
21.06327 703
21.08339 631
21.1035 640
21.12361 636
21.14373 647
21.16384 643
21.18395 697
21.20407 562
21.22418 608
21.2443 593
21.26441 579
21.28452 543
21.30464 572
21.32475 605
21.34486 623
21.36498 597
21.38509 585
21.40521 614
21.42532 544
21.44543 560
21.46555 552
21.48566 587
21.50577 554
21.52589 596
21.546 614
21.56612 554
21.58623 613
21.60634 543
21.62646 555
21.64657 547
21.66668 529
21.6868 537
21.70691 525
21.72702 526
21.74714 495
21.76725 486
21.78737 497
21.80748 474
21.82759 453
21.84771 467
21.86782 506
21.88793 460
21.90805 505
21.92816 465
21.94828 461
21.96839 469
21.9885 445
22.00862 493
22.02873 489
22.04884 491
22.06896 529
22.08907 503
22.10919 543
22.1293 430
22.14941 476
22.16953 469
22.18964 506
22.20975 508
22.22987 532
22.24998 470
22.27009 478
22.29021 493
22.31032 509
22.33044 516
22.35055 473
22.37066 490
22.39078 429
22.41089 469
22.431 483
22.45112 482
22.47123 465
22.49135 447
22.51146 447
22.53157 457
22.55169 406
22.5718 445
22.59191 447
22.61203 432
22.63214 461
22.65225 494
22.67237 470
22.69248 477
22.7126 469
22.73271 478
22.75282 521
22.77294 475
22.79305 505
22.81316 460
22.83328 485
22.85339 505
22.87351 505
22.89362 482
22.91373 458
22.93385 482
22.95396 493
22.97407 474
22.99419 478
23.0143 553
23.03442 483
23.05453 501
23.07464 481
23.09476 438
23.11487 429
23.13498 447
23.1551 482
23.17521 465
23.19532 476
23.21544 451
23.23555 411
23.25567 432
23.27578 443
23.29589 458
23.31601 455
23.33612 429
23.35623 459
23.37635 447
23.39646 435
23.41658 467
23.43669 462
23.4568 407
23.47692 474
23.49703 453
23.51714 463
23.53726 417
23.55737 450
23.57749 451
23.5976 511
23.61771 505
23.63783 493
23.65794 496
23.67805 532
23.69817 489
23.71828 498
23.73839 492
23.75851 480
23.77862 550
23.79874 502
23.81885 499
23.83896 470
23.85908 504
23.87919 522
23.8993 522
23.91942 567
23.93953 508
23.95965 523
23.97976 487
23.99987 521
24.01999 520
24.0401 551
24.06021 589
24.08033 505
24.10044 466
24.12056 478
24.14067 456
24.16078 506
24.1809 475
24.20101 463
24.22112 442
24.24124 466
24.26135 467
24.28146 479
24.30158 483
24.32169 486
24.34181 493
24.36192 483
24.38203 433
24.40215 489
24.42226 446
24.44237 471
24.46249 486
24.4826 475
24.50272 452
24.52283 483
24.54294 513
24.56306 478
24.58317 473
24.60328 506
24.6234 464
24.64351 463
24.66362 525
24.68374 514
24.70385 534
24.72397 548
24.74408 578
24.76419 561
24.78431 572
24.80442 571
24.82453 498
24.84465 572
24.86476 565
24.88488 522
24.90499 589
24.9251 574
24.94522 592
24.96533 567
24.98544 480
25.00556 562
25.02567 516
25.04579 554
25.0659 530
25.08601 532
25.10613 558
25.12624 526
25.14635 525
25.16647 535
25.18658 574
25.20669 574
25.22681 576
25.24692 572
25.26704 588
25.28715 556
25.30726 565
25.32738 538
25.34749 535
25.3676 586
25.38772 582
25.40783 565
25.42795 595
25.44806 595
25.46817 584
25.48829 555
25.5084 594
25.52851 603
25.54863 610
25.56874 597
25.58886 539
25.60897 606
25.62908 591
25.6492 576
25.66931 611
25.68942 558
25.70954 569
25.72965 605
25.74976 637
25.76988 562
25.78999 565
25.81011 591
25.83022 605
25.85033 580
25.87045 571
25.89056 614
25.91067 634
25.93079 644
25.9509 651
25.97102 635
25.99113 682
26.01124 690
26.03136 732
26.05147 717
26.07158 748
26.0917 802
26.11181 765
26.13193 832
26.15204 826
26.17215 877
26.19227 935
26.21238 930
26.23249 1067
26.25261 1093
26.27272 1190
26.29283 1246
26.31295 1358
26.33306 1431
26.35318 1724
26.37329 1961
26.3934 2303
26.41352 2775
26.43363 3538
26.45374 4590
26.47386 5924
26.49397 7780
26.51409 9881
26.5342 12472
26.55431 15244
26.57443 17495
26.59454 18654
26.61465 18140
26.63477 16442
26.65488 13902
26.67499 10833
26.69511 8144
26.71522 5711
26.73534 3886
26.75545 2657
26.77556 1951
26.79568 1730
26.81579 1463
26.8359 1378
26.85602 1239
26.87613 1141
26.89625 1023
26.91636 1032
26.93647 893
26.95659 833
26.9767 759
26.99681 783
27.01693 754
27.03704 686
27.05716 703
27.07727 667
27.09738 666
27.1175 578
27.13761 592
27.15772 619
27.17784 572
27.19795 594
27.21806 570
27.23818 613
27.25829 599
27.27841 569
27.29852 564
27.31863 616
27.33875 630
27.35886 597
27.37897 631
27.39909 607
27.4192 629
27.43932 588
27.45943 639
27.47954 587
27.49966 609
27.51977 538
27.53988 502
27.56 518
27.58011 588
27.60023 503
27.62034 522
27.64045 487
27.66057 527
27.68068 543
27.70079 537
27.72091 526
27.74102 511
27.76113 510
27.78125 513
27.80136 482
27.82148 499
27.84159 516
27.8617 485
27.88182 554
27.90193 495
27.92204 506
27.94216 497
27.96227 472
27.98239 437
28.0025 451
28.02261 445
28.04273 444
28.06284 458
28.08295 391
28.10307 438
28.12318 461
28.1433 458
28.16341 437
28.18352 425
28.20364 439
28.22375 447
28.24386 427
28.26398 425
28.28409 397
28.3042 464
28.32432 414
28.34443 419
28.36455 429
28.38466 423
28.40477 442
28.42489 403
28.445 382
28.46511 382
28.48523 413
28.50534 433
28.52546 427
28.54557 448
28.56568 411
28.5858 391
28.60591 381
28.62602 435
28.64614 419
28.66625 411
28.68636 371
28.70648 442
28.72659 431
28.74671 402
28.76682 399
28.78693 405
28.80705 381
28.82716 411
28.84727 382
28.86739 401
28.8875 384
28.90762 414
28.92773 372
28.94784 378
28.96796 393
28.98807 379
29.00818 371
29.0283 411
29.04841 451
29.06853 375
29.08864 394
29.10875 373
29.12887 407
29.14898 354
29.16909 359
29.18921 355
29.20932 404
29.22943 399
29.24955 403
29.26966 390
29.28978 384
29.30989 413
29.33 428
29.35012 387
29.37023 369
29.39034 400
29.41046 369
29.43057 419
29.45069 410
29.4708 387
29.49091 394
29.51103 410
29.53114 405
29.55125 399
29.57137 391
29.59148 406
29.6116 390
29.63171 413
29.65182 434
29.67194 428
29.69205 417
29.71216 450
29.73228 432
29.75239 468
29.7725 442
29.79262 469
29.81273 455
29.83285 437
29.85296 445
29.87307 443
29.89319 426
29.9133 455
29.93341 444
29.95353 435
29.97364 405
29.99376 423
30.01387 383
30.03398 432
30.0541 451
30.07421 420
30.09432 395
30.11444 452
30.13455 433
30.15467 436
30.17478 451
30.19489 403
30.21501 414
30.23512 369
30.25523 405
30.27535 383
30.29546 364
30.31557 389
30.33569 355
30.3558 386
30.37592 410
30.39603 402
30.41614 382
30.43626 367
30.45637 382
30.47648 405
30.4966 359
30.51671 404
30.53683 362
30.55694 416
30.57705 372
30.59717 429
30.61728 361
30.63739 372
30.65751 379
30.67762 353
30.69773 388
30.71785 365
30.73796 381
30.75808 404
30.77819 366
30.7983 380
30.81842 370
30.83853 379
30.85864 348
30.87876 392
30.89887 379
30.91899 350
30.9391 376
30.95921 413
30.97933 366
30.99944 373
31.01955 394
31.03967 403
31.05978 362
31.0799 422
31.10001 431
31.12012 415
31.14024 376
31.16035 403
31.18046 400
31.20058 390
31.22069 424
31.2408 388
31.26092 374
31.28103 395
31.30115 385
31.32126 366
31.34137 380
31.36149 394
31.3816 373
31.40171 401
31.42183 401
31.44194 390
31.46206 382
31.48217 352
31.50228 347
31.5224 354
31.54251 356
31.56262 364
31.58274 380
31.60285 409
31.62297 374
31.64308 363
31.66319 361
31.68331 366
31.70342 389
31.72353 387
31.74365 363
31.76376 367
31.78387 346
31.80399 353
31.8241 392
31.84422 376
31.86433 372
31.88444 351
31.90456 380
31.92467 359
31.94478 406
31.9649 411
31.98501 398
32.00513 392
32.02524 376
32.04535 347
32.06547 381
32.08558 393
32.10569 368
32.12581 344
32.14592 372
32.16604 366
32.18615 392
32.20626 406
32.22638 373
32.24649 402
32.2666 366
32.28672 409
32.30683 351
32.32694 365
32.34706 370
32.36717 346
32.38729 343
32.4074 352
32.42751 366
32.44763 384
32.46774 395
32.48785 366
32.50797 355
32.52808 379
32.5482 345
32.56831 392
32.58842 377
32.60854 382
32.62865 374
32.64876 356
32.66888 348
32.68899 351
32.7091 343
32.72922 397
32.74933 373
32.76945 388
32.78956 364
32.80967 369
32.82979 384
32.8499 417
32.87001 435
32.89013 407
32.91024 435
32.93036 463
32.95047 454
32.97058 494
32.9907 498
33.01081 498
33.03092 490
33.05104 520
33.07115 549
33.09127 485
33.11138 538
33.13149 517
33.15161 504
33.17172 471
33.19183 435
33.21195 437
33.23206 409
33.25217 444
33.27229 376
33.2924 390
33.31252 424
33.33263 440
33.35274 385
33.37286 396
33.39297 419
33.41308 407
33.4332 391
33.45331 401
33.47343 376
33.49354 390
33.51365 388
33.53377 403
33.55388 380
33.57399 364
33.59411 362
33.61422 355
33.63434 415
33.65445 372
33.67456 355
33.69468 338
33.71479 357
33.7349 374
33.75502 399
33.77513 337
33.79524 360
33.81536 375
33.83547 380
33.85559 328
33.8757 355
33.89581 338
33.91593 350
33.93604 378
33.95615 350
33.97627 385
33.99638 346
34.0165 371
34.03661 382
34.05672 385
34.07684 381
34.09695 354
34.11706 369
34.13718 383
34.15729 378
34.17741 348
34.19752 358
34.21763 364
34.23775 416
34.25786 383
34.27797 393
34.29809 381
34.3182 378
34.33831 406
34.35843 403
34.37854 407
34.39866 416
34.41877 418
34.43888 421
34.459 434
34.47911 472
34.49922 477
34.51934 547
34.53945 464
34.55957 495
34.57968 508
34.59979 499
34.61991 489
34.64002 512
34.66013 523
34.68025 511
34.70036 581
34.72047 537
34.74059 599
34.7607 599
34.78082 628
34.80093 610
34.82104 636
34.84116 638
34.86127 675
34.88138 703
34.9015 717
34.92161 727
34.94173 695
34.96184 703
34.98195 672
35.00207 683
35.02218 672
35.04229 614
35.06241 634
35.08252 565
35.10264 575
35.12275 534
35.14286 497
35.16298 506
35.18309 493
35.2032 460
35.22332 481
35.24343 441
35.26354 498
35.28366 513
35.30377 456
35.32389 492
35.344 496
35.36411 531
35.38423 516
35.40434 518
35.42445 510
35.44457 549
35.46468 540
35.4848 564
35.50491 584
35.52502 582
35.54514 605
35.56525 595
35.58536 595
35.60548 540
35.62559 557
35.64571 552
35.66582 544
35.68593 517
35.70605 557
35.72616 537
35.74627 533
35.76639 534
35.7865 512
35.80661 507
35.82673 501
35.84684 534
35.86696 575
35.88707 532
35.90718 547
35.9273 493
35.94741 497
35.96752 497
35.98764 528
36.00775 493
36.02787 468
36.04798 462
36.06809 502
36.08821 474
36.10832 517
36.12843 509
36.14855 493
36.16866 526
36.18878 496
36.20889 517
36.229 517
36.24912 523
36.26923 583
36.28934 615
36.30946 670
36.32957 719
36.34968 828
36.3698 870
36.38991 995
36.41003 1169
36.43014 1262
36.45025 1371
36.47037 1512
36.49048 1576
36.51059 1555
36.53071 1452
36.55082 1333
36.57094 1149
36.59105 1076
36.61116 897
36.63128 815
36.65139 700
36.6715 658
36.69162 560
36.71173 506
36.73184 531
36.75196 485
36.77207 491
36.79219 451
36.8123 487
36.83241 484
36.85253 442
36.87264 423
36.89275 442
36.91287 456
36.93298 484
36.9531 434
36.97321 442
36.99332 460
37.01344 432
37.03355 447
37.05366 447
37.07378 450
37.09389 440
37.11401 402
37.13412 441
37.15423 409
37.17435 444
37.19446 404
37.21457 368
37.23469 420
37.2548 429
37.27491 426
37.29503 411
37.31514 425
37.33526 414
37.35537 393
37.37548 428
37.3956 418
37.41571 428
37.43582 441
37.45594 453
37.47605 429
37.49617 418
37.51628 438
37.53639 432
37.55651 428
37.57662 460
37.59673 386
37.61685 409
37.63696 474
37.65708 430
37.67719 472
37.6973 471
37.71742 437
37.73753 469
37.75764 469
37.77776 471
37.79787 459
37.81798 452
37.8381 469
37.85821 437
37.87833 413
37.89844 422
37.91855 400
37.93867 374
37.95878 425
37.97889 393
37.99901 428
38.01912 383
38.03924 409
38.05935 420
38.07946 443
38.09958 391
38.11969 412
38.1398 406
38.15992 418
38.18003 417
38.20015 470
38.22026 430
38.24037 434
38.26049 445
38.2806 418
38.30071 404
38.32083 447
38.34094 456
38.36105 418
38.38117 441
38.40128 432
38.4214 444
38.44151 449
38.46162 437
38.48174 455
38.50185 442
38.52196 396
38.54208 399
38.56219 369
38.58231 431
38.60242 420
38.62253 392
38.64265 408
38.66276 408
38.68287 384
38.70299 391
38.7231 405
38.74321 408
38.76333 362
38.78344 352
38.80356 372
38.82367 401
38.84378 411
38.8639 388
38.88401 393
38.90412 381
38.92424 391
38.94435 423
38.96447 390
38.98458 408
39.00469 423
39.02481 438
39.04492 467
39.06503 418
39.08515 394
39.10526 448
39.12538 434
39.14549 440
39.1656 497
39.18572 503
39.20583 537
39.22594 570
39.24606 559
39.26617 643
39.28628 768
39.3064 887
39.32651 922
39.34663 1140
39.36674 1263
39.38685 1373
39.40697 1436
39.42708 1380
39.44719 1273
39.46731 1271
39.48742 1020
39.50754 902
39.52765 851
39.54776 758
39.56788 669
39.58799 603
39.6081 512
39.62822 441
39.64833 414
39.66845 410
39.68856 416
39.70867 392
39.72879 385
39.7489 435
39.76901 427
39.78913 388
39.80924 405
39.82935 427
39.84947 399
39.86958 419
39.8897 399
39.90981 396
39.92992 427
39.95004 435
39.97015 422
39.99026 448
40.01038 430
40.03049 453
40.05061 474
40.07072 481
40.09083 590
40.11095 623
40.13106 637
40.15117 682
40.17129 705
40.1914 800
40.21152 889
40.23163 859
40.25174 856
40.27186 816
40.29197 785
40.31208 734
40.3322 686
40.35231 607
40.37242 544
40.39254 509
40.41265 477
40.43277 434
40.45288 439
40.47299 431
40.49311 446
40.51322 430
40.53333 422
40.55345 390
40.57356 368
40.59368 373
40.61379 423
40.6339 417
40.65402 394
40.67413 382
40.69424 387
40.71436 431
40.73447 397
40.75458 425
40.7747 411
40.79481 429
40.81493 367
40.83504 404
40.85515 441
40.87527 436
40.89538 444
40.91549 423
40.93561 392
40.95572 381
40.97584 422
40.99595 386
41.01606 403
41.03618 390
41.05629 392
41.0764 373
41.09652 392
41.11663 402
41.13675 381
41.15686 391
41.17697 393
41.19709 399
41.2172 388
41.23731 357
41.25743 386
41.27754 375
41.29765 383
41.31777 354
41.33788 354
41.358 356
41.37811 419
41.39822 387
41.41834 376
41.43845 388
41.45856 357
41.47868 348
41.49879 354
41.51891 338
41.53902 348
41.55913 366
41.57925 375
41.59936 358
41.61947 363
41.63959 395
41.6597 358
41.67982 376
41.69993 385
41.72004 394
41.74016 372
41.76027 381
41.78038 370
41.8005 346
41.82061 391
41.84072 395
41.86084 405
41.88095 375
41.90107 394
41.92118 383
41.94129 366
41.96141 393
41.98152 431
42.00163 357
42.02175 418
42.04186 389
42.06198 422
42.08209 389
42.1022 405
42.12232 434
42.14243 466
42.16254 437
42.18266 475
42.20277 534
42.22289 534
42.243 622
42.26311 630
42.28323 708
42.30334 780
42.32345 932
42.34357 1006
42.36368 1023
42.38379 1131
42.40391 1128
42.42402 1045
42.44414 962
42.46425 923
42.48436 813
42.50448 771
42.52459 667
42.5447 569
42.56482 496
42.58493 451
42.60505 438
42.62516 413
42.64527 372
42.66539 354
42.6855 368
42.70561 361
42.72573 387
42.74584 354
42.76595 362
42.78607 365
42.80618 340
42.8263 321
42.84641 319
42.86652 314
42.88664 344
42.90675 326
42.92686 359
42.94698 302
42.96709 325
42.98721 324
43.00732 323
43.02743 330
43.04755 333
43.06766 283
43.08777 345
43.10789 331
43.128 315
43.14812 318
43.16823 300
43.18834 350
43.20846 360
43.22857 323
43.24868 339
43.2688 318
43.28891 314
43.30902 307
43.32914 340
43.34925 337
43.36937 330
43.38948 314
43.40959 300
43.42971 319
43.44982 302
43.46993 325
43.49005 342
43.51016 369
43.53028 314
43.55039 304
43.5705 353
43.59062 296
43.61073 314
43.63084 329
43.65096 332
43.67107 332
43.69119 297
43.7113 339
43.73141 306
43.75153 345
43.77164 330
43.79175 364
43.81187 312
43.83198 327
43.85209 314
43.87221 367
43.89232 338
43.91244 317
43.93255 320
43.95266 286
43.97278 325
43.99289 308
44.013 311
44.03312 345
44.05323 370
44.07335 349
44.09346 320
44.11357 342
44.13369 350
44.1538 320
44.17391 311
44.19403 337
44.21414 308
44.23426 355
44.25437 322
44.27448 316
44.2946 344
44.31471 327
44.33482 323
44.35494 342
44.37505 312
44.39516 331
44.41528 350
44.43539 320
44.45551 312
44.47562 313
44.49573 310
44.51585 309
44.53596 306
44.55607 309
44.57619 340
44.5963 324
44.61642 316
44.63653 287
44.65664 339
44.67676 338
44.69687 343
44.71698 337
44.7371 327
44.75721 336
44.77732 326
44.79744 326
44.81755 326
44.83767 316
44.85778 313
44.87789 305
44.89801 353
44.91812 310
44.93823 299
44.95835 339
44.97846 316
44.99858 340
45.01869 311
45.0388 357
45.05892 343
45.07903 359
45.09914 346
45.11926 323
45.13937 332
45.15949 354
45.1796 324
45.19971 334
45.21983 359
45.23994 333
45.26005 382
45.28017 397
45.30028 369
45.32039 378
45.34051 389
45.36062 415
45.38074 369
45.40085 387
45.42096 403
45.44108 455
45.46119 424
45.4813 428
45.50142 429
45.52153 453
45.54165 478
45.56176 490
45.58187 507
45.60199 610
45.6221 586
45.64221 603
45.66233 624
45.68244 704
45.70256 781
45.72267 828
45.74278 748
45.7629 706
45.78301 726
45.80312 673
45.82324 622
45.84335 541
45.86346 534
45.88358 508
45.90369 472
45.92381 429
45.94392 421
45.96403 403
45.98415 391
46.00426 358
46.02437 365
46.04449 378
46.0646 361
46.08472 359
46.10483 346
46.12494 375
46.14506 346
46.16517 361
46.18528 348
46.2054 317
46.22551 329
46.24563 316
46.26574 296
46.28585 319
46.30597 312
46.32608 354
46.34619 323
46.36631 315
46.38642 335
46.40653 332
46.42665 337
46.44676 348
46.46688 329
46.48699 331
46.5071 322
46.52722 345
46.54733 298
46.56744 316
46.58756 346
46.60767 290
46.62779 357
46.6479 305
46.66801 325
46.68813 343
46.70824 347
46.72835 307
46.74847 337
46.76858 306
46.78869 317
46.80881 321
46.82892 307
46.84904 333
46.86915 306
46.88926 329
46.90938 317
46.92949 316
46.9496 340
46.96972 315
46.98983 307
47.00995 337
47.03006 284
47.05017 297
47.07029 351
47.0904 299
47.11051 303
47.13063 307
47.15074 326
47.17086 308
47.19097 298
47.21108 289
47.2312 330
47.25131 319
47.27142 301
47.29154 313
47.31165 319
47.33176 322
47.35188 358
47.37199 315
47.39211 296
47.41222 359
47.43233 329
47.45245 323
47.47256 334
47.49267 338
47.51279 332
47.5329 343
47.55302 335
47.57313 334
47.59324 309
47.61336 319
47.63347 322
47.65358 317
47.6737 294
47.69381 331
47.71393 292
47.73404 329
47.75415 326
47.77427 306
47.79438 313
47.81449 297
47.83461 309
47.85472 327
47.87483 324
47.89495 356
47.91506 318
47.93518 308
47.95529 332
47.9754 345
47.99552 337
48.01563 330
48.03574 332
48.05586 354
48.07597 306
48.09609 331
48.1162 331
48.13631 322
48.15643 310
48.17654 328
48.19665 309
48.21677 323
48.23688 320
48.257 308
48.27711 302
48.29722 342
48.31734 356
48.33745 322
48.35756 341
48.37768 322
48.39779 306
48.4179 330
48.43802 319
48.45813 332
48.47825 322
48.49836 322
48.51847 348
48.53859 308
48.5587 305
48.57881 327
48.59893 355
48.61904 294
48.63916 330
48.65927 331
48.67938 342
48.6995 301
48.71961 362
48.73972 353
48.75984 296
48.77995 327
48.80006 362
48.82018 338
48.84029 310
48.86041 303
48.88052 328
48.90063 322
48.92075 322
48.94086 348
48.96097 322
48.98109 347
49.0012 316
49.02132 339
49.04143 352
49.06154 371
49.08166 352
49.10177 326
49.12188 374
49.142 347
49.16211 377
49.18223 371
49.20234 327
49.22245 352
49.24257 353
49.26268 364
49.28279 376
49.30291 356
49.32302 369
49.34313 373
49.36325 340
49.38336 352
49.40348 402
49.42359 378
49.4437 407
49.46382 386
49.48393 392
49.50404 369
49.52416 336
49.54427 392
49.56439 368
49.5845 376
49.60461 359
49.62473 380
49.64484 397
49.66495 390
49.68507 388
49.70518 410
49.7253 396
49.74541 462
49.76552 499
49.78564 498
49.80575 495
49.82586 568
49.84598 568
49.86609 677
49.8862 718
49.90632 802
49.92643 903
49.94655 1041
49.96666 1187
49.98677 1346
50.00689 1554
50.027 1699
50.04711 1910
50.06723 1969
50.08734 1939
50.10746 1809
50.12757 1642
50.14768 1541
50.1678 1333
50.18791 1179
50.20802 1193
50.22814 1066
50.24825 879
50.26837 793
50.28848 667
50.30859 526
50.32871 473
50.34882 450
50.36893 453
50.38905 390
50.40916 392
50.42927 377
50.44939 374
50.4695 412
50.48962 386
50.50973 352
50.52984 372
50.54996 404
50.57007 349
50.59018 366
50.6103 339
50.63041 391
50.65053 353
50.67064 356
50.69075 340
50.71087 374
50.73098 336
50.75109 350
50.77121 305
50.79132 333
50.81143 342
50.83155 331
50.85166 309
50.87178 326
50.89189 293
50.912 280
50.93212 303
50.95223 347
50.97234 317
50.99246 317
51.01257 316
51.03269 314
51.0528 291
51.07291 314
51.09303 328
51.11314 291
51.13325 319
51.15337 320
51.17348 325
51.1936 305
51.21371 319
51.23382 289
51.25394 298
51.27405 300
51.29416 301
51.31428 331
51.33439 292
51.3545 301
51.37462 288
51.39473 297
51.41485 285
51.43496 296
51.45507 288
51.47519 293
51.4953 295
51.51541 283
51.53553 322
51.55564 295
51.57576 288
51.59587 315
51.61598 295
51.6361 279
51.65621 289
51.67632 296
51.69644 273
51.71655 297
51.73667 259
51.75678 284
51.77689 301
51.79701 312
51.81712 265
51.83723 273
51.85735 278
51.87746 311
51.89757 308
51.91769 304
51.9378 296
51.95792 288
51.97803 276
51.99814 316
52.01826 302
52.03837 306
52.05848 270
52.0786 304
52.09871 303
52.11883 293
52.13894 313
52.15905 276
52.17917 315
52.19928 302
52.21939 295
52.23951 293
52.25962 326
52.27974 307
52.29985 311
52.31996 353
52.34008 329
52.36019 306
52.3803 291
52.40042 311
52.42053 311
52.44064 287
52.46076 306
52.48087 271
52.50099 305
52.5211 295
52.54121 277
52.56133 283
52.58144 271
52.60155 321
52.62167 330
52.64178 317
52.6619 305
52.68201 262
52.70212 302
52.72224 306
52.74235 338
52.76246 299
52.78258 299
52.80269 329
52.8228 293
52.84292 342
52.86303 310
52.88315 349
52.90326 338
52.92337 330
52.94349 326
52.9636 308
52.98371 305
53.00383 329
53.02394 345
53.04406 327
53.06417 304
53.08428 303
53.1044 294
53.12451 346
53.14462 308
53.16474 343
53.18485 336
53.20497 304
53.22508 362
53.24519 334
53.26531 345
53.28542 326
53.30553 308
53.32565 338
53.34576 356
53.36587 342
53.38599 360
53.4061 326
53.42622 337
53.44633 305
53.46644 364
53.48656 378
53.50667 344
53.52678 354
53.5469 353
53.56701 342
53.58713 366
53.60724 357
53.62735 391
53.64747 361
53.66758 359
53.68769 369
53.70781 380
53.72792 391
53.74804 387
53.76815 395
53.78826 384
53.80838 412
53.82849 385
53.8486 420
53.86872 406
53.88883 452
53.90894 427
53.92906 431
53.94917 417
53.96929 437
53.9894 444
54.00951 441
54.02963 418
54.04974 431
54.06985 421
54.08997 402
54.11008 404
54.1302 438
54.15031 393
54.17042 386
54.19054 405
54.21065 366
54.23076 445
54.25088 412
54.27099 419
54.29111 371
54.31122 376
54.33133 383
54.35145 361
54.37156 406
54.39167 393
54.41179 428
54.4319 433
54.45201 398
54.47213 408
54.49224 364
54.51236 398
54.53247 447
54.55258 445
54.5727 469
54.59281 436
54.61292 508
54.63304 514
54.65315 500
54.67327 555
54.69338 591
54.71349 670
54.73361 747
54.75372 763
54.77383 781
54.79395 881
54.81406 826
54.83417 792
54.85429 712
54.8744 697
54.89452 641
54.91463 636
54.93474 634
54.95486 612
54.97497 572
54.99508 568
55.0152 520
55.03531 469
55.05543 460
55.07554 459
55.09565 502
55.11577 469
55.13588 446
55.15599 481
55.17611 535
55.19622 567
55.21634 568
55.23645 566
55.25656 569
55.27668 571
55.29679 575
55.3169 596
55.33702 530
55.35713 503
55.37724 489
55.39736 463
55.41747 466
55.43759 469
55.4577 417
55.47781 426
55.49793 404
55.51804 388
55.53815 379
55.55827 359
55.57838 354
55.5985 372
55.61861 352
55.63872 353
55.65884 374
55.67895 389
55.69906 360
55.71918 382
55.73929 355
55.75941 403
55.77952 355
55.79963 345
55.81975 344
55.83986 340
55.85997 345
55.88009 372
55.9002 345
55.92031 368
55.94043 357
55.96054 345
55.98066 365
56.00077 326
56.02088 360
56.041 354
56.06111 315
56.08122 359
56.10134 344
56.12145 317
56.14157 322
56.16168 333
56.18179 315
56.20191 330
56.22202 326
56.24213 324
56.26225 349
56.28236 360
56.30248 346
56.32259 313
56.3427 321
56.36282 343
56.38293 346
56.40304 336
56.42316 324
56.44327 372
56.46338 335
56.4835 329
56.50361 288
56.52373 302
56.54384 347
56.56395 347
56.58407 320
56.60418 311
56.62429 341
56.64441 325
56.66452 359
56.68464 295
56.70475 327
56.72486 298
56.74498 310
56.76509 302
56.7852 322
56.80532 332
56.82543 324
56.84554 325
56.86566 329
56.88577 320
56.90589 330
56.926 329
56.94611 346
56.96623 301
56.98634 308
57.00645 332
57.02657 336
57.04668 308
57.0668 324
57.08691 359
57.10702 347
57.12714 355
57.14725 325
57.16736 330
57.18748 336
57.20759 342
57.22771 324
57.24782 325
57.26793 328
57.28805 337
57.30816 326
57.32827 340
57.34839 337
57.3685 330
57.38861 322
57.40873 322
57.42884 326
57.44896 318
57.46907 317
57.48918 325
57.5093 312
57.52941 326
57.54952 313
57.56964 315
57.58975 317
57.60987 338
57.62998 351
57.65009 324
57.67021 336
57.69032 310
57.71043 326
57.73055 317
57.75066 279
57.77078 312
57.79089 302
57.811 297
57.83112 304
57.85123 297
57.87134 323
57.89146 341
57.91157 302
57.93168 350
57.9518 323
57.97191 335
57.99203 302
58.01214 311
58.03225 291
58.05237 307
58.07248 302
58.09259 313
58.11271 304
58.13282 282
58.15294 286
58.17305 300
58.19316 330
58.21328 331
58.23339 318
58.2535 287
58.27362 299
58.29373 309
58.31385 308
58.33396 293
58.35407 287
58.37419 287
58.3943 297
58.41441 324
58.43453 294
58.45464 322
58.47475 318
58.49487 298
58.51498 314
58.5351 290
58.55521 298
58.57532 310
58.59544 287
58.61555 313
58.63566 327
58.65578 313
58.67589 331
58.69601 285
58.71612 304
58.73623 284
58.75635 317
58.77646 301
58.79657 278
58.81669 298
58.8368 315
58.85691 299
58.87703 292
58.89714 316
58.91726 316
58.93737 315
58.95748 322
58.9776 305
58.99771 297
59.01782 307
59.03794 312
59.05805 336
59.07817 326
59.09828 347
59.11839 319
59.13851 306
59.15862 303
59.17873 319
59.19885 329
59.21896 324
59.23908 328
59.25919 350
59.2793 335
59.29942 355
59.31953 332
59.33964 306
59.35976 324
59.37987 347
59.39998 334
59.4201 369
59.44021 363
59.46033 371
59.48044 364
59.50055 385
59.52067 356
59.54078 381
59.56089 416
59.58101 424
59.60112 435
59.62124 455
59.64135 490
59.66146 479
59.68158 543
59.70169 575
59.7218 627
59.74192 720
59.76203 821
59.78215 958
59.80226 1030
59.82237 1131
59.84249 1242
59.8626 1261
59.88271 1313
59.90283 1275
59.92294 1189
59.94305 1146
59.96317 1024
59.98328 940
60.0034 884
60.02351 851
60.04362 798
60.06374 786
60.08385 731
60.10396 624
60.12408 578
60.14419 491
60.16431 423
60.18442 421
60.20453 366
60.22465 342
60.24476 395
60.26487 368
60.28499 348
60.3051 365
60.32522 326
60.34533 327
60.36544 332
60.38556 329
60.40567 309
60.42578 310
60.4459 342
60.46601 313
60.48612 303
60.50624 323
60.52635 306
60.54647 321
60.56658 333
60.58669 320
60.60681 314
60.62692 313
60.64703 350
60.66715 305
60.68726 320
60.70738 324
60.72749 309
60.7476 328
60.76772 335
60.78783 310
60.80794 311
60.82806 270
60.84817 297
60.86828 333
60.8884 305
60.90851 298
60.92863 283
60.94874 302
60.96885 307
60.98897 317
61.00908 301
61.02919 314
61.04931 316
61.06942 306
61.08954 298
61.10965 301
61.12976 301
61.14988 286
61.16999 321
61.1901 320
61.21022 332
61.23033 323
61.25045 276
61.27056 331
61.29067 270
61.31079 337
61.3309 304
61.35101 319
61.37113 343
61.39124 327
61.41135 328
61.43147 330
61.45158 337
61.4717 356
61.49181 347
61.51192 331
61.53204 375
61.55215 360
61.57226 383
61.59238 376
61.61249 381
61.63261 418
61.65272 396
61.67283 390
61.69295 411
61.71306 422
61.73317 370
61.75329 404
61.7734 409
61.79352 415
61.81363 417
61.83374 373
61.85386 403
61.87397 375
61.89408 378
61.9142 360
61.93431 365
61.95442 415
61.97454 388
61.99465 383
62.01477 391
62.03488 390
62.05499 374
62.07511 375
62.09522 390
62.11533 376
62.13545 365
62.15556 383
62.17568 413
62.19579 422
62.2159 413
62.23602 390
62.25613 430
62.27624 343
62.29636 391
62.31647 389
62.33659 362
62.3567 380
62.37681 408
62.39693 368
62.41704 335
62.43715 390
62.45727 367
62.47738 385
62.49749 359
62.51761 362
62.53772 348
62.55784 361
62.57795 310
62.59806 340
62.61818 329
62.63829 383
62.6584 343
62.67852 336
62.69863 296
62.71875 312
62.73886 344
62.75897 305
62.77909 318
62.7992 281
62.81931 320
62.83943 323
62.85954 305
62.87965 321
62.89977 308
62.91988 340
62.94 333
62.96011 327
62.98022 311
63.00034 302
63.02045 300
63.04056 336
63.06068 315
63.08079 309
63.10091 294
63.12102 274
63.14113 292
63.16125 288
63.18136 295
63.20147 307
63.22159 325
63.2417 284
63.26182 307
63.28193 304
63.30204 278
63.32216 337
63.34227 299
63.36238 315
63.3825 311
63.40261 317
63.42272 318
63.44284 329
63.46295 331
63.48307 311
63.50318 347
63.52329 311
63.54341 309
63.56352 311
63.58363 305
63.60375 309
63.62386 293
63.64398 326
63.66409 322
63.6842 322
63.70432 345
63.72443 365
63.74454 332
63.76466 327
63.78477 384
63.80489 370
63.825 408
63.84511 405
63.86523 440
63.88534 477
63.90545 457
63.92557 505
63.94568 484
63.96579 510
63.98591 539
64.00602 474
64.02614 482
64.04625 437
64.06636 406
64.08648 413
64.10659 428
64.1267 420
64.14682 410
64.16693 348
64.18705 381
64.20716 385
64.22727 351
64.24739 306
64.2675 297
64.28761 292
64.30773 303
64.32784 298
64.34796 288
64.36807 315
64.38818 308
64.4083 295
64.42841 298
64.44852 308
64.46864 288
64.48875 305
64.50886 314
64.52898 313
64.54909 289
64.56921 286
64.58932 269
64.60943 317
64.62955 306
64.64966 275
64.66977 294
64.68989 282
64.71 321
64.73012 295
64.75023 287
64.77034 298
64.79046 296
64.81057 296
64.83068 291
64.8508 287
64.87091 289
64.89102 286
64.91114 284
64.93125 292
64.95137 273
64.97148 302
64.99159 285
65.01171 298
65.03182 306
65.05193 287
65.07205 268
65.09216 272
65.11228 271
65.13239 287
65.1525 291
65.17262 278
65.19273 252
65.21284 274
65.23296 259
65.25307 289
65.27319 303
65.2933 309
65.31341 293
65.33353 226
65.35364 270
65.37375 274
65.39387 282
65.41398 269
65.43409 289
65.45421 291
65.47432 306
65.49444 320
65.51455 287
65.53466 288
65.55478 308
65.57489 318
65.595 298
65.61512 320
65.63523 340
65.65535 280
65.67546 330
65.69557 320
65.71569 314
65.7358 352
65.75591 307
65.77603 291
65.79614 326
65.81626 295
65.83637 308
65.85648 319
65.8766 311
65.89671 283
65.91682 309
65.93694 295
65.95705 282
65.97716 292
65.99728 324
66.01739 275
66.03751 292
66.05762 309
66.07773 288
66.09785 279
66.11796 284
66.13807 264
66.15819 291
66.1783 272
66.19842 275
66.21853 286
66.23864 295
66.25876 312
66.27887 296
66.29898 267
66.3191 281
66.33921 298
66.35933 279
66.37944 273
66.39955 310
66.41967 289
66.43978 279
66.45989 292
66.48001 260
66.50012 268
66.52023 274
66.54035 254
66.56046 293
66.58058 273
66.60069 277
66.6208 294
66.64092 280
66.66103 286
66.68114 295
66.70126 279
66.72137 299
66.74149 255
66.7616 289
66.78171 260
66.80183 261
66.82194 258
66.84205 284
66.86217 285
66.88228 281
66.90239 271
66.92251 286
66.94262 319
66.96274 308
66.98285 260
67.00296 260
67.02308 253
67.04319 290
67.0633 296
67.08342 330
67.10353 310
67.12365 330
67.14376 289
67.16387 301
67.18399 305
67.2041 304
67.22421 314
67.24433 298
67.26444 303
67.28456 325
67.30467 331
67.32478 356
67.3449 372
67.36501 353
67.38512 409
67.40524 327
67.42535 383
67.44546 387
67.46558 444
67.48569 485
67.50581 516
67.52592 523
67.54603 595
67.56615 668
67.58626 676
67.60637 753
67.62649 820
67.6466 813
67.66672 839
67.68683 833
67.70694 832
67.72706 775
67.74717 732
67.76728 723
67.7874 676
67.80751 682
67.82763 715
67.84774 716
67.86785 724
67.88797 780
67.90808 827
67.92819 762
67.94831 845
67.96842 861
67.98853 936
68.00865 953
68.02876 969
68.04888 1083
68.06899 1118
68.0891 1047
68.10922 1083
68.12933 1065
68.14944 959
68.16956 997
68.18967 1016
68.20979 1010
68.2299 1055
68.25001 1029
68.27013 985
68.29024 850
68.31035 857
68.33047 681
68.35058 675
68.3707 611
68.39081 641
68.41092 522
68.43104 508
68.45115 527
68.47126 488
68.49138 432
68.51149 410
68.5316 377
68.55172 378
68.57183 323
68.59195 324
68.61206 327
68.63217 310
68.65229 322
68.6724 300
68.69251 295
68.71263 312
68.73274 316
68.75286 295
68.77297 294
68.79308 280
68.8132 311
68.83331 294
68.85342 327
68.87354 314
68.89365 293
68.91376 312
68.93388 299
68.95399 329
68.97411 281
68.99422 269
69.01433 319
69.03445 294
69.05456 301
69.07467 303
69.09479 297
69.1149 296
69.13502 269
69.15513 292
69.17524 286
69.19536 283
69.21547 271
69.23558 296
69.2557 300
69.27581 287
69.29593 288
69.31604 275
69.33615 315
69.35627 300
69.37638 250
69.39649 328
69.41661 277
69.43672 280
69.45683 263
69.47695 297
69.49706 296
69.51718 305
69.53729 255
69.5574 282
69.57752 297
69.59763 274
69.61774 276
69.63786 304
69.65797 326
69.67809 244
69.6982 258
69.71831 287
69.73843 289
69.75854 282
69.77865 273
69.79877 262
69.81888 278
69.839 260
69.85911 292
69.87922 306
69.89934 295
69.91945 267
69.93956 263
69.95968 260
69.97979 256
69.9999 286
70.02002 288
70.04013 295
70.06025 303
70.08036 270
70.10047 285
70.12059 268
70.1407 274
70.16081 292
70.18093 263
70.20104 282
70.22116 275
70.24127 303
70.26138 290
70.2815 285
70.30161 257
70.32172 285
70.34184 269
70.36195 265
70.38207 294
70.40218 270
70.42229 303
70.44241 247
70.46252 279
70.48263 268
70.50275 281
70.52286 240
70.54297 262
70.56309 269
70.5832 269
70.60332 273
70.62343 286
70.64354 246
70.66366 230
70.68377 261
70.70388 273
70.724 278
70.74411 262
70.76423 249
70.78434 254
70.80445 256
70.82457 273
70.84468 264
70.86479 271
70.88491 256
70.90502 272
70.92513 247
70.94525 254
70.96536 280
70.98548 274
71.00559 283
71.0257 269
71.04582 272
71.06593 276
71.08604 262
71.10616 242
71.12627 268
71.14639 240
71.1665 272
71.18661 266
71.20673 266
71.22684 275
71.24695 273
71.26707 267
71.28718 264
71.3073 258
71.32741 267
71.34752 299
71.36764 272
71.38775 230
71.40786 292
71.42798 251
71.44809 231
71.4682 256
71.48832 237
71.50843 256
71.52855 254
71.54866 272
71.56877 279
71.58889 265
71.609 254
71.62911 251
71.64923 283
71.66934 322
71.68946 263
71.70957 293
71.72968 272
71.7498 252
71.76991 243
71.79002 245
71.81014 298
71.83025 275
71.85037 305
71.87048 253
71.89059 278
71.91071 261
71.93082 281
71.95093 272
71.97105 271
71.99116 271
72.01127 275
72.03139 271
72.0515 250
72.07162 260
72.09173 290
72.11184 267
72.13196 263
72.15207 257
72.17218 262
72.1923 274
72.21241 246
72.23253 265
72.25264 270
72.27275 293
72.29287 276
72.31298 255
72.33309 275
72.35321 303
72.37332 257
72.39344 246
72.41355 261
72.43366 274
72.45378 284
72.47389 296
72.494 290
72.51412 271
72.53423 283
72.55434 263
72.57446 248
72.59457 293
72.61469 270
72.6348 259
72.65491 290
72.67503 294
72.69514 248
72.71525 293
72.73537 277
72.75548 271
72.7756 274
72.79571 294
72.81582 300
72.83594 290
72.85605 295
72.87616 288
72.89628 260
72.91639 264
72.9365 280
72.95662 272
72.97673 269
72.99685 336
73.01696 290
73.03707 279
73.05719 288
73.0773 287
73.09741 292
73.11753 294
73.13764 300
73.15776 311
73.17787 311
73.19798 318
73.2181 339
73.23821 369
73.25832 378
73.27844 392
73.29855 385
73.31867 412
73.33878 424
73.35889 497
73.37901 457
73.39912 452
73.41923 468
73.43935 430
73.45946 448
73.47957 351
73.49969 365
73.5198 347
73.53992 394
73.56003 364
73.58014 363
73.60026 375
73.62037 360
73.64048 333
73.6606 336
73.68071 335
73.70083 293
73.72094 279
73.74105 277
73.76117 291
73.78128 301
73.80139 269
73.82151 266
73.84162 251
73.86174 260
73.88185 270
73.90196 292
73.92208 295
73.94219 265
73.9623 273
73.98242 248
74.00253 249
74.02264 273
74.04276 293
74.06287 266
74.08299 255
74.1031 246
74.12321 257
74.14333 248
74.16344 269
74.18355 243
74.20367 253
74.22378 280
74.2439 278
74.26401 256
74.28412 245
74.30424 280
74.32435 254
74.34446 260
74.36458 257
74.38469 260
74.40481 267
74.42492 279
74.44503 270
74.46515 249
74.48526 263
74.50537 264
74.52549 256
74.5456 277
74.56571 263
74.58583 261
74.60594 242
74.62606 276
74.64617 260
74.66628 261
74.6864 270
74.70651 259
74.72662 247
74.74674 261
74.76685 265
74.78697 259
74.80708 244
74.82719 254
74.84731 265
74.86742 267
74.88753 272
74.90765 278
74.92776 279
74.94787 271
74.96799 260
74.9881 242
75.00822 279
