3.00117 21042
3.02128 19830
3.0414 19748
3.06151 19176
3.08162 18774
3.10174 18463
3.12185 17979
3.14197 17294
3.16208 16615
3.18219 16387
3.20231 15581
3.22242 15186
3.24253 15029
3.26265 14443
3.28276 14197
3.30288 13613
3.32299 13124
3.3431 12764
3.36322 12176
3.38333 12180
3.40344 11591
3.42356 11083
3.44367 11096
3.46379 10496
3.4839 10244
3.50401 9723
3.52413 9450
3.54424 9288
3.56435 8783
3.58447 8749
3.60458 8317
3.62469 7876
3.64481 7960
3.66492 7436
3.68504 7371
3.70515 6891
3.72526 6555
3.74538 6484
3.76549 6147
3.7856 5912
3.80572 5727
3.82583 5385
3.84595 5419
3.86606 5037
3.88617 5112
3.90629 4702
3.9264 4480
3.94651 4336
3.96663 4242
3.98674 4074
4.00686 3765
4.02697 3588
4.04708 3643
4.0672 3488
4.08731 3322
4.10742 3069
4.12754 2996
4.14765 2984
4.16776 2722
4.18788 2568
4.20799 2628
4.22811 2488
4.24822 2442
4.26833 2354
4.28845 2282
4.30856 2204
4.32867 2042
4.34879 2090
4.3689 2198
4.38902 2090
4.40913 1965
4.42924 1902
4.44936 1897
4.46947 1869
4.48958 1793
4.5097 1726
4.52981 1646
4.54992 1648
4.57004 1695
4.59015 1601
4.61027 1521
4.63038 1525
4.65049 1636
4.67061 1551
4.69072 1430
4.71083 1522
4.73095 1288
4.75106 1337
4.77118 1349
4.79129 1273
4.8114 1364
4.83152 1245
4.85163 1243
4.87174 1277
4.89186 1263
4.91197 1226
4.93209 1132
4.9522 1168
4.97231 1184
4.99243 1099
5.01254 1110
5.03265 1017
5.05277 1030
5.07288 1140
5.09299 966
5.11311 1034
5.13322 984
5.15334 1022
5.17345 998
5.19356 939
5.21368 943
5.23379 904
5.2539 866
5.27402 908
5.29413 851
5.31425 814
5.33436 905
5.35447 854
5.37459 874
5.3947 766
5.41481 810
5.43493 824
5.45504 826
5.47516 840
5.49527 757
5.51538 798
5.5355 734
5.55561 809
5.57572 775
5.59584 666
5.61595 737
5.63606 754
5.65618 724
5.67629 754
5.69641 650
5.71652 736
5.73663 669
5.75675 740
5.77686 671
5.79697 672
5.81709 666
5.8372 693
5.85732 671
5.87743 713
5.89754 702
5.91766 666
5.93777 684
5.95788 628
5.978 666
5.99811 672
6.01823 667
6.03834 639
6.05845 645
6.07857 652
6.09868 645
6.11879 654
6.13891 648
6.15902 632
6.17913 653
6.19925 672
6.21936 649
6.23948 689
6.25959 677
6.2797 666
6.29982 610
6.31993 618
6.34004 650
6.36016 611
6.38027 616
6.40039 581
6.4205 629
6.44061 599
6.46073 613
6.48084 599
6.50095 622
6.52107 562
6.54118 616
6.56129 634
6.58141 620
6.60152 532
6.62164 602
6.64175 612
6.66186 570
6.68198 568
6.70209 557
6.7222 545
6.74232 555
6.76243 583
6.78255 599
6.80266 598
6.82277 616
6.84289 596
6.863 606
6.88311 571
6.90323 607
6.92334 583
6.94346 585
6.96357 579
6.98368 618
7.0038 576
7.02391 574
7.04402 602
7.06414 628
7.08425 584
7.10436 570
7.12448 570
7.14459 571
7.16471 541
7.18482 617
7.20493 640
7.22505 627
7.24516 596
7.26527 654
7.28539 568
7.3055 666
7.32562 635
7.34573 590
7.36584 595
7.38596 674
7.40607 653
7.42618 580
7.4463 624
7.46641 571
7.48653 630
7.50664 584
7.52675 610
7.54687 601
7.56698 593
7.58709 615
7.60721 605
7.62732 582
7.64743 564
7.66755 606
7.68766 565
7.70778 545
7.72789 632
7.748 562
7.76812 580
7.78823 605
7.80834 615
7.82846 579
7.84857 595
7.86869 573
7.8888 580
7.90891 540
7.92903 626
7.94914 580
7.96925 580
7.98937 581
8.00948 567
8.0296 582
8.04971 551
8.06982 604
8.08994 569
8.11005 557
8.13016 609
8.15028 623
8.17039 580
8.1905 573
8.21062 561
8.23073 603
8.25085 586
8.27096 603
8.29107 617
8.31119 630
8.3313 606
8.35141 556
8.37153 572
8.39164 568
8.41176 570
8.43187 584
8.45198 590
8.4721 585
8.49221 598
8.51232 547
8.53244 605
8.55255 564
8.57266 590
8.59278 574
8.61289 595
8.63301 597
8.65312 598
8.67323 608
8.69335 605
8.71346 628
8.73357 631
8.75369 644
8.7738 613
8.79392 685
8.81403 675
8.83414 621
8.85426 641
8.87437 631
8.89448 534
8.9146 575
8.93471 558
8.95483 562
8.97494 552
8.99505 564
9.01517 547
9.03528 533
9.05539 524
9.07551 530
9.09562 533
9.11573 529
9.13585 526
9.15596 505
9.17608 521
9.19619 501
9.2163 483
9.23642 530
9.25653 493
9.27664 563
9.29676 478
9.31687 498
9.33699 549
9.3571 544
9.37721 493
9.39733 506
9.41744 484
9.43755 502
9.45767 483
9.47778 512
9.4979 468
9.51801 491
9.53812 509
9.55824 517
9.57835 473
9.59846 489
9.61858 461
9.63869 481
9.6588 516
9.67892 475
9.69903 472
9.71915 507
9.73926 497
9.75937 493
9.77949 457
9.7996 513
9.81971 453
9.83983 472
9.85994 503
9.88006 453
9.90017 465
9.92028 508
9.9404 500
9.96051 474
9.98062 513
10.00074 505
10.02085 498
10.04097 452
10.06108 482
10.08119 492
10.10131 502
10.12142 483
10.14153 549
10.16165 491
10.18176 492
10.20187 475
10.22199 497
10.2421 467
10.26222 474
10.28233 449
10.30244 474
10.32256 453
10.34267 464
10.36278 484
10.3829 501
10.40301 501
10.42313 462
10.44324 461
10.46335 496
10.48347 496
10.50358 494
10.52369 526
10.54381 495
10.56392 480
10.58403 515
10.60415 482
10.62426 520
10.64438 476
10.66449 514
10.6846 471
10.70472 504
10.72483 492
10.74494 463
10.76506 531
10.78517 525
10.80529 505
10.8254 509
10.84551 536
10.86563 516
10.88574 456
10.90585 490
10.92597 478
10.94608 494
10.9662 469
10.98631 482
11.00642 509
11.02654 501
11.04665 516
11.06676 474
11.08688 515
11.10699 506
11.1271 497
11.14722 481
11.16733 513
11.18745 520
11.20756 554
11.22767 527
11.24779 583
11.2679 495
11.28801 540
11.30813 532
11.32824 529
11.34836 482
11.36847 510
11.38858 547
11.4087 546
11.42881 545
11.44892 532
11.46904 551
11.48915 507
11.50927 525
11.52938 532
11.54949 538
11.56961 569
11.58972 509
11.60983 561
11.62995 616
11.65006 582
11.67017 545
11.69029 639
11.7104 600
11.73052 588
11.75063 616
11.77074 633
11.79086 619
11.81097 674
11.83108 680
11.8512 638
11.87131 718
11.89143 676
11.91154 708
11.93165 743
11.95177 750
11.97188 768
11.99199 802
12.01211 804
12.03222 902
12.05234 825
12.07245 934
12.09256 866
12.11268 998
12.13279 1002
12.1529 951
12.17302 949
12.19313 1038
12.21324 1114
12.23336 999
12.25347 1019
12.27359 1072
12.2937 1011
12.31381 1051
12.33393 1058
12.35404 1019
12.37415 974
12.39427 902
12.41438 904
12.4345 802
12.45461 836
12.47472 784
12.49484 751
12.51495 699
12.53506 699
12.55518 692
12.57529 611
12.5954 604
12.61552 636
12.63563 592
12.65575 537
12.67586 606
12.69597 545
12.71609 555
12.7362 525
12.75631 495
12.77643 530
12.79654 498
12.81666 508
12.83677 460
12.85688 504
12.877 453
12.89711 477
12.91722 479
12.93734 447
12.95745 520
12.97757 482
12.99768 492
13.01779 451
13.03791 515
13.05802 494
13.07813 439
13.09825 426
13.11836 447
13.13847 433
13.15859 465
13.1787 464
13.19882 412
13.21893 406
13.23904 442
13.25916 411
13.27927 437
13.29938 423
13.3195 432
13.33961 484
13.35973 467
13.37984 463
13.39995 462
13.42007 450
13.44018 492
13.46029 462
13.48041 434
13.50052 438
13.52064 444
13.54075 425
13.56086 440
13.58098 434
13.60109 434
13.6212 462
13.64132 441
13.66143 463
13.68154 426
13.70166 458
13.72177 437
13.74189 489
13.762 438
13.78211 441
13.80223 444
13.82234 392
13.84245 428
13.86257 469
13.88268 463
13.9028 439
13.92291 430
13.94302 427
13.96314 432
13.98325 421
14.00336 376
14.02348 472
14.04359 450
14.06371 488
14.08382 428
14.10393 436
14.12405 408
14.14416 477
14.16427 433
14.18439 414
14.2045 452
14.22461 396
14.24473 405
14.26484 416
14.28496 381
14.30507 458
14.32518 411
14.3453 439
14.36541 391
14.38552 399
14.40564 418
14.42575 428
14.44587 388
14.46598 465
14.48609 410
14.50621 423
14.52632 407
14.54643 427
14.56655 391
14.58666 403
14.60677 402
14.62689 391
14.647 392
14.66712 392
14.68723 406
14.70734 344
14.72746 430
14.74757 419
14.76768 420
14.7878 425
14.80791 405
14.82803 404
14.84814 393
14.86825 400
14.88837 429
14.90848 423
14.92859 443
14.94871 402
14.96882 443
14.98894 424
15.00905 404
15.02916 394
15.04928 431
15.06939 444
15.0895 409
15.10962 403
15.12973 413
15.14984 446
15.16996 391
15.19007 403
15.21019 441
15.2303 422
15.25041 414
15.27053 432
15.29064 411
15.31075 397
15.33087 416
15.35098 416
15.3711 422
15.39121 392
15.41132 441
15.43144 392
15.45155 412
15.47166 405
15.49178 390
15.51189 404
15.53201 397
15.55212 424
15.57223 434
15.59235 392
15.61246 392
15.63257 381
15.65269 407
15.6728 422
15.69291 408
15.71303 396
15.73314 365
15.75326 382
15.77337 398
15.79348 404
15.8136 438
15.83371 421
15.85382 429
15.87394 441
15.89405 407
15.91417 440
15.93428 419
15.95439 429
15.97451 400
15.99462 430
16.01473 416
16.03485 412
16.05496 432
16.07508 471
16.09519 413
16.1153 440
16.13542 404
16.15553 386
16.17564 459
16.19576 420
16.21587 393
16.23598 371
16.2561 420
16.27621 414
16.29633 393
16.31644 420
16.33655 432
16.35667 424
16.37678 398
16.39689 387
16.41701 391
16.43712 381
16.45724 366
16.47735 421
16.49746 398
16.51758 378
16.53769 412
16.5578 451
16.57792 437
16.59803 363
16.61814 373
16.63826 391
16.65837 382
16.67849 461
16.6986 413
16.71871 397
16.73883 396
16.75894 399
16.77905 431
16.79917 402
16.81928 407
16.8394 383
16.85951 413
16.87962 462
16.89974 409
16.91985 429
16.93996 402
16.96008 404
16.98019 428
17.00031 421
17.02042 390
17.04053 420
17.06065 410
17.08076 425
17.10087 422
17.12099 426
17.1411 393
17.16121 406
17.18133 425
17.20144 408
17.22156 407
17.24167 428
17.26178 412
17.2819 434
17.30201 396
17.32212 442
17.34224 387
17.36235 430
17.38247 402
17.40258 421
17.42269 407
17.44281 437
17.46292 393
17.48303 396
17.50315 430
17.52326 441
17.54338 437
17.56349 460
17.5836 467
17.60372 428
17.62383 462
17.64394 416
17.66406 432
17.68417 442
17.70428 405
17.7244 472
17.74451 440
17.76463 435
17.78474 441
17.80485 475
17.82497 413
17.84508 449
17.86519 458
17.88531 434
17.90542 427
17.92554 436
17.94565 417
17.96576 501
17.98588 494
18.00599 434
18.0261 444
18.04622 455
18.06633 437
18.08645 438
18.10656 441
18.12667 436
18.14679 463
18.1669 477
18.18701 437
18.20713 414
18.22724 462
18.24735 480
18.26747 494
18.28758 438
18.3077 468
18.32781 446
18.34792 479
18.36804 449
18.38815 455
18.40826 429
18.42838 474
18.44849 452
18.46861 386
18.48872 432
18.50883 398
18.52895 433
18.54906 468
18.56917 434
18.58929 411
18.6094 510
18.62951 443
18.64963 482
18.66974 477
18.68986 437
18.70997 452
18.73008 466
18.7502 466
18.77031 411
18.79042 448
18.81054 397
18.83065 483
18.85077 479
18.87088 469
18.89099 500
18.91111 435
18.93122 498
18.95133 489
18.97145 487
18.99156 445
19.01168 507
19.03179 480
19.0519 514
19.07202 454
19.09213 488
19.11224 518
19.13236 563
19.15247 521
19.17258 497
19.1927 564
19.21281 567
19.23293 622
19.25304 610
19.27315 611
19.29327 617
19.31338 620
19.33349 606
19.35361 631
19.37372 645
19.39384 645
19.41395 625
19.43406 652
19.45418 626
19.47429 673
19.4944 685
19.51452 660
19.53463 656
19.55475 665
19.57486 777
19.59497 752
19.61509 832
19.6352 805
19.65531 840
19.67543 921
19.69554 1009
19.71565 1064
19.73577 1004
19.75588 1158
19.776 1064
19.79611 1195
19.81622 1079
19.83634 1054
19.85645 1106
19.87656 1107
19.89668 1110
19.91679 1054
19.93691 1001
19.95702 1043
19.97713 1043
19.99725 1016
20.01736 961
20.03747 965
20.05759 978
20.0777 949
20.09782 992
20.11793 979
20.13804 989
20.15816 1006
20.17827 1001
20.19838 950
20.2185 984
20.23861 958
20.25872 950
20.27884 1007
20.29895 968
20.31907 960
20.33918 945
20.35929 998
20.37941 953
20.39952 953
20.41963 1003
20.43975 964
20.45986 899
20.47998 933
20.50009 985
20.5202 964
20.54032 1012
20.56043 1043
20.58054 1011
20.60066 1000
20.62077 995
20.64088 1046
20.661 1090
20.68111 1137
20.70123 1179
20.72134 1197
20.74145 1270
20.76157 1362
20.78168 1386
20.80179 1438
20.82191 1441
20.84202 1408
20.86214 1339
20.88225 1287
20.90236 1148
20.92248 1069
20.94259 1086
20.9627 1030
20.98282 983
21.00293 934
21.02305 968
21.04316 870
21.06327 899
21.08339 900
21.1035 915
21.12361 943
21.14373 860
21.16384 821
21.18395 840
21.20407 862
21.22418 876
21.2443 864
21.26441 847
21.28452 847
21.30464 866
21.32475 809
21.34486 825
21.36498 803
21.38509 829
21.40521 800
21.42532 864
21.44543 825
21.46555 844
21.48566 791
21.50577 805
21.52589 797
21.546 772
21.56612 814
21.58623 764
21.60634 731
21.62646 753
21.64657 768
21.66668 755
21.6868 727
21.70691 750
21.72702 751
21.74714 726
21.76725 762
21.78737 798
21.80748 808
21.82759 742
21.84771 787
21.86782 777
21.88793 783
21.90805 772
21.92816 803
21.94828 778
21.96839 804
21.9885 812
22.00862 802
22.02873 745
22.04884 790
22.06896 757
22.08907 749
22.10919 730
22.1293 730
22.14941 727
22.16953 736
22.18964 739
22.20975 716
22.22987 731
22.24998 668
22.27009 732
22.29021 723
22.31032 712
22.33044 702
22.35055 706
22.37066 711
22.39078 675
22.41089 727
22.431 662
22.45112 767
22.47123 738
22.49135 674
22.51146 670
22.53157 691
22.55169 655
22.5718 634
22.59191 709
22.61203 675
22.63214 651
22.65225 664
22.67237 697
22.69248 687
22.7126 689
22.73271 687
22.75282 713
22.77294 649
22.79305 703
22.81316 689
22.83328 708
22.85339 703
22.87351 718
22.89362 714
22.91373 646
22.93385 671
22.95396 692
22.97407 700
22.99419 670
23.0143 652
23.03442 673
23.05453 698
23.07464 710
23.09476 702
23.11487 661
23.13498 713
23.1551 644
23.17521 671
23.19532 608
23.21544 648
23.23555 608
23.25567 674
23.27578 619
23.29589 650
23.31601 677
23.33612 650
23.35623 641
23.37635 675
23.39646 718
23.41658 715
23.43669 690
23.4568 733
23.47692 703
23.49703 688
23.51714 732
23.53726 746
23.55737 672
23.57749 720
23.5976 751
23.61771 770
23.63783 728
23.65794 659
23.67805 715
23.69817 705
23.71828 701
23.73839 695
23.75851 690
23.77862 716
23.79874 744
23.81885 679
23.83896 701
23.85908 662
23.87919 719
23.8993 717
23.91942 621
23.93953 701
23.95965 697
23.97976 696
23.99987 736
24.01999 660
24.0401 730
24.06021 681
24.08033 718
24.10044 736
24.12056 710
24.14067 682
24.16078 722
24.1809 726
24.20101 713
24.22112 721
24.24124 753
24.26135 699
24.28146 764
24.30158 739
24.32169 760
24.34181 740
24.36192 761
24.38203 792
24.40215 759
24.42226 768
24.44237 746
24.46249 839
24.4826 808
24.50272 833
24.52283 876
24.54294 817
24.56306 874
24.58317 879
24.60328 871
24.6234 946
24.64351 882
24.66362 936
24.68374 982
24.70385 923
24.72397 942
24.74408 985
24.76419 987
24.78431 1043
24.80442 1049
24.82453 1027
24.84465 953
24.86476 919
24.88488 966
24.90499 959
24.9251 973
24.94522 904
24.96533 886
24.98544 870
25.00556 911
25.02567 905
25.04579 882
25.0659 834
25.08601 829
25.10613 828
25.12624 834
25.14635 786
25.16647 778
25.18658 775
25.20669 766
25.22681 778
25.24692 744
25.26704 771
25.28715 809
25.30726 773
25.32738 779
25.34749 824
25.3676 779
25.38772 776
25.40783 756
25.42795 812
25.44806 779
25.46817 789
25.48829 794
25.5084 822
25.52851 794
25.54863 797
25.56874 755
25.58886 763
25.60897 766
25.62908 770
25.6492 731
25.66931 701
25.68942 732
25.70954 668
25.72965 640
25.74976 716
25.76988 668
25.78999 649
25.81011 748
25.83022 711
25.85033 661
25.87045 665
25.89056 660
25.91067 630
25.93079 728
25.9509 694
25.97102 703
25.99113 678
26.01124 730
26.03136 660
26.05147 749
26.07158 755
26.0917 732
26.11181 781
26.13193 788
26.15204 778
26.17215 756
26.19227 861
26.21238 925
26.23249 933
26.25261 930
26.27272 1017
26.29283 1006
26.31295 1103
26.33306 1221
26.35318 1332
26.37329 1445
26.3934 1590
26.41352 1708
26.43363 2020
26.45374 2194
26.47386 2422
26.49397 2629
26.51409 2923
26.5342 2988
26.55431 3167
26.57443 3180
26.59454 3184
26.61465 2814
26.63477 2586
26.65488 2163
26.67499 1811
26.69511 1504
26.71522 1306
26.73534 1071
26.75545 978
26.77556 908
26.79568 858
26.81579 811
26.8359 871
26.85602 805
26.87613 769
26.89625 775
26.91636 730
26.93647 789
26.95659 802
26.9767 738
26.99681 792
27.01693 678
27.03704 721
27.05716 704
27.07727 685
27.09738 675
27.1175 676
27.13761 684
27.15772 682
27.17784 704
27.19795 705
27.21806 692
27.23818 660
27.25829 696
27.27841 647
27.29852 704
27.31863 739
27.33875 756
27.35886 798
27.37897 750
27.39909 783
27.4192 777
27.43932 767
27.45943 773
27.47954 759
27.49966 783
27.51977 704
27.53988 730
27.56 686
27.58011 669
27.60023 689
27.62034 700
27.64045 681
27.66057 709
27.68068 732
27.70079 728
27.72091 826
27.74102 720
27.76113 777
27.78125 781
27.80136 736
27.82148 732
27.84159 767
27.8617 764
27.88182 710
27.90193 705
27.92204 694
27.94216 645
27.96227 673
27.98239 637
28.0025 595
28.02261 629
28.04273 572
28.06284 576
28.08295 568
28.10307 612
28.12318 585
28.1433 519
28.16341 568
28.18352 567
28.20364 565
28.22375 593
28.24386 562
28.26398 513
28.28409 538
28.3042 525
28.32432 498
28.34443 528
28.36455 531
28.38466 582
28.40477 549
28.42489 547
28.445 597
28.46511 513
28.48523 541
28.50534 561
28.52546 528
28.54557 495
28.56568 510
28.5858 488
28.60591 520
28.62602 509
28.64614 495
28.66625 443
28.68636 469
28.70648 517
28.72659 478
28.74671 495
28.76682 522
28.78693 482
28.80705 491
28.82716 478
28.84727 476
28.86739 481
28.8875 499
28.90762 498
28.92773 473
28.94784 490
28.96796 509
28.98807 497
29.00818 473
29.0283 480
29.04841 497
29.06853 497
29.08864 525
29.10875 514
29.12887 481
29.14898 448
29.16909 489
29.18921 516
29.20932 479
29.22943 488
29.24955 469
29.26966 472
29.28978 496
29.30989 518
29.33 501
29.35012 496
29.37023 470
29.39034 469
29.41046 480
29.43057 454
29.45069 533
29.4708 519
29.49091 492
29.51103 486
29.53114 517
29.55125 528
29.57137 531
29.59148 549
29.6116 549
29.63171 511
29.65182 542
29.67194 569
29.69205 575
29.71216 535
29.73228 552
29.75239 579
29.7725 593
29.79262 571
29.81273 562
29.83285 558
29.85296 546
29.87307 568
29.89319 553
29.9133 514
29.93341 521
29.95353 491
29.97364 469
29.99376 465
30.01387 502
30.03398 508
30.0541 510
30.07421 517
30.09432 500
30.11444 498
30.13455 495
30.15467 506
30.17478 521
30.19489 488
30.21501 515
30.23512 534
30.25523 498
30.27535 525
30.29546 544
30.31557 502
30.33569 483
30.3558 519
30.37592 539
30.39603 478
30.41614 513
30.43626 493
30.45637 515
30.47648 497
30.4966 476
30.51671 492
30.53683 514
30.55694 542
30.57705 503
30.59717 537
30.61728 543
30.63739 538
30.65751 487
30.67762 489
30.69773 574
30.71785 505
30.73796 559
30.75808 552
30.77819 521
30.7983 563
30.81842 548
30.83853 512
30.85864 508
30.87876 466
30.89887 488
30.91899 514
30.9391 482
30.95921 483
30.97933 456
30.99944 472
31.01955 481
31.03967 486
31.05978 480
31.0799 484
31.10001 477
31.12012 479
31.14024 514
31.16035 465
31.18046 498
31.20058 490
31.22069 481
31.2408 497
31.26092 502
31.28103 504
31.30115 497
31.32126 459
31.34137 450
31.36149 472
31.3816 452
31.40171 449
31.42183 455
31.44194 453
31.46206 444
31.48217 454
31.50228 460
31.5224 470
31.54251 447
31.56262 446
31.58274 472
31.60285 464
31.62297 461
31.64308 472
31.66319 430
31.68331 450
31.70342 515
31.72353 439
31.74365 412
31.76376 461
31.78387 447
31.80399 453
31.8241 475
31.84422 455
31.86433 492
31.88444 468
31.90456 476
31.92467 464
31.94478 458
31.9649 494
31.98501 459
32.00513 512
32.02524 475
32.04535 470
32.06547 467
32.08558 456
32.10569 421
32.12581 470
32.14592 429
32.16604 437
32.18615 453
32.20626 473
32.22638 466
32.24649 437
32.2666 424
32.28672 451
32.30683 487
32.32694 486
32.34706 466
32.36717 456
32.38729 474
32.4074 447
32.42751 420
32.44763 425
32.46774 467
32.48785 465
32.50797 431
32.52808 492
32.5482 437
32.56831 411
32.58842 471
32.60854 443
32.62865 416
32.64876 458
32.66888 434
32.68899 423
32.7091 443
32.72922 453
32.74933 438
32.76945 425
32.78956 419
32.80967 444
32.82979 467
32.8499 448
32.87001 486
32.89013 453
32.91024 458
32.93036 478
32.95047 479
32.97058 462
32.9907 423
33.01081 410
33.03092 459
33.05104 481
33.07115 458
33.09127 456
33.11138 460
33.13149 479
33.15161 453
33.17172 461
33.19183 475
33.21195 463
33.23206 464
33.25217 493
33.27229 476
33.2924 500
33.31252 465
33.33263 497
33.35274 477
33.37286 463
33.39297 507
33.41308 494
33.4332 454
33.45331 466
33.47343 473
33.49354 473
33.51365 464
33.53377 449
33.55388 433
33.57399 505
33.59411 465
33.61422 497
33.63434 470
33.65445 502
33.67456 502
33.69468 545
33.71479 522
33.7349 542
33.75502 541
33.77513 513
33.79524 567
33.81536 554
33.83547 542
33.85559 560
33.8757 582
33.89581 578
33.91593 584
33.93604 597
33.95615 622
33.97627 642
33.99638 606
34.0165 687
34.03661 650
34.05672 679
34.07684 670
34.09695 713
34.11706 782
34.13718 697
34.15729 754
34.17741 792
34.19752 724
34.21763 746
34.23775 708
34.25786 707
34.27797 673
34.29809 686
34.3182 679
34.33831 673
34.35843 680
34.37854 690
34.39866 680
34.41877 625
34.43888 689
34.459 661
34.47911 656
34.49922 659
34.51934 635
34.53945 698
34.55957 671
34.57968 649
34.59979 673
34.61991 656
34.64002 709
34.66013 699
34.68025 715
34.70036 784
34.72047 799
34.74059 800
34.7607 850
34.78082 796
34.80093 800
34.82104 830
34.84116 848
34.86127 839
34.88138 882
34.9015 808
34.92161 795
34.94173 777
34.96184 757
34.98195 752
35.00207 770
35.02218 708
35.04229 699
35.06241 726
35.08252 703
35.10264 684
35.12275 722
35.14286 675
35.16298 714
35.18309 653
35.2032 688
35.22332 697
35.24343 659
35.26354 668
35.28366 715
35.30377 712
35.32389 687
35.344 665
35.36411 719
35.38423 656
35.40434 704
35.42445 640
35.44457 650
35.46468 649
35.4848 643
35.50491 664
35.52502 725
35.54514 703
35.56525 695
35.58536 698
35.60548 662
35.62559 691
35.64571 655
35.66582 699
35.68593 703
35.70605 666
35.72616 697
35.74627 672
35.76639 700
35.7865 670
35.80661 672
35.82673 723
35.84684 701
35.86696 665
35.88707 773
35.90718 717
35.9273 678
35.94741 673
35.96752 664
35.98764 682
36.00775 676
36.02787 637
36.04798 656
36.06809 583
36.08821 620
36.10832 675
36.12843 601
36.14855 652
36.16866 604
36.18878 638
36.20889 645
36.229 683
36.24912 649
36.26923 644
36.28934 668
36.30946 676
36.32957 742
36.34968 729
36.3698 721
36.38991 695
36.41003 760
36.43014 763
36.45025 737
36.47037 761
36.49048 795
36.51059 763
36.53071 771
36.55082 730
36.57094 697
36.59105 657
36.61116 624
36.63128 625
36.65139 666
36.6715 667
36.69162 636
36.71173 613
36.73184 643
36.75196 620
36.77207 630
36.79219 634
36.8123 614
36.83241 619
36.85253 612
36.87264 641
36.89275 609
36.91287 596
36.93298 648
36.9531 678
36.97321 608
36.99332 659
37.01344 623
37.03355 636
37.05366 609
37.07378 646
37.09389 673
37.11401 696
37.13412 615
37.15423 627
37.17435 641
37.19446 644
37.21457 666
37.23469 623
37.2548 658
37.27491 650
37.29503 688
37.31514 637
37.33526 621
37.35537 676
37.37548 627
37.3956 625
37.41571 624
37.43582 609
37.45594 628
37.47605 646
37.49617 623
37.51628 601
37.53639 664
37.55651 628
37.57662 646
37.59673 645
37.61685 645
37.63696 623
37.65708 652
37.67719 637
37.6973 663
37.71742 624
37.73753 635
37.75764 626
37.77776 609
37.79787 591
37.81798 629
37.8381 636
37.85821 564
37.87833 616
37.89844 625
37.91855 661
37.93867 629
37.95878 624
37.97889 634
37.99901 644
38.01912 677
38.03924 626
38.05935 669
38.07946 686
38.09958 650
38.11969 708
38.1398 698
38.15992 654
38.18003 723
38.20015 682
38.22026 725
38.24037 728
38.26049 716
38.2806 734
38.30071 700
38.32083 752
38.34094 711
38.36105 721
38.38117 709
38.40128 702
38.4214 740
38.44151 696
38.46162 729
38.48174 679
38.50185 642
38.52196 676
38.54208 613
38.56219 654
38.58231 677
38.60242 583
38.62253 650
38.64265 587
38.66276 619
38.68287 592
38.70299 600
38.7231 621
38.74321 591
38.76333 588
38.78344 591
38.80356 606
38.82367 568
38.84378 589
38.8639 579
38.88401 617
38.90412 643
38.92424 671
38.94435 602
38.96447 579
38.98458 613
39.00469 645
39.02481 631
39.04492 591
39.06503 632
39.08515 673
39.10526 640
39.12538 654
39.14549 649
39.1656 677
39.18572 670
39.20583 647
39.22594 641
39.24606 592
39.26617 702
39.28628 673
39.3064 681
39.32651 687
39.34663 674
39.36674 722
39.38685 675
39.40697 662
39.42708 669
39.44719 631
39.46731 611
39.48742 598
39.50754 565
39.52765 542
39.54776 590
39.56788 569
39.58799 538
39.6081 530
39.62822 516
39.64833 527
39.66845 567
39.68856 521
39.70867 545
39.72879 533
39.7489 513
39.76901 504
39.78913 582
39.80924 577
39.82935 529
39.84947 533
39.86958 512
39.8897 545
39.90981 551
39.92992 565
39.95004 548
39.97015 578
39.99026 574
40.01038 506
40.03049 559
40.05061 553
40.07072 553
40.09083 544
40.11095 523
40.13106 545
40.15117 557
40.17129 550
40.1914 581
40.21152 590
40.23163 603
40.25174 589
40.27186 581
40.29197 522
40.31208 531
40.3322 578
40.35231 496
40.37242 499
40.39254 516
40.41265 513
40.43277 522
40.45288 495
40.47299 504
40.49311 550
40.51322 523
40.53333 455
40.55345 503
40.57356 521
40.59368 513
40.61379 475
40.6339 490
40.65402 448
40.67413 503
40.69424 497
40.71436 504
40.73447 505
40.75458 490
40.7747 477
40.79481 526
40.81493 528
40.83504 471
40.85515 544
40.87527 503
40.89538 485
40.91549 482
40.93561 472
40.95572 475
40.97584 550
40.99595 537
41.01606 525
41.03618 511
41.05629 513
41.0764 495
41.09652 498
41.11663 513
41.13675 484
41.15686 494
41.17697 516
41.19709 490
41.2172 506
41.23731 484
41.25743 472
41.27754 495
41.29765 476
41.31777 510
41.33788 540
41.358 535
41.37811 487
41.39822 500
41.41834 537
41.43845 519
41.45856 552
41.47868 459
41.49879 522
41.51891 513
41.53902 512
41.55913 549
41.57925 534
41.59936 537
41.61947 507
41.63959 525
41.6597 561
41.67982 535
41.69993 497
41.72004 523
41.74016 534
41.76027 523
41.78038 488
41.8005 479
41.82061 468
41.84072 493
41.86084 489
41.88095 480
41.90107 481
41.92118 468
41.94129 469
41.96141 458
41.98152 492
42.00163 497
42.02175 459
42.04186 472
42.06198 467
42.08209 487
42.1022 469
42.12232 505
42.14243 510
42.16254 475
42.18266 505
42.20277 546
42.22289 487
42.243 569
42.26311 510
42.28323 548
42.30334 518
42.32345 559
42.34357 588
42.36368 518
42.38379 621
42.40391 563
42.42402 552
42.44414 530
42.46425 528
42.48436 544
42.50448 495
42.52459 505
42.5447 476
42.56482 460
42.58493 467
42.60505 451
42.62516 452
42.64527 455
42.66539 438
42.6855 444
42.70561 471
42.72573 430
42.74584 400
42.76595 434
42.78607 428
42.80618 443
42.8263 437
42.84641 434
42.86652 416
42.88664 411
42.90675 428
42.92686 441
42.94698 421
42.96709 414
42.98721 401
43.00732 428
43.02743 439
43.04755 425
43.06766 420
43.08777 399
43.10789 447
43.128 422
43.14812 436
43.16823 439
43.18834 441
43.20846 389
43.22857 388
43.24868 418
43.2688 433
43.28891 437
43.30902 400
43.32914 463
43.34925 428
43.36937 404
43.38948 427
43.40959 425
43.42971 422
43.44982 447
43.46993 455
43.49005 410
43.51016 423
43.53028 433
43.55039 461
43.5705 420
43.59062 443
43.61073 459
43.63084 406
43.65096 419
43.67107 408
43.69119 376
43.7113 421
43.73141 406
43.75153 399
43.77164 443
43.79175 440
43.81187 405
43.83198 451
43.85209 379
43.87221 416
43.89232 421
43.91244 436
43.93255 397
43.95266 438
43.97278 452
43.99289 461
44.013 446
44.03312 468
44.05323 455
44.07335 391
44.09346 428
44.11357 397
44.13369 446
44.1538 394
44.17391 448
44.19403 454
44.21414 470
44.23426 445
44.25437 442
44.27448 414
44.2946 391
44.31471 418
44.33482 454
44.35494 406
44.37505 407
44.39516 442
44.41528 408
44.43539 448
44.45551 422
44.47562 484
44.49573 443
44.51585 440
44.53596 421
44.55607 480
44.57619 445
44.5963 427
44.61642 465
44.63653 431
44.65664 469
44.67676 446
44.69687 451
44.71698 455
44.7371 492
44.75721 463
44.77732 469
44.79744 430
44.81755 521
44.83767 495
44.85778 453
44.87789 486
44.89801 462
44.91812 481
44.93823 471
44.95835 466
44.97846 465
44.99858 487
45.01869 449
45.0388 499
45.05892 513
45.07903 501
45.09914 519
45.11926 486
45.13937 504
45.15949 493
45.1796 486
45.19971 539
45.21983 534
45.23994 504
45.26005 535
45.28017 562
45.30028 513
45.32039 554
45.34051 530
45.36062 506
45.38074 579
45.40085 559
45.42096 526
45.44108 525
45.46119 539
45.4813 558
45.50142 537
45.52153 497
45.54165 546
45.56176 561
45.58187 530
45.60199 516
45.6221 555
45.64221 549
45.66233 564
45.68244 529
45.70256 510
45.72267 559
45.74278 520
45.7629 526
45.78301 502
45.80312 532
45.82324 494
45.84335 476
45.86346 500
45.88358 487
45.90369 481
45.92381 470
45.94392 459
45.96403 469
45.98415 441
46.00426 481
46.02437 451
46.04449 460
46.0646 396
46.08472 454
46.10483 442
46.12494 466
46.14506 456
46.16517 473
46.18528 453
46.2054 441
46.22551 439
46.24563 454
46.26574 405
46.28585 451
46.30597 447
46.32608 451
46.34619 486
46.36631 462
46.38642 410
46.40653 453
46.42665 425
46.44676 452
46.46688 415
46.48699 449
46.5071 405
46.52722 446
46.54733 455
46.56744 453
46.58756 446
46.60767 453
46.62779 436
46.6479 448
46.66801 505
46.68813 439
46.70824 421
46.72835 438
46.74847 485
46.76858 420
46.78869 441
46.80881 497
46.82892 438
46.84904 433
46.86915 445
46.88926 442
46.90938 465
46.92949 431
46.9496 458
46.96972 474
46.98983 498
47.00995 426
47.03006 385
47.05017 431
47.07029 427
47.0904 465
47.11051 440
47.13063 439
47.15074 431
47.17086 444
47.19097 445
47.21108 446
47.2312 445
47.25131 455
47.27142 462
47.29154 471
47.31165 437
47.33176 438
47.35188 432
47.37199 438
47.39211 475
47.41222 390
47.43233 444
47.45245 464
47.47256 422
47.49267 462
47.51279 444
47.5329 441
47.55302 420
47.57313 420
47.59324 427
47.61336 426
47.63347 431
47.65358 456
47.6737 452
47.69381 395
47.71393 454
47.73404 429
47.75415 445
47.77427 441
47.79438 423
47.81449 434
47.83461 430
47.85472 439
47.87483 426
47.89495 429
47.91506 428
47.93518 445
47.95529 401
47.9754 411
47.99552 422
48.01563 439
48.03574 441
48.05586 440
48.07597 469
48.09609 424
48.1162 428
48.13631 466
48.15643 441
48.17654 435
48.19665 386
48.21677 457
48.23688 407
48.257 460
48.27711 389
48.29722 427
48.31734 451
48.33745 435
48.35756 436
48.37768 408
48.39779 399
48.4179 419
48.43802 430
48.45813 400
48.47825 418
48.49836 415
48.51847 458
48.53859 450
48.5587 442
48.57881 432
48.59893 403
48.61904 410
48.63916 422
48.65927 449
48.67938 427
48.6995 388
48.71961 419
48.73972 428
48.75984 465
48.77995 400
48.80006 381
48.82018 408
48.84029 381
48.86041 444
48.88052 412
48.90063 478
48.92075 411
48.94086 398
48.96097 403
48.98109 437
49.0012 423
49.02132 439
49.04143 411
49.06154 442
49.08166 446
49.10177 426
49.12188 424
49.142 419
49.16211 439
49.18223 423
49.20234 403
49.22245 420
49.24257 386
49.26268 428
49.28279 428
49.30291 404
49.32302 433
49.34313 425
49.36325 411
49.38336 419
49.40348 421
49.42359 368
49.4437 441
49.46382 447
49.48393 419
49.50404 472
49.52416 418
49.54427 449
49.56439 431
49.5845 453
49.60461 456
49.62473 421
49.64484 438
49.66495 436
49.68507 450
49.70518 456
49.7253 494
49.74541 500
49.76552 502
49.78564 483
49.80575 484
49.82586 485
49.84598 524
49.86609 536
49.8862 527
49.90632 551
49.92643 569
49.94655 586
49.96666 593
49.98677 634
50.00689 649
50.027 660
50.04711 672
50.06723 624
50.08734 623
50.10746 596
50.12757 609
50.14768 579
50.1678 560
50.18791 527
50.20802 540
50.22814 491
50.24825 472
50.26837 514
50.28848 400
50.30859 423
50.32871 419
50.34882 430
50.36893 475
50.38905 422
50.40916 433
50.42927 464
50.44939 441
50.4695 468
50.48962 438
50.50973 466
50.52984 450
50.54996 439
50.57007 427
50.59018 445
50.6103 458
50.63041 442
50.65053 445
50.67064 435
50.69075 398
50.71087 448
50.73098 424
50.75109 423
50.77121 437
50.79132 437
50.81143 403
50.83155 424
50.85166 420
50.87178 404
50.89189 420
50.912 430
50.93212 426
50.95223 399
50.97234 398
50.99246 420
51.01257 405
51.03269 406
51.0528 425
51.07291 401
51.09303 454
51.11314 422
51.13325 432
51.15337 409
51.17348 415
51.1936 415
51.21371 407
51.23382 446
51.25394 401
51.27405 380
51.29416 397
51.31428 426
51.33439 407
51.3545 406
51.37462 395
51.39473 375
51.41485 394
51.43496 389
51.45507 430
51.47519 402
51.4953 384
51.51541 387
51.53553 386
51.55564 398
51.57576 382
51.59587 372
51.61598 359
51.6361 361
51.65621 413
51.67632 408
51.69644 371
51.71655 354
51.73667 368
51.75678 363
51.77689 436
51.79701 398
51.81712 378
51.83723 363
51.85735 395
51.87746 401
51.89757 376
51.91769 353
51.9378 405
51.95792 414
51.97803 384
51.99814 378
52.01826 399
52.03837 385
52.05848 427
52.0786 387
52.09871 396
52.11883 401
52.13894 365
52.15905 385
52.17917 388
52.19928 385
52.21939 360
52.23951 400
52.25962 389
52.27974 384
52.29985 389
52.31996 405
52.34008 407
52.36019 410
52.3803 417
52.40042 373
52.42053 382
52.44064 416
52.46076 427
52.48087 398
52.50099 400
52.5211 410
52.54121 386
52.56133 452
52.58144 410
52.60155 401
52.62167 428
52.64178 388
52.6619 415
52.68201 424
52.70212 469
52.72224 459
52.74235 398
52.76246 435
52.78258 435
52.80269 380
52.8228 406
52.84292 415
52.86303 423
52.88315 416
52.90326 407
52.92337 434
52.94349 385
52.9636 424
52.98371 410
53.00383 389
53.02394 395
53.04406 373
53.06417 428
53.08428 403
53.1044 427
53.12451 401
53.14462 444
53.16474 428
53.18485 434
53.20497 424
53.22508 409
53.24519 400
53.26531 432
53.28542 400
53.30553 425
53.32565 408
53.34576 435
53.36587 420
53.38599 435
53.4061 428
53.42622 418
53.44633 390
53.46644 440
53.48656 418
53.50667 453
53.52678 444
53.5469 447
53.56701 449
53.58713 441
53.60724 433
53.62735 429
53.64747 443
53.66758 426
53.68769 429
53.70781 438
53.72792 444
53.74804 437
53.76815 459
53.78826 438
53.80838 425
53.82849 457
53.8486 500
53.86872 474
53.88883 438
53.90894 480
53.92906 488
53.94917 474
53.96929 475
53.9894 492
54.00951 455
54.02963 479
54.04974 497
54.06985 457
54.08997 456
54.11008 526
54.1302 484
54.15031 481
54.17042 485
54.19054 515
54.21065 508
54.23076 472
54.25088 567
54.27099 543
54.29111 524
54.31122 537
54.33133 553
54.35145 525
54.37156 558
54.39167 564
54.41179 559
54.4319 573
54.45201 504
54.47213 525
54.49224 557
54.51236 585
54.53247 579
54.55258 625
54.5727 519
54.59281 534
54.61292 537
54.63304 567
54.65315 588
54.67327 625
54.69338 604
54.71349 604
54.73361 648
54.75372 614
54.77383 632
54.79395 630
54.81406 634
54.83417 623
54.85429 624
54.8744 626
54.89452 604
54.91463 613
54.93474 623
54.95486 559
54.97497 627
54.99508 615
55.0152 591
55.03531 588
55.05543 547
55.07554 577
55.09565 592
55.11577 614
55.13588 583
55.15599 556
55.17611 556
55.19622 580
55.21634 592
55.23645 551
55.25656 525
55.27668 549
55.29679 552
55.3169 584
55.33702 565
55.35713 532
55.37724 547
55.39736 512
55.41747 500
55.43759 514
55.4577 542
55.47781 508
55.49793 528
55.51804 513
55.53815 481
55.55827 532
55.57838 529
55.5985 515
55.61861 518
55.63872 488
55.65884 522
55.67895 496
55.69906 487
55.71918 487
55.73929 491
55.75941 499
55.77952 483
55.79963 482
55.81975 501
55.83986 495
55.85997 458
55.88009 474
55.9002 455
55.92031 475
55.94043 492
55.96054 457
55.98066 474
56.00077 451
56.02088 487
56.041 446
56.06111 503
56.08122 493
56.10134 452
56.12145 497
56.14157 465
56.16168 479
56.18179 464
56.20191 490
56.22202 412
56.24213 453
56.26225 474
56.28236 492
56.30248 460
56.32259 503
56.3427 449
56.36282 422
56.38293 466
56.40304 487
56.42316 467
56.44327 438
56.46338 499
56.4835 458
56.50361 472
56.52373 422
56.54384 437
56.56395 453
56.58407 435
56.60418 487
56.62429 436
56.64441 419
56.66452 485
56.68464 471
56.70475 445
56.72486 413
56.74498 432
56.76509 446
56.7852 431
56.80532 448
56.82543 445
56.84554 444
56.86566 440
56.88577 418
56.90589 449
56.926 453
56.94611 408
56.96623 429
56.98634 401
57.00645 457
57.02657 414
57.04668 426
57.0668 438
57.08691 447
57.10702 431
57.12714 467
57.14725 448
57.16736 434
57.18748 453
57.20759 436
57.22771 435
57.24782 469
57.26793 443
57.28805 433
57.30816 418
57.32827 445
57.34839 391
57.3685 423
57.38861 425
57.40873 420
57.42884 445
57.44896 470
57.46907 395
57.48918 436
57.5093 419
57.52941 452
57.54952 413
57.56964 418
57.58975 424
57.60987 415
57.62998 410
57.65009 408
57.67021 447
57.69032 401
57.71043 402
57.73055 421
57.75066 399
57.77078 432
57.79089 422
57.811 407
57.83112 466
57.85123 383
57.87134 403
57.89146 449
57.91157 429
57.93168 391
57.9518 440
57.97191 394
57.99203 397
58.01214 407
58.03225 405
58.05237 420
58.07248 425
58.09259 446
58.11271 441
58.13282 408
58.15294 424
58.17305 413
58.19316 416
58.21328 427
58.23339 423
58.2535 447
58.27362 437
58.29373 395
58.31385 425
58.33396 416
58.35407 422
58.37419 428
58.3943 401
58.41441 417
58.43453 411
58.45464 421
58.47475 397
58.49487 438
58.51498 383
58.5351 417
58.55521 415
58.57532 411
58.59544 407
58.61555 411
58.63566 389
58.65578 400
58.67589 425
58.69601 407
58.71612 466
58.73623 395
58.75635 409
58.77646 385
58.79657 426
58.81669 433
58.8368 411
58.85691 424
58.87703 399
58.89714 398
58.91726 437
58.93737 405
58.95748 398
58.9776 446
58.99771 451
59.01782 409
59.03794 418
59.05805 427
59.07817 422
59.09828 430
59.11839 450
59.13851 430
59.15862 424
59.17873 433
59.19885 390
59.21896 390
59.23908 410
59.25919 469
59.2793 455
59.29942 456
59.31953 435
59.33964 468
59.35976 452
59.37987 445
59.39998 472
59.4201 479
59.44021 451
59.46033 439
59.48044 449
59.50055 465
59.52067 463
59.54078 505
59.56089 468
59.58101 482
59.60112 487
59.62124 471
59.64135 517
59.66146 491
59.68158 515
59.70169 525
59.7218 546
59.74192 552
59.76203 547
59.78215 618
59.80226 602
59.82237 646
59.84249 599
59.8626 617
59.88271 674
59.90283 671
59.92294 579
59.94305 613
59.96317 595
59.98328 579
60.0034 581
60.02351 543
60.04362 596
60.06374 555
60.08385 581
60.10396 562
60.12408 576
60.14419 552
60.16431 516
60.18442 547
60.20453 565
60.22465 489
60.24476 536
60.26487 561
60.28499 549
60.3051 550
60.32522 520
60.34533 507
60.36544 488
60.38556 493
60.40567 516
60.42578 489
60.4459 531
60.46601 522
60.48612 491
60.50624 461
60.52635 504
60.54647 486
60.56658 470
60.58669 458
60.60681 450
60.62692 417
60.64703 466
60.66715 415
60.68726 471
60.70738 460
60.72749 443
60.7476 470
60.76772 425
60.78783 460
60.80794 448
60.82806 451
60.84817 453
60.86828 417
60.8884 430
60.90851 444
60.92863 446
60.94874 459
60.96885 448
60.98897 438
61.00908 444
61.02919 432
61.04931 434
61.06942 493
61.08954 454
61.10965 439
61.12976 476
61.14988 445
61.16999 427
61.1901 450
61.21022 461
61.23033 435
61.25045 444
61.27056 430
61.29067 447
61.31079 444
61.3309 455
61.35101 455
61.37113 449
61.39124 484
61.41135 480
61.43147 486
61.45158 476
61.4717 477
61.49181 485
61.51192 469
61.53204 445
61.55215 459
61.57226 464
61.59238 453
61.61249 481
61.63261 497
61.65272 476
61.67283 441
61.69295 452
61.71306 480
61.73317 499
61.75329 472
61.7734 482
61.79352 508
61.81363 486
61.83374 508
61.85386 519
61.87397 491
61.89408 553
61.9142 525
61.93431 605
61.95442 535
61.97454 578
61.99465 569
62.01477 574
62.03488 563
62.05499 587
62.07511 584
62.09522 586
62.11533 606
62.13545 578
62.15556 584
62.17568 579
62.19579 589
62.2159 548
62.23602 575
62.25613 602
62.27624 524
62.29636 542
62.31647 545
62.33659 565
62.3567 579
62.37681 560
62.39693 523
62.41704 514
62.43715 481
62.45727 539
62.47738 492
62.49749 451
62.51761 504
62.53772 466
62.55784 505
62.57795 461
62.59806 491
62.61818 457
62.63829 494
62.6584 463
62.67852 428
62.69863 413
62.71875 442
62.73886 462
62.75897 481
62.77909 433
62.7992 445
62.81931 383
62.83943 454
62.85954 406
62.87965 412
62.89977 449
62.91988 453
62.94 450
62.96011 437
62.98022 456
63.00034 393
63.02045 439
63.04056 449
63.06068 430
63.08079 417
63.10091 464
63.12102 404
63.14113 418
63.16125 444
63.18136 447
63.20147 398
63.22159 421
63.2417 413
63.26182 423
63.28193 456
63.30204 408
63.32216 458
63.34227 406
63.36238 416
63.3825 444
63.40261 462
63.42272 421
63.44284 446
63.46295 483
63.48307 445
63.50318 456
63.52329 408
63.54341 438
63.56352 433
63.58363 479
63.60375 484
63.62386 443
63.64398 447
63.66409 441
63.6842 424
63.70432 450
63.72443 487
63.74454 417
63.76466 408
63.78477 465
63.80489 472
63.825 469
63.84511 469
63.86523 448
63.88534 448
63.90545 438
63.92557 442
63.94568 447
63.96579 447
63.98591 426
64.00602 462
64.02614 452
64.04625 402
64.06636 425
64.08648 427
64.10659 442
64.1267 408
64.14682 440
64.16693 406
64.18705 433
64.20716 429
64.22727 397
64.24739 438
64.2675 431
64.28761 393
64.30773 438
64.32784 379
64.34796 374
64.36807 379
64.38818 400
64.4083 430
64.42841 410
64.44852 418
64.46864 394
64.48875 412
64.50886 407
64.52898 390
64.54909 395
64.56921 400
64.58932 354
64.60943 419
64.62955 424
64.64966 409
64.66977 425
64.68989 392
64.71 441
64.73012 399
64.75023 400
64.77034 404
64.79046 402
64.81057 388
64.83068 387
64.8508 384
64.87091 391
64.89102 406
64.91114 416
64.93125 421
64.95137 420
64.97148 393
64.99159 429
65.01171 440
65.03182 409
65.05193 396
65.07205 428
65.09216 378
65.11228 407
65.13239 391
65.1525 387
65.17262 380
65.19273 398
65.21284 379
65.23296 410
65.25307 395
65.27319 420
65.2933 368
65.31341 412
65.33353 401
65.35364 412
65.37375 425
65.39387 370
65.41398 369
65.43409 376
65.45421 404
65.47432 340
65.49444 392
65.51455 365
65.53466 392
65.55478 396
65.57489 397
65.595 402
65.61512 420
65.63523 373
65.65535 393
65.67546 398
65.69557 394
65.71569 435
65.7358 389
65.75591 399
65.77603 411
65.79614 405
65.81626 439
65.83637 400
65.85648 390
65.8766 398
65.89671 440
65.91682 369
65.93694 426
65.95705 403
65.97716 368
65.99728 396
66.01739 378
66.03751 376
66.05762 381
66.07773 391
66.09785 399
66.11796 400
66.13807 428
66.15819 390
66.1783 416
66.19842 396
66.21853 394
66.23864 385
66.25876 390
66.27887 401
66.29898 380
66.3191 404
66.33921 445
66.35933 388
66.37944 396
66.39955 391
66.41967 374
66.43978 383
66.45989 394
66.48001 422
66.50012 396
66.52023 394
66.54035 416
66.56046 373
66.58058 391
66.60069 424
66.6208 409
66.64092 441
66.66103 364
66.68114 413
66.70126 404
66.72137 407
66.74149 377
66.7616 395
66.78171 402
66.80183 416
66.82194 397
66.84205 430
66.86217 426
66.88228 406
66.90239 374
66.92251 392
66.94262 390
66.96274 409
66.98285 380
67.00296 416
67.02308 399
67.04319 437
67.0633 407
67.08342 412
67.10353 372
67.12365 391
67.14376 385
67.16387 446
67.18399 401
67.2041 428
67.22421 411
67.24433 387
67.26444 422
67.28456 411
67.30467 454
67.32478 440
67.3449 414
67.36501 384
67.38512 414
67.40524 443
67.42535 422
67.44546 491
67.46558 439
67.48569 472
67.50581 445
67.52592 490
67.54603 477
67.56615 509
67.58626 514
67.60637 486
67.62649 559
67.6466 509
67.66672 515
67.68683 477
67.70694 524
67.72706 514
67.74717 461
67.76728 478
67.7874 465
67.80751 497
67.82763 507
67.84774 493
67.86785 512
67.88797 498
67.90808 510
67.92819 507
67.94831 476
67.96842 516
67.98853 483
68.00865 504
68.02876 539
68.04888 540
68.06899 531
68.0891 546
68.10922 582
68.12933 540
68.14944 509
68.16956 522
68.18967 500
68.20979 528
68.2299 491
68.25001 504
68.27013 474
68.29024 474
68.31035 469
68.33047 446
68.35058 471
68.3707 419
68.39081 463
68.41092 426
68.43104 453
68.45115 429
68.47126 431
68.49138 431
68.51149 407
68.5316 437
68.55172 403
68.57183 415
68.59195 408
68.61206 418
68.63217 420
68.65229 406
68.6724 392
68.69251 366
68.71263 400
68.73274 426
68.75286 362
68.77297 402
68.79308 412
68.8132 419
68.83331 375
68.85342 388
68.87354 425
68.89365 385
68.91376 380
68.93388 386
68.95399 419
68.97411 394
68.99422 381
69.01433 412
69.03445 377
69.05456 389
69.07467 398
69.09479 368
69.1149 420
69.13502 418
69.15513 406
69.17524 366
69.19536 402
69.21547 375
69.23558 385
69.2557 390
69.27581 381
69.29593 413
69.31604 406
69.33615 386
69.35627 398
69.37638 383
69.39649 446
69.41661 382
69.43672 396
69.45683 411
69.47695 424
69.49706 405
69.51718 396
69.53729 380
69.5574 377
69.57752 370
69.59763 389
69.61774 401
69.63786 382
69.65797 401
69.67809 392
69.6982 373
69.71831 403
69.73843 380
69.75854 406
69.77865 430
69.79877 383
69.81888 398
69.839 392
69.85911 384
69.87922 387
69.89934 386
69.91945 410
69.93956 402
69.95968 423
69.97979 403
69.9999 396
70.02002 368
70.04013 420
70.06025 389
70.08036 405
70.10047 382
70.12059 376
70.1407 438
70.16081 379
70.18093 371
70.20104 402
70.22116 364
70.24127 392
70.26138 397
70.2815 388
70.30161 409
70.32172 395
70.34184 411
70.36195 380
70.38207 373
70.40218 407
70.42229 383
70.44241 386
70.46252 367
70.48263 395
70.50275 382
70.52286 343
70.54297 384
70.56309 414
70.5832 416
70.60332 367
70.62343 403
70.64354 404
70.66366 401
70.68377 415
70.70388 391
70.724 420
70.74411 402
70.76423 380
70.78434 400
70.80445 410
70.82457 402
70.84468 404
70.86479 399
70.88491 395
70.90502 401
70.92513 382
70.94525 380
70.96536 390
70.98548 400
71.00559 440
71.0257 421
71.04582 398
71.06593 396
71.08604 418
71.10616 421
71.12627 451
71.14639 390
71.1665 432
71.18661 384
71.20673 417
71.22684 419
71.24695 394
71.26707 418
71.28718 422
71.3073 414
71.32741 406
71.34752 407
71.36764 404
71.38775 406
71.40786 402
71.42798 401
71.44809 380
71.4682 434
71.48832 407
71.50843 383
71.52855 369
71.54866 417
71.56877 415
71.58889 398
71.609 396
71.62911 414
71.64923 401
71.66934 372
71.68946 387
71.70957 396
71.72968 425
71.7498 388
71.76991 407
71.79002 397
71.81014 401
71.83025 417
71.85037 439
71.87048 376
71.89059 412
71.91071 412
71.93082 400
71.95093 405
71.97105 410
71.99116 371
72.01127 446
72.03139 417
72.0515 395
72.07162 436
72.09173 412
72.11184 407
72.13196 388
72.15207 422
72.17218 405
72.1923 394
72.21241 424
72.23253 405
72.25264 421
72.27275 424
72.29287 410
72.31298 413
72.33309 403
72.35321 403
72.37332 446
72.39344 390
72.41355 401
72.43366 392
72.45378 356
72.47389 442
72.494 400
72.51412 405
72.53423 385
72.55434 401
72.57446 417
72.59457 423
72.61469 432
72.6348 415
72.65491 403
72.67503 409
72.69514 400
72.71525 392
72.73537 408
72.75548 436
72.7756 387
72.79571 398
72.81582 411
72.83594 424
72.85605 416
72.87616 474
72.89628 455
72.91639 420
72.9365 432
72.95662 422
72.97673 430
72.99685 463
73.01696 451
73.03707 425
73.05719 401
73.0773 445
73.09741 432
73.11753 439
73.13764 407
73.15776 406
73.17787 419
73.19798 457
73.2181 421
73.23821 450
73.25832 444
73.27844 450
73.29855 452
73.31867 417
73.33878 427
73.35889 439
73.37901 475
73.39912 441
73.41923 470
73.43935 418
73.45946 453
73.47957 432
73.49969 469
73.5198 441
73.53992 442
73.56003 416
73.58014 406
73.60026 441
73.62037 437
73.64048 433
73.6606 397
73.68071 395
73.70083 438
73.72094 452
73.74105 402
73.76117 389
73.78128 401
73.80139 398
73.82151 404
73.84162 392
73.86174 398
73.88185 425
73.90196 407
73.92208 407
73.94219 390
73.9623 411
73.98242 394
74.00253 381
74.02264 367
74.04276 407
74.06287 425
74.08299 403
74.1031 380
74.12321 403
74.14333 322
74.16344 413
74.18355 414
74.20367 396
74.22378 397
74.2439 409
74.26401 398
74.28412 366
74.30424 406
74.32435 407
74.34446 424
74.36458 364
74.38469 385
74.40481 384
74.42492 370
74.44503 374
74.46515 410
74.48526 411
74.50537 418
74.52549 402
74.5456 399
74.56571 404
74.58583 394
74.60594 389
74.62606 405
74.64617 400
74.66628 388
74.6864 370
74.70651 407
74.72662 393
74.74674 393
74.76685 395
74.78697 411
74.80708 409
74.82719 384
74.84731 380
74.86742 378
74.88753 402
74.90765 424
74.92776 384
74.94787 403
74.96799 355
74.9881 408
75.00822 419
