3.00117 18923
3.02128 18984
3.0414 18109
3.06151 17563
3.08162 17616
3.10174 16533
3.12185 16313
3.14197 15722
3.16208 15719
3.18219 15103
3.20231 14508
3.22242 14427
3.24253 13653
3.26265 13386
3.28276 12924
3.30288 12514
3.32299 12269
3.3431 11734
3.36322 11505
3.38333 11062
3.40344 10497
3.42356 10448
3.44367 10026
3.46379 9815
3.4839 9304
3.50401 8857
3.52413 8818
3.54424 8478
3.56435 8382
3.58447 7872
3.60458 7622
3.62469 7427
3.64481 7080
3.66492 7019
3.68504 6595
3.70515 6355
3.72526 6183
3.74538 5949
3.76549 5532
3.7856 5668
3.80572 5037
3.82583 5094
3.84595 4740
3.86606 4683
3.88617 4524
3.90629 4225
3.9264 4088
3.94651 3791
3.96663 3834
3.98674 3802
4.00686 3411
4.02697 3304
4.04708 3050
4.0672 3040
4.08731 2964
4.10742 2830
4.12754 2658
4.14765 2613
4.16776 2420
4.18788 2460
4.20799 2283
4.22811 2272
4.24822 2289
4.26833 2150
4.28845 2192
4.30856 2011
4.32867 2048
4.34879 1970
4.3689 1795
4.38902 1937
4.40913 1787
4.42924 1764
4.44936 1617
4.46947 1683
4.48958 1632
4.5097 1559
4.52981 1599
4.54992 1531
4.57004 1540
4.59015 1459
4.61027 1488
4.63038 1453
4.65049 1444
4.67061 1413
4.69072 1369
4.71083 1327
4.73095 1299
4.75106 1288
4.77118 1295
4.79129 1284
4.8114 1196
4.83152 1199
4.85163 1186
4.87174 1196
4.89186 1176
4.91197 1149
4.93209 1168
4.9522 1148
4.97231 1067
4.99243 1123
5.01254 1040
5.03265 1067
5.05277 1020
5.07288 996
5.09299 1062
5.11311 974
5.13322 975
5.15334 951
5.17345 990
5.19356 924
5.21368 944
5.23379 939
5.2539 857
5.27402 862
5.29413 828
5.31425 872
5.33436 802
5.35447 829
5.37459 815
5.3947 826
5.41481 813
5.43493 832
5.45504 796
5.47516 774
5.49527 814
5.51538 792
5.5355 771
5.55561 797
5.57572 740
5.59584 765
5.61595 753
5.63606 740
5.65618 758
5.67629 743
5.69641 760
5.71652 786
5.73663 733
5.75675 765
5.77686 724
5.79697 769
5.81709 696
5.8372 715
5.85732 760
5.87743 721
5.89754 754
5.91766 738
5.93777 765
5.95788 798
5.978 779
5.99811 778
6.01823 787
6.03834 789
6.05845 861
6.07857 802
6.09868 848
6.11879 792
6.13891 729
6.15902 784
6.17913 730
6.19925 773
6.21936 715
6.23948 719
6.25959 667
6.2797 680
6.29982 672
6.31993 674
6.34004 733
6.36016 626
6.38027 672
6.40039 660
6.4205 600
6.44061 588
6.46073 650
6.48084 606
6.50095 611
6.52107 629
6.54118 612
6.56129 612
6.58141 598
6.60152 608
6.62164 543
6.64175 609
6.66186 571
6.68198 583
6.70209 583
6.7222 643
6.74232 582
6.76243 567
6.78255 559
6.80266 583
6.82277 587
6.84289 582
6.863 561
6.88311 562
6.90323 596
6.92334 558
6.94346 622
6.96357 567
6.98368 571
7.0038 542
7.02391 562
7.04402 539
7.06414 577
7.08425 640
7.10436 566
7.12448 508
7.14459 581
7.16471 586
7.18482 590
7.20493 562
7.22505 561
7.24516 510
7.26527 581
7.28539 537
7.3055 574
7.32562 563
7.34573 623
7.36584 549
7.38596 551
7.40607 540
7.42618 619
7.4463 529
7.46641 500
7.48653 549
7.50664 553
7.52675 555
7.54687 545
7.56698 581
7.58709 584
7.60721 536
7.62732 528
7.64743 497
7.66755 519
7.68766 556
7.70778 556
7.72789 552
7.748 539
7.76812 561
7.78823 557
7.80834 540
7.82846 510
7.84857 559
7.86869 539
7.8888 552
7.90891 524
7.92903 538
7.94914 547
7.96925 540
7.98937 532
8.00948 514
8.0296 526
8.04971 576
8.06982 534
8.08994 520
8.11005 577
8.13016 512
8.15028 518
8.17039 525
8.1905 507
8.21062 552
8.23073 517
8.25085 508
8.27096 571
8.29107 553
8.31119 549
8.3313 582
8.35141 524
8.37153 551
8.39164 556
8.41176 514
8.43187 512
8.45198 553
8.4721 514
8.49221 524
8.51232 526
8.53244 497
8.55255 570
8.57266 567
8.59278 502
8.61289 495
8.63301 519
8.65312 532
8.67323 509
8.69335 526
8.71346 512
8.73357 544
8.75369 549
8.7738 587
8.79392 559
8.81403 554
8.83414 530
8.85426 537
8.87437 562
8.89448 527
8.9146 517
8.93471 545
8.95483 517
8.97494 500
8.99505 493
9.01517 487
9.03528 486
9.05539 536
9.07551 505
9.09562 511
9.11573 465
9.13585 520
9.15596 504
9.17608 460
9.19619 480
9.2163 486
9.23642 493
9.25653 475
9.27664 476
9.29676 534
9.31687 463
9.33699 518
9.3571 448
9.37721 498
9.39733 457
9.41744 473
9.43755 477
9.45767 475
9.47778 456
9.4979 471
9.51801 510
9.53812 473
9.55824 532
9.57835 532
9.59846 450
9.61858 517
9.63869 481
9.6588 513
9.67892 492
9.69903 497
9.71915 511
9.73926 505
9.75937 491
9.77949 500
9.7996 477
9.81971 492
9.83983 458
9.85994 524
9.88006 477
9.90017 520
9.92028 501
9.9404 445
9.96051 459
9.98062 444
10.00074 514
10.02085 438
10.04097 457
10.06108 497
10.08119 468
10.10131 490
10.12142 477
10.14153 458
10.16165 496
10.18176 466
10.20187 507
10.22199 470
10.2421 488
10.26222 463
10.28233 503
10.30244 506
10.32256 510
10.34267 604
10.36278 579
10.3829 607
10.40301 540
10.42313 627
10.44324 616
10.46335 620
10.48347 658
10.50358 592
10.52369 552
10.54381 497
10.56392 470
10.58403 477
10.60415 513
10.62426 498
10.64438 452
10.66449 489
10.6846 487
10.70472 477
10.72483 484
10.74494 493
10.76506 477
10.78517 504
10.80529 533
10.8254 526
10.84551 479
10.86563 487
10.88574 508
10.90585 542
10.92597 509
10.94608 484
10.9662 497
10.98631 467
11.00642 512
11.02654 481
11.04665 479
11.06676 509
11.08688 511
11.10699 491
11.1271 461
11.14722 486
11.16733 454
11.18745 513
11.20756 489
11.22767 514
11.24779 466
11.2679 473
11.28801 508
11.30813 518
11.32824 472
11.34836 454
11.36847 505
11.38858 511
11.4087 511
11.42881 490
11.44892 527
11.46904 506
11.48915 553
11.50927 493
11.52938 531
11.54949 475
11.56961 513
11.58972 449
11.60983 496
11.62995 502
11.65006 562
11.67017 527
11.69029 485
11.7104 518
11.73052 524
11.75063 567
11.77074 573
11.79086 627
11.81097 508
11.83108 481
11.8512 527
11.87131 559
11.89143 517
11.91154 521
11.93165 575
11.95177 568
11.97188 572
11.99199 504
12.01211 555
12.03222 560
12.05234 564
12.07245 546
12.09256 578
12.11268 583
12.13279 530
12.1529 575
12.17302 546
12.19313 592
12.21324 537
12.23336 539
12.25347 551
12.27359 545
12.2937 538
12.31381 496
12.33393 529
12.35404 561
12.37415 524
12.39427 491
12.41438 501
12.4345 496
12.45461 500
12.47472 493
12.49484 508
12.51495 514
12.53506 442
12.55518 521
12.57529 463
12.5954 470
12.61552 491
12.63563 440
12.65575 489
12.67586 507
12.69597 509
12.71609 473
12.7362 486
12.75631 462
12.77643 443
12.79654 411
12.81666 483
12.83677 450
12.85688 453
12.877 421
12.89711 440
12.91722 456
12.93734 448
12.95745 450
12.97757 443
12.99768 458
13.01779 434
13.03791 487
13.05802 450
13.07813 411
13.09825 422
13.11836 429
13.13847 430
13.15859 453
13.1787 434
13.19882 454
13.21893 468
13.23904 448
13.25916 453
13.27927 443
13.29938 456
13.3195 453
13.33961 453
13.35973 417
13.37984 414
13.39995 423
13.42007 443
13.44018 417
13.46029 467
13.48041 424
13.50052 398
13.52064 407
13.54075 434
13.56086 464
13.58098 433
13.60109 453
13.6212 392
13.64132 418
13.66143 450
13.68154 455
13.70166 464
13.72177 487
13.74189 478
13.762 471
13.78211 499
13.80223 503
13.82234 480
13.84245 474
13.86257 494
13.88268 474
13.9028 469
13.92291 435
13.94302 412
13.96314 447
13.98325 454
14.00336 458
14.02348 445
14.04359 399
14.06371 427
14.08382 447
14.10393 420
14.12405 393
14.14416 409
14.16427 443
14.18439 401
14.2045 391
14.22461 384
14.24473 424
14.26484 429
14.28496 455
14.30507 360
14.32518 421
14.3453 426
14.36541 387
14.38552 434
14.40564 397
14.42575 394
14.44587 410
14.46598 392
14.48609 365
14.50621 377
14.52632 424
14.54643 404
14.56655 403
14.58666 431
14.60677 416
14.62689 425
14.647 426
14.66712 417
14.68723 396
14.70734 437
14.72746 428
14.74757 432
14.76768 432
14.7878 429
14.80791 426
14.82803 398
14.84814 409
14.86825 453
14.88837 419
14.90848 460
14.92859 442
14.94871 444
14.96882 452
14.98894 465
15.00905 434
15.02916 395
15.04928 471
15.06939 452
15.0895 410
15.10962 394
15.12973 422
15.14984 386
15.16996 407
15.19007 402
15.21019 405
15.2303 381
15.25041 408
15.27053 379
15.29064 412
15.31075 413
15.33087 445
15.35098 406
15.3711 426
15.39121 421
15.41132 435
15.43144 438
15.45155 405
15.47166 408
15.49178 406
15.51189 385
15.53201 404
15.55212 351
15.57223 377
15.59235 418
15.61246 373
15.63257 419
15.65269 415
15.6728 403
15.69291 398
15.71303 406
15.73314 416
15.75326 399
15.77337 368
15.79348 410
15.8136 450
15.83371 440
15.85382 430
15.87394 416
15.89405 410
15.91417 424
15.93428 389
15.95439 425
15.97451 420
15.99462 419
16.01473 399
16.03485 438
16.05496 400
16.07508 390
16.09519 394
16.1153 400
16.13542 421
16.15553 411
16.17564 416
16.19576 422
16.21587 431
16.23598 429
16.2561 388
16.27621 441
16.29633 438
16.31644 438
16.33655 384
16.35667 392
16.37678 394
16.39689 421
16.41701 421
16.43712 406
16.45724 401
16.47735 410
16.49746 413
16.51758 461
16.53769 436
16.5578 398
16.57792 393
16.59803 429
16.61814 464
16.63826 444
16.65837 403
16.67849 419
16.6986 430
16.71871 385
16.73883 413
16.75894 432
16.77905 399
16.79917 417
16.81928 426
16.8394 366
16.85951 430
16.87962 418
16.89974 394
16.91985 428
16.93996 437
16.96008 440
16.98019 392
17.00031 395
17.02042 408
17.04053 382
17.06065 412
17.08076 443
17.10087 407
17.12099 400
17.1411 382
17.16121 431
17.18133 391
17.20144 442
17.22156 425
17.24167 411
17.26178 431
17.2819 434
17.30201 462
17.32212 409
17.34224 439
17.36235 461
17.38247 416
17.40258 434
17.42269 429
17.44281 411
17.46292 450
17.48303 441
17.50315 473
17.52326 512
17.54338 564
17.56349 554
17.5836 540
17.60372 550
17.62383 566
17.64394 539
17.66406 524
17.68417 587
17.70428 468
17.7244 483
17.74451 459
17.76463 445
17.78474 459
17.80485 464
17.82497 481
17.84508 524
17.86519 438
17.88531 454
17.90542 425
17.92554 495
17.94565 477
17.96576 448
17.98588 468
18.00599 412
18.0261 440
18.04622 487
18.06633 499
18.08645 431
18.10656 449
18.12667 468
18.14679 385
18.1669 427
18.18701 404
18.20713 431
18.22724 433
18.24735 449
18.26747 429
18.28758 424
18.3077 410
18.32781 426
18.34792 425
18.36804 417
18.38815 418
18.40826 440
18.42838 439
18.44849 429
18.46861 428
18.48872 444
18.50883 430
18.52895 443
18.54906 415
18.56917 429
18.58929 471
18.6094 432
18.62951 438
18.64963 384
18.66974 459
18.68986 414
18.70997 407
18.73008 458
18.7502 421
18.77031 415
18.79042 454
18.81054 438
18.83065 439
18.85077 435
18.87088 419
18.89099 441
18.91111 457
18.93122 475
18.95133 441
18.97145 482
18.99156 439
19.01168 492
19.03179 444
19.0519 463
19.07202 493
19.09213 447
19.11224 468
19.13236 465
19.15247 535
19.17258 481
19.1927 529
19.21281 513
19.23293 512
19.25304 551
19.27315 560
19.29327 557
19.31338 569
19.33349 549
19.35361 483
19.37372 539
19.39384 525
19.41395 560
19.43406 513
19.45418 541
19.47429 545
19.4944 649
19.51452 583
19.53463 588
19.55475 624
19.57486 584
19.59497 616
19.61509 626
19.6352 627
19.65531 632
19.67543 680
19.69554 696
19.71565 675
19.73577 710
19.75588 749
19.776 721
19.79611 759
19.81622 751
19.83634 797
19.85645 774
19.87656 763
19.89668 757
19.91679 736
19.93691 723
19.95702 707
19.97713 742
19.99725 677
20.01736 723
20.03747 720
20.05759 686
20.0777 726
20.09782 694
20.11793 647
20.13804 681
20.15816 694
20.17827 703
20.19838 655
20.2185 658
20.23861 675
20.25872 639
20.27884 683
20.29895 657
20.31907 650
20.33918 626
20.35929 662
20.37941 600
20.39952 662
20.41963 640
20.43975 620
20.45986 670
20.47998 646
20.50009 679
20.5202 736
20.54032 696
20.56043 660
20.58054 678
20.60066 683
20.62077 714
20.64088 725
20.661 736
20.68111 819
20.70123 940
20.72134 1014
20.74145 1209
20.76157 1266
20.78168 1340
20.80179 1417
20.82191 1472
20.84202 1298
20.86214 1150
20.88225 1006
20.90236 899
20.92248 856
20.94259 742
20.9627 688
20.98282 699
21.00293 660
21.02305 635
21.04316 647
21.06327 602
21.08339 619
21.1035 661
21.12361 579
21.14373 653
21.16384 642
21.18395 660
21.20407 578
21.22418 642
21.2443 619
21.26441 628
21.28452 657
21.30464 606
21.32475 635
21.34486 565
21.36498 602
21.38509 626
21.40521 602
21.42532 628
21.44543 618
21.46555 613
21.48566 575
21.50577 608
21.52589 580
21.546 579
21.56612 585
21.58623 557
21.60634 581
21.62646 615
21.64657 557
21.66668 562
21.6868 555
21.70691 565
21.72702 598
21.74714 612
21.76725 616
21.78737 592
21.80748 653
21.82759 661
21.84771 694
21.86782 754
21.88793 783
21.90805 810
21.92816 901
21.94828 954
21.96839 965
21.9885 938
22.00862 940
22.02873 1012
22.04884 875
22.06896 824
22.08907 841
22.10919 764
22.1293 708
22.14941 697
22.16953 646
22.18964 689
22.20975 629
22.22987 710
22.24998 696
22.27009 616
22.29021 626
22.31032 590
22.33044 623
22.35055 568
22.37066 568
22.39078 575
22.41089 512
22.431 562
22.45112 530
22.47123 556
22.49135 538
22.51146 581
22.53157 548
22.55169 526
22.5718 565
22.59191 544
22.61203 544
22.63214 581
22.65225 532
22.67237 543
22.69248 560
22.7126 558
22.73271 580
22.75282 581
22.77294 521
22.79305 571
22.81316 547
22.83328 566
22.85339 598
22.87351 582
22.89362 541
22.91373 628
22.93385 615
22.95396 605
22.97407 580
22.99419 544
23.0143 556
23.03442 531
23.05453 555
23.07464 532
23.09476 567
23.11487 511
23.13498 515
23.1551 520
23.17521 544
23.19532 574
23.21544 492
23.23555 532
23.25567 534
23.27578 570
23.29589 555
23.31601 500
23.33612 556
23.35623 598
23.37635 545
23.39646 570
23.41658 600
23.43669 643
23.4568 654
23.47692 696
23.49703 722
23.51714 722
23.53726 705
23.55737 665
23.57749 718
23.5976 740
23.61771 623
23.63783 625
23.65794 610
23.67805 667
23.69817 593
23.71828 679
23.73839 615
23.75851 592
23.77862 606
23.79874 650
23.81885 621
23.83896 615
23.85908 580
23.87919 590
23.8993 595
23.91942 609
23.93953 606
23.95965 595
23.97976 611
23.99987 603
24.01999 612
24.0401 688
24.06021 624
24.08033 728
24.10044 700
24.12056 733
24.14067 715
24.16078 794
24.1809 750
24.20101 735
24.22112 730
24.24124 765
24.26135 788
24.28146 716
24.30158 700
24.32169 692
24.34181 675
24.36192 630
24.38203 637
24.40215 542
24.42226 565
24.44237 592
24.46249 552
24.4826 578
24.50272 581
24.52283 558
24.54294 566
24.56306 571
24.58317 576
24.60328 593
24.6234 593
24.64351 632
24.66362 572
24.68374 595
24.70385 606
24.72397 602
24.74408 581
24.76419 566
24.78431 589
24.80442 621
24.82453 590
24.84465 594
24.86476 619
24.88488 621
24.90499 602
24.9251 595
24.94522 646
24.96533 591
24.98544 610
25.00556 649
25.02567 607
25.04579 616
25.0659 604
25.08601 623
25.10613 643
25.12624 623
25.14635 620
25.16647 552
25.18658 628
25.20669 633
25.22681 612
25.24692 586
25.26704 641
25.28715 680
25.30726 662
25.32738 662
25.34749 648
25.3676 711
25.38772 735
25.40783 748
25.42795 825
25.44806 774
25.46817 804
25.48829 828
25.5084 738
25.52851 666
25.54863 709
25.56874 684
25.58886 592
25.60897 642
25.62908 590
25.6492 589
25.66931 610
25.68942 592
25.70954 563
25.72965 617
25.74976 581
25.76988 583
25.78999 545
25.81011 583
25.83022 578
25.85033 572
25.87045 538
25.89056 604
25.91067 564
25.93079 624
25.9509 637
25.97102 634
25.99113 654
26.01124 658
26.03136 663
26.05147 655
26.07158 667
26.0917 722
26.11181 743
26.13193 739
26.15204 706
26.17215 756
26.19227 726
26.21238 776
26.23249 775
26.25261 744
26.27272 735
26.29283 757
26.31295 919
26.33306 893
26.35318 880
26.37329 1086
26.3934 1066
26.41352 1206
26.43363 1476
26.45374 1781
26.47386 2197
26.49397 2624
26.51409 3288
26.5342 3817
26.55431 4316
26.57443 4558
26.59454 4556
26.61465 4097
26.63477 3535
26.65488 2952
26.67499 2371
26.69511 1810
26.71522 1314
26.73534 1075
26.75545 899
26.77556 777
26.79568 771
26.81579 738
26.8359 685
26.85602 693
26.87613 682
26.89625 670
26.91636 631
26.93647 616
26.95659 557
26.9767 636
26.99681 588
27.01693 588
27.03704 565
27.05716 565
27.07727 631
27.09738 599
27.1175 586
27.13761 550
27.15772 554
27.17784 577
27.19795 570
27.21806 525
27.23818 540
27.25829 564
27.27841 591
27.29852 564
27.31863 561
27.33875 584
27.35886 541
27.37897 595
27.39909 588
27.4192 608
27.43932 567
27.45943 614
27.47954 623
27.49966 637
27.51977 632
27.53988 637
27.56 694
27.58011 666
27.60023 779
27.62034 879
27.64045 892
27.66057 903
27.68068 981
27.70079 1030
27.72091 1096
27.74102 1118
27.76113 1098
27.78125 1135
27.80136 1076
27.82148 1187
27.84159 1212
27.8617 1240
27.88182 1212
27.90193 1114
27.92204 1101
27.94216 987
27.96227 972
27.98239 875
28.0025 885
28.02261 790
28.04273 779
28.06284 726
28.08295 742
28.10307 715
28.12318 772
28.1433 694
28.16341 771
28.18352 684
28.20364 686
28.22375 648
28.24386 660
28.26398 660
28.28409 624
28.3042 588
28.32432 589
28.34443 594
28.36455 586
28.38466 592
28.40477 626
28.42489 563
28.445 620
28.46511 620
28.48523 586
28.50534 514
28.52546 526
28.54557 516
28.56568 525
28.5858 500
28.60591 557
28.62602 499
28.64614 490
28.66625 492
28.68636 492
28.70648 492
28.72659 442
28.74671 491
28.76682 460
28.78693 487
28.80705 438
28.82716 530
28.84727 495
28.86739 455
28.8875 486
28.90762 467
28.92773 482
28.94784 448
28.96796 524
28.98807 496
29.00818 454
29.0283 494
29.04841 513
29.06853 497
29.08864 444
29.10875 537
29.12887 517
29.14898 463
29.16909 472
29.18921 501
29.20932 465
29.22943 509
29.24955 506
29.26966 471
29.28978 464
29.30989 458
29.33 444
29.35012 479
29.37023 448
29.39034 523
29.41046 448
29.43057 493
29.45069 458
29.4708 503
29.49091 483
29.51103 507
29.53114 488
29.55125 466
29.57137 469
29.59148 519
29.6116 520
29.63171 458
29.65182 517
29.67194 490
29.69205 535
29.71216 502
29.73228 506
29.75239 519
29.7725 513
29.79262 512
29.81273 536
29.83285 543
29.85296 518
29.87307 504
29.89319 543
29.9133 531
29.93341 533
29.95353 580
29.97364 547
29.99376 557
30.01387 547
30.03398 537
30.0541 549
30.07421 545
30.09432 542
30.11444 577
30.13455 570
30.15467 610
30.17478 590
30.19489 594
30.21501 584
30.23512 542
30.25523 593
30.27535 599
30.29546 641
30.31557 613
30.33569 660
30.3558 568
30.37592 655
30.39603 680
30.41614 635
30.43626 656
30.45637 664
30.47648 665
30.4966 667
30.51671 647
30.53683 685
30.55694 685
30.57705 679
30.59717 718
30.61728 656
30.63739 721
30.65751 662
30.67762 812
30.69773 846
30.71785 869
30.73796 838
30.75808 984
30.77819 949
30.7983 951
30.81842 865
30.83853 815
30.85864 825
30.87876 677
30.89887 669
30.91899 610
30.9391 601
30.95921 554
30.97933 541
30.99944 548
31.01955 509
31.03967 500
31.05978 468
31.0799 506
31.10001 506
31.12012 506
31.14024 534
31.16035 559
31.18046 532
31.20058 550
31.22069 534
31.2408 511
31.26092 507
31.28103 550
31.30115 526
31.32126 517
31.34137 517
31.36149 473
31.3816 495
31.40171 517
31.42183 464
31.44194 510
31.46206 520
31.48217 481
31.50228 523
31.5224 521
31.54251 555
31.56262 509
31.58274 546
31.60285 537
31.62297 603
31.64308 622
31.66319 596
31.68331 642
31.70342 606
31.72353 647
31.74365 647
31.76376 636
31.78387 627
31.80399 603
31.8241 602
31.84422 565
31.86433 504
31.88444 517
31.90456 496
31.92467 481
31.94478 529
31.9649 489
31.98501 530
32.00513 558
32.02524 508
32.04535 508
32.06547 542
32.08558 492
32.10569 529
32.12581 510
32.14592 517
32.16604 484
32.18615 497
32.20626 500
32.22638 494
32.24649 509
32.2666 521
32.28672 510
32.30683 469
32.32694 485
32.34706 526
32.36717 508
32.38729 469
32.4074 475
32.42751 513
32.44763 499
32.46774 523
32.48785 549
32.50797 525
32.52808 506
32.5482 502
32.56831 525
32.58842 477
32.60854 472
32.62865 526
32.64876 531
32.66888 524
32.68899 522
32.7091 521
32.72922 486
32.74933 518
32.76945 530
32.78956 448
32.80967 569
32.82979 629
32.8499 548
32.87001 591
32.89013 596
32.91024 613
32.93036 590
32.95047 533
32.97058 544
32.9907 566
33.01081 525
33.03092 536
33.05104 512
33.07115 559
33.09127 628
33.11138 553
33.13149 535
33.15161 589
33.17172 595
33.19183 605
33.21195 584
33.23206 688
33.25217 663
33.27229 650
33.2924 634
33.31252 688
33.33263 642
33.35274 614
33.37286 583
33.39297 605
33.41308 618
33.4332 605
33.45331 553
33.47343 557
33.49354 583
33.51365 523
33.53377 551
33.55388 549
33.57399 513
33.59411 571
33.61422 566
33.63434 573
33.65445 571
33.67456 590
33.69468 605
33.71479 593
33.7349 563
33.75502 630
33.77513 570
33.79524 600
33.81536 577
33.83547 630
33.85559 580
33.8757 593
33.89581 569
33.91593 553
33.93604 581
33.95615 573
33.97627 559
33.99638 522
34.0165 591
34.03661 596
34.05672 634
34.07684 610
34.09695 612
34.11706 578
34.13718 681
34.15729 645
34.17741 642
34.19752 653
34.21763 662
34.23775 650
34.25786 689
34.27797 686
34.29809 633
34.3182 738
34.33831 694
34.35843 796
34.37854 827
34.39866 779
34.41877 798
34.43888 736
34.459 764
34.47911 756
34.49922 716
34.51934 718
34.53945 675
34.55957 619
34.57968 690
34.59979 590
34.61991 606
34.64002 632
34.66013 628
34.68025 581
34.70036 590
34.72047 625
34.74059 619
34.7607 622
34.78082 679
34.80093 646
34.82104 628
34.84116 671
34.86127 703
34.88138 704
34.9015 684
34.92161 722
34.94173 737
34.96184 704
34.98195 699
35.00207 752
35.02218 748
35.04229 697
35.06241 720
35.08252 661
35.10264 687
35.12275 684
35.14286 695
35.16298 713
35.18309 702
35.2032 688
35.22332 712
35.24343 669
35.26354 650
35.28366 741
35.30377 796
35.32389 726
35.344 772
35.36411 781
35.38423 746
35.40434 701
35.42445 749
35.44457 659
35.46468 642
35.4848 670
35.50491 663
35.52502 665
35.54514 684
35.56525 650
35.58536 644
35.60548 637
35.62559 664
35.64571 595
35.66582 663
35.68593 634
35.70605 641
35.72616 638
35.74627 638
35.76639 528
35.7865 614
35.80661 622
35.82673 573
35.84684 626
35.86696 619
35.88707 584
35.90718 568
35.9273 609
35.94741 605
35.96752 542
35.98764 600
36.00775 570
36.02787 599
36.04798 574
36.06809 620
36.08821 579
36.10832 579
36.12843 526
36.14855 576
36.16866 585
36.18878 537
36.20889 583
36.229 572
36.24912 551
36.26923 591
36.28934 613
36.30946 649
36.32957 655
36.34968 709
36.3698 682
36.38991 768
36.41003 808
36.43014 847
36.45025 849
36.47037 808
36.49048 862
36.51059 831
36.53071 838
36.55082 784
36.57094 743
36.59105 706
36.61116 685
36.63128 679
36.65139 645
36.6715 620
36.69162 652
36.71173 607
36.73184 585
36.75196 563
36.77207 613
36.79219 607
36.8123 595
36.83241 605
36.85253 596
36.87264 646
36.89275 609
36.91287 587
36.93298 582
36.9531 616
36.97321 567
36.99332 626
37.01344 558
37.03355 603
37.05366 578
37.07378 550
37.09389 604
37.11401 599
37.13412 566
37.15423 618
37.17435 627
37.19446 632
37.21457 638
37.23469 653
37.2548 687
37.27491 721
37.29503 716
37.31514 722
37.33526 755
37.35537 726
37.37548 774
37.3956 807
37.41571 766
37.43582 775
37.45594 663
37.47605 739
37.49617 648
37.51628 672
37.53639 654
37.55651 651
37.57662 627
37.59673 635
37.61685 606
37.63696 600
37.65708 559
37.67719 552
37.6973 558
37.71742 645
37.73753 566
37.75764 541
37.77776 560
37.79787 563
37.81798 613
37.8381 564
37.85821 588
37.87833 580
37.89844 543
37.91855 504
37.93867 518
37.95878 525
37.97889 575
37.99901 542
38.01912 562
38.03924 527
38.05935 477
38.07946 550
38.09958 515
38.11969 550
38.1398 568
38.15992 525
38.18003 550
38.20015 528
38.22026 547
38.24037 619
38.26049 563
38.2806 546
38.30071 533
38.32083 545
38.34094 542
38.36105 548
38.38117 516
38.40128 550
38.4214 548
38.44151 553
38.46162 536
38.48174 527
38.50185 523
38.52196 535
38.54208 500
38.56219 538
38.58231 538
38.60242 488
38.62253 500
38.64265 529
38.66276 519
38.68287 525
38.70299 530
38.7231 503
38.74321 554
38.76333 479
38.78344 511
38.80356 561
38.82367 554
38.84378 543
38.8639 543
38.88401 526
38.90412 545
38.92424 516
38.94435 553
38.96447 584
38.98458 567
39.00469 580
39.02481 611
39.04492 613
39.06503 579
39.08515 608
39.10526 641
39.12538 637
39.14549 588
39.1656 576
39.18572 647
39.20583 615
39.22594 633
39.24606 598
39.26617 629
39.28628 665
39.3064 670
39.32651 713
39.34663 725
39.36674 666
39.38685 756
39.40697 740
39.42708 725
39.44719 681
39.46731 660
39.48742 629
39.50754 658
39.52765 543
39.54776 554
39.56788 533
39.58799 532
39.6081 555
39.62822 552
39.64833 524
39.66845 526
39.68856 509
39.70867 483
39.72879 469
39.7489 462
39.76901 490
39.78913 462
39.80924 515
39.82935 478
39.84947 546
39.86958 470
39.8897 510
39.90981 501
39.92992 499
39.95004 470
39.97015 482
39.99026 495
40.01038 521
40.03049 540
40.05061 516
40.07072 506
40.09083 523
40.11095 518
40.13106 560
40.15117 590
40.17129 557
40.1914 619
40.21152 633
40.23163 619
40.25174 580
40.27186 583
40.29197 544
40.31208 547
40.3322 503
40.35231 541
40.37242 545
40.39254 540
40.41265 461
40.43277 524
40.45288 461
40.47299 452
40.49311 481
40.51322 499
40.53333 484
40.55345 455
40.57356 497
40.59368 525
40.61379 512
40.6339 478
40.65402 502
40.67413 489
40.69424 472
40.71436 485
40.73447 490
40.75458 483
40.7747 489
40.79481 475
40.81493 493
40.83504 475
40.85515 518
40.87527 518
40.89538 475
40.91549 525
40.93561 503
40.95572 498
40.97584 518
40.99595 509
41.01606 495
41.03618 467
41.05629 486
41.0764 522
41.09652 515
41.11663 524
41.13675 518
41.15686 501
41.17697 506
41.19709 521
41.2172 499
41.23731 467
41.25743 547
41.27754 497
41.29765 447
41.31777 512
41.33788 507
41.358 462
41.37811 520
41.39822 521
41.41834 524
41.43845 499
41.45856 541
41.47868 528
41.49879 535
41.51891 536
41.53902 558
41.55913 576
41.57925 598
41.59936 558
41.61947 598
41.63959 551
41.6597 574
41.67982 611
41.69993 544
41.72004 485
41.74016 539
41.76027 538
41.78038 538
41.8005 522
41.82061 490
41.84072 540
41.86084 485
41.88095 472
41.90107 452
41.92118 456
41.94129 485
41.96141 428
41.98152 476
42.00163 469
42.02175 471
42.04186 491
42.06198 535
42.08209 482
42.1022 472
42.12232 509
42.14243 510
42.16254 521
42.18266 507
42.20277 526
42.22289 475
42.243 531
42.26311 536
42.28323 567
42.30334 586
42.32345 659
42.34357 596
42.36368 655
42.38379 657
42.40391 700
42.42402 649
42.44414 642
42.46425 589
42.48436 574
42.50448 570
42.52459 558
42.5447 590
42.56482 571
42.58493 554
42.60505 508
42.62516 550
42.64527 513
42.66539 546
42.6855 555
42.70561 564
42.72573 573
42.74584 561
42.76595 531
42.78607 542
42.80618 587
42.8263 567
42.84641 570
42.86652 556
42.88664 545
42.90675 547
42.92686 571
42.94698 448
42.96709 493
42.98721 467
43.00732 469
43.02743 515
43.04755 459
43.06766 420
43.08777 480
43.10789 464
43.128 440
43.14812 456
43.16823 432
43.18834 475
43.20846 479
43.22857 482
43.24868 480
43.2688 448
43.28891 480
43.30902 468
43.32914 439
43.34925 440
43.36937 449
43.38948 477
43.40959 444
43.42971 436
43.44982 505
43.46993 447
43.49005 473
43.51016 467
43.53028 464
43.55039 503
43.5705 490
43.59062 484
43.61073 502
43.63084 492
43.65096 496
43.67107 493
43.69119 511
43.7113 485
43.73141 504
43.75153 477
43.77164 494
43.79175 458
43.81187 462
43.83198 461
43.85209 479
43.87221 459
43.89232 467
43.91244 433
43.93255 468
43.95266 434
43.97278 446
43.99289 482
44.013 443
44.03312 509
44.05323 421
44.07335 467
44.09346 439
44.11357 478
44.13369 469
44.1538 478
44.17391 465
44.19403 455
44.21414 457
44.23426 456
44.25437 456
44.27448 456
44.2946 430
44.31471 465
44.33482 473
44.35494 433
44.37505 462
44.39516 460
44.41528 437
44.43539 491
44.45551 445
44.47562 469
44.49573 497
44.51585 485
44.53596 485
44.55607 457
44.57619 474
44.5963 484
44.61642 467
44.63653 435
44.65664 510
44.67676 516
44.69687 504
44.71698 437
44.7371 459
44.75721 453
44.77732 445
44.79744 494
44.81755 455
44.83767 468
44.85778 462
44.87789 469
44.89801 475
44.91812 468
44.93823 475
44.95835 492
44.97846 486
44.99858 449
45.01869 491
45.0388 467
45.05892 458
45.07903 497
45.09914 472
45.11926 527
45.13937 487
45.15949 483
45.1796 479
45.19971 467
45.21983 461
45.23994 485
45.26005 471
45.28017 478
45.30028 473
45.32039 488
45.34051 471
45.36062 489
45.38074 485
45.40085 441
45.42096 458
45.44108 469
45.46119 479
45.4813 514
45.50142 486
45.52153 456
45.54165 492
45.56176 483
45.58187 509
45.60199 524
45.6221 509
45.64221 557
45.66233 532
45.68244 549
45.70256 531
45.72267 531
45.74278 554
45.7629 502
45.78301 555
45.80312 508
45.82324 518
45.84335 509
45.86346 534
45.88358 497
45.90369 444
45.92381 456
45.94392 462
45.96403 428
45.98415 492
46.00426 434
46.02437 434
46.04449 463
46.0646 422
46.08472 465
46.10483 431
46.12494 461
46.14506 438
46.16517 416
46.18528 429
46.2054 454
46.22551 414
46.24563 447
46.26574 437
46.28585 472
46.30597 428
46.32608 424
46.34619 428
46.36631 449
46.38642 485
46.40653 485
46.42665 445
46.44676 440
46.46688 431
46.48699 432
46.5071 419
46.52722 458
46.54733 448
46.56744 443
46.58756 451
46.60767 451
46.62779 418
46.6479 403
46.66801 450
46.68813 447
46.70824 416
46.72835 454
46.74847 431
46.76858 456
46.78869 440
46.80881 470
46.82892 476
46.84904 442
46.86915 430
46.88926 432
46.90938 456
46.92949 448
46.9496 440
46.96972 434
46.98983 428
47.00995 470
47.03006 437
47.05017 451
47.07029 451
47.0904 423
47.11051 415
47.13063 382
47.15074 431
47.17086 445
47.19097 449
47.21108 441
47.2312 437
47.25131 433
47.27142 442
47.29154 431
47.31165 447
47.33176 423
47.35188 429
47.37199 442
47.39211 427
47.41222 436
47.43233 451
47.45245 459
47.47256 428
47.49267 391
47.51279 434
47.5329 416
47.55302 425
47.57313 436
47.59324 474
47.61336 452
47.63347 387
47.65358 395
47.6737 484
47.69381 427
47.71393 429
47.73404 433
47.75415 452
47.77427 449
47.79438 479
47.81449 446
47.83461 443
47.85472 470
47.87483 439
47.89495 481
47.91506 463
47.93518 444
47.95529 436
47.9754 494
47.99552 484
48.01563 458
48.03574 452
48.05586 471
48.07597 465
48.09609 468
48.1162 464
48.13631 498
48.15643 482
48.17654 436
48.19665 478
48.21677 481
48.23688 457
48.257 500
48.27711 469
48.29722 486
48.31734 494
48.33745 487
48.35756 462
48.37768 507
48.39779 517
48.4179 476
48.43802 492
48.45813 524
48.47825 519
48.49836 529
48.51847 530
48.53859 584
48.5587 513
48.57881 491
48.59893 495
48.61904 513
48.63916 504
48.65927 463
48.67938 505
48.6995 502
48.71961 491
48.73972 431
48.75984 486
48.77995 462
48.80006 473
48.82018 444
48.84029 446
48.86041 477
48.88052 416
48.90063 452
48.92075 416
48.94086 436
48.96097 475
48.98109 404
49.0012 444
49.02132 490
49.04143 468
49.06154 461
49.08166 429
49.10177 474
49.12188 425
49.142 475
49.16211 457
49.18223 444
49.20234 453
49.22245 453
49.24257 492
49.26268 419
49.28279 486
49.30291 451
49.32302 468
49.34313 437
49.36325 448
49.38336 491
49.40348 447
49.42359 405
49.4437 450
49.46382 424
49.48393 494
49.50404 418
49.52416 456
49.54427 435
49.56439 434
49.5845 458
49.60461 470
49.62473 471
49.64484 475
49.66495 438
49.68507 473
49.70518 511
49.7253 472
49.74541 509
49.76552 487
49.78564 530
49.80575 519
49.82586 526
49.84598 527
49.86609 567
49.8862 548
49.90632 598
49.92643 596
49.94655 679
49.96666 678
49.98677 717
50.00689 815
50.027 817
50.04711 785
50.06723 796
50.08734 821
50.10746 762
50.12757 723
50.14768 612
50.1678 636
50.18791 609
50.20802 591
50.22814 603
50.24825 545
50.26837 496
50.28848 489
50.30859 454
50.32871 449
50.34882 450
50.36893 413
50.38905 439
50.40916 456
50.42927 405
50.44939 395
50.4695 388
50.48962 474
50.50973 453
50.52984 504
50.54996 438
50.57007 439
50.59018 455
50.6103 430
50.63041 444
50.65053 484
50.67064 491
50.69075 452
50.71087 447
50.73098 441
50.75109 427
50.77121 468
50.79132 450
50.81143 447
50.83155 423
50.85166 420
50.87178 423
50.89189 456
50.912 467
50.93212 397
50.95223 431
50.97234 407
50.99246 495
51.01257 407
51.03269 447
51.0528 425
51.07291 476
51.09303 459
51.11314 462
51.13325 462
51.15337 437
51.17348 433
51.1936 452
51.21371 469
51.23382 424
51.25394 468
51.27405 471
51.29416 426
51.31428 421
51.33439 460
51.3545 465
51.37462 460
51.39473 447
51.41485 444
51.43496 441
51.45507 434
51.47519 433
51.4953 481
51.51541 422
51.53553 413
51.55564 417
51.57576 445
51.59587 421
51.61598 422
51.6361 419
51.65621 403
51.67632 426
51.69644 392
51.71655 420
51.73667 415
51.75678 404
51.77689 404
51.79701 414
51.81712 412
51.83723 429
51.85735 392
51.87746 403
51.89757 441
51.91769 422
51.9378 396
51.95792 424
51.97803 388
51.99814 452
52.01826 415
52.03837 391
52.05848 456
52.0786 446
52.09871 433
52.11883 414
52.13894 408
52.15905 410
52.17917 409
52.19928 444
52.21939 436
52.23951 458
52.25962 457
52.27974 413
52.29985 415
52.31996 450
52.34008 411
52.36019 462
52.3803 425
52.40042 425
52.42053 422
52.44064 383
52.46076 471
52.48087 435
52.50099 472
52.5211 458
52.54121 487
52.56133 452
52.58144 447
52.60155 417
52.62167 441
52.64178 420
52.6619 440
52.68201 475
52.70212 397
52.72224 468
52.74235 439
52.76246 423
52.78258 476
52.80269 480
52.8228 470
52.84292 425
52.86303 440
52.88315 461
52.90326 426
52.92337 474
52.94349 487
52.9636 441
52.98371 483
53.00383 464
53.02394 460
53.04406 474
53.06417 444
53.08428 466
53.1044 442
53.12451 485
53.14462 480
53.16474 473
53.18485 486
53.20497 442
53.22508 490
53.24519 473
53.26531 480
53.28542 458
53.30553 463
53.32565 462
53.34576 483
53.36587 469
53.38599 452
53.4061 453
53.42622 403
53.44633 470
53.46644 457
53.48656 463
53.50667 502
53.52678 481
53.5469 474
53.56701 492
53.58713 482
53.60724 496
53.62735 473
53.64747 474
53.66758 473
53.68769 517
53.70781 500
53.72792 485
53.74804 508
53.76815 496
53.78826 468
53.80838 486
53.82849 492
53.8486 487
53.86872 470
53.88883 475
53.90894 465
53.92906 477
53.94917 500
53.96929 455
53.9894 504
54.00951 488
54.02963 475
54.04974 487
54.06985 506
54.08997 487
54.11008 458
54.1302 502
54.15031 540
54.17042 535
54.19054 529
54.21065 502
54.23076 482
54.25088 534
54.27099 519
54.29111 529
54.31122 521
54.33133 523
54.35145 529
54.37156 530
54.39167 516
54.41179 470
54.4319 528
54.45201 483
54.47213 464
54.49224 495
54.51236 477
54.53247 515
54.55258 570
54.5727 475
54.59281 503
54.61292 489
54.63304 486
54.65315 572
54.67327 510
54.69338 538
54.71349 556
54.73361 555
54.75372 616
54.77383 585
54.79395 595
54.81406 562
54.83417 617
54.85429 608
54.8744 549
54.89452 573
54.91463 545
54.93474 541
54.95486 521
54.97497 528
54.99508 502
55.0152 526
55.03531 448
55.05543 457
55.07554 510
55.09565 499
55.11577 537
55.13588 499
55.15599 484
55.17611 470
55.19622 510
55.21634 514
55.23645 515
55.25656 507
55.27668 529
55.29679 496
55.3169 480
55.33702 515
55.35713 546
55.37724 485
55.39736 504
55.41747 479
55.43759 453
55.4577 489
55.47781 457
55.49793 491
55.51804 472
55.53815 476
55.55827 445
55.57838 416
55.5985 476
55.61861 440
55.63872 431
55.65884 452
55.67895 444
55.69906 464
55.71918 480
55.73929 469
55.75941 466
55.77952 518
55.79963 490
55.81975 514
55.83986 487
55.85997 479
55.88009 543
55.9002 447
55.92031 535
55.94043 523
55.96054 552
55.98066 531
56.00077 518
56.02088 556
56.041 537
56.06111 537
56.08122 548
56.10134 558
56.12145 544
56.14157 546
56.16168 547
56.18179 511
56.20191 500
56.22202 511
56.24213 519
56.26225 525
56.28236 461
56.30248 521
56.32259 464
56.3427 532
56.36282 459
56.38293 531
56.40304 504
56.42316 542
56.44327 523
56.46338 488
56.4835 484
56.50361 479
56.52373 502
56.54384 484
56.56395 475
56.58407 477
56.60418 472
56.62429 492
56.64441 516
56.66452 492
56.68464 500
56.70475 507
56.72486 513
56.74498 442
56.76509 441
56.7852 476
56.80532 443
56.82543 451
56.84554 460
56.86566 440
56.88577 457
56.90589 420
56.926 428
56.94611 479
56.96623 444
56.98634 431
57.00645 436
57.02657 439
57.04668 427
57.0668 456
57.08691 436
57.10702 419
57.12714 415
57.14725 427
57.16736 457
57.18748 457
57.20759 447
57.22771 419
57.24782 437
57.26793 441
57.28805 423
57.30816 428
57.32827 474
57.34839 433
57.3685 446
57.38861 459
57.40873 399
57.42884 429
57.44896 443
57.46907 396
57.48918 447
57.5093 417
57.52941 454
57.54952 449
57.56964 452
57.58975 471
57.60987 458
57.62998 434
57.65009 445
57.67021 446
57.69032 475
57.71043 431
57.73055 479
57.75066 455
57.77078 465
57.79089 475
57.811 460
57.83112 518
57.85123 444
57.87134 443
57.89146 423
57.91157 455
57.93168 478
57.9518 469
57.97191 465
57.99203 477
58.01214 476
58.03225 478
58.05237 440
58.07248 460
58.09259 438
58.11271 450
58.13282 474
58.15294 450
58.17305 483
58.19316 437
58.21328 427
58.23339 444
58.2535 444
58.27362 419
58.29373 459
58.31385 482
58.33396 458
58.35407 446
58.37419 469
58.3943 449
58.41441 478
58.43453 464
58.45464 475
58.47475 484
58.49487 428
58.51498 462
58.5351 414
58.55521 472
58.57532 448
58.59544 440
58.61555 461
58.63566 444
58.65578 442
58.67589 437
58.69601 424
58.71612 425
58.73623 444
58.75635 389
58.77646 380
58.79657 427
58.81669 418
58.8368 394
58.85691 405
58.87703 376
58.89714 404
58.91726 425
58.93737 428
58.95748 429
58.9776 421
58.99771 411
59.01782 417
59.03794 420
59.05805 424
59.07817 413
59.09828 390
59.11839 444
59.13851 448
59.15862 448
59.17873 406
59.19885 424
59.21896 431
59.23908 413
59.25919 432
59.2793 445
59.29942 404
59.31953 401
59.33964 394
59.35976 380
59.37987 426
59.39998 425
59.4201 421
59.44021 467
59.46033 400
59.48044 419
59.50055 407
59.52067 448
59.54078 461
59.56089 431
59.58101 485
59.60112 431
59.62124 450
59.64135 429
59.66146 480
59.68158 474
59.70169 519
59.7218 539
59.74192 545
59.76203 520
59.78215 602
59.80226 626
59.82237 674
59.84249 678
59.8626 702
59.88271 723
59.90283 667
59.92294 639
59.94305 633
59.96317 630
59.98328 620
60.0034 582
60.02351 588
60.04362 556
60.06374 595
60.08385 567
60.10396 552
60.12408 547
60.14419 542
60.16431 550
60.18442 557
60.20453 553
60.22465 486
60.24476 540
60.26487 541
60.28499 504
60.3051 534
60.32522 532
60.34533 504
60.36544 494
60.38556 494
60.40567 503
60.42578 479
60.4459 475
60.46601 477
60.48612 483
60.50624 439
60.52635 503
60.54647 507
60.56658 450
60.58669 481
60.60681 443
60.62692 430
60.64703 490
60.66715 471
60.68726 434
60.70738 438
60.72749 468
60.7476 438
60.76772 450
60.78783 395
60.80794 453
60.82806 439
60.84817 435
60.86828 440
60.8884 434
60.90851 435
60.92863 455
60.94874 451
60.96885 436
60.98897 451
61.00908 475
61.02919 410
61.04931 404
61.06942 432
61.08954 434
61.10965 409
61.12976 428
61.14988 431
61.16999 427
61.1901 454
61.21022 454
61.23033 418
61.25045 452
61.27056 432
61.29067 427
61.31079 421
61.3309 438
61.35101 449
61.37113 421
61.39124 455
61.41135 495
61.43147 478
61.45158 440
61.4717 484
61.49181 419
61.51192 468
61.53204 442
61.55215 479
61.57226 457
61.59238 461
61.61249 440
61.63261 495
61.65272 470
61.67283 494
61.69295 457
61.71306 468
61.73317 439
61.75329 455
61.7734 454
61.79352 473
61.81363 494
61.83374 484
61.85386 488
61.87397 475
61.89408 480
61.9142 464
61.93431 465
61.95442 457
61.97454 452
61.99465 501
62.01477 471
62.03488 478
62.05499 478
62.07511 514
62.09522 519
62.11533 480
62.13545 492
62.15556 441
62.17568 478
62.19579 484
62.2159 499
62.23602 498
62.25613 517
62.27624 499
62.29636 494
62.31647 486
62.33659 531
62.3567 423
62.37681 496
62.39693 494
62.41704 470
62.43715 456
62.45727 463
62.47738 452
62.49749 442
62.51761 441
62.53772 479
62.55784 476
62.57795 485
62.59806 465
62.61818 454
62.63829 446
62.6584 439
62.67852 404
62.69863 427
62.71875 430
62.73886 447
62.75897 428
62.77909 427
62.7992 419
62.81931 442
62.83943 417
62.85954 428
62.87965 419
62.89977 411
62.91988 421
62.94 464
62.96011 395
62.98022 421
63.00034 421
63.02045 410
63.04056 419
63.06068 410
63.08079 413
63.10091 419
63.12102 413
63.14113 400
63.16125 450
63.18136 422
63.20147 435
63.22159 428
63.2417 416
63.26182 400
63.28193 457
63.30204 452
63.32216 425
63.34227 443
63.36238 408
63.3825 442
63.40261 440
63.42272 455
63.44284 454
63.46295 494
63.48307 442
63.50318 409
63.52329 477
63.54341 457
63.56352 442
63.58363 465
63.60375 465
63.62386 445
63.64398 479
63.66409 508
63.6842 511
63.70432 476
63.72443 484
63.74454 530
63.76466 519
63.78477 487
63.80489 472
63.825 500
63.84511 511
63.86523 472
63.88534 488
63.90545 484
63.92557 480
63.94568 452
63.96579 503
63.98591 505
64.00602 454
64.02614 450
64.04625 446
64.06636 441
64.08648 497
64.10659 479
64.1267 450
64.14682 481
64.16693 449
64.18705 428
64.20716 444
64.22727 442
64.24739 423
64.2675 470
64.28761 439
64.30773 442
64.32784 440
64.34796 420
64.36807 428
64.38818 434
64.4083 437
64.42841 402
64.44852 454
64.46864 448
64.48875 403
64.50886 403
64.52898 463
64.54909 428
64.56921 424
64.58932 413
64.60943 427
64.62955 421
64.64966 405
64.66977 406
64.68989 410
64.71 415
64.73012 440
64.75023 415
64.77034 430
64.79046 406
64.81057 404
64.83068 386
64.8508 448
64.87091 411
64.89102 411
64.91114 402
64.93125 409
64.95137 395
64.97148 399
64.99159 441
65.01171 392
65.03182 404
65.05193 409
65.07205 427
65.09216 421
65.11228 393
65.13239 424
65.1525 412
65.17262 412
65.19273 373
65.21284 430
65.23296 362
65.25307 366
65.27319 405
65.2933 396
65.31341 362
65.33353 454
65.35364 414
65.37375 405
65.39387 404
65.41398 396
65.43409 362
65.45421 424
65.47432 409
65.49444 409
65.51455 393
65.53466 352
65.55478 420
65.57489 363
65.595 370
65.61512 377
65.63523 383
65.65535 413
65.67546 427
65.69557 394
65.71569 417
65.7358 407
65.75591 413
65.77603 415
65.79614 415
65.81626 399
65.83637 394
65.85648 358
65.8766 395
65.89671 384
65.91682 418
65.93694 397
65.95705 403
65.97716 419
65.99728 403
66.01739 409
66.03751 406
66.05762 390
66.07773 399
66.09785 416
66.11796 384
66.13807 414
66.15819 373
66.1783 417
66.19842 440
66.21853 385
66.23864 436
66.25876 416
66.27887 441
66.29898 429
66.3191 445
66.33921 433
66.35933 433
66.37944 425
66.39955 471
66.41967 460
66.43978 443
66.45989 404
66.48001 441
66.50012 434
66.52023 430
66.54035 422
66.56046 416
66.58058 417
66.60069 435
66.6208 398
66.64092 402
66.66103 387
66.68114 428
66.70126 421
66.72137 436
66.74149 427
66.7616 412
66.78171 407
66.80183 430
66.82194 407
66.84205 453
66.86217 403
66.88228 410
66.90239 451
66.92251 376
66.94262 420
66.96274 442
66.98285 462
67.00296 468
67.02308 407
67.04319 450
67.0633 425
67.08342 451
67.10353 431
67.12365 455
67.14376 447
67.16387 416
67.18399 450
67.2041 436
67.22421 430
67.24433 388
67.26444 400
67.28456 411
67.30467 423
67.32478 414
67.3449 400
67.36501 409
67.38512 427
67.40524 443
67.42535 445
67.44546 420
67.46558 428
67.48569 464
67.50581 419
67.52592 479
67.54603 485
67.56615 502
67.58626 493
67.60637 514
67.62649 581
67.6466 487
67.66672 508
67.68683 525
67.70694 490
67.72706 555
67.74717 497
67.76728 452
67.7874 474
67.80751 491
67.82763 474
67.84774 526
67.86785 508
67.88797 493
67.90808 544
67.92819 482
67.94831 491
67.96842 542
67.98853 562
68.00865 527
68.02876 617
68.04888 560
68.06899 628
68.0891 614
68.10922 583
68.12933 565
68.14944 527
68.16956 608
68.18967 534
68.20979 577
68.2299 611
68.25001 586
68.27013 571
68.29024 520
68.31035 476
68.33047 490
68.35058 496
68.3707 483
68.39081 468
68.41092 427
68.43104 434
68.45115 474
68.47126 442
68.49138 428
68.51149 401
68.5316 393
68.55172 397
68.57183 392
68.59195 391
68.61206 413
68.63217 414
68.65229 421
68.6724 400
68.69251 418
68.71263 433
68.73274 420
68.75286 403
68.77297 432
68.79308 393
68.8132 425
68.83331 371
68.85342 398
68.87354 404
68.89365 380
68.91376 380
68.93388 384
68.95399 420
68.97411 418
68.99422 401
69.01433 396
69.03445 397
69.05456 408
69.07467 401
69.09479 394
69.1149 428
69.13502 413
69.15513 414
69.17524 419
69.19536 418
69.21547 394
69.23558 404
69.2557 356
69.27581 367
69.29593 401
69.31604 429
69.33615 401
69.35627 413
69.37638 403
69.39649 414
69.41661 416
69.43672 390
69.45683 388
69.47695 380
69.49706 396
69.51718 406
69.53729 403
69.5574 437
69.57752 425
69.59763 423
69.61774 424
69.63786 388
69.65797 437
69.67809 384
69.6982 390
69.71831 386
69.73843 388
69.75854 392
69.77865 383
69.79877 383
69.81888 396
69.839 405
69.85911 399
69.87922 384
69.89934 387
69.91945 385
69.93956 410
69.95968 397
69.97979 392
69.9999 385
70.02002 435
70.04013 394
70.06025 405
70.08036 382
70.10047 374
70.12059 377
70.1407 389
70.16081 369
70.18093 376
70.20104 385
70.22116 388
70.24127 344
70.26138 356
70.2815 363
70.30161 378
70.32172 386
70.34184 366
70.36195 354
70.38207 380
70.40218 364
70.42229 392
70.44241 382
70.46252 370
70.48263 375
70.50275 369
70.52286 365
70.54297 337
70.56309 376
70.5832 341
70.60332 365
70.62343 403
70.64354 403
70.66366 405
70.68377 352
70.70388 359
70.724 396
70.74411 390
70.76423 392
70.78434 362
70.80445 371
70.82457 377
70.84468 373
70.86479 393
70.88491 397
70.90502 412
70.92513 386
70.94525 398
70.96536 412
70.98548 373
71.00559 393
71.0257 371
71.04582 382
71.06593 372
71.08604 347
71.10616 398
71.12627 417
71.14639 349
71.1665 357
71.18661 394
71.20673 394
71.22684 385
71.24695 421
71.26707 383
71.28718 392
71.3073 402
71.32741 355
71.34752 400
71.36764 375
71.38775 347
71.40786 376
71.42798 372
71.44809 393
71.4682 401
71.48832 351
71.50843 385
71.52855 366
71.54866 390
71.56877 341
71.58889 398
71.609 395
71.62911 358
71.64923 368
71.66934 373
71.68946 370
71.70957 363
71.72968 336
71.7498 402
71.76991 362
71.79002 387
71.81014 376
71.83025 371
71.85037 400
71.87048 379
71.89059 393
71.91071 398
71.93082 372
71.95093 367
71.97105 412
71.99116 397
72.01127 389
72.03139 370
72.0515 394
72.07162 396
72.09173 413
72.11184 347
72.13196 397
72.15207 346
72.17218 389
72.1923 397
72.21241 359
72.23253 379
72.25264 373
72.27275 379
72.29287 364
72.31298 403
72.33309 398
72.35321 364
72.37332 348
72.39344 372
72.41355 379
72.43366 338
72.45378 367
72.47389 363
72.494 358
72.51412 374
72.53423 392
72.55434 396
72.57446 403
72.59457 418
72.61469 380
72.6348 406
72.65491 405
72.67503 424
72.69514 368
72.71525 451
72.73537 385
72.75548 391
72.7756 443
72.79571 396
72.81582 403
72.83594 393
72.85605 398
72.87616 403
72.89628 379
72.91639 403
72.9365 370
72.95662 369
72.97673 386
72.99685 390
73.01696 401
73.03707 407
73.05719 390
73.0773 360
73.09741 411
73.11753 370
73.13764 405
73.15776 386
73.17787 384
73.19798 355
73.2181 377
73.23821 416
73.25832 413
73.27844 436
73.29855 387
73.31867 415
73.33878 414
73.35889 429
73.37901 435
73.39912 433
73.41923 394
73.43935 450
73.45946 400
73.47957 395
73.49969 411
73.5198 377
73.53992 394
73.56003 408
73.58014 404
73.60026 400
73.62037 412
73.64048 378
73.6606 395
73.68071 373
73.70083 400
73.72094 411
73.74105 366
73.76117 358
73.78128 395
73.80139 392
73.82151 380
73.84162 354
73.86174 383
73.88185 381
73.90196 383
73.92208 382
73.94219 402
73.9623 407
73.98242 409
74.00253 403
74.02264 383
74.04276 365
74.06287 416
74.08299 385
74.1031 344
74.12321 404
74.14333 397
74.16344 358
74.18355 396
74.20367 376
74.22378 363
74.2439 400
74.26401 361
74.28412 372
74.30424 355
74.32435 346
74.34446 369
74.36458 373
74.38469 379
74.40481 369
74.42492 375
74.44503 381
74.46515 383
74.48526 414
74.50537 393
74.52549 396
74.5456 397
74.56571 428
74.58583 377
74.60594 403
74.62606 419
74.64617 363
74.66628 406
74.6864 395
74.70651 421
74.72662 413
74.74674 417
74.76685 367
74.78697 393
74.80708 375
74.82719 369
74.84731 384
74.86742 387
74.88753 417
74.90765 374
74.92776 354
74.94787 399
74.96799 373
74.9881 390
75.00822 403
