3.00117 20264
3.02128 19650
3.0414 19202
3.06151 18823
3.08162 18304
3.10174 17699
3.12185 17342
3.14197 16606
3.16208 16388
3.18219 15955
3.20231 15315
3.22242 15118
3.24253 14242
3.26265 14063
3.28276 13675
3.30288 13025
3.32299 12990
3.3431 12151
3.36322 11934
3.38333 11590
3.40344 11110
3.42356 10903
3.44367 10114
3.46379 10362
3.4839 9955
3.50401 9184
3.52413 9066
3.54424 8689
3.56435 8532
3.58447 8173
3.60458 7766
3.62469 7466
3.64481 7229
3.66492 6887
3.68504 6676
3.70515 6435
3.72526 6244
3.74538 5790
3.76549 5640
3.7856 5557
3.80572 5088
3.82583 5169
3.84595 4633
3.86606 4735
3.88617 4475
3.90629 4198
3.9264 4082
3.94651 3753
3.96663 3732
3.98674 3646
4.00686 3412
4.02697 3373
4.04708 3011
4.0672 2974
4.08731 2995
4.10742 2655
4.12754 2667
4.14765 2488
4.16776 2443
4.18788 2371
4.20799 2201
4.22811 2232
4.24822 2089
4.26833 2107
4.28845 2000
4.30856 1797
4.32867 1740
4.34879 1702
4.3689 1723
4.38902 1774
4.40913 1539
4.42924 1632
4.44936 1516
4.46947 1461
4.48958 1579
4.5097 1379
4.52981 1481
4.54992 1365
4.57004 1372
4.59015 1325
4.61027 1141
4.63038 1235
4.65049 1213
4.67061 1171
4.69072 1202
4.71083 1094
4.73095 1046
4.75106 1108
4.77118 952
4.79129 1131
4.8114 952
4.83152 920
4.85163 982
4.87174 897
4.89186 898
4.91197 826
4.93209 911
4.9522 807
4.97231 789
4.99243 845
5.01254 769
5.03265 748
5.05277 756
5.07288 735
5.09299 696
5.11311 670
5.13322 652
5.15334 667
5.17345 636
5.19356 670
5.21368 629
5.23379 624
5.2539 571
5.27402 575
5.29413 595
5.31425 527
5.33436 546
5.35447 511
5.37459 499
5.3947 530
5.41481 479
5.43493 482
5.45504 450
5.47516 463
5.49527 445
5.51538 441
5.5355 469
5.55561 452
5.57572 457
5.59584 411
5.61595 402
5.63606 430
5.65618 421
5.67629 437
5.69641 412
5.71652 354
5.73663 327
5.75675 370
5.77686 398
5.79697 340
5.81709 367
5.8372 346
5.85732 378
5.87743 326
5.89754 321
5.91766 384
5.93777 343
5.95788 308
5.978 304
5.99811 335
6.01823 326
6.03834 316
6.05845 313
6.07857 319
6.09868 311
6.11879 306
6.13891 320
6.15902 276
6.17913 295
6.19925 273
6.21936 280
6.23948 328
6.25959 300
6.2797 291
6.29982 285
6.31993 269
6.34004 283
6.36016 296
6.38027 258
6.40039 274
6.4205 308
6.44061 254
6.46073 284
6.48084 283
6.50095 275
6.52107 254
6.54118 234
6.56129 274
6.58141 269
6.60152 291
6.62164 281
6.64175 231
6.66186 264
6.68198 242
6.70209 249
6.7222 245
6.74232 258
6.76243 260
6.78255 258
6.80266 259
6.82277 286
6.84289 256
6.863 256
6.88311 287
6.90323 245
6.92334 250
6.94346 273
6.96357 239
6.98368 260
7.0038 259
7.02391 255
7.04402 248
7.06414 255
7.08425 237
7.10436 251
7.12448 273
7.14459 221
7.16471 254
7.18482 256
7.20493 259
7.22505 253
7.24516 254
7.26527 279
7.28539 253
7.3055 251
7.32562 245
7.34573 250
7.36584 236
7.38596 222
7.40607 258
7.42618 276
7.4463 245
7.46641 264
7.48653 260
7.50664 278
7.52675 266
7.54687 236
7.56698 245
7.58709 267
7.60721 261
7.62732 265
7.64743 241
7.66755 279
7.68766 256
7.70778 222
7.72789 281
7.748 270
7.76812 271
7.78823 230
7.80834 270
7.82846 268
7.84857 248
7.86869 269
7.8888 260
7.90891 245
7.92903 271
7.94914 266
7.96925 266
7.98937 251
8.00948 245
8.0296 221
8.04971 236
8.06982 270
8.08994 255
8.11005 248
8.13016 235
8.15028 276
8.17039 256
8.1905 271
8.21062 255
8.23073 245
8.25085 271
8.27096 230
8.29107 234
8.31119 261
8.3313 301
8.35141 265
8.37153 284
8.39164 289
8.41176 288
8.43187 285
8.45198 269
8.4721 268
8.49221 278
8.51232 258
8.53244 257
8.55255 273
8.57266 292
8.59278 313
8.61289 284
8.63301 273
8.65312 296
8.67323 298
8.69335 326
8.71346 334
8.73357 349
8.75369 346
8.7738 291
8.79392 322
8.81403 329
8.83414 307
8.85426 323
8.87437 290
8.89448 267
8.9146 309
8.93471 274
8.95483 299
8.97494 261
8.99505 289
9.01517 258
9.03528 264
9.05539 251
9.07551 282
9.09562 290
9.11573 283
9.13585 248
9.15596 253
9.17608 274
9.19619 276
9.2163 274
9.23642 235
9.25653 269
9.27664 261
9.29676 255
9.31687 270
9.33699 254
9.3571 263
9.37721 235
9.39733 251
9.41744 251
9.43755 255
9.45767 254
9.47778 267
9.4979 266
9.51801 282
9.53812 258
9.55824 254
9.57835 266
9.59846 255
9.61858 261
9.63869 257
9.6588 278
9.67892 275
9.69903 266
9.71915 278
9.73926 256
9.75937 263
9.77949 307
9.7996 256
9.81971 274
9.83983 243
9.85994 236
9.88006 284
9.90017 264
9.92028 272
9.9404 257
9.96051 268
9.98062 248
10.00074 265
10.02085 243
10.04097 254
10.06108 256
10.08119 247
10.10131 276
10.12142 278
10.14153 292
10.16165 282
10.18176 268
10.20187 298
10.22199 274
10.2421 279
10.26222 244
10.28233 241
10.30244 243
10.32256 281
10.34267 238
10.36278 253
10.3829 267
10.40301 270
10.42313 268
10.44324 257
10.46335 309
10.48347 228
10.50358 313
10.52369 265
10.54381 288
10.56392 264
10.58403 278
10.60415 275
10.62426 276
10.64438 259
10.66449 306
10.6846 243
10.70472 241
10.72483 247
10.74494 253
10.76506 226
10.78517 250
10.80529 254
10.8254 287
10.84551 253
10.86563 227
10.88574 238
10.90585 278
10.92597 270
10.94608 289
10.9662 275
10.98631 269
11.00642 249
11.02654 250
11.04665 291
11.06676 299
11.08688 249
11.10699 306
11.1271 262
11.14722 304
11.16733 283
11.18745 270
11.20756 259
11.22767 300
11.24779 237
11.2679 272
11.28801 280
11.30813 264
11.32824 279
11.34836 276
11.36847 278
11.38858 298
11.4087 287
11.42881 280
11.44892 276
11.46904 317
11.48915 326
11.50927 286
11.52938 295
11.54949 344
11.56961 310
11.58972 294
11.60983 310
11.62995 303
11.65006 316
11.67017 289
11.69029 302
11.7104 288
11.73052 327
11.75063 326
11.77074 301
11.79086 320
11.81097 301
11.83108 330
11.8512 308
11.87131 310
11.89143 343
11.91154 365
11.93165 321
11.95177 340
11.97188 350
11.99199 326
12.01211 331
12.03222 322
12.05234 375
12.07245 334
12.09256 380
12.11268 348
12.13279 368
12.1529 409
12.17302 401
12.19313 390
12.21324 369
12.23336 391
12.25347 435
12.27359 411
12.2937 388
12.31381 401
12.33393 386
12.35404 381
12.37415 359
12.39427 338
12.41438 323
12.4345 342
12.45461 304
12.47472 331
12.49484 313
12.51495 345
12.53506 321
12.55518 312
12.57529 315
12.5954 298
12.61552 279
12.63563 303
12.65575 274
12.67586 295
12.69597 272
12.71609 262
12.7362 272
12.75631 260
12.77643 260
12.79654 254
12.81666 263
12.83677 256
12.85688 241
12.877 283
12.89711 260
12.91722 256
12.93734 260
12.95745 247
12.97757 242
12.99768 265
13.01779 286
13.03791 259
13.05802 261
13.07813 309
13.09825 326
13.11836 316
13.13847 293
13.15859 293
13.1787 295
13.19882 263
13.21893 236
13.23904 262
13.25916 277
13.27927 243
13.29938 247
13.3195 269
13.33961 259
13.35973 256
13.37984 262
13.39995 262
13.42007 277
13.44018 286
13.46029 270
13.48041 310
13.50052 281
13.52064 333
13.54075 313
13.56086 327
13.58098 361
13.60109 380
13.6212 399
13.64132 401
13.66143 368
13.68154 314
13.70166 312
13.72177 272
13.74189 264
13.762 271
13.78211 252
13.80223 265
13.82234 255
13.84245 231
13.86257 256
13.88268 241
13.9028 257
13.92291 248
13.94302 243
13.96314 212
13.98325 212
14.00336 218
14.02348 263
14.04359 254
14.06371 208
14.08382 243
14.10393 238
14.12405 250
14.14416 215
14.16427 229
14.18439 252
14.2045 235
14.22461 240
14.24473 207
14.26484 213
14.28496 230
14.30507 229
14.32518 219
14.3453 205
14.36541 199
14.38552 217
14.40564 216
14.42575 187
14.44587 235
14.46598 231
14.48609 238
14.50621 224
14.52632 213
14.54643 208
14.56655 211
14.58666 217
14.60677 208
14.62689 240
14.647 212
14.66712 245
14.68723 195
14.70734 201
14.72746 211
14.74757 201
14.76768 246
14.7878 262
14.80791 248
14.82803 296
14.84814 291
14.86825 304
14.88837 306
14.90848 308
14.92859 302
14.94871 293
14.96882 271
14.98894 265
15.00905 247
15.02916 232
15.04928 245
15.06939 246
15.0895 263
15.10962 262
15.12973 235
15.14984 248
15.16996 245
15.19007 278
15.21019 274
15.2303 272
15.25041 285
15.27053 244
15.29064 220
15.31075 228
15.33087 227
15.35098 214
15.3711 190
15.39121 189
15.41132 223
15.43144 218
15.45155 238
15.47166 213
15.49178 211
15.51189 204
15.53201 181
15.55212 204
15.57223 222
15.59235 240
15.61246 175
15.63257 221
15.65269 199
15.6728 228
15.69291 193
15.71303 233
15.73314 197
15.75326 220
15.77337 200
15.79348 182
15.8136 202
15.83371 205
15.85382 195
15.87394 194
15.89405 219
15.91417 202
15.93428 191
15.95439 211
15.97451 191
15.99462 203
16.01473 187
16.03485 206
16.05496 221
16.07508 237
16.09519 199
16.1153 201
16.13542 198
16.15553 197
16.17564 180
16.19576 200
16.21587 233
16.23598 170
16.2561 238
16.27621 230
16.29633 230
16.31644 221
16.33655 232
16.35667 174
16.37678 193
16.39689 183
16.41701 170
16.43712 205
16.45724 194
16.47735 198
16.49746 204
16.51758 191
16.53769 234
16.5578 209
16.57792 228
16.59803 181
16.61814 207
16.63826 206
16.65837 196
16.67849 203
16.6986 220
16.71871 184
16.73883 210
16.75894 208
16.77905 186
16.79917 208
16.81928 190
16.8394 206
16.85951 209
16.87962 213
16.89974 196
16.91985 210
16.93996 208
16.96008 180
16.98019 203
17.00031 193
17.02042 196
17.04053 206
17.06065 207
17.08076 186
17.10087 201
17.12099 213
17.1411 206
17.16121 193
17.18133 193
17.20144 199
17.22156 201
17.24167 185
17.26178 221
17.2819 208
17.30201 201
17.32212 218
17.34224 189
17.36235 183
17.38247 210
17.40258 211
17.42269 182
17.44281 184
17.46292 210
17.48303 212
17.50315 178
17.52326 208
17.54338 206
17.56349 240
17.5836 184
17.60372 212
17.62383 216
17.64394 204
17.66406 196
17.68417 226
17.70428 189
17.7244 199
17.74451 201
17.76463 200
17.78474 209
17.80485 198
17.82497 214
17.84508 204
17.86519 204
17.88531 204
17.90542 198
17.92554 217
17.94565 222
17.96576 200
17.98588 205
18.00599 225
18.0261 192
18.04622 176
18.06633 190
18.08645 185
18.10656 202
18.12667 214
18.14679 210
18.1669 199
18.18701 197
18.20713 216
18.22724 208
18.24735 214
18.26747 207
18.28758 216
18.3077 233
18.32781 201
18.34792 205
18.36804 224
18.38815 186
18.40826 213
18.42838 218
18.44849 206
18.46861 198
18.48872 199
18.50883 216
18.52895 183
18.54906 207
18.56917 193
18.58929 203
18.6094 188
18.62951 205
18.64963 208
18.66974 212
18.68986 189
18.70997 205
18.73008 206
18.7502 200
18.77031 213
18.79042 200
18.81054 214
18.83065 198
18.85077 245
18.87088 210
18.89099 240
18.91111 203
18.93122 232
18.95133 194
18.97145 182
18.99156 207
19.01168 219
19.03179 216
19.0519 207
19.07202 218
19.09213 178
19.11224 225
19.13236 231
19.15247 261
19.17258 247
19.1927 236
19.21281 266
19.23293 290
19.25304 313
19.27315 285
19.29327 286
19.31338 330
19.33349 290
19.35361 227
19.37372 234
19.39384 279
19.41395 254
19.43406 243
19.45418 259
19.47429 263
19.4944 272
19.51452 254
19.53463 286
19.55475 292
19.57486 290
19.59497 306
19.61509 315
19.6352 283
19.65531 331
19.67543 335
19.69554 371
19.71565 355
19.73577 402
19.75588 379
19.776 466
19.79611 468
19.81622 436
19.83634 453
19.85645 484
19.87656 449
19.89668 486
19.91679 487
19.93691 472
19.95702 493
19.97713 470
19.99725 435
20.01736 460
20.03747 442
20.05759 425
20.0777 443
20.09782 434
20.11793 436
20.13804 446
20.15816 490
20.17827 415
20.19838 433
20.2185 463
20.23861 428
20.25872 415
20.27884 439
20.29895 447
20.31907 473
20.33918 430
20.35929 428
20.37941 470
20.39952 422
20.41963 404
20.43975 418
20.45986 458
20.47998 464
20.50009 480
20.5202 476
20.54032 487
20.56043 487
20.58054 503
20.60066 557
20.62077 566
20.64088 646
20.661 709
20.68111 937
20.70123 994
20.72134 1344
20.74145 1791
20.76157 2278
20.78168 2671
20.80179 3229
20.82191 3428
20.84202 3358
20.86214 3137
20.88225 2544
20.90236 2045
20.92248 1689
20.94259 1480
20.9627 1527
20.98282 1528
21.00293 1496
21.02305 1453
21.04316 1207
21.06327 1081
21.08339 841
21.1035 755
21.12361 652
21.14373 519
21.16384 449
21.18395 450
21.20407 492
21.22418 462
21.2443 454
21.26441 417
21.28452 414
21.30464 415
21.32475 358
21.34486 401
21.36498 407
21.38509 400
21.40521 358
21.42532 359
21.44543 403
21.46555 370
21.48566 373
21.50577 396
21.52589 355
21.546 351
21.56612 361
21.58623 365
21.60634 389
21.62646 361
21.64657 352
21.66668 329
21.6868 306
21.70691 336
21.72702 359
21.74714 358
21.76725 360
21.78737 294
21.80748 373
21.82759 359
21.84771 368
21.86782 385
21.88793 398
21.90805 418
21.92816 464
21.94828 523
21.96839 517
21.9885 514
22.00862 522
22.02873 452
22.04884 419
22.06896 377
22.08907 369
22.10919 340
22.1293 339
22.14941 367
22.16953 379
22.18964 433
22.20975 429
22.22987 455
22.24998 507
22.27009 536
22.29021 529
22.31032 512
22.33044 485
22.35055 476
22.37066 411
22.39078 419
22.41089 385
22.431 397
22.45112 356
22.47123 392
22.49135 366
22.51146 347
22.53157 363
22.55169 427
22.5718 417
22.59191 379
22.61203 392
22.63214 379
22.65225 356
22.67237 376
22.69248 335
22.7126 353
22.73271 307
22.75282 339
22.77294 309
22.79305 357
22.81316 363
22.83328 359
22.85339 352
22.87351 337
22.89362 387
22.91373 389
22.93385 377
22.95396 423
22.97407 458
22.99419 472
23.0143 457
23.03442 467
23.05453 547
23.07464 575
23.09476 655
23.11487 694
23.13498 750
23.1551 791
23.17521 851
23.19532 800
23.21544 726
23.23555 705
23.25567 565
23.27578 495
23.29589 456
23.31601 472
23.33612 401
23.35623 373
23.37635 399
23.39646 403
23.41658 384
23.43669 405
23.4568 375
23.47692 392
23.49703 409
23.51714 404
23.53726 441
23.55737 441
23.57749 443
23.5976 449
23.61771 434
23.63783 400
23.65794 401
23.67805 399
23.69817 418
23.71828 421
23.73839 411
23.75851 432
23.77862 439
23.79874 474
23.81885 597
23.83896 562
23.85908 628
23.87919 682
23.8993 781
23.91942 815
23.93953 923
23.95965 908
23.97976 821
23.99987 777
24.01999 618
24.0401 621
24.06021 510
24.08033 459
24.10044 418
24.12056 401
24.14067 387
24.16078 415
24.1809 428
24.20101 505
24.22112 499
24.24124 527
24.26135 583
24.28146 621
24.30158 613
24.32169 550
24.34181 492
24.36192 512
24.38203 482
24.40215 446
24.42226 426
24.44237 389
24.46249 408
24.4826 373
24.50272 408
24.52283 390
24.54294 403
24.56306 405
24.58317 438
24.60328 416
24.6234 471
24.64351 489
24.66362 531
24.68374 525
24.70385 516
24.72397 501
24.74408 500
24.76419 513
24.78431 462
24.80442 461
24.82453 543
24.84465 501
24.86476 486
24.88488 465
24.90499 474
24.9251 489
24.94522 491
24.96533 408
24.98544 460
25.00556 405
25.02567 417
25.04579 395
25.0659 371
25.08601 379
25.10613 425
25.12624 387
25.14635 356
25.16647 343
25.18658 371
25.20669 400
25.22681 370
25.24692 409
25.26704 421
25.28715 406
25.30726 426
25.32738 437
25.34749 465
25.3676 528
25.38772 538
25.40783 657
25.42795 691
25.44806 780
25.46817 835
25.48829 870
25.5084 974
25.52851 966
25.54863 941
25.56874 914
25.58886 914
25.60897 894
25.62908 893
25.6492 843
25.66931 728
25.68942 688
25.70954 565
25.72965 532
25.74976 476
25.76988 437
25.78999 452
25.81011 469
25.83022 411
25.85033 447
25.87045 435
25.89056 405
25.91067 406
25.93079 412
25.9509 406
25.97102 462
25.99113 436
26.01124 442
26.03136 462
26.05147 498
26.07158 505
26.0917 535
26.11181 519
26.13193 582
26.15204 590
26.17215 605
26.19227 660
26.21238 688
26.23249 798
26.25261 848
26.27272 942
26.29283 1037
26.31295 1186
26.33306 1486
26.35318 1622
26.37329 1853
26.3934 2098
26.41352 2503
26.43363 2927
26.45374 3585
26.47386 4656
26.49397 5885
26.51409 7514
26.5342 9667
26.55431 11563
26.57443 13592
26.59454 14272
26.61465 13670
26.63477 12484
26.65488 10068
26.67499 7719
26.69511 5663
26.71522 3814
26.73534 2580
26.75545 1750
26.77556 1286
26.79568 1109
26.81579 1006
26.8359 1044
26.85602 917
26.87613 990
26.89625 1012
26.91636 994
26.93647 1053
26.95659 1058
26.9767 1195
26.99681 1336
27.01693 1385
27.03704 1390
27.05716 1336
27.07727 1218
27.09738 1079
27.1175 1050
27.13761 925
27.15772 842
27.17784 855
27.19795 795
27.21806 848
27.23818 1021
27.25829 1065
27.27841 1207
27.29852 1384
27.31863 1611
27.33875 1807
27.35886 1986
27.37897 2084
27.39909 2216
27.4192 2303
27.43932 2224
27.45943 2054
27.47954 1855
27.49966 1634
27.51977 1342
27.53988 1063
27.56 875
27.58011 785
27.60023 659
27.62034 623
27.64045 601
27.66057 642
27.68068 587
27.70079 676
27.72091 622
27.74102 649
27.76113 654
27.78125 642
27.80136 664
27.82148 697
27.84159 679
27.8617 634
27.88182 643
27.90193 696
27.92204 698
27.94216 662
27.96227 582
27.98239 567
28.0025 577
28.02261 457
28.04273 457
28.06284 386
28.08295 386
28.10307 347
28.12318 377
28.1433 327
28.16341 388
28.18352 436
28.20364 372
28.22375 361
28.24386 385
28.26398 389
28.28409 347
28.3042 377
28.32432 320
28.34443 324
28.36455 304
28.38466 278
28.40477 287
28.42489 290
28.445 279
28.46511 293
28.48523 270
28.50534 283
28.52546 297
28.54557 265
28.56568 283
28.5858 297
28.60591 321
28.62602 300
28.64614 279
28.66625 263
28.68636 269
28.70648 265
28.72659 283
28.74671 287
28.76682 310
28.78693 242
28.80705 274
28.82716 256
28.84727 245
28.86739 283
28.8875 264
28.90762 263
28.92773 255
28.94784 281
28.96796 257
28.98807 276
29.00818 228
29.0283 270
29.04841 265
29.06853 293
29.08864 255
29.10875 288
29.12887 266
29.14898 284
29.16909 250
29.18921 302
29.20932 300
29.22943 304
29.24955 304
29.26966 358
29.28978 389
29.30989 433
29.33 404
29.35012 486
29.37023 550
29.39034 574
29.41046 561
29.43057 575
29.45069 578
29.4708 552
29.49091 501
29.51103 472
29.53114 406
29.55125 359
29.57137 402
29.59148 361
29.6116 380
29.63171 352
29.65182 320
29.67194 338
29.69205 336
29.71216 329
29.73228 364
29.75239 339
29.7725 356
29.79262 356
29.81273 363
29.83285 324
29.85296 353
29.87307 344
29.89319 363
29.9133 361
29.93341 352
29.95353 412
29.97364 438
29.99376 430
30.01387 499
30.03398 501
30.0541 506
30.07421 577
30.09432 551
30.11444 666
30.13455 634
30.15467 664
30.17478 668
30.19489 654
30.21501 597
30.23512 544
30.25523 554
30.27535 437
30.29546 485
30.31557 423
30.33569 444
30.3558 407
30.37592 410
30.39603 374
30.41614 374
30.43626 368
30.45637 388
30.47648 357
30.4966 367
30.51671 354
30.53683 338
30.55694 409
30.57705 389
30.59717 439
30.61728 496
30.63739 538
30.65751 528
30.67762 603
30.69773 616
30.71785 603
30.73796 589
30.75808 609
30.77819 653
30.7983 582
30.81842 579
30.83853 593
30.85864 500
30.87876 475
30.89887 461
30.91899 414
30.9391 362
30.95921 323
30.97933 310
30.99944 273
31.01955 288
31.03967 276
31.05978 252
31.0799 248
31.10001 249
31.12012 232
31.14024 244
31.16035 240
31.18046 268
31.20058 243
31.22069 264
31.2408 274
31.26092 246
31.28103 284
31.30115 269
31.32126 265
31.34137 278
31.36149 240
31.3816 280
31.40171 244
31.42183 243
31.44194 229
31.46206 266
31.48217 235
31.50228 246
31.5224 209
31.54251 249
31.56262 237
31.58274 233
31.60285 232
31.62297 244
31.64308 249
31.66319 266
31.68331 256
31.70342 240
31.72353 233
31.74365 229
31.76376 228
31.78387 217
31.80399 253
31.8241 233
31.84422 239
31.86433 263
31.88444 259
31.90456 240
31.92467 275
31.94478 250
31.9649 270
31.98501 269
32.00513 287
32.02524 302
32.04535 282
32.06547 319
32.08558 350
32.10569 370
32.12581 309
32.14592 349
32.16604 323
32.18615 324
32.20626 293
32.22638 308
32.24649 281
32.2666 315
32.28672 319
32.30683 309
32.32694 332
32.34706 366
32.36717 393
32.38729 383
32.4074 435
32.42751 417
32.44763 348
32.46774 390
32.48785 360
32.50797 301
32.52808 304
32.5482 281
32.56831 279
32.58842 245
32.60854 253
32.62865 253
32.64876 228
32.66888 220
32.68899 225
32.7091 224
32.72922 252
32.74933 217
32.76945 209
32.78956 218
32.80967 213
32.82979 208
32.8499 220
32.87001 222
32.89013 220
32.91024 202
32.93036 213
32.95047 199
32.97058 225
32.9907 233
33.01081 247
33.03092 218
33.05104 239
33.07115 246
33.09127 220
33.11138 204
33.13149 219
33.15161 233
33.17172 228
33.19183 233
33.21195 226
33.23206 210
33.25217 216
33.27229 245
33.2924 213
33.31252 233
33.33263 239
33.35274 225
33.37286 226
33.39297 230
33.41308 219
33.4332 249
33.45331 222
33.47343 218
33.49354 204
33.51365 210
33.53377 236
33.55388 212
33.57399 220
33.59411 242
33.61422 255
33.63434 267
33.65445 256
33.67456 224
33.69468 263
33.71479 216
33.7349 229
33.75502 253
33.77513 250
33.79524 224
33.81536 262
33.83547 263
33.85559 272
33.8757 289
33.89581 262
33.91593 290
33.93604 256
33.95615 270
33.97627 308
33.99638 307
34.0165 334
34.03661 374
34.05672 371
34.07684 443
34.09695 462
34.11706 502
34.13718 503
34.15729 541
34.17741 590
34.19752 522
34.21763 516
34.23775 479
34.25786 478
34.27797 427
34.29809 409
34.3182 377
34.33831 352
34.35843 351
34.37854 357
34.39866 336
34.41877 306
34.43888 366
34.459 376
34.47911 344
34.49922 348
34.51934 368
34.53945 365
34.55957 401
34.57968 393
34.59979 454
34.61991 428
34.64002 383
34.66013 420
34.68025 403
34.70036 407
34.72047 381
34.74059 442
34.7607 402
34.78082 393
34.80093 403
34.82104 453
34.84116 455
34.86127 421
34.88138 458
34.9015 430
34.92161 476
34.94173 435
34.96184 436
34.98195 443
35.00207 468
35.02218 421
35.04229 471
35.06241 431
35.08252 441
35.10264 428
35.12275 468
35.14286 455
35.16298 458
35.18309 472
35.2032 469
35.22332 442
35.24343 467
35.26354 470
35.28366 468
35.30377 458
35.32389 483
35.344 473
35.36411 479
35.38423 461
35.40434 479
35.42445 513
35.44457 512
35.46468 479
35.4848 501
35.50491 542
35.52502 526
35.54514 520
35.56525 512
35.58536 437
35.60548 469
35.62559 417
35.64571 378
35.66582 354
35.68593 398
35.70605 361
35.72616 383
35.74627 347
35.76639 358
35.7865 337
35.80661 376
35.82673 396
35.84684 373
35.86696 348
35.88707 343
35.90718 350
35.9273 328
35.94741 323
35.96752 333
35.98764 314
36.00775 327
36.02787 314
36.04798 326
36.06809 312
36.08821 324
36.10832 335
36.12843 335
36.14855 324
36.16866 345
36.18878 343
36.20889 387
36.229 340
36.24912 351
36.26923 381
36.28934 411
36.30946 412
36.32957 497
36.34968 526
36.3698 560
36.38991 675
36.41003 774
36.43014 932
36.45025 965
36.47037 1114
36.49048 1124
36.51059 1152
36.53071 1014
36.55082 879
36.57094 788
36.59105 680
36.61116 626
36.63128 552
36.65139 485
36.6715 372
36.69162 375
36.71173 374
36.73184 368
36.75196 364
36.77207 374
36.79219 374
36.8123 421
36.83241 433
36.85253 422
36.87264 416
36.89275 433
36.91287 466
36.93298 468
36.9531 449
36.97321 439
36.99332 424
37.01344 460
37.03355 405
37.05366 405
37.07378 396
37.09389 391
37.11401 367
37.13412 346
37.15423 330
37.17435 310
37.19446 315
37.21457 316
37.23469 330
37.2548 313
37.27491 264
37.29503 278
37.31514 300
37.33526 266
37.35537 290
37.37548 285
37.3956 320
37.41571 293
37.43582 321
37.45594 315
37.47605 334
37.49617 341
37.51628 344
37.53639 321
37.55651 342
37.57662 323
37.59673 355
37.61685 335
37.63696 301
37.65708 293
37.67719 285
37.6973 301
37.71742 312
37.73753 283
37.75764 281
37.77776 258
37.79787 279
37.81798 298
37.8381 271
37.85821 316
37.87833 296
37.89844 292
37.91855 264
37.93867 299
37.95878 264
37.97889 275
37.99901 251
38.01912 281
38.03924 275
38.05935 275
38.07946 284
38.09958 286
38.11969 294
38.1398 289
38.15992 284
38.18003 284
38.20015 333
38.22026 317
38.24037 334
38.26049 311
38.2806 328
38.30071 309
38.32083 323
38.34094 320
38.36105 348
38.38117 379
38.40128 359
38.4214 385
38.44151 367
38.46162 402
38.48174 363
38.50185 367
38.52196 400
38.54208 390
38.56219 403
38.58231 359
38.60242 345
38.62253 356
38.64265 317
38.66276 323
38.68287 272
38.70299 287
38.7231 281
38.74321 271
38.76333 275
38.78344 268
38.80356 292
38.82367 258
38.84378 300
38.8639 236
38.88401 313
38.90412 301
38.92424 300
38.94435 290
38.96447 275
38.98458 295
39.00469 296
39.02481 294
39.04492 291
39.06503 300
39.08515 341
39.10526 338
39.12538 322
39.14549 367
39.1656 325
39.18572 365
39.20583 370
39.22594 428
39.24606 462
39.26617 479
39.28628 511
39.3064 617
39.32651 650
39.34663 796
39.36674 889
39.38685 994
39.40697 1071
39.42708 1033
39.44719 957
39.46731 849
39.48742 777
39.50754 701
39.52765 600
39.54776 559
39.56788 457
39.58799 375
39.6081 303
39.62822 303
39.64833 268
39.66845 267
39.68856 270
39.70867 288
39.72879 252
39.7489 238
39.76901 241
39.78913 265
39.80924 255
39.82935 261
39.84947 250
39.86958 275
39.8897 273
39.90981 231
39.92992 249
39.95004 278
39.97015 260
39.99026 268
40.01038 263
40.03049 285
40.05061 288
40.07072 321
40.09083 368
40.11095 332
40.13106 456
40.15117 491
40.17129 535
40.1914 607
40.21152 650
40.23163 639
40.25174 633
40.27186 587
40.29197 560
40.31208 543
40.3322 451
40.35231 458
40.37242 419
40.39254 390
40.41265 327
40.43277 319
40.45288 311
40.47299 305
40.49311 258
40.51322 292
40.53333 261
40.55345 277
40.57356 234
40.59368 243
40.61379 253
40.6339 246
40.65402 236
40.67413 230
40.69424 237
40.71436 263
40.73447 227
40.75458 233
40.7747 230
40.79481 247
40.81493 249
40.83504 236
40.85515 227
40.87527 248
40.89538 242
40.91549 238
40.93561 272
40.95572 231
40.97584 217
40.99595 232
41.01606 227
41.03618 217
41.05629 235
41.0764 229
41.09652 247
41.11663 247
41.13675 247
41.15686 243
41.17697 213
41.19709 251
41.2172 275
41.23731 267
41.25743 249
41.27754 248
41.29765 246
41.31777 255
41.33788 253
41.358 256
41.37811 263
41.39822 278
41.41834 265
41.43845 252
41.45856 282
41.47868 299
41.49879 330
41.51891 317
41.53902 357
41.55913 372
41.57925 335
41.59936 390
41.61947 397
41.63959 458
41.6597 518
41.67982 520
41.69993 581
41.72004 611
41.74016 659
41.76027 689
41.78038 643
41.8005 590
41.82061 505
41.84072 497
41.86084 428
41.88095 411
41.90107 381
41.92118 365
41.94129 314
41.96141 275
41.98152 292
42.00163 277
42.02175 258
42.04186 281
42.06198 272
42.08209 265
42.1022 252
42.12232 277
42.14243 284
42.16254 298
42.18266 290
42.20277 318
42.22289 348
42.243 370
42.26311 405
42.28323 459
42.30334 554
42.32345 620
42.34357 729
42.36368 753
42.38379 815
42.40391 792
42.42402 731
42.44414 654
42.46425 658
42.48436 509
42.50448 548
42.52459 453
42.5447 436
42.56482 377
42.58493 359
42.60505 360
42.62516 308
42.64527 288
42.66539 338
42.6855 299
42.70561 324
42.72573 328
42.74584 314
42.76595 299
42.78607 285
42.80618 320
42.8263 282
42.84641 280
42.86652 301
42.88664 239
42.90675 260
42.92686 255
42.94698 236
42.96709 243
42.98721 250
43.00732 246
43.02743 223
43.04755 246
43.06766 251
43.08777 265
43.10789 250
43.128 252
43.14812 238
43.16823 253
43.18834 249
43.20846 244
43.22857 234
43.24868 246
43.2688 220
43.28891 224
43.30902 234
43.32914 215
43.34925 237
43.36937 225
43.38948 239
43.40959 225
43.42971 223
43.44982 229
43.46993 245
43.49005 258
43.51016 259
43.53028 250
43.55039 209
43.5705 221
43.59062 255
43.61073 233
43.63084 224
43.65096 241
43.67107 191
43.69119 232
43.7113 237
43.73141 210
43.75153 222
43.77164 228
43.79175 200
43.81187 206
43.83198 213
43.85209 234
43.87221 227
43.89232 231
43.91244 211
43.93255 251
43.95266 232
43.97278 224
43.99289 208
44.013 210
44.03312 252
44.05323 241
44.07335 232
44.09346 227
44.11357 220
44.13369 239
44.1538 225
44.17391 251
44.19403 257
44.21414 255
44.23426 238
44.25437 224
44.27448 224
44.2946 240
44.31471 250
44.33482 225
44.35494 242
44.37505 212
44.39516 211
44.41528 251
44.43539 217
44.45551 216
44.47562 222
44.49573 251
44.51585 240
44.53596 284
44.55607 218
44.57619 223
44.5963 230
44.61642 257
44.63653 236
44.65664 243
44.67676 224
44.69687 210
44.71698 210
44.7371 204
44.75721 243
44.77732 225
44.79744 213
44.81755 217
44.83767 235
44.85778 239
44.87789 230
44.89801 228
44.91812 234
44.93823 236
44.95835 202
44.97846 244
44.99858 231
45.01869 240
45.0388 204
45.05892 221
45.07903 245
45.09914 236
45.11926 212
45.13937 248
45.15949 216
45.1796 268
45.19971 227
45.21983 240
45.23994 237
45.26005 274
45.28017 251
45.30028 258
45.32039 243
45.34051 279
45.36062 305
45.38074 304
45.40085 307
45.42096 333
45.44108 312
45.46119 380
45.4813 416
45.50142 371
45.52153 375
45.54165 409
45.56176 463
45.58187 456
45.60199 480
45.6221 508
45.64221 585
45.66233 520
45.68244 644
45.70256 617
45.72267 683
45.74278 637
45.7629 625
45.78301 607
45.80312 567
45.82324 463
45.84335 448
45.86346 416
45.88358 406
45.90369 342
45.92381 342
45.94392 286
45.96403 270
45.98415 282
46.00426 286
46.02437 276
46.04449 237
46.0646 244
46.08472 261
46.10483 291
46.12494 284
46.14506 291
46.16517 275
46.18528 273
46.2054 247
46.22551 286
46.24563 256
46.26574 272
46.28585 267
46.30597 247
46.32608 267
46.34619 203
46.36631 228
46.38642 219
46.40653 222
46.42665 195
46.44676 222
46.46688 227
46.48699 234
46.5071 215
46.52722 210
46.54733 245
46.56744 214
46.58756 217
46.60767 228
46.62779 239
46.6479 220
46.66801 222
46.68813 237
46.70824 221
46.72835 220
46.74847 216
46.76858 221
46.78869 214
46.80881 205
46.82892 265
46.84904 244
46.86915 232
46.88926 239
46.90938 245
46.92949 281
46.9496 279
46.96972 284
46.98983 234
47.00995 250
47.03006 286
47.05017 320
47.07029 322
47.0904 346
47.11051 326
47.13063 309
47.15074 331
47.17086 306
47.19097 255
47.21108 282
47.2312 313
47.25131 293
47.27142 303
47.29154 274
47.31165 255
47.33176 260
47.35188 278
47.37199 296
47.39211 279
47.41222 311
47.43233 338
47.45245 291
47.47256 278
47.49267 273
47.51279 272
47.5329 287
47.55302 273
47.57313 247
47.59324 281
47.61336 253
47.63347 209
47.65358 260
47.6737 229
47.69381 233
47.71393 209
47.73404 247
47.75415 210
47.77427 220
47.79438 231
47.81449 225
47.83461 215
47.85472 229
47.87483 203
47.89495 216
47.91506 216
47.93518 217
47.95529 209
47.9754 213
47.99552 194
48.01563 219
48.03574 214
48.05586 223
48.07597 225
48.09609 199
48.1162 228
48.13631 178
48.15643 232
48.17654 226
48.19665 204
48.21677 231
48.23688 239
48.257 244
48.27711 210
48.29722 226
48.31734 205
48.33745 230
48.35756 217
48.37768 209
48.39779 221
48.4179 211
48.43802 232
48.45813 202
48.47825 243
48.49836 222
48.51847 227
48.53859 202
48.5587 237
48.57881 217
48.59893 212
48.61904 247
48.63916 249
48.65927 269
48.67938 255
48.6995 266
48.71961 279
48.73972 332
48.75984 302
48.77995 265
48.80006 310
48.82018 274
48.84029 283
48.86041 284
48.88052 281
48.90063 311
48.92075 319
48.94086 307
48.96097 266
48.98109 327
49.0012 278
49.02132 317
49.04143 303
49.06154 278
49.08166 275
49.10177 289
49.12188 279
49.142 281
49.16211 284
49.18223 243
49.20234 277
49.22245 224
49.24257 231
49.26268 244
49.28279 232
49.30291 224
49.32302 220
49.34313 209
49.36325 214
49.38336 236
49.40348 230
49.42359 218
49.4437 237
49.46382 219
49.48393 237
49.50404 248
49.52416 228
49.54427 267
49.56439 228
49.5845 254
49.60461 251
49.62473 267
49.64484 275
49.66495 300
49.68507 289
49.70518 286
49.7253 292
49.74541 317
49.76552 384
49.78564 355
49.80575 373
49.82586 413
49.84598 425
49.86609 462
49.8862 558
49.90632 590
49.92643 640
49.94655 753
49.96666 866
49.98677 967
50.00689 1170
50.027 1308
50.04711 1489
50.06723 1568
50.08734 1526
50.10746 1535
50.12757 1378
50.14768 1280
50.1678 1044
50.18791 1001
50.20802 954
50.22814 862
50.24825 786
50.26837 655
50.28848 574
50.30859 435
50.32871 461
50.34882 438
50.36893 418
50.38905 477
50.40916 508
50.42927 560
50.44939 592
50.4695 590
50.48962 654
50.50973 595
50.52984 558
50.54996 580
50.57007 590
50.59018 516
50.6103 497
50.63041 458
50.65053 481
50.67064 390
50.69075 422
50.71087 389
50.73098 352
50.75109 357
50.77121 371
50.79132 365
50.81143 407
50.83155 362
50.85166 347
50.87178 347
50.89189 300
50.912 314
50.93212 343
50.95223 314
50.97234 279
50.99246 301
51.01257 267
51.03269 255
51.0528 295
51.07291 260
51.09303 264
51.11314 266
51.13325 229
51.15337 266
51.17348 218
51.1936 267
51.21371 242
51.23382 251
51.25394 232
51.27405 235
51.29416 269
51.31428 215
51.33439 206
51.3545 202
51.37462 220
51.39473 209
51.41485 192
51.43496 257
51.45507 223
51.47519 202
51.4953 175
51.51541 206
51.53553 222
51.55564 213
51.57576 191
51.59587 223
51.61598 228
51.6361 206
51.65621 195
51.67632 203
51.69644 185
51.71655 186
51.73667 185
51.75678 188
51.77689 216
51.79701 174
51.81712 196
51.83723 220
51.85735 189
51.87746 181
51.89757 183
51.91769 208
51.9378 208
51.95792 200
51.97803 176
51.99814 185
52.01826 211
52.03837 193
52.05848 212
52.0786 187
52.09871 196
52.11883 187
52.13894 179
52.15905 193
52.17917 198
52.19928 202
52.21939 197
52.23951 171
52.25962 191
52.27974 210
52.29985 214
52.31996 236
52.34008 228
52.36019 211
52.3803 222
52.40042 173
52.42053 221
52.44064 224
52.46076 234
52.48087 202
52.50099 230
52.5211 242
52.54121 223
52.56133 239
52.58144 260
52.60155 268
52.62167 228
52.64178 238
52.6619 243
52.68201 251
52.70212 231
52.72224 230
52.74235 213
52.76246 261
52.78258 239
52.80269 246
52.8228 228
52.84292 231
52.86303 228
52.88315 242
52.90326 208
52.92337 230
52.94349 229
52.9636 218
52.98371 228
53.00383 212
53.02394 204
53.04406 227
53.06417 200
53.08428 215
53.1044 217
53.12451 216
53.14462 205
53.16474 235
53.18485 210
53.20497 226
53.22508 237
53.24519 225
53.26531 207
53.28542 208
53.30553 222
53.32565 210
53.34576 226
53.36587 221
53.38599 227
53.4061 218
53.42622 210
53.44633 218
53.46644 180
53.48656 222
53.50667 253
53.52678 223
53.5469 249
53.56701 203
53.58713 236
53.60724 263
53.62735 237
53.64747 203
53.66758 241
53.68769 237
53.70781 229
53.72792 245
53.74804 235
53.76815 208
53.78826 246
53.80838 229
53.82849 224
53.8486 239
53.86872 232
53.88883 243
53.90894 267
53.92906 236
53.94917 248
53.96929 233
53.9894 237
54.00951 231
54.02963 264
54.04974 236
54.06985 278
54.08997 247
54.11008 260
54.1302 266
54.15031 273
54.17042 300
54.19054 258
54.21065 238
54.23076 257
54.25088 266
54.27099 250
54.29111 251
54.31122 258
54.33133 251
54.35145 268
54.37156 261
54.39167 282
54.41179 288
54.4319 269
54.45201 237
54.47213 262
54.49224 264
54.51236 260
54.53247 258
54.55258 283
54.5727 303
54.59281 304
54.61292 325
54.63304 310
54.65315 368
54.67327 356
54.69338 428
54.71349 434
54.73361 528
54.75372 564
54.77383 574
54.79395 647
54.81406 626
54.83417 632
54.85429 594
54.8744 519
54.89452 457
54.91463 481
54.93474 476
54.95486 450
54.97497 447
54.99508 441
55.0152 427
55.03531 316
55.05543 318
55.07554 329
55.09565 291
55.11577 340
55.13588 340
55.15599 329
55.17611 364
55.19622 385
55.21634 373
55.23645 437
55.25656 435
55.27668 458
55.29679 434
55.3169 430
55.33702 423
55.35713 364
55.37724 387
55.39736 372
55.41747 359
55.43759 339
55.4577 379
55.47781 307
55.49793 307
55.51804 307
55.53815 268
55.55827 265
55.57838 281
55.5985 274
55.61861 276
55.63872 248
55.65884 218
55.67895 268
55.69906 245
55.71918 263
55.73929 262
55.75941 235
55.77952 244
55.79963 229
55.81975 235
55.83986 229
55.85997 248
55.88009 222
55.9002 234
55.92031 224
55.94043 227
55.96054 216
55.98066 204
56.00077 248
56.02088 220
56.041 231
56.06111 227
56.08122 233
56.10134 202
56.12145 231
56.14157 206
56.16168 213
56.18179 230
56.20191 197
56.22202 219
56.24213 223
56.26225 208
56.28236 222
56.30248 213
56.32259 219
56.3427 205
56.36282 224
56.38293 220
56.40304 189
56.42316 197
56.44327 221
56.46338 209
56.4835 222
56.50361 245
56.52373 220
56.54384 264
56.56395 219
56.58407 216
56.60418 215
56.62429 259
56.64441 232
56.66452 243
56.68464 224
56.70475 237
56.72486 248
56.74498 248
56.76509 226
56.7852 265
56.80532 238
56.82543 238
56.84554 234
56.86566 234
56.88577 221
56.90589 242
56.926 216
56.94611 226
56.96623 219
56.98634 222
57.00645 226
57.02657 195
57.04668 223
57.0668 254
57.08691 226
57.10702 227
57.12714 212
57.14725 245
57.16736 227
57.18748 230
57.20759 257
57.22771 249
57.24782 230
57.26793 261
57.28805 263
57.30816 252
57.32827 260
57.34839 258
57.3685 263
57.38861 245
57.40873 196
57.42884 260
57.44896 261
57.46907 219
57.48918 226
57.5093 230
57.52941 208
57.54952 254
57.56964 214
57.58975 218
57.60987 210
57.62998 212
57.65009 204
57.67021 225
57.69032 193
57.71043 214
57.73055 209
57.75066 192
57.77078 189
57.79089 211
57.811 197
57.83112 185
57.85123 217
57.87134 210
57.89146 221
57.91157 200
57.93168 219
57.9518 194
57.97191 211
57.99203 240
58.01214 219
58.03225 187
58.05237 234
58.07248 250
58.09259 243
58.11271 240
58.13282 197
58.15294 218
58.17305 218
58.19316 212
58.21328 233
58.23339 221
58.2535 195
58.27362 234
58.29373 221
58.31385 231
58.33396 233
58.35407 229
58.37419 255
58.3943 245
58.41441 224
58.43453 241
58.45464 237
58.47475 229
58.49487 250
58.51498 241
58.5351 247
58.55521 278
58.57532 257
58.59544 251
58.61555 260
58.63566 241
58.65578 242
58.67589 262
58.69601 253
58.71612 252
58.73623 248
58.75635 234
58.77646 233
58.79657 243
58.81669 216
58.8368 207
58.85691 204
58.87703 172
58.89714 204
58.91726 209
58.93737 195
58.95748 211
58.9776 190
58.99771 202
59.01782 208
59.03794 228
59.05805 214
59.07817 220
59.09828 208
59.11839 216
59.13851 196
59.15862 220
59.17873 219
59.19885 205
59.21896 231
59.23908 197
59.25919 231
59.2793 225
59.29942 237
59.31953 236
59.33964 225
59.35976 230
59.37987 247
59.39998 247
59.4201 257
59.44021 237
59.46033 244
59.48044 279
59.50055 271
59.52067 269
59.54078 264
59.56089 309
59.58101 316
59.60112 296
59.62124 324
59.64135 362
59.66146 347
59.68158 376
59.70169 391
59.7218 496
59.74192 508
59.76203 616
59.78215 635
59.80226 724
59.82237 918
59.84249 957
59.8626 1011
59.88271 1081
59.90283 1018
59.92294 999
59.94305 890
59.96317 803
59.98328 726
60.0034 632
60.02351 681
60.04362 646
60.06374 619
60.08385 594
60.10396 502
60.12408 456
60.14419 366
60.16431 319
60.18442 328
60.20453 294
60.22465 288
60.24476 280
60.26487 262
60.28499 275
60.3051 276
60.32522 266
60.34533 239
60.36544 251
60.38556 277
60.40567 236
60.42578 248
60.4459 233
60.46601 236
60.48612 223
60.50624 215
60.52635 238
60.54647 225
60.56658 225
60.58669 246
60.60681 225
60.62692 230
60.64703 251
60.66715 245
60.68726 245
60.70738 233
60.72749 231
60.7476 237
60.76772 264
60.78783 243
60.80794 236
60.82806 211
60.84817 230
60.86828 211
60.8884 244
60.90851 250
60.92863 243
60.94874 252
60.96885 266
60.98897 293
61.00908 275
61.02919 281
61.04931 333
61.06942 305
61.08954 314
61.10965 295
61.12976 306
61.14988 308
61.16999 314
61.1901 281
61.21022 296
61.23033 274
61.25045 294
61.27056 279
61.29067 287
61.31079 278
61.3309 260
61.35101 257
61.37113 282
61.39124 221
61.41135 222
61.43147 264
61.45158 225
61.4717 215
61.49181 255
61.51192 214
61.53204 214
61.55215 248
61.57226 230
61.59238 246
61.61249 235
61.63261 234
61.65272 220
61.67283 216
61.69295 214
61.71306 251
61.73317 265
61.75329 242
61.7734 258
61.79352 204
61.81363 250
61.83374 229
61.85386 225
61.87397 232
61.89408 247
61.9142 225
61.93431 254
61.95442 271
61.97454 267
61.99465 243
62.01477 286
62.03488 271
62.05499 277
62.07511 266
62.09522 278
62.11533 282
62.13545 276
62.15556 316
62.17568 269
62.19579 288
62.2159 278
62.23602 271
62.25613 276
62.27624 301
62.29636 282
62.31647 278
62.33659 264
62.3567 281
62.37681 268
62.39693 260
62.41704 273
62.43715 286
62.45727 254
62.47738 284
62.49749 295
62.51761 294
62.53772 272
62.55784 256
62.57795 259
62.59806 263
62.61818 244
62.63829 268
62.6584 261
62.67852 263
62.69863 238
62.71875 251
62.73886 258
62.75897 256
62.77909 241
62.7992 276
62.81931 236
62.83943 259
62.85954 253
62.87965 287
62.89977 248
62.91988 266
62.94 280
62.96011 298
62.98022 319
63.00034 310
63.02045 300
63.04056 293
63.06068 272
63.08079 280
63.10091 301
63.12102 279
63.14113 276
63.16125 276
63.18136 298
63.20147 317
63.22159 297
63.2417 256
63.26182 279
63.28193 268
63.30204 246
63.32216 222
63.34227 263
63.36238 227
63.3825 274
63.40261 224
63.42272 247
63.44284 245
63.46295 240
63.48307 237
63.50318 236
63.52329 260
63.54341 253
63.56352 247
63.58363 280
63.60375 264
63.62386 250
63.64398 238
63.66409 293
63.6842 305
63.70432 295
63.72443 349
63.74454 341
63.76466 340
63.78477 334
63.80489 370
63.825 372
63.84511 385
63.86523 374
63.88534 415
63.90545 411
63.92557 417
63.94568 445
63.96579 430
63.98591 423
64.00602 429
64.02614 376
64.04625 361
64.06636 352
64.08648 333
64.10659 333
64.1267 328
64.14682 333
64.16693 346
64.18705 282
64.20716 266
64.22727 250
64.24739 225
64.2675 230
64.28761 223
64.30773 221
64.32784 203
64.34796 243
64.36807 208
64.38818 207
64.4083 197
64.42841 207
64.44852 210
64.46864 193
64.48875 213
64.50886 183
64.52898 191
64.54909 180
64.56921 180
64.58932 178
64.60943 193
64.62955 201
64.64966 198
64.66977 219
64.68989 198
64.71 214
64.73012 202
64.75023 189
64.77034 218
64.79046 218
64.81057 218
64.83068 223
64.8508 256
64.87091 226
64.89102 232
64.91114 199
64.93125 258
64.95137 224
64.97148 247
64.99159 216
65.01171 240
65.03182 265
65.05193 236
65.07205 259
65.09216 225
65.11228 244
65.13239 258
65.1525 267
65.17262 251
65.19273 260
65.21284 270
65.23296 234
65.25307 268
65.27319 268
65.2933 253
65.31341 294
65.33353 268
65.35364 230
65.37375 246
65.39387 221
65.41398 264
65.43409 219
65.45421 226
65.47432 236
65.49444 210
65.51455 218
65.53466 220
65.55478 229
65.57489 223
65.595 230
65.61512 221
65.63523 249
65.65535 209
65.67546 224
65.69557 236
65.71569 217
65.7358 215
65.75591 208
65.77603 213
65.79614 196
65.81626 191
65.83637 228
65.85648 195
65.8766 218
65.89671 220
65.91682 221
65.93694 208
65.95705 206
65.97716 210
65.99728 216
66.01739 206
66.03751 194
66.05762 225
66.07773 213
66.09785 235
66.11796 235
66.13807 239
66.15819 258
66.1783 241
66.19842 238
66.21853 262
66.23864 240
66.25876 252
66.27887 245
66.29898 266
66.3191 259
66.33921 262
66.35933 249
66.37944 237
66.39955 231
66.41967 261
66.43978 252
66.45989 220
66.48001 242
66.50012 212
66.52023 230
66.54035 224
66.56046 217
66.58058 218
66.60069 194
66.6208 218
66.64092 190
66.66103 220
66.68114 218
66.70126 215
66.72137 244
66.74149 191
66.7616 232
66.78171 188
66.80183 236
66.82194 229
66.84205 238
66.86217 227
66.88228 244
66.90239 219
66.92251 215
66.94262 243
66.96274 210
66.98285 233
67.00296 247
67.02308 210
67.04319 203
67.0633 242
67.08342 215
67.10353 254
67.12365 235
67.14376 252
67.16387 229
67.18399 250
67.2041 235
67.22421 223
67.24433 249
67.26444 235
67.28456 240
67.30467 245
67.32478 283
67.3449 246
67.36501 236
67.38512 288
67.40524 248
67.42535 294
67.44546 313
67.46558 317
67.48569 325
67.50581 348
67.52592 390
67.54603 446
67.56615 499
67.58626 542
67.60637 633
67.62649 663
67.6466 713
67.66672 729
67.68683 705
67.70694 727
67.72706 633
67.74717 598
67.76728 569
67.7874 537
67.80751 521
67.82763 612
67.84774 605
67.86785 638
67.88797 637
67.90808 615
67.92819 642
67.94831 628
67.96842 649
67.98853 656
68.00865 746
68.02876 794
68.04888 898
68.06899 934
68.0891 941
68.10922 928
68.12933 889
68.14944 836
68.16956 809
68.18967 788
68.20979 845
68.2299 895
68.25001 901
68.27013 860
68.29024 839
68.31035 717
68.33047 581
68.35058 511
68.3707 488
68.39081 455
68.41092 438
68.43104 420
68.45115 412
68.47126 350
68.49138 363
68.51149 330
68.5316 287
68.55172 249
68.57183 256
68.59195 206
68.61206 216
68.63217 240
68.65229 223
68.6724 246
68.69251 225
68.71263 229
68.73274 232
68.75286 253
68.77297 236
68.79308 233
68.8132 227
68.83331 199
68.85342 225
68.87354 249
68.89365 228
68.91376 209
68.93388 220
68.95399 210
68.97411 229
68.99422 205
69.01433 230
69.03445 252
69.05456 209
69.07467 213
69.09479 215
69.1149 226
69.13502 195
69.15513 208
69.17524 225
69.19536 209
69.21547 223
69.23558 188
69.2557 206
69.27581 218
69.29593 177
69.31604 210
69.33615 201
69.35627 195
69.37638 230
69.39649 194
69.41661 207
69.43672 201
69.45683 191
69.47695 195
69.49706 185
69.51718 177
69.53729 189
69.5574 211
69.57752 204
69.59763 177
69.61774 196
69.63786 177
69.65797 202
69.67809 179
69.6982 191
69.71831 188
69.73843 194
69.75854 205
69.77865 209
69.79877 220
69.81888 192
69.839 196
69.85911 188
69.87922 185
69.89934 184
69.91945 198
69.93956 192
69.95968 210
69.97979 213
69.9999 207
70.02002 196
70.04013 209
70.06025 204
70.08036 203
70.10047 203
70.12059 214
70.1407 200
70.16081 173
70.18093 215
70.20104 184
70.22116 205
70.24127 212
70.26138 203
70.2815 187
70.30161 213
70.32172 180
70.34184 189
70.36195 201
70.38207 214
70.40218 208
70.42229 199
70.44241 199
70.46252 209
70.48263 210
70.50275 170
70.52286 192
70.54297 197
70.56309 218
70.5832 210
70.60332 211
70.62343 190
70.64354 222
70.66366 202
70.68377 209
70.70388 199
70.724 202
70.74411 211
70.76423 217
70.78434 254
70.80445 229
70.82457 239
70.84468 193
70.86479 247
70.88491 195
70.90502 203
70.92513 217
70.94525 213
70.96536 179
70.98548 206
71.00559 223
71.0257 192
71.04582 193
71.06593 198
71.08604 195
71.10616 204
71.12627 195
71.14639 223
71.1665 188
71.18661 201
71.20673 183
71.22684 215
71.24695 200
71.26707 208
71.28718 206
71.3073 220
71.32741 209
71.34752 220
71.36764 223
71.38775 226
71.40786 231
71.42798 232
71.44809 240
71.4682 245
71.48832 251
71.50843 222
71.52855 244
71.54866 223
71.56877 241
71.58889 235
71.609 259
71.62911 206
71.64923 224
71.66934 236
71.68946 218
71.70957 202
71.72968 204
71.7498 214
71.76991 225
71.79002 221
71.81014 195
71.83025 222
71.85037 219
71.87048 211
71.89059 221
71.91071 230
71.93082 232
71.95093 232
71.97105 231
71.99116 241
72.01127 242
72.03139 214
72.0515 256
72.07162 261
72.09173 258
72.11184 262
72.13196 249
72.15207 220
72.17218 233
72.1923 243
72.21241 258
72.23253 283
72.25264 257
72.27275 256
72.29287 222
72.31298 223
72.33309 231
72.35321 235
72.37332 235
72.39344 246
72.41355 180
72.43366 239
72.45378 237
72.47389 223
72.494 224
72.51412 209
72.53423 216
72.55434 218
72.57446 218
72.59457 226
72.61469 205
72.6348 196
72.65491 212
72.67503 225
72.69514 197
72.71525 220
72.73537 234
72.75548 235
72.7756 193
72.79571 214
72.81582 202
72.83594 223
72.85605 227
72.87616 211
72.89628 232
72.91639 236
72.9365 247
72.95662 253
72.97673 238
72.99685 246
73.01696 252
73.03707 256
73.05719 251
73.0773 247
73.09741 281
73.11753 288
73.13764 301
73.15776 277
73.17787 279
73.19798 282
73.2181 297
73.23821 287
73.25832 325
73.27844 350
73.29855 352
73.31867 347
73.33878 375
73.35889 367
73.37901 423
73.39912 391
73.41923 412
73.43935 405
73.45946 362
73.47957 329
73.49969 319
73.5198 278
73.53992 297
73.56003 291
73.58014 318
73.60026 308
73.62037 320
73.64048 304
73.6606 319
73.68071 285
73.70083 268
73.72094 238
73.74105 240
73.76117 267
73.78128 217
73.80139 228
73.82151 239
73.84162 235
73.86174 224
73.88185 220
73.90196 201
73.92208 194
73.94219 229
73.9623 225
73.98242 205
74.00253 214
74.02264 202
74.04276 216
74.06287 224
74.08299 195
74.1031 227
74.12321 222
74.14333 207
74.16344 181
74.18355 185
74.20367 204
74.22378 205
74.2439 229
74.26401 186
74.28412 207
74.30424 209
74.32435 208
74.34446 215
74.36458 229
74.38469 177
74.40481 246
74.42492 234
74.44503 221
74.46515 220
74.48526 231
74.50537 223
74.52549 220
74.5456 246
74.56571 233
74.58583 243
74.60594 240
74.62606 230
74.64617 209
74.66628 221
74.6864 221
74.70651 226
74.72662 212
74.74674 217
74.76685 217
74.78697 233
74.80708 228
74.82719 242
74.84731 230
74.86742 233
74.88753 271
74.90765 247
74.92776 216
74.94787 234
74.96799 235
74.9881 243
75.00822 239
