3.00117 20140
3.02128 19284
3.0414 18813
3.06151 18376
3.08162 18045
3.10174 17395
3.12185 16995
3.14197 16233
3.16208 15767
3.18219 15404
3.20231 14692
3.22242 14738
3.24253 14326
3.26265 13652
3.28276 13543
3.30288 12657
3.32299 12453
3.3431 12080
3.36322 11591
3.38333 11460
3.40344 10779
3.42356 10392
3.44367 10391
3.46379 9983
3.4839 9689
3.50401 8893
3.52413 8949
3.54424 8881
3.56435 8194
3.58447 8003
3.60458 7698
3.62469 7330
3.64481 7156
3.66492 6922
3.68504 6741
3.70515 6254
3.72526 6124
3.74538 5934
3.76549 5302
3.7856 5536
3.80572 5057
3.82583 4892
3.84595 4738
3.86606 4424
3.88617 4295
3.90629 4008
3.9264 4012
3.94651 3840
3.96663 3708
3.98674 3557
4.00686 3285
4.02697 3066
4.04708 3120
4.0672 2927
4.08731 2879
4.10742 2584
4.12754 2470
4.14765 2424
4.16776 2309
4.18788 2304
4.20799 2068
4.22811 2044
4.24822 2074
4.26833 1919
4.28845 1841
4.30856 1702
4.32867 1646
4.34879 1790
4.3689 1648
4.38902 1612
4.40913 1522
4.42924 1440
4.44936 1466
4.46947 1459
4.48958 1352
4.5097 1312
4.52981 1330
4.54992 1353
4.57004 1326
4.59015 1207
4.61027 1207
4.63038 1123
4.65049 1111
4.67061 1116
4.69072 1038
4.71083 1052
4.73095 1016
4.75106 995
4.77118 1024
4.79129 930
4.8114 991
4.83152 956
4.85163 893
4.87174 901
4.89186 848
4.91197 833
4.93209 808
4.9522 868
4.97231 829
4.99243 693
5.01254 717
5.03265 765
5.05277 753
5.07288 760
5.09299 672
5.11311 681
5.13322 700
5.15334 678
5.17345 689
5.19356 599
5.21368 562
5.23379 593
5.2539 594
5.27402 582
5.29413 524
5.31425 574
5.33436 565
5.35447 509
5.37459 540
5.3947 514
5.41481 511
5.43493 496
5.45504 474
5.47516 474
5.49527 488
5.51538 463
5.5355 458
5.55561 442
5.57572 438
5.59584 430
5.61595 400
5.63606 409
5.65618 404
5.67629 407
5.69641 386
5.71652 389
5.73663 412
5.75675 366
5.77686 364
5.79697 384
5.81709 357
5.8372 312
5.85732 322
5.87743 346
5.89754 357
5.91766 355
5.93777 321
5.95788 336
5.978 297
5.99811 308
6.01823 300
6.03834 312
6.05845 292
6.07857 320
6.09868 296
6.11879 316
6.13891 298
6.15902 270
6.17913 330
6.19925 246
6.21936 297
6.23948 278
6.25959 296
6.2797 292
6.29982 303
6.31993 283
6.34004 276
6.36016 255
6.38027 269
6.40039 267
6.4205 278
6.44061 299
6.46073 245
6.48084 265
6.50095 274
6.52107 260
6.54118 264
6.56129 293
6.58141 273
6.60152 266
6.62164 224
6.64175 273
6.66186 259
6.68198 247
6.70209 287
6.7222 281
6.74232 276
6.76243 256
6.78255 286
6.80266 241
6.82277 236
6.84289 257
6.863 243
6.88311 242
6.90323 243
6.92334 239
6.94346 231
6.96357 226
6.98368 232
7.0038 246
7.02391 276
7.04402 262
7.06414 251
7.08425 230
7.10436 264
7.12448 276
7.14459 210
7.16471 222
7.18482 245
7.20493 226
7.22505 234
7.24516 240
7.26527 250
7.28539 245
7.3055 265
7.32562 241
7.34573 242
7.36584 229
7.38596 222
7.40607 245
7.42618 227
7.4463 260
7.46641 223
7.48653 258
7.50664 227
7.52675 259
7.54687 265
7.56698 285
7.58709 246
7.60721 243
7.62732 252
7.64743 256
7.66755 243
7.68766 249
7.70778 260
7.72789 237
7.748 257
7.76812 240
7.78823 255
7.80834 261
7.82846 285
7.84857 264
7.86869 229
7.8888 245
7.90891 254
7.92903 263
7.94914 255
7.96925 246
7.98937 229
8.00948 251
8.0296 252
8.04971 262
8.06982 245
8.08994 287
8.11005 253
8.13016 257
8.15028 253
8.17039 294
8.1905 262
8.21062 253
8.23073 265
8.25085 265
8.27096 241
8.29107 275
8.31119 297
8.3313 254
8.35141 270
8.37153 262
8.39164 279
8.41176 262
8.43187 279
8.45198 282
8.4721 261
8.49221 279
8.51232 274
8.53244 296
8.55255 277
8.57266 244
8.59278 298
8.61289 299
8.63301 295
8.65312 277
8.67323 280
8.69335 287
8.71346 267
8.73357 289
8.75369 314
8.7738 284
8.79392 264
8.81403 283
8.83414 285
8.85426 272
8.87437 302
8.89448 295
8.9146 282
8.93471 271
8.95483 279
8.97494 303
8.99505 271
9.01517 255
9.03528 252
9.05539 261
9.07551 278
9.09562 235
9.11573 261
9.13585 289
9.15596 261
9.17608 272
9.19619 225
9.2163 269
9.23642 274
9.25653 294
9.27664 284
9.29676 261
9.31687 250
9.33699 270
9.3571 239
9.37721 260
9.39733 292
9.41744 251
9.43755 239
9.45767 235
9.47778 274
9.4979 276
9.51801 268
9.53812 271
9.55824 269
9.57835 253
9.59846 257
9.61858 253
9.63869 250
9.6588 252
9.67892 245
9.69903 293
9.71915 258
9.73926 248
9.75937 308
9.77949 239
9.7996 283
9.81971 234
9.83983 232
9.85994 267
9.88006 239
9.90017 269
9.92028 271
9.9404 255
9.96051 312
9.98062 261
10.00074 247
10.02085 244
10.04097 225
10.06108 260
10.08119 239
10.10131 222
10.12142 261
10.14153 253
10.16165 237
10.18176 254
10.20187 245
10.22199 253
10.2421 246
10.26222 269
10.28233 268
10.30244 243
10.32256 260
10.34267 248
10.36278 269
10.3829 250
10.40301 256
10.42313 265
10.44324 307
10.46335 282
10.48347 251
10.50358 253
10.52369 268
10.54381 258
10.56392 257
10.58403 255
10.60415 235
10.62426 239
10.64438 285
10.66449 254
10.6846 265
10.70472 266
10.72483 224
10.74494 244
10.76506 246
10.78517 272
10.80529 300
10.8254 243
10.84551 283
10.86563 250
10.88574 267
10.90585 278
10.92597 240
10.94608 241
10.9662 239
10.98631 249
11.00642 259
11.02654 281
11.04665 252
11.06676 263
11.08688 242
11.10699 244
11.1271 250
11.14722 267
11.16733 258
11.18745 234
11.20756 255
11.22767 259
11.24779 255
11.2679 258
11.28801 276
11.30813 281
11.32824 258
11.34836 258
11.36847 282
11.38858 257
11.4087 282
11.42881 258
11.44892 276
11.46904 225
11.48915 281
11.50927 249
11.52938 292
11.54949 262
11.56961 290
11.58972 263
11.60983 279
11.62995 263
11.65006 274
11.67017 281
11.69029 297
11.7104 278
11.73052 252
11.75063 264
11.77074 299
11.79086 274
11.81097 276
11.83108 268
11.8512 258
11.87131 319
11.89143 280
11.91154 300
11.93165 294
11.95177 326
11.97188 274
11.99199 285
12.01211 340
12.03222 282
12.05234 338
12.07245 315
12.09256 310
12.11268 310
12.13279 311
12.1529 324
12.17302 333
12.19313 334
12.21324 354
12.23336 312
12.25347 358
12.27359 347
12.2937 350
12.31381 324
12.33393 377
12.35404 351
12.37415 306
12.39427 353
12.41438 296
12.4345 328
12.45461 335
12.47472 318
12.49484 293
12.51495 273
12.53506 272
12.55518 318
12.57529 276
12.5954 293
12.61552 247
12.63563 297
12.65575 266
12.67586 274
12.69597 271
12.71609 230
12.7362 275
12.75631 253
12.77643 240
12.79654 275
12.81666 268
12.83677 272
12.85688 229
12.877 233
12.89711 286
12.91722 276
12.93734 248
12.95745 265
12.97757 248
12.99768 253
13.01779 228
13.03791 285
13.05802 254
13.07813 267
13.09825 287
13.11836 342
13.13847 287
13.15859 309
13.1787 298
13.19882 265
13.21893 252
13.23904 240
13.25916 271
13.27927 238
13.29938 240
13.3195 242
13.33961 260
13.35973 264
13.37984 247
13.39995 249
13.42007 248
13.44018 249
13.46029 275
13.48041 244
13.50052 232
13.52064 275
13.54075 310
13.56086 291
13.58098 317
13.60109 333
13.6212 339
13.64132 354
13.66143 332
13.68154 295
13.70166 257
13.72177 252
13.74189 234
13.762 256
13.78211 217
13.80223 237
13.82234 238
13.84245 252
13.86257 219
13.88268 225
13.9028 244
13.92291 245
13.94302 228
13.96314 244
13.98325 224
14.00336 231
14.02348 237
14.04359 211
14.06371 233
14.08382 204
14.10393 203
14.12405 235
14.14416 229
14.16427 222
14.18439 234
14.2045 243
14.22461 240
14.24473 202
14.26484 240
14.28496 224
14.30507 210
14.32518 221
14.3453 260
14.36541 191
14.38552 222
14.40564 234
14.42575 240
14.44587 215
14.46598 220
14.48609 226
14.50621 212
14.52632 204
14.54643 189
14.56655 217
14.58666 216
14.60677 220
14.62689 215
14.647 237
14.66712 217
14.68723 225
14.70734 243
14.72746 234
14.74757 220
14.76768 245
14.7878 262
14.80791 238
14.82803 274
14.84814 270
14.86825 285
14.88837 262
14.90848 292
14.92859 293
14.94871 274
14.96882 302
14.98894 287
15.00905 270
15.02916 217
15.04928 250
15.06939 232
15.0895 213
15.10962 233
15.12973 269
15.14984 204
15.16996 239
15.19007 223
15.21019 269
15.2303 258
15.25041 235
15.27053 254
15.29064 207
15.31075 228
15.33087 216
15.35098 203
15.3711 201
15.39121 262
15.41132 218
15.43144 238
15.45155 189
15.47166 209
15.49178 224
15.51189 237
15.53201 195
15.55212 242
15.57223 197
15.59235 250
15.61246 196
15.63257 217
15.65269 228
15.6728 219
15.69291 230
15.71303 208
15.73314 224
15.75326 217
15.77337 199
15.79348 218
15.8136 199
15.83371 226
15.85382 230
15.87394 206
15.89405 187
15.91417 201
15.93428 217
15.95439 214
15.97451 212
15.99462 200
16.01473 222
16.03485 193
16.05496 214
16.07508 195
16.09519 190
16.1153 213
16.13542 193
16.15553 206
16.17564 210
16.19576 233
16.21587 219
16.23598 205
16.2561 221
16.27621 217
16.29633 183
16.31644 220
16.33655 210
16.35667 212
16.37678 249
16.39689 185
16.41701 202
16.43712 226
16.45724 208
16.47735 169
16.49746 210
16.51758 186
16.53769 189
16.5578 194
16.57792 215
16.59803 184
16.61814 212
16.63826 219
16.65837 219
16.67849 205
16.6986 191
16.71871 230
16.73883 178
16.75894 210
16.77905 234
16.79917 198
16.81928 207
16.8394 212
16.85951 195
16.87962 187
16.89974 186
16.91985 214
16.93996 237
16.96008 216
16.98019 194
17.00031 195
17.02042 224
17.04053 216
17.06065 206
17.08076 201
17.10087 178
17.12099 211
17.1411 221
17.16121 206
17.18133 201
17.20144 198
17.22156 216
17.24167 226
17.26178 210
17.2819 179
17.30201 204
17.32212 213
17.34224 236
17.36235 217
17.38247 242
17.40258 208
17.42269 218
17.44281 215
17.46292 211
17.48303 206
17.50315 216
17.52326 194
17.54338 239
17.56349 207
17.5836 235
17.60372 228
17.62383 233
17.64394 196
17.66406 217
17.68417 216
17.70428 200
17.7244 202
17.74451 222
17.76463 216
17.78474 231
17.80485 194
17.82497 236
17.84508 210
17.86519 201
17.88531 228
17.90542 222
17.92554 221
17.94565 200
17.96576 222
17.98588 212
18.00599 212
18.0261 236
18.04622 194
18.06633 243
18.08645 217
18.10656 193
18.12667 212
18.14679 213
18.1669 206
18.18701 211
18.20713 177
18.22724 203
18.24735 196
18.26747 184
18.28758 200
18.3077 227
18.32781 226
18.34792 205
18.36804 211
18.38815 208
18.40826 187
18.42838 217
18.44849 211
18.46861 208
18.48872 238
18.50883 203
18.52895 193
18.54906 222
18.56917 219
18.58929 187
18.6094 189
18.62951 206
18.64963 198
18.66974 207
18.68986 221
18.70997 212
18.73008 198
18.7502 228
18.77031 210
18.79042 225
18.81054 223
18.83065 217
18.85077 224
18.87088 233
18.89099 213
18.91111 221
18.93122 209
18.95133 231
18.97145 240
18.99156 223
19.01168 241
19.03179 212
19.0519 209
19.07202 222
19.09213 215
19.11224 197
19.13236 214
19.15247 205
19.17258 253
19.1927 255
19.21281 275
19.23293 259
19.25304 289
19.27315 279
19.29327 264
19.31338 262
19.33349 233
19.35361 234
19.37372 235
19.39384 218
19.41395 262
19.43406 250
19.45418 225
19.47429 240
19.4944 245
19.51452 242
19.53463 248
19.55475 257
19.57486 252
19.59497 267
19.61509 270
19.6352 268
19.65531 289
19.67543 268
19.69554 283
19.71565 293
19.73577 313
19.75588 345
19.776 375
19.79611 381
19.81622 408
19.83634 383
19.85645 396
19.87656 411
19.89668 370
19.91679 401
19.93691 357
19.95702 403
19.97713 358
19.99725 342
20.01736 374
20.03747 358
20.05759 368
20.0777 364
20.09782 357
20.11793 375
20.13804 351
20.15816 350
20.17827 360
20.19838 357
20.2185 353
20.23861 397
20.25872 376
20.27884 384
20.29895 393
20.31907 359
20.33918 389
20.35929 394
20.37941 362
20.39952 408
20.41963 400
20.43975 350
20.45986 422
20.47998 398
20.50009 430
20.5202 475
20.54032 470
20.56043 418
20.58054 442
20.60066 521
20.62077 553
20.64088 652
20.661 740
20.68111 961
20.70123 1302
20.72134 1697
20.74145 2330
20.76157 3164
20.78168 4004
20.80179 4776
20.82191 5173
20.84202 4946
20.86214 4174
20.88225 3346
20.90236 2508
20.92248 1866
20.94259 1564
20.9627 1268
20.98282 1240
21.00293 1259
21.02305 1226
21.04316 1061
21.06327 916
21.08339 778
21.1035 625
21.12361 523
21.14373 469
21.16384 449
21.18395 421
21.20407 405
21.22418 417
21.2443 387
21.26441 382
21.28452 379
21.30464 414
21.32475 376
21.34486 381
21.36498 372
21.38509 346
21.40521 344
21.42532 340
21.44543 328
21.46555 339
21.48566 380
21.50577 355
21.52589 387
21.546 336
21.56612 337
21.58623 327
21.60634 297
21.62646 320
21.64657 305
21.66668 273
21.6868 332
21.70691 303
21.72702 312
21.74714 291
21.76725 309
21.78737 298
21.80748 340
21.82759 274
21.84771 311
21.86782 320
21.88793 338
21.90805 355
21.92816 367
21.94828 364
21.96839 365
21.9885 338
22.00862 360
22.02873 310
22.04884 336
22.06896 286
22.08907 295
22.10919 320
22.1293 305
22.14941 319
22.16953 318
22.18964 319
22.20975 340
22.22987 368
22.24998 419
22.27009 405
22.29021 468
22.31032 425
22.33044 407
22.35055 350
22.37066 394
22.39078 348
22.41089 364
22.431 320
22.45112 313
22.47123 321
22.49135 321
22.51146 326
22.53157 325
22.55169 313
22.5718 346
22.59191 379
22.61203 333
22.63214 336
22.65225 330
22.67237 319
22.69248 322
22.7126 260
22.73271 269
22.75282 281
22.77294 280
22.79305 292
22.81316 293
22.83328 316
22.85339 290
22.87351 302
22.89362 319
22.91373 339
22.93385 336
22.95396 312
22.97407 333
22.99419 364
23.0143 359
23.03442 401
23.05453 404
23.07464 395
23.09476 539
23.11487 549
23.13498 552
23.1551 578
23.17521 651
23.19532 612
23.21544 604
23.23555 579
23.25567 488
23.27578 450
23.29589 390
23.31601 399
23.33612 388
23.35623 357
23.37635 340
23.39646 366
23.41658 323
23.43669 319
23.4568 332
23.47692 364
23.49703 363
23.51714 370
23.53726 386
23.55737 363
23.57749 366
23.5976 346
23.61771 372
23.63783 348
23.65794 371
23.67805 336
23.69817 324
23.71828 391
23.73839 347
23.75851 389
23.77862 396
23.79874 429
23.81885 461
23.83896 442
23.85908 509
23.87919 557
23.8993 621
23.91942 670
23.93953 632
23.95965 627
23.97976 606
23.99987 559
24.01999 530
24.0401 433
24.06021 365
24.08033 379
24.10044 344
24.12056 324
24.14067 330
24.16078 337
24.1809 357
24.20101 377
24.22112 342
24.24124 367
24.26135 415
24.28146 428
24.30158 467
24.32169 397
24.34181 388
24.36192 430
24.38203 354
24.40215 351
24.42226 347
24.44237 381
24.46249 325
24.4826 371
24.50272 328
24.52283 329
24.54294 342
24.56306 328
24.58317 339
24.60328 409
24.6234 379
24.64351 410
24.66362 468
24.68374 390
24.70385 423
24.72397 468
24.74408 442
24.76419 409
24.78431 392
24.80442 416
24.82453 457
24.84465 436
24.86476 396
24.88488 415
24.90499 383
24.9251 414
24.94522 378
24.96533 348
24.98544 368
25.00556 361
25.02567 330
25.04579 363
25.0659 359
25.08601 366
25.10613 353
25.12624 372
25.14635 368
25.16647 380
25.18658 372
25.20669 399
25.22681 389
25.24692 397
25.26704 371
25.28715 374
25.30726 382
25.32738 375
25.34749 384
25.3676 424
25.38772 426
25.40783 449
25.42795 507
25.44806 598
25.46817 601
25.48829 700
25.5084 724
25.52851 827
25.54863 807
25.56874 747
25.58886 737
25.60897 727
25.62908 737
25.6492 705
25.66931 677
25.68942 608
25.70954 535
25.72965 476
25.74976 475
25.76988 468
25.78999 432
25.81011 450
25.83022 402
25.85033 440
25.87045 426
25.89056 437
25.91067 431
25.93079 409
25.9509 483
25.97102 474
25.99113 464
26.01124 460
26.03136 514
26.05147 473
26.07158 517
26.0917 525
26.11181 564
26.13193 569
26.15204 606
26.17215 628
26.19227 717
26.21238 748
26.23249 792
26.25261 941
26.27272 936
26.29283 1074
26.31295 1179
26.33306 1337
26.35318 1563
26.37329 1746
26.3934 2138
26.41352 2654
26.43363 3153
26.45374 4146
26.47386 5437
26.49397 7574
26.51409 10254
26.5342 13725
26.55431 17351
26.57443 19761
26.59454 21517
26.61465 20952
26.63477 18551
26.65488 14878
26.67499 11120
26.69511 8083
26.71522 5321
26.73534 3215
26.75545 2043
26.77556 1519
26.79568 1322
26.81579 1155
26.8359 1087
26.85602 1038
26.87613 977
26.89625 921
26.91636 983
26.93647 970
26.95659 1042
26.9767 1119
26.99681 1178
27.01693 1198
27.03704 1157
27.05716 1089
27.07727 1113
27.09738 983
27.1175 833
27.13761 818
27.15772 708
27.17784 746
27.19795 744
27.21806 723
27.23818 822
27.25829 836
27.27841 985
27.29852 1101
27.31863 1182
27.33875 1315
27.35886 1463
27.37897 1561
27.39909 1634
27.4192 1821
27.43932 1810
27.45943 1717
27.47954 1632
27.49966 1301
27.51977 1078
27.53988 919
27.56 736
27.58011 591
27.60023 481
27.62034 428
27.64045 492
27.66057 454
27.68068 504
27.70079 479
27.72091 495
27.74102 472
27.76113 462
27.78125 480
27.80136 421
27.82148 450
27.84159 446
27.8617 452
27.88182 503
27.90193 427
27.92204 408
27.94216 428
27.96227 387
27.98239 397
28.0025 359
28.02261 389
28.04273 355
28.06284 346
28.08295 298
28.10307 302
28.12318 308
28.1433 293
28.16341 274
28.18352 316
28.20364 333
28.22375 305
28.24386 321
28.26398 290
28.28409 326
28.3042 332
28.32432 305
28.34443 321
28.36455 277
28.38466 277
28.40477 279
28.42489 300
28.445 292
28.46511 264
28.48523 286
28.50534 290
28.52546 276
28.54557 275
28.56568 285
28.5858 283
28.60591 275
28.62602 297
28.64614 277
28.66625 302
28.68636 242
28.70648 282
28.72659 238
28.74671 253
28.76682 293
28.78693 290
28.80705 239
28.82716 252
28.84727 282
28.86739 308
28.8875 253
28.90762 251
28.92773 243
28.94784 279
28.96796 269
28.98807 287
29.00818 260
29.0283 269
29.04841 294
29.06853 254
29.08864 267
29.10875 287
29.12887 297
29.14898 291
29.16909 282
29.18921 282
29.20932 315
29.22943 294
29.24955 288
29.26966 331
29.28978 323
29.30989 376
29.33 349
29.35012 416
29.37023 440
29.39034 461
29.41046 459
29.43057 490
29.45069 485
29.4708 447
29.49091 455
29.51103 417
29.53114 396
29.55125 340
29.57137 339
29.59148 343
29.6116 337
29.63171 319
29.65182 349
29.67194 321
29.69205 306
29.71216 292
29.73228 313
29.75239 309
29.7725 321
29.79262 317
29.81273 329
29.83285 334
29.85296 330
29.87307 320
29.89319 323
29.9133 319
29.93341 357
29.95353 360
29.97364 352
29.99376 346
30.01387 396
30.03398 415
30.0541 451
30.07421 448
30.09432 502
30.11444 544
30.13455 505
30.15467 560
30.17478 528
30.19489 515
30.21501 491
30.23512 411
30.25523 414
30.27535 398
30.29546 367
30.31557 355
30.33569 317
30.3558 342
30.37592 317
30.39603 286
30.41614 322
30.43626 322
30.45637 291
30.47648 271
30.4966 301
30.51671 295
30.53683 317
30.55694 312
30.57705 346
30.59717 355
30.61728 394
30.63739 446
30.65751 452
30.67762 508
30.69773 516
30.71785 534
30.73796 502
30.75808 526
30.77819 479
30.7983 470
30.81842 455
30.83853 451
30.85864 416
30.87876 405
30.89887 383
30.91899 361
30.9391 336
30.95921 326
30.97933 296
30.99944 274
31.01955 251
31.03967 255
31.05978 285
31.0799 262
31.10001 242
31.12012 266
31.14024 259
31.16035 254
31.18046 223
31.20058 251
31.22069 233
31.2408 257
31.26092 256
31.28103 250
31.30115 260
31.32126 237
31.34137 236
31.36149 277
31.3816 271
31.40171 264
31.42183 225
31.44194 225
31.46206 209
31.48217 245
31.50228 245
31.5224 243
31.54251 206
31.56262 235
31.58274 225
31.60285 251
31.62297 237
31.64308 236
31.66319 225
31.68331 225
31.70342 203
31.72353 247
31.74365 218
31.76376 219
31.78387 226
31.80399 249
31.8241 254
31.84422 236
31.86433 227
31.88444 233
31.90456 240
31.92467 254
31.94478 236
31.9649 268
31.98501 248
32.00513 287
32.02524 293
32.04535 310
32.06547 309
32.08558 332
32.10569 324
32.12581 316
32.14592 289
32.16604 284
32.18615 296
32.20626 258
32.22638 304
32.24649 288
32.2666 313
32.28672 277
32.30683 296
32.32694 334
32.34706 310
32.36717 360
32.38729 337
32.4074 346
32.42751 374
32.44763 333
32.46774 349
32.48785 322
32.50797 313
32.52808 291
32.5482 284
32.56831 239
32.58842 249
32.60854 246
32.62865 283
32.64876 225
32.66888 227
32.68899 193
32.7091 250
32.72922 248
32.74933 268
32.76945 246
32.78956 249
32.80967 264
32.82979 233
32.8499 239
32.87001 244
32.89013 229
32.91024 237
32.93036 252
32.95047 245
32.97058 245
32.9907 231
33.01081 261
33.03092 245
33.05104 254
33.07115 249
33.09127 223
33.11138 275
33.13149 267
33.15161 267
33.17172 270
33.19183 282
33.21195 253
33.23206 249
33.25217 226
33.27229 258
33.2924 235
33.31252 235
33.33263 223
33.35274 245
33.37286 227
33.39297 259
33.41308 239
33.4332 233
33.45331 237
33.47343 264
33.49354 250
33.51365 245
33.53377 264
33.55388 241
33.57399 223
33.59411 240
33.61422 201
33.63434 211
33.65445 217
33.67456 205
33.69468 239
33.71479 252
33.7349 236
33.75502 209
33.77513 251
33.79524 245
33.81536 245
33.83547 260
33.85559 266
33.8757 250
33.89581 259
33.91593 241
33.93604 270
33.95615 235
33.97627 262
33.99638 271
34.0165 281
34.03661 264
34.05672 311
34.07684 318
34.09695 353
34.11706 363
34.13718 384
34.15729 390
34.17741 430
34.19752 440
34.21763 395
34.23775 437
34.25786 397
34.27797 423
34.29809 410
34.3182 370
34.33831 357
34.35843 347
34.37854 305
34.39866 315
34.41877 295
34.43888 325
34.459 320
34.47911 298
34.49922 318
34.51934 293
34.53945 342
34.55957 331
34.57968 335
34.59979 400
34.61991 355
34.64002 334
34.66013 354
34.68025 328
34.70036 370
34.72047 358
34.74059 319
34.7607 354
34.78082 313
34.80093 354
34.82104 346
34.84116 372
34.86127 402
34.88138 388
34.9015 381
34.92161 383
34.94173 399
34.96184 380
34.98195 365
35.00207 356
35.02218 395
35.04229 365
35.06241 418
35.08252 359
35.10264 398
35.12275 384
35.14286 343
35.16298 396
35.18309 378
35.2032 401
35.22332 338
35.24343 397
35.26354 408
35.28366 371
35.30377 375
35.32389 411
35.344 394
35.36411 430
35.38423 395
35.40434 414
35.42445 439
35.44457 464
35.46468 500
35.4848 486
35.50491 451
35.52502 425
35.54514 429
35.56525 430
35.58536 450
35.60548 364
35.62559 345
35.64571 373
35.66582 352
35.68593 306
35.70605 329
35.72616 344
35.74627 340
35.76639 357
35.7865 351
35.80661 327
35.82673 350
35.84684 353
35.86696 335
35.88707 337
35.90718 333
35.9273 313
35.94741 317
35.96752 317
35.98764 300
36.00775 289
36.02787 265
36.04798 301
36.06809 286
36.08821 302
36.10832 294
36.12843 311
36.14855 291
36.16866 296
36.18878 312
36.20889 297
36.229 297
36.24912 329
36.26923 364
36.28934 375
36.30946 412
36.32957 446
36.34968 542
36.3698 619
36.38991 753
36.41003 984
36.43014 1155
36.45025 1374
36.47037 1518
36.49048 1616
36.51059 1574
36.53071 1481
36.55082 1291
36.57094 1115
36.59105 992
36.61116 883
36.63128 698
36.65139 539
36.6715 425
36.69162 366
36.71173 356
36.73184 357
36.75196 345
36.77207 330
36.79219 306
36.8123 354
36.83241 333
36.85253 384
36.87264 387
36.89275 369
36.91287 394
36.93298 399
36.9531 371
36.97321 379
36.99332 379
37.01344 357
37.03355 362
37.05366 375
37.07378 336
37.09389 309
37.11401 303
37.13412 315
37.15423 298
37.17435 285
37.19446 281
37.21457 226
37.23469 246
37.2548 267
37.27491 269
37.29503 228
37.31514 281
37.33526 291
37.35537 266
37.37548 306
37.3956 243
37.41571 280
37.43582 267
37.45594 260
37.47605 246
37.49617 280
37.51628 280
37.53639 288
37.55651 272
37.57662 301
37.59673 267
37.61685 236
37.63696 264
37.65708 285
37.67719 286
37.6973 271
37.71742 225
37.73753 259
37.75764 256
37.77776 242
37.79787 249
37.81798 271
37.8381 271
37.85821 259
37.87833 231
37.89844 245
37.91855 253
37.93867 240
37.95878 266
37.97889 258
37.99901 252
38.01912 257
38.03924 275
38.05935 241
38.07946 263
38.09958 253
38.11969 283
38.1398 277
38.15992 250
38.18003 283
38.20015 291
38.22026 264
38.24037 288
38.26049 274
38.2806 287
38.30071 298
38.32083 273
38.34094 305
38.36105 274
38.38117 354
38.40128 356
38.4214 342
38.44151 337
38.46162 357
38.48174 338
38.50185 327
38.52196 366
38.54208 326
38.56219 338
38.58231 346
38.60242 313
38.62253 292
38.64265 251
38.66276 290
38.68287 285
38.70299 281
38.7231 293
38.74321 272
38.76333 257
38.78344 246
38.80356 242
38.82367 259
38.84378 244
38.8639 236
38.88401 259
38.90412 241
38.92424 269
38.94435 282
38.96447 267
38.98458 293
39.00469 261
39.02481 276
39.04492 284
39.06503 292
39.08515 306
39.10526 329
39.12538 336
39.14549 299
39.1656 344
39.18572 345
39.20583 355
39.22594 437
39.24606 453
39.26617 513
39.28628 611
39.3064 721
39.32651 873
39.34663 1012
39.36674 1178
39.38685 1379
39.40697 1507
39.42708 1499
39.44719 1410
39.46731 1222
39.48742 1070
39.50754 989
39.52765 791
39.54776 690
39.56788 578
39.58799 467
39.6081 382
39.62822 350
39.64833 320
39.66845 286
39.68856 283
39.70867 275
39.72879 270
39.7489 289
39.76901 261
39.78913 260
39.80924 257
39.82935 259
39.84947 276
39.86958 247
39.8897 263
39.90981 244
39.92992 255
39.95004 257
39.97015 250
39.99026 258
40.01038 283
40.03049 317
40.05061 336
40.07072 326
40.09083 378
40.11095 383
40.13106 475
40.15117 573
40.17129 628
40.1914 763
40.21152 811
40.23163 865
40.25174 822
40.27186 783
40.29197 664
40.31208 664
40.3322 606
40.35231 526
40.37242 490
40.39254 417
40.41265 377
40.43277 310
40.45288 301
40.47299 271
40.49311 292
40.51322 282
40.53333 261
40.55345 256
40.57356 244
40.59368 248
40.61379 269
40.6339 236
40.65402 260
40.67413 266
40.69424 254
40.71436 246
40.73447 241
40.75458 248
40.7747 251
40.79481 244
40.81493 260
40.83504 245
40.85515 246
40.87527 240
40.89538 245
40.91549 238
40.93561 240
40.95572 210
40.97584 249
40.99595 238
41.01606 252
41.03618 249
41.05629 237
41.0764 236
41.09652 229
41.11663 230
41.13675 253
41.15686 237
41.17697 275
41.19709 253
41.2172 251
41.23731 222
41.25743 292
41.27754 274
41.29765 234
41.31777 219
41.33788 232
41.358 255
41.37811 283
41.39822 246
41.41834 287
41.43845 291
41.45856 261
41.47868 296
41.49879 267
41.51891 275
41.53902 266
41.55913 278
41.57925 281
41.59936 335
41.61947 359
41.63959 339
41.6597 390
41.67982 404
41.69993 445
41.72004 464
41.74016 508
41.76027 528
41.78038 491
41.8005 442
41.82061 433
41.84072 444
41.86084 384
41.88095 369
41.90107 330
41.92118 321
41.94129 276
41.96141 290
41.98152 275
42.00163 269
42.02175 276
42.04186 253
42.06198 240
42.08209 270
42.1022 277
42.12232 275
42.14243 308
42.16254 320
42.18266 339
42.20277 317
42.22289 355
42.243 393
42.26311 475
42.28323 567
42.30334 648
42.32345 825
42.34357 930
42.36368 1033
42.38379 1150
42.40391 1082
42.42402 1126
42.44414 976
42.46425 833
42.48436 790
42.50448 684
42.52459 603
42.5447 551
42.56482 443
42.58493 391
42.60505 324
42.62516 360
42.64527 276
42.66539 283
42.6855 298
42.70561 294
42.72573 288
42.74584 310
42.76595 307
42.78607 281
42.80618 294
42.8263 312
42.84641 255
42.86652 277
42.88664 237
42.90675 231
42.92686 256
42.94698 235
42.96709 231
42.98721 251
43.00732 233
43.02743 228
43.04755 255
43.06766 252
43.08777 237
43.10789 207
43.128 212
43.14812 233
43.16823 224
43.18834 206
43.20846 241
43.22857 207
43.24868 205
43.2688 221
43.28891 207
43.30902 186
43.32914 194
43.34925 210
43.36937 229
43.38948 207
43.40959 243
43.42971 249
43.44982 240
43.46993 221
43.49005 249
43.51016 233
43.53028 222
43.55039 237
43.5705 210
43.59062 233
43.61073 215
43.63084 223
43.65096 221
43.67107 234
43.69119 230
43.7113 231
43.73141 219
43.75153 212
43.77164 254
43.79175 215
43.81187 206
43.83198 217
43.85209 216
43.87221 223
43.89232 222
43.91244 211
43.93255 224
43.95266 218
43.97278 232
43.99289 244
44.013 221
44.03312 214
44.05323 215
44.07335 227
44.09346 242
44.11357 222
44.13369 217
44.1538 227
44.17391 227
44.19403 228
44.21414 241
44.23426 212
44.25437 237
44.27448 217
44.2946 212
44.31471 211
44.33482 223
44.35494 218
44.37505 217
44.39516 203
44.41528 207
44.43539 252
44.45551 227
44.47562 222
44.49573 217
44.51585 223
44.53596 218
44.55607 215
44.57619 236
44.5963 213
44.61642 228
44.63653 207
44.65664 242
44.67676 217
44.69687 201
44.71698 229
44.7371 197
44.75721 205
44.77732 232
44.79744 203
44.81755 223
44.83767 216
44.85778 232
44.87789 240
44.89801 215
44.91812 210
44.93823 201
44.95835 225
44.97846 236
44.99858 240
45.01869 254
45.0388 227
45.05892 193
45.07903 211
45.09914 223
45.11926 221
45.13937 203
45.15949 203
45.1796 229
45.19971 241
45.21983 227
45.23994 235
45.26005 245
45.28017 214
45.30028 254
45.32039 242
45.34051 272
45.36062 266
45.38074 271
45.40085 312
45.42096 287
45.44108 296
45.46119 315
45.4813 360
45.50142 343
45.52153 338
45.54165 363
45.56176 419
45.58187 452
45.60199 460
45.6221 478
45.64221 548
45.66233 638
45.68244 720
45.70256 757
45.72267 860
45.74278 857
45.7629 779
45.78301 744
45.80312 646
45.82324 566
45.84335 557
45.86346 491
45.88358 453
45.90369 429
45.92381 338
45.94392 310
45.96403 263
45.98415 225
46.00426 229
46.02437 226
46.04449 248
46.0646 258
46.08472 259
46.10483 263
46.12494 289
46.14506 260
46.16517 241
46.18528 253
46.2054 228
46.22551 244
46.24563 260
46.26574 240
46.28585 254
46.30597 262
46.32608 235
46.34619 237
46.36631 195
46.38642 225
46.40653 219
46.42665 214
46.44676 180
46.46688 216
46.48699 193
46.5071 216
46.52722 198
46.54733 210
46.56744 201
46.58756 183
46.60767 209
46.62779 202
46.6479 228
46.66801 217
46.68813 194
46.70824 212
46.72835 205
46.74847 196
46.76858 236
46.78869 203
46.80881 219
46.82892 227
46.84904 214
46.86915 209
46.88926 247
46.90938 214
46.92949 222
46.9496 242
46.96972 218
46.98983 268
47.00995 277
47.03006 270
47.05017 291
47.07029 305
47.0904 307
47.11051 310
47.13063 294
47.15074 270
47.17086 274
47.19097 283
47.21108 262
47.2312 261
47.25131 235
47.27142 263
47.29154 255
47.31165 253
47.33176 236
47.35188 253
47.37199 244
47.39211 231
47.41222 295
47.43233 297
47.45245 254
47.47256 288
47.49267 249
47.51279 264
47.5329 260
47.55302 240
47.57313 239
47.59324 236
47.61336 252
47.63347 201
47.65358 220
47.6737 208
47.69381 197
47.71393 218
47.73404 211
47.75415 207
47.77427 227
47.79438 237
47.81449 194
47.83461 221
47.85472 224
47.87483 205
47.89495 233
47.91506 209
47.93518 223
47.95529 206
47.9754 206
47.99552 230
48.01563 227
48.03574 226
48.05586 235
48.07597 206
48.09609 205
48.1162 219
48.13631 203
48.15643 220
48.17654 258
48.19665 222
48.21677 198
48.23688 227
48.257 231
48.27711 221
48.29722 237
48.31734 167
48.33745 225
48.35756 173
48.37768 224
48.39779 227
48.4179 215
48.43802 212
48.45813 201
48.47825 192
48.49836 212
48.51847 221
48.53859 191
48.5587 207
48.57881 224
48.59893 213
48.61904 237
48.63916 226
48.65927 238
48.67938 245
48.6995 256
48.71961 266
48.73972 256
48.75984 244
48.77995 266
48.80006 265
48.82018 314
48.84029 279
48.86041 279
48.88052 317
48.90063 297
48.92075 290
48.94086 282
48.96097 269
48.98109 314
49.0012 272
49.02132 270
49.04143 290
49.06154 244
49.08166 268
49.10177 268
49.12188 268
49.142 210
49.16211 276
49.18223 240
49.20234 226
49.22245 243
49.24257 228
49.26268 248
49.28279 223
49.30291 233
49.32302 251
49.34313 211
49.36325 224
49.38336 265
49.40348 231
49.42359 233
49.4437 249
49.46382 223
49.48393 268
49.50404 245
49.52416 242
49.54427 234
49.56439 270
49.5845 268
49.60461 255
49.62473 236
49.64484 272
49.66495 294
49.68507 301
49.70518 320
49.7253 311
49.74541 349
49.76552 341
49.78564 357
49.80575 388
49.82586 416
49.84598 437
49.86609 464
49.8862 538
49.90632 632
49.92643 765
49.94655 879
49.96666 1064
49.98677 1265
50.00689 1496
50.027 1782
50.04711 2051
50.06723 2245
50.08734 2289
50.10746 2087
50.12757 1988
50.14768 1631
50.1678 1436
50.18791 1351
50.20802 1295
50.22814 1225
50.24825 1039
50.26837 904
50.28848 627
50.30859 495
50.32871 421
50.34882 443
50.36893 443
50.38905 411
50.40916 441
50.42927 455
50.44939 500
50.4695 485
50.48962 559
50.50973 528
50.52984 479
50.54996 516
50.57007 491
50.59018 456
50.6103 436
50.63041 435
50.65053 388
50.67064 411
50.69075 355
50.71087 353
50.73098 353
50.75109 335
50.77121 313
50.79132 324
50.81143 320
50.83155 336
50.85166 330
50.87178 309
50.89189 315
50.912 298
50.93212 266
50.95223 261
50.97234 287
50.99246 278
51.01257 256
51.03269 247
51.0528 254
51.07291 254
51.09303 237
51.11314 215
51.13325 215
51.15337 233
51.17348 249
51.1936 204
51.21371 227
51.23382 223
51.25394 231
51.27405 240
51.29416 239
51.31428 226
51.33439 210
51.3545 209
51.37462 225
51.39473 218
51.41485 215
51.43496 218
51.45507 198
51.47519 196
51.4953 216
51.51541 201
51.53553 210
51.55564 191
51.57576 202
51.59587 196
51.61598 201
51.6361 201
51.65621 194
51.67632 198
51.69644 187
51.71655 196
51.73667 215
51.75678 210
51.77689 210
51.79701 215
51.81712 202
51.83723 196
51.85735 207
51.87746 166
51.89757 206
51.91769 192
51.9378 181
51.95792 195
51.97803 183
51.99814 193
52.01826 182
52.03837 164
52.05848 201
52.0786 195
52.09871 193
52.11883 197
52.13894 225
52.15905 210
52.17917 189
52.19928 198
52.21939 242
52.23951 231
52.25962 196
52.27974 191
52.29985 218
52.31996 214
52.34008 189
52.36019 220
52.3803 216
52.40042 226
52.42053 223
52.44064 225
52.46076 201
52.48087 244
52.50099 224
52.5211 218
52.54121 225
52.56133 239
52.58144 235
52.60155 211
52.62167 238
52.64178 218
52.6619 232
52.68201 265
52.70212 235
52.72224 203
52.74235 218
52.76246 252
52.78258 237
52.80269 215
52.8228 221
52.84292 215
52.86303 215
52.88315 222
52.90326 218
52.92337 214
52.94349 211
52.9636 229
52.98371 206
53.00383 226
53.02394 226
53.04406 194
53.06417 210
53.08428 235
53.1044 228
53.12451 215
53.14462 217
53.16474 227
53.18485 223
53.20497 245
53.22508 232
53.24519 221
53.26531 230
53.28542 221
53.30553 230
53.32565 232
53.34576 246
53.36587 252
53.38599 241
53.4061 229
53.42622 209
53.44633 233
53.46644 220
53.48656 213
53.50667 224
53.52678 238
53.5469 218
53.56701 216
53.58713 225
53.60724 266
53.62735 237
53.64747 248
53.66758 252
53.68769 225
53.70781 224
53.72792 270
53.74804 209
53.76815 222
53.78826 244
53.80838 234
53.82849 267
53.8486 225
53.86872 244
53.88883 233
53.90894 264
53.92906 240
53.94917 272
53.96929 250
53.9894 239
54.00951 252
54.02963 268
54.04974 242
54.06985 261
54.08997 264
54.11008 277
54.1302 262
54.15031 248
54.17042 250
54.19054 276
54.21065 235
54.23076 247
54.25088 299
54.27099 265
54.29111 265
54.31122 274
54.33133 257
54.35145 272
54.37156 269
54.39167 245
54.41179 255
54.4319 279
54.45201 244
54.47213 243
54.49224 275
54.51236 292
54.53247 283
54.55258 291
54.5727 261
54.59281 332
54.61292 326
54.63304 354
54.65315 374
54.67327 420
54.69338 490
54.71349 516
54.73361 591
54.75372 705
54.77383 782
54.79395 788
54.81406 818
54.83417 851
54.85429 739
54.8744 642
54.89452 577
54.91463 604
54.93474 532
54.95486 564
54.97497 504
54.99508 490
55.0152 459
55.03531 401
55.05543 356
55.07554 338
55.09565 354
55.11577 356
55.13588 369
55.15599 376
55.17611 373
55.19622 423
55.21634 461
55.23645 469
55.25656 511
55.27668 522
55.29679 528
55.3169 395
55.33702 429
55.35713 377
55.37724 405
55.39736 395
55.41747 415
55.43759 384
55.4577 346
55.47781 320
55.49793 324
55.51804 258
55.53815 288
55.55827 254
55.57838 253
55.5985 287
55.61861 268
55.63872 260
55.65884 258
55.67895 248
55.69906 249
55.71918 235
55.73929 229
55.75941 215
55.77952 231
55.79963 203
55.81975 247
55.83986 215
55.85997 211
55.88009 220
55.9002 215
55.92031 200
55.94043 226
55.96054 186
55.98066 220
56.00077 236
56.02088 224
56.041 207
56.06111 201
56.08122 244
56.10134 224
56.12145 221
56.14157 213
56.16168 231
56.18179 189
56.20191 205
56.22202 201
56.24213 234
56.26225 223
56.28236 221
56.30248 182
56.32259 233
56.3427 225
56.36282 221
56.38293 190
56.40304 186
56.42316 196
56.44327 233
56.46338 224
56.4835 211
56.50361 203
56.52373 211
56.54384 230
56.56395 220
56.58407 225
56.60418 237
56.62429 216
56.64441 192
56.66452 233
56.68464 248
56.70475 200
56.72486 259
56.74498 230
56.76509 240
56.7852 220
56.80532 216
56.82543 252
56.84554 225
56.86566 235
56.88577 200
56.90589 220
56.926 220
56.94611 232
56.96623 215
56.98634 257
57.00645 217
57.02657 249
57.04668 212
57.0668 235
57.08691 256
57.10702 251
57.12714 232
57.14725 244
57.16736 259
57.18748 222
57.20759 249
57.22771 248
57.24782 220
57.26793 241
57.28805 235
57.30816 268
57.32827 264
57.34839 239
57.3685 218
57.38861 275
57.40873 242
57.42884 241
57.44896 210
57.46907 223
57.48918 240
57.5093 216
57.52941 228
57.54952 189
57.56964 220
57.58975 213
57.60987 203
57.62998 208
57.65009 209
57.67021 233
57.69032 200
57.71043 179
57.73055 192
57.75066 187
57.77078 196
57.79089 201
57.811 224
57.83112 216
57.85123 190
57.87134 186
57.89146 181
57.91157 219
57.93168 201
57.9518 197
57.97191 192
57.99203 216
58.01214 207
58.03225 218
58.05237 204
58.07248 215
58.09259 227
58.11271 200
58.13282 214
58.15294 204
58.17305 218
58.19316 205
58.21328 205
58.23339 202
58.2535 218
58.27362 197
58.29373 212
58.31385 210
58.33396 218
58.35407 219
58.37419 199
58.3943 221
58.41441 225
58.43453 228
58.45464 247
58.47475 243
58.49487 216
58.51498 246
58.5351 246
58.55521 247
58.57532 245
58.59544 242
58.61555 227
58.63566 231
58.65578 251
58.67589 220
58.69601 232
58.71612 238
58.73623 236
58.75635 215
58.77646 215
58.79657 231
58.81669 206
58.8368 214
58.85691 213
58.87703 190
58.89714 239
58.91726 214
58.93737 199
58.95748 205
58.9776 208
58.99771 193
59.01782 209
59.03794 205
59.05805 174
59.07817 211
59.09828 203
59.11839 208
59.13851 207
59.15862 213
59.17873 201
59.19885 234
59.21896 231
59.23908 237
59.25919 210
59.2793 226
59.29942 236
59.31953 213
59.33964 236
59.35976 233
59.37987 249
59.39998 273
59.4201 258
59.44021 244
59.46033 267
59.48044 261
59.50055 266
59.52067 271
59.54078 300
59.56089 286
59.58101 327
59.60112 335
59.62124 355
59.64135 352
59.66146 381
59.68158 461
59.70169 491
59.7218 513
59.74192 605
59.76203 740
59.78215 793
59.80226 975
59.82237 1138
59.84249 1351
59.8626 1402
59.88271 1607
59.90283 1565
59.92294 1423
59.94305 1298
59.96317 1070
59.98328 893
60.0034 893
60.02351 908
60.04362 889
60.06374 905
60.08385 806
60.10396 682
60.12408 535
60.14419 411
60.16431 377
60.18442 322
60.20453 306
60.22465 284
60.24476 277
60.26487 274
60.28499 249
60.3051 243
60.32522 280
60.34533 244
60.36544 249
60.38556 243
60.40567 236
60.42578 220
60.4459 246
60.46601 241
60.48612 210
60.50624 224
60.52635 221
60.54647 244
60.56658 238
60.58669 221
60.60681 216
60.62692 236
60.64703 216
60.66715 250
60.68726 219
60.70738 233
60.72749 225
60.7476 218
60.76772 215
60.78783 216
60.80794 240
60.82806 218
60.84817 216
60.86828 190
60.8884 228
60.90851 227
60.92863 237
60.94874 204
60.96885 256
60.98897 203
61.00908 253
61.02919 234
61.04931 245
61.06942 265
61.08954 268
61.10965 251
61.12976 296
61.14988 283
61.16999 263
61.1901 264
61.21022 275
61.23033 277
61.25045 237
61.27056 266
61.29067 247
61.31079 258
61.3309 230
61.35101 230
61.37113 229
61.39124 251
61.41135 231
61.43147 214
61.45158 225
61.4717 246
61.49181 245
61.51192 214
61.53204 212
61.55215 241
61.57226 225
61.59238 226
61.61249 232
61.63261 215
61.65272 226
61.67283 254
61.69295 234
61.71306 250
61.73317 207
61.75329 202
61.7734 215
61.79352 232
61.81363 232
61.83374 235
61.85386 228
61.87397 236
61.89408 224
61.9142 239
61.93431 236
61.95442 228
61.97454 247
61.99465 237
62.01477 230
62.03488 252
62.05499 238
62.07511 246
62.09522 258
62.11533 260
62.13545 259
62.15556 248
62.17568 241
62.19579 254
62.2159 257
62.23602 251
62.25613 257
62.27624 227
62.29636 269
62.31647 249
62.33659 265
62.3567 250
62.37681 249
62.39693 278
62.41704 223
62.43715 258
62.45727 270
62.47738 224
62.49749 287
62.51761 281
62.53772 225
62.55784 241
62.57795 237
62.59806 281
62.61818 252
62.63829 246
62.6584 231
62.67852 259
62.69863 240
62.71875 228
62.73886 234
62.75897 261
62.77909 249
62.7992 232
62.81931 262
62.83943 235
62.85954 239
62.87965 250
62.89977 276
62.91988 246
62.94 256
62.96011 265
62.98022 251
63.00034 231
63.02045 272
63.04056 249
63.06068 260
63.08079 258
63.10091 230
63.12102 249
63.14113 239
63.16125 248
63.18136 240
63.20147 242
63.22159 211
63.2417 222
63.26182 247
63.28193 226
63.30204 222
63.32216 240
63.34227 232
63.36238 226
63.3825 214
63.40261 246
63.42272 222
63.44284 253
63.46295 226
63.48307 238
63.50318 225
63.52329 200
63.54341 225
63.56352 247
63.58363 260
63.60375 227
63.62386 236
63.64398 227
63.66409 263
63.6842 262
63.70432 290
63.72443 265
63.74454 338
63.76466 298
63.78477 317
63.80489 320
63.825 352
63.84511 400
63.86523 388
63.88534 432
63.90545 442
63.92557 513
63.94568 500
63.96579 490
63.98591 503
64.00602 525
64.02614 428
64.04625 389
64.06636 371
64.08648 359
64.10659 390
64.1267 365
64.14682 380
64.16693 345
64.18705 321
64.20716 303
64.22727 271
64.24739 256
64.2675 247
64.28761 229
64.30773 213
64.32784 215
64.34796 220
64.36807 215
64.38818 210
64.4083 203
64.42841 235
64.44852 226
64.46864 203
64.48875 204
64.50886 200
64.52898 188
64.54909 218
64.56921 204
64.58932 213
64.60943 209
64.62955 199
64.64966 198
64.66977 204
64.68989 218
64.71 203
64.73012 210
64.75023 181
64.77034 210
64.79046 205
64.81057 237
64.83068 213
64.8508 220
64.87091 215
64.89102 203
64.91114 227
64.93125 232
64.95137 211
64.97148 240
64.99159 220
65.01171 204
65.03182 234
65.05193 235
65.07205 234
65.09216 226
65.11228 226
65.13239 241
65.1525 229
65.17262 245
65.19273 251
65.21284 244
65.23296 228
65.25307 246
65.27319 253
65.2933 262
65.31341 243
65.33353 246
65.35364 240
65.37375 249
65.39387 237
65.41398 215
65.43409 229
65.45421 244
65.47432 231
65.49444 211
65.51455 218
65.53466 253
65.55478 249
65.57489 226
65.595 254
65.61512 227
65.63523 237
65.65535 253
65.67546 256
65.69557 259
65.71569 251
65.7358 266
65.75591 245
65.77603 224
65.79614 247
65.81626 240
65.83637 231
65.85648 227
65.8766 231
65.89671 217
65.91682 227
65.93694 237
65.95705 220
65.97716 207
65.99728 216
66.01739 225
66.03751 223
66.05762 203
66.07773 232
66.09785 217
66.11796 220
66.13807 221
66.15819 236
66.1783 238
66.19842 244
66.21853 262
66.23864 237
66.25876 221
66.27887 276
66.29898 239
66.3191 243
66.33921 272
66.35933 253
66.37944 215
66.39955 257
66.41967 256
66.43978 268
66.45989 238
66.48001 250
66.50012 229
66.52023 210
66.54035 217
66.56046 229
66.58058 215
66.60069 217
66.6208 209
66.64092 241
66.66103 209
66.68114 194
66.70126 194
66.72137 198
66.74149 205
66.7616 208
66.78171 208
66.80183 222
66.82194 220
66.84205 216
66.86217 229
66.88228 251
66.90239 209
66.92251 238
66.94262 242
66.96274 222
66.98285 231
67.00296 240
67.02308 237
67.04319 210
67.0633 231
67.08342 234
67.10353 242
67.12365 217
67.14376 235
67.16387 237
67.18399 239
67.2041 228
67.22421 227
67.24433 246
67.26444 231
67.28456 238
67.30467 277
67.32478 266
67.3449 257
67.36501 268
67.38512 277
67.40524 312
67.42535 320
67.44546 331
67.46558 351
67.48569 377
67.50581 416
67.52592 420
67.54603 529
67.56615 559
67.58626 638
67.60637 749
67.62649 856
67.6466 949
67.66672 977
67.68683 999
67.70694 953
67.72706 878
67.74717 706
67.76728 665
67.7874 658
67.80751 703
67.82763 657
67.84774 666
67.86785 745
67.88797 753
67.90808 798
67.92819 781
67.94831 737
67.96842 784
67.98853 884
68.00865 909
68.02876 1062
68.04888 1213
68.06899 1267
68.0891 1369
68.10922 1277
68.12933 1135
68.14944 1096
68.16956 1034
68.18967 1043
68.20979 1082
68.2299 1184
68.25001 1204
68.27013 1265
68.29024 1050
68.31035 963
68.33047 787
68.35058 629
68.3707 547
68.39081 577
68.41092 525
68.43104 513
68.45115 484
68.47126 493
68.49138 431
68.51149 378
68.5316 346
68.55172 298
68.57183 266
68.59195 279
68.61206 236
68.63217 245
68.65229 258
68.6724 226
68.69251 219
68.71263 245
68.73274 237
68.75286 265
68.77297 217
68.79308 227
68.8132 211
68.83331 237
68.85342 220
68.87354 208
68.89365 213
68.91376 240
68.93388 206
68.95399 222
68.97411 190
68.99422 241
69.01433 233
69.03445 182
69.05456 222
69.07467 223
69.09479 213
69.1149 216
69.13502 234
69.15513 199
69.17524 206
69.19536 193
69.21547 188
69.23558 188
69.2557 190
69.27581 201
69.29593 199
69.31604 218
69.33615 199
69.35627 202
69.37638 233
69.39649 188
69.41661 190
69.43672 191
69.45683 177
69.47695 208
69.49706 189
69.51718 188
69.53729 204
69.5574 192
69.57752 185
69.59763 205
69.61774 187
69.63786 176
69.65797 187
69.67809 201
69.6982 214
69.71831 192
69.73843 206
69.75854 185
69.77865 187
69.79877 207
69.81888 205
69.839 194
69.85911 199
69.87922 189
69.89934 220
69.91945 207
69.93956 212
69.95968 195
69.97979 215
69.9999 188
70.02002 184
70.04013 211
70.06025 207
70.08036 216
70.10047 200
70.12059 192
70.1407 202
70.16081 210
70.18093 200
70.20104 200
70.22116 211
70.24127 204
70.26138 196
70.2815 181
70.30161 220
70.32172 210
70.34184 177
70.36195 208
70.38207 175
70.40218 189
70.42229 189
70.44241 176
70.46252 203
70.48263 202
70.50275 206
70.52286 202
70.54297 183
70.56309 221
70.5832 173
70.60332 188
70.62343 199
70.64354 202
70.66366 209
70.68377 210
70.70388 171
70.724 218
70.74411 204
70.76423 189
70.78434 249
70.80445 222
70.82457 219
70.84468 201
70.86479 223
70.88491 192
70.90502 225
70.92513 203
70.94525 208
70.96536 185
70.98548 198
71.00559 181
71.0257 197
71.04582 206
71.06593 217
71.08604 197
71.10616 202
71.12627 198
71.14639 190
71.1665 218
71.18661 204
71.20673 182
71.22684 176
71.24695 197
71.26707 208
71.28718 190
71.3073 195
71.32741 194
71.34752 207
71.36764 208
71.38775 193
71.40786 203
71.42798 205
71.44809 218
71.4682 228
71.48832 217
71.50843 232
71.52855 204
71.54866 210
71.56877 210
71.58889 182
71.609 241
71.62911 211
71.64923 217
71.66934 208
71.68946 208
71.70957 230
71.72968 220
71.7498 213
71.76991 208
71.79002 231
71.81014 180
71.83025 219
71.85037 227
71.87048 197
71.89059 211
71.91071 205
71.93082 222
71.95093 236
71.97105 231
71.99116 227
72.01127 227
72.03139 207
72.0515 205
72.07162 239
72.09173 247
72.11184 240
72.13196 209
72.15207 217
72.17218 251
72.1923 228
72.21241 243
72.23253 229
72.25264 244
72.27275 226
72.29287 207
72.31298 247
72.33309 218
72.35321 232
72.37332 198
72.39344 204
72.41355 199
72.43366 227
72.45378 195
72.47389 215
72.494 207
72.51412 227
72.53423 198
72.55434 204
72.57446 227
72.59457 198
72.61469 228
72.6348 183
72.65491 215
72.67503 214
72.69514 225
72.71525 235
72.73537 204
72.75548 183
72.7756 244
72.79571 217
72.81582 207
72.83594 223
72.85605 204
72.87616 220
72.89628 215
72.91639 223
72.9365 226
72.95662 253
72.97673 249
72.99685 230
73.01696 253
73.03707 258
73.05719 227
73.0773 231
73.09741 262
73.11753 280
73.13764 251
73.15776 242
73.17787 275
73.19798 275
73.2181 322
73.23821 311
73.25832 319
73.27844 288
73.29855 354
73.31867 392
73.33878 434
73.35889 465
73.37901 474
73.39912 451
73.41923 507
73.43935 465
73.45946 432
73.47957 362
73.49969 339
73.5198 340
73.53992 362
73.56003 360
73.58014 365
73.60026 322
73.62037 386
73.64048 309
73.6606 290
73.68071 297
73.70083 253
73.72094 258
73.74105 236
73.76117 225
73.78128 234
73.80139 243
73.82151 237
73.84162 227
73.86174 252
73.88185 223
73.90196 218
73.92208 205
73.94219 208
73.9623 200
73.98242 181
74.00253 213
74.02264 196
74.04276 196
74.06287 201
74.08299 217
74.1031 199
74.12321 196
74.14333 208
74.16344 192
74.18355 190
74.20367 212
74.22378 199
74.2439 217
74.26401 195
74.28412 195
74.30424 178
74.32435 174
74.34446 189
74.36458 186
74.38469 178
74.40481 198
74.42492 215
74.44503 199
74.46515 196
74.48526 213
74.50537 184
74.52549 216
74.5456 217
74.56571 200
74.58583 198
74.60594 208
74.62606 208
74.64617 226
74.66628 221
74.6864 208
74.70651 221
74.72662 232
74.74674 215
74.76685 235
74.78697 197
74.80708 218
74.82719 253
74.84731 230
74.86742 220
74.88753 233
74.90765 209
74.92776 205
74.94787 241
74.96799 201
74.9881 224
75.00822 202
