3.00117 19686
3.02128 19319
3.0414 18715
3.06151 18240
3.08162 17330
3.10174 16957
3.12185 16600
3.14197 16461
3.16208 15842
3.18219 15541
3.20231 14956
3.22242 14426
3.24253 14149
3.26265 13665
3.28276 13066
3.30288 12658
3.32299 12157
3.3431 11986
3.36322 11439
3.38333 11259
3.40344 10783
3.42356 10329
3.44367 10030
3.46379 9688
3.4839 9242
3.50401 8992
3.52413 8586
3.54424 8472
3.56435 8147
3.58447 7863
3.60458 7546
3.62469 7195
3.64481 7071
3.66492 6550
3.68504 6442
3.70515 6025
3.72526 5695
3.74538 5740
3.76549 5516
3.7856 5106
3.80572 5030
3.82583 4732
3.84595 4656
3.86606 4386
3.88617 4369
3.90629 4080
3.9264 3777
3.94651 3894
3.96663 3574
3.98674 3354
4.00686 3257
4.02697 3002
4.04708 2980
4.0672 2828
4.08731 2844
4.10742 2611
4.12754 2443
4.14765 2501
4.16776 2374
4.18788 2285
4.20799 2064
4.22811 2040
4.24822 2080
4.26833 1975
4.28845 1845
4.30856 1805
4.32867 1724
4.34879 1715
4.3689 1752
4.38902 1683
4.40913 1671
4.42924 1513
4.44936 1603
4.46947 1603
4.48958 1356
4.5097 1457
4.52981 1355
4.54992 1324
4.57004 1304
4.59015 1244
4.61027 1255
4.63038 1174
4.65049 1209
4.67061 1165
4.69072 1045
4.71083 1070
4.73095 981
4.75106 1034
4.77118 1103
4.79129 934
4.8114 991
4.83152 970
4.85163 884
4.87174 913
4.89186 885
4.91197 895
4.93209 837
4.9522 876
4.97231 829
4.99243 801
5.01254 798
5.03265 775
5.05277 744
5.07288 762
5.09299 657
5.11311 747
5.13322 697
5.15334 692
5.17345 740
5.19356 618
5.21368 659
5.23379 606
5.2539 607
5.27402 568
5.29413 581
5.31425 550
5.33436 572
5.35447 526
5.37459 601
5.3947 520
5.41481 501
5.43493 522
5.45504 530
5.47516 494
5.49527 458
5.51538 475
5.5355 450
5.55561 439
5.57572 440
5.59584 432
5.61595 451
5.63606 481
5.65618 390
5.67629 383
5.69641 408
5.71652 383
5.73663 398
5.75675 394
5.77686 418
5.79697 361
5.81709 367
5.8372 384
5.85732 389
5.87743 360
5.89754 357
5.91766 381
5.93777 358
5.95788 369
5.978 350
5.99811 313
6.01823 321
6.03834 305
6.05845 311
6.07857 316
6.09868 346
6.11879 319
6.13891 322
6.15902 338
6.17913 316
6.19925 293
6.21936 332
6.23948 309
6.25959 299
6.2797 299
6.29982 314
6.31993 315
6.34004 272
6.36016 307
6.38027 317
6.40039 325
6.4205 268
6.44061 271
6.46073 284
6.48084 277
6.50095 293
6.52107 316
6.54118 278
6.56129 307
6.58141 272
6.60152 252
6.62164 301
6.64175 279
6.66186 311
6.68198 279
6.70209 306
6.7222 271
6.74232 261
6.76243 255
6.78255 251
6.80266 279
6.82277 266
6.84289 269
6.863 291
6.88311 272
6.90323 260
6.92334 310
6.94346 253
6.96357 272
6.98368 260
7.0038 273
7.02391 221
7.04402 243
7.06414 322
7.08425 244
7.10436 302
7.12448 252
7.14459 243
7.16471 248
7.18482 274
7.20493 279
7.22505 272
7.24516 258
7.26527 263
7.28539 232
7.3055 318
7.32562 262
7.34573 264
7.36584 271
7.38596 245
7.40607 265
7.42618 286
7.4463 280
7.46641 281
7.48653 235
7.50664 275
7.52675 293
7.54687 254
7.56698 280
7.58709 272
7.60721 263
7.62732 275
7.64743 275
7.66755 250
7.68766 299
7.70778 263
7.72789 293
7.748 270
7.76812 247
7.78823 301
7.80834 276
7.82846 314
7.84857 245
7.86869 257
7.8888 292
7.90891 269
7.92903 264
7.94914 266
7.96925 268
7.98937 294
8.00948 244
8.0296 282
8.04971 262
8.06982 303
8.08994 298
8.11005 282
8.13016 292
8.15028 274
8.17039 293
8.1905 268
8.21062 271
8.23073 256
8.25085 294
8.27096 275
8.29107 279
8.31119 295
8.3313 284
8.35141 291
8.37153 308
8.39164 284
8.41176 282
8.43187 268
8.45198 282
8.4721 304
8.49221 280
8.51232 301
8.53244 303
8.55255 299
8.57266 265
8.59278 304
8.61289 285
8.63301 299
8.65312 312
8.67323 264
8.69335 283
8.71346 295
8.73357 281
8.75369 287
8.7738 295
8.79392 313
8.81403 307
8.83414 309
8.85426 302
8.87437 299
8.89448 287
8.9146 308
8.93471 267
8.95483 306
8.97494 246
8.99505 251
9.01517 287
9.03528 279
9.05539 287
9.07551 264
9.09562 258
9.11573 271
9.13585 286
9.15596 279
9.17608 304
9.19619 293
9.2163 253
9.23642 265
9.25653 294
9.27664 239
9.29676 263
9.31687 275
9.33699 260
9.3571 282
9.37721 262
9.39733 272
9.41744 272
9.43755 280
9.45767 269
9.47778 283
9.4979 248
9.51801 256
9.53812 296
9.55824 266
9.57835 273
9.59846 265
9.61858 276
9.63869 270
9.6588 266
9.67892 253
9.69903 273
9.71915 273
9.73926 250
9.75937 300
9.77949 304
9.7996 267
9.81971 276
9.83983 249
9.85994 266
9.88006 254
9.90017 297
9.92028 253
9.9404 279
9.96051 270
9.98062 268
10.00074 266
10.02085 276
10.04097 265
10.06108 239
10.08119 268
10.10131 266
10.12142 251
10.14153 273
10.16165 278
10.18176 263
10.20187 288
10.22199 277
10.2421 248
10.26222 282
10.28233 279
10.30244 292
10.32256 290
10.34267 294
10.36278 290
10.3829 275
10.40301 259
10.42313 255
10.44324 308
10.46335 300
10.48347 240
10.50358 260
10.52369 272
10.54381 251
10.56392 265
10.58403 275
10.60415 281
10.62426 269
10.64438 268
10.66449 245
10.6846 260
10.70472 283
10.72483 274
10.74494 265
10.76506 279
10.78517 269
10.80529 283
10.8254 271
10.84551 258
10.86563 287
10.88574 272
10.90585 296
10.92597 280
10.94608 261
10.9662 270
10.98631 263
11.00642 260
11.02654 263
11.04665 276
11.06676 263
11.08688 283
11.10699 287
11.1271 287
11.14722 292
11.16733 299
11.18745 253
11.20756 304
11.22767 281
11.24779 281
11.2679 279
11.28801 280
11.30813 290
11.32824 258
11.34836 265
11.36847 304
11.38858 259
11.4087 274
11.42881 266
11.44892 297
11.46904 266
11.48915 240
11.50927 256
11.52938 244
11.54949 281
11.56961 263
11.58972 288
11.60983 280
11.62995 269
11.65006 294
11.67017 285
11.69029 294
11.7104 285
11.73052 285
11.75063 295
11.77074 304
11.79086 279
11.81097 281
11.83108 325
11.8512 269
11.87131 298
11.89143 293
11.91154 320
11.93165 288
11.95177 286
11.97188 310
11.99199 304
12.01211 319
12.03222 344
12.05234 307
12.07245 359
12.09256 357
12.11268 347
12.13279 289
12.1529 328
12.17302 343
12.19313 349
12.21324 348
12.23336 404
12.25347 360
12.27359 371
12.2937 404
12.31381 406
12.33393 366
12.35404 373
12.37415 383
12.39427 330
12.41438 344
12.4345 345
12.45461 315
12.47472 318
12.49484 280
12.51495 302
12.53506 292
12.55518 304
12.57529 284
12.5954 305
12.61552 275
12.63563 263
12.65575 292
12.67586 308
12.69597 256
12.71609 283
12.7362 262
12.75631 252
12.77643 231
12.79654 270
12.81666 301
12.83677 267
12.85688 272
12.877 266
12.89711 237
12.91722 250
12.93734 263
12.95745 240
12.97757 259
12.99768 265
13.01779 258
13.03791 286
13.05802 272
13.07813 291
13.09825 297
13.11836 276
13.13847 251
13.15859 254
13.1787 265
13.19882 247
13.21893 268
13.23904 261
13.25916 257
13.27927 257
13.29938 231
13.3195 256
13.33961 248
13.35973 269
13.37984 256
13.39995 263
13.42007 259
13.44018 246
13.46029 252
13.48041 251
13.50052 273
13.52064 248
13.54075 305
13.56086 316
13.58098 333
13.60109 379
13.6212 359
13.64132 340
13.66143 326
13.68154 292
13.70166 267
13.72177 249
13.74189 254
13.762 243
13.78211 261
13.80223 249
13.82234 265
13.84245 257
13.86257 267
13.88268 253
13.9028 256
13.92291 259
13.94302 243
13.96314 222
13.98325 233
14.00336 231
14.02348 220
14.04359 243
14.06371 218
14.08382 240
14.10393 228
14.12405 251
14.14416 224
14.16427 225
14.18439 198
14.2045 245
14.22461 243
14.24473 206
14.26484 241
14.28496 246
14.30507 231
14.32518 249
14.3453 207
14.36541 240
14.38552 196
14.40564 214
14.42575 237
14.44587 225
14.46598 259
14.48609 254
14.50621 217
14.52632 236
14.54643 233
14.56655 221
14.58666 225
14.60677 226
14.62689 231
14.647 225
14.66712 240
14.68723 240
14.70734 237
14.72746 286
14.74757 212
14.76768 246
14.7878 254
14.80791 254
14.82803 255
14.84814 277
14.86825 260
14.88837 265
14.90848 282
14.92859 279
14.94871 260
14.96882 262
14.98894 227
15.00905 222
15.02916 256
15.04928 253
15.06939 249
15.0895 236
15.10962 251
15.12973 239
15.14984 250
15.16996 250
15.19007 242
15.21019 279
15.2303 255
15.25041 239
15.27053 236
15.29064 204
15.31075 211
15.33087 221
15.35098 202
15.3711 233
15.39121 237
15.41132 247
15.43144 227
15.45155 221
15.47166 236
15.49178 233
15.51189 219
15.53201 228
15.55212 242
15.57223 216
15.59235 252
15.61246 217
15.63257 251
15.65269 214
15.6728 197
15.69291 241
15.71303 251
15.73314 230
15.75326 236
15.77337 243
15.79348 223
15.8136 209
15.83371 222
15.85382 216
15.87394 210
15.89405 217
15.91417 241
15.93428 232
15.95439 223
15.97451 231
15.99462 214
16.01473 234
16.03485 223
16.05496 204
16.07508 226
16.09519 235
16.1153 232
16.13542 198
16.15553 238
16.17564 229
16.19576 240
16.21587 230
16.23598 208
16.2561 182
16.27621 232
16.29633 217
16.31644 210
16.33655 230
16.35667 206
16.37678 210
16.39689 212
16.41701 195
16.43712 219
16.45724 223
16.47735 240
16.49746 213
16.51758 195
16.53769 217
16.5578 197
16.57792 219
16.59803 268
16.61814 204
16.63826 207
16.65837 257
16.67849 181
16.6986 211
16.71871 231
16.73883 226
16.75894 192
16.77905 198
16.79917 208
16.81928 201
16.8394 183
16.85951 218
16.87962 181
16.89974 225
16.91985 210
16.93996 211
16.96008 204
16.98019 223
17.00031 226
17.02042 217
17.04053 218
17.06065 228
17.08076 223
17.10087 222
17.12099 229
17.1411 215
17.16121 213
17.18133 238
17.20144 217
17.22156 190
17.24167 196
17.26178 237
17.2819 200
17.30201 192
17.32212 220
17.34224 214
17.36235 206
17.38247 230
17.40258 213
17.42269 231
17.44281 210
17.46292 216
17.48303 238
17.50315 224
17.52326 232
17.54338 206
17.56349 239
17.5836 190
17.60372 220
17.62383 234
17.64394 221
17.66406 220
17.68417 232
17.70428 219
17.7244 212
17.74451 238
17.76463 216
17.78474 251
17.80485 206
17.82497 239
17.84508 231
17.86519 245
17.88531 215
17.90542 224
17.92554 226
17.94565 210
17.96576 246
17.98588 231
18.00599 226
18.0261 227
18.04622 245
18.06633 219
18.08645 217
18.10656 236
18.12667 210
18.14679 220
18.1669 244
18.18701 221
18.20713 225
18.22724 216
18.24735 220
18.26747 218
18.28758 226
18.3077 195
18.32781 251
18.34792 246
18.36804 197
18.38815 223
18.40826 228
18.42838 217
18.44849 213
18.46861 226
18.48872 236
18.50883 192
18.52895 190
18.54906 209
18.56917 242
18.58929 216
18.6094 224
18.62951 211
18.64963 216
18.66974 256
18.68986 220
18.70997 202
18.73008 224
18.7502 223
18.77031 225
18.79042 257
18.81054 221
18.83065 203
18.85077 207
18.87088 213
18.89099 200
18.91111 215
18.93122 222
18.95133 231
18.97145 216
18.99156 231
19.01168 232
19.03179 188
19.0519 216
19.07202 207
19.09213 211
19.11224 232
19.13236 224
19.15247 267
19.17258 233
19.1927 246
19.21281 269
19.23293 236
19.25304 251
19.27315 293
19.29327 273
19.31338 250
19.33349 239
19.35361 278
19.37372 243
19.39384 244
19.41395 224
19.43406 280
19.45418 244
19.47429 269
19.4944 266
19.51452 256
19.53463 284
19.55475 291
19.57486 279
19.59497 289
19.61509 299
19.6352 296
19.65531 293
19.67543 308
19.69554 336
19.71565 358
19.73577 371
19.75588 370
19.776 400
19.79611 410
19.81622 422
19.83634 463
19.85645 416
19.87656 432
19.89668 412
19.91679 442
19.93691 401
19.95702 405
19.97713 428
19.99725 376
20.01736 413
20.03747 435
20.05759 394
20.0777 414
20.09782 390
20.11793 375
20.13804 396
20.15816 400
20.17827 397
20.19838 370
20.2185 428
20.23861 448
20.25872 411
20.27884 461
20.29895 409
20.31907 418
20.33918 434
20.35929 409
20.37941 448
20.39952 420
20.41963 426
20.43975 427
20.45986 446
20.47998 451
20.50009 468
20.5202 497
20.54032 463
20.56043 465
20.58054 539
20.60066 524
20.62077 610
20.64088 709
20.661 801
20.68111 943
20.70123 1349
20.72134 1817
20.74145 2449
20.76157 3407
20.78168 4298
20.80179 4998
20.82191 5366
20.84202 5205
20.86214 4534
20.88225 3477
20.90236 2572
20.92248 2007
20.94259 1485
20.9627 1206
20.98282 1187
21.00293 1123
21.02305 1048
21.04316 942
21.06327 812
21.08339 642
21.1035 585
21.12361 555
21.14373 482
21.16384 444
21.18395 435
21.20407 479
21.22418 448
21.2443 450
21.26441 418
21.28452 379
21.30464 403
21.32475 413
21.34486 420
21.36498 428
21.38509 393
21.40521 404
21.42532 377
21.44543 366
21.46555 380
21.48566 378
21.50577 338
21.52589 386
21.546 352
21.56612 376
21.58623 327
21.60634 344
21.62646 330
21.64657 361
21.66668 349
21.6868 328
21.70691 361
21.72702 342
21.74714 325
21.76725 333
21.78737 357
21.80748 338
21.82759 299
21.84771 355
21.86782 314
21.88793 350
21.90805 409
21.92816 399
21.94828 381
21.96839 417
21.9885 390
22.00862 367
22.02873 372
22.04884 334
22.06896 332
22.08907 316
22.10919 343
22.1293 341
22.14941 341
22.16953 368
22.18964 386
22.20975 393
22.22987 445
22.24998 393
22.27009 482
22.29021 500
22.31032 444
22.33044 427
22.35055 442
22.37066 379
22.39078 344
22.41089 310
22.431 338
22.45112 336
22.47123 323
22.49135 294
22.51146 362
22.53157 384
22.55169 357
22.5718 375
22.59191 351
22.61203 332
22.63214 338
22.65225 347
22.67237 402
22.69248 309
22.7126 284
22.73271 286
22.75282 275
22.77294 312
22.79305 311
22.81316 307
22.83328 332
22.85339 320
22.87351 309
22.89362 320
22.91373 311
22.93385 357
22.95396 343
22.97407 335
22.99419 381
23.0143 352
23.03442 395
23.05453 384
23.07464 429
23.09476 500
23.11487 530
23.13498 566
23.1551 586
23.17521 549
23.19532 511
23.21544 487
23.23555 484
23.25567 395
23.27578 371
23.29589 368
23.31601 370
23.33612 374
23.35623 365
23.37635 334
23.39646 327
23.41658 329
23.43669 347
23.4568 390
23.47692 353
23.49703 339
23.51714 384
23.53726 376
23.55737 356
23.57749 363
23.5976 394
23.61771 377
23.63783 320
23.65794 327
23.67805 344
23.69817 369
23.71828 358
23.73839 374
23.75851 351
23.77862 371
23.79874 393
23.81885 419
23.83896 413
23.85908 458
23.87919 555
23.8993 527
23.91942 552
23.93953 616
23.95965 620
23.97976 599
23.99987 560
24.01999 515
24.0401 451
24.06021 417
24.08033 363
24.10044 327
24.12056 339
24.14067 366
24.16078 344
24.1809 425
24.20101 367
24.22112 382
24.24124 425
24.26135 473
24.28146 415
24.30158 416
24.32169 448
24.34181 431
24.36192 366
24.38203 370
24.40215 358
24.42226 344
24.44237 327
24.46249 324
24.4826 343
24.50272 370
24.52283 322
24.54294 330
24.56306 341
24.58317 380
24.60328 390
24.6234 388
24.64351 439
24.66362 454
24.68374 422
24.70385 452
24.72397 453
24.74408 457
24.76419 414
24.78431 400
24.80442 385
24.82453 428
24.84465 393
24.86476 432
24.88488 452
24.90499 418
24.9251 434
24.94522 394
24.96533 432
24.98544 386
25.00556 359
25.02567 357
25.04579 361
25.0659 344
25.08601 346
25.10613 327
25.12624 319
25.14635 359
25.16647 370
25.18658 394
25.20669 395
25.22681 384
25.24692 365
25.26704 433
25.28715 373
25.30726 328
25.32738 395
25.34749 409
25.3676 420
25.38772 427
25.40783 477
25.42795 531
25.44806 591
25.46817 664
25.48829 682
25.5084 693
25.52851 773
25.54863 709
25.56874 713
25.58886 651
25.60897 659
25.62908 726
25.6492 591
25.66931 612
25.68942 587
25.70954 538
25.72965 516
25.74976 448
25.76988 432
25.78999 435
25.81011 418
25.83022 465
25.85033 421
25.87045 433
25.89056 440
25.91067 446
25.93079 425
25.9509 493
25.97102 473
25.99113 491
26.01124 461
26.03136 522
26.05147 548
26.07158 539
26.0917 555
26.11181 595
26.13193 619
26.15204 646
26.17215 626
26.19227 761
26.21238 734
26.23249 794
26.25261 899
26.27272 955
26.29283 1017
26.31295 1157
26.33306 1341
26.35318 1501
26.37329 1748
26.3934 2012
26.41352 2443
26.43363 3028
26.45374 4039
26.47386 5553
26.49397 7594
26.51409 10342
26.5342 14569
26.55431 18301
26.57443 21659
26.59454 22770
26.61465 21675
26.63477 18715
26.65488 14958
26.67499 11743
26.69511 8056
26.71522 5095
26.73534 3173
26.75545 2124
26.77556 1542
26.79568 1356
26.81579 1182
26.8359 1116
26.85602 1047
26.87613 1025
26.89625 996
26.91636 974
26.93647 936
26.95659 1042
26.9767 1035
26.99681 1008
27.01693 1101
27.03704 1052
27.05716 1102
27.07727 977
27.09738 859
27.1175 753
27.13761 753
27.15772 673
27.17784 618
27.19795 608
27.21806 602
27.23818 696
27.25829 752
27.27841 855
27.29852 971
27.31863 1086
27.33875 1226
27.35886 1426
27.37897 1583
27.39909 1663
27.4192 1778
27.43932 1693
27.45943 1532
27.47954 1384
27.49966 1227
27.51977 994
27.53988 849
27.56 686
27.58011 653
27.60023 565
27.62034 517
27.64045 477
27.66057 489
27.68068 485
27.70079 448
27.72091 474
27.74102 456
27.76113 459
27.78125 471
27.80136 510
27.82148 492
27.84159 507
27.8617 554
27.88182 531
27.90193 579
27.92204 524
27.94216 555
27.96227 503
27.98239 468
28.0025 458
28.02261 413
28.04273 344
28.06284 374
28.08295 377
28.10307 347
28.12318 340
28.1433 295
28.16341 383
28.18352 327
28.20364 385
28.22375 363
28.24386 355
28.26398 336
28.28409 338
28.3042 281
28.32432 346
28.34443 304
28.36455 293
28.38466 308
28.40477 294
28.42489 309
28.445 294
28.46511 310
28.48523 245
28.50534 272
28.52546 287
28.54557 281
28.56568 280
28.5858 256
28.60591 287
28.62602 305
28.64614 315
28.66625 309
28.68636 301
28.70648 287
28.72659 295
28.74671 290
28.76682 277
28.78693 304
28.80705 302
28.82716 287
28.84727 262
28.86739 284
28.8875 281
28.90762 313
28.92773 271
28.94784 256
28.96796 283
28.98807 262
29.00818 262
29.0283 274
29.04841 278
29.06853 273
29.08864 253
29.10875 260
29.12887 282
29.14898 279
29.16909 301
29.18921 280
29.20932 260
29.22943 301
29.24955 324
29.26966 281
29.28978 333
29.30989 371
29.33 370
29.35012 385
29.37023 468
29.39034 484
29.41046 487
29.43057 489
29.45069 423
29.4708 422
29.49091 398
29.51103 367
29.53114 316
29.55125 298
29.57137 323
29.59148 312
29.6116 328
29.63171 294
29.65182 300
29.67194 304
29.69205 310
29.71216 352
29.73228 325
29.75239 325
29.7725 332
29.79262 307
29.81273 352
29.83285 335
29.85296 324
29.87307 325
29.89319 307
29.9133 350
29.93341 315
29.95353 361
29.97364 347
29.99376 317
30.01387 350
30.03398 373
30.0541 391
30.07421 418
30.09432 461
30.11444 462
30.13455 461
30.15467 511
30.17478 500
30.19489 438
30.21501 460
30.23512 449
30.25523 410
30.27535 353
30.29546 363
30.31557 357
30.33569 294
30.3558 324
30.37592 314
30.39603 339
30.41614 307
30.43626 342
30.45637 302
30.47648 310
30.4966 308
30.51671 307
30.53683 304
30.55694 287
30.57705 319
30.59717 344
30.61728 366
30.63739 402
30.65751 440
30.67762 401
30.69773 479
30.71785 461
30.73796 476
30.75808 441
30.77819 491
30.7983 453
30.81842 466
30.83853 391
30.85864 441
30.87876 387
30.89887 349
30.91899 340
30.9391 326
30.95921 277
30.97933 270
30.99944 257
31.01955 278
31.03967 280
31.05978 229
31.0799 241
31.10001 247
31.12012 253
31.14024 259
31.16035 252
31.18046 234
31.20058 240
31.22069 284
31.2408 274
31.26092 228
31.28103 275
31.30115 221
31.32126 257
31.34137 220
31.36149 245
31.3816 230
31.40171 226
31.42183 262
31.44194 274
31.46206 223
31.48217 220
31.50228 236
31.5224 223
31.54251 230
31.56262 278
31.58274 227
31.60285 258
31.62297 228
31.64308 216
31.66319 218
31.68331 240
31.70342 251
31.72353 246
31.74365 254
31.76376 231
31.78387 248
31.80399 204
31.8241 246
31.84422 226
31.86433 231
31.88444 231
31.90456 237
31.92467 237
31.94478 248
31.9649 224
31.98501 245
32.00513 253
32.02524 270
32.04535 286
32.06547 319
32.08558 302
32.10569 290
32.12581 330
32.14592 266
32.16604 310
32.18615 284
32.20626 267
32.22638 265
32.24649 304
32.2666 286
32.28672 287
32.30683 297
32.32694 289
32.34706 336
32.36717 300
32.38729 318
32.4074 353
32.42751 364
32.44763 329
32.46774 281
32.48785 261
32.50797 292
32.52808 255
32.5482 267
32.56831 247
32.58842 256
32.60854 231
32.62865 270
32.64876 222
32.66888 236
32.68899 243
32.7091 214
32.72922 216
32.74933 244
32.76945 256
32.78956 215
32.80967 227
32.82979 223
32.8499 255
32.87001 230
32.89013 250
32.91024 226
32.93036 250
32.95047 239
32.97058 225
32.9907 239
33.01081 236
33.03092 218
33.05104 241
33.07115 211
33.09127 241
33.11138 228
33.13149 262
33.15161 230
33.17172 229
33.19183 243
33.21195 249
33.23206 250
33.25217 227
33.27229 243
33.2924 261
33.31252 219
33.33263 239
33.35274 265
33.37286 244
33.39297 213
33.41308 232
33.4332 212
33.45331 247
33.47343 226
33.49354 247
33.51365 240
33.53377 242
33.55388 228
33.57399 232
33.59411 231
33.61422 280
33.63434 227
33.65445 247
33.67456 214
33.69468 232
33.71479 253
33.7349 207
33.75502 252
33.77513 247
33.79524 232
33.81536 213
33.83547 271
33.85559 230
33.8757 245
33.89581 243
33.91593 262
33.93604 250
33.95615 264
33.97627 278
33.99638 284
34.0165 242
34.03661 281
34.05672 319
34.07684 345
34.09695 381
34.11706 402
34.13718 429
34.15729 385
34.17741 419
34.19752 451
34.21763 393
34.23775 409
34.25786 370
34.27797 349
34.29809 312
34.3182 286
34.33831 280
34.35843 292
34.37854 286
34.39866 284
34.41877 284
34.43888 262
34.459 320
34.47911 314
34.49922 278
34.51934 318
34.53945 325
34.55957 355
34.57968 384
34.59979 364
34.61991 354
34.64002 329
34.66013 361
34.68025 387
34.70036 356
34.72047 337
34.74059 378
34.7607 353
34.78082 347
34.80093 405
34.82104 387
34.84116 395
34.86127 364
34.88138 382
34.9015 414
34.92161 396
34.94173 380
34.96184 389
34.98195 357
35.00207 379
35.02218 359
35.04229 378
35.06241 326
35.08252 348
35.10264 380
35.12275 359
35.14286 375
35.16298 373
35.18309 377
35.2032 372
35.22332 355
35.24343 378
35.26354 350
35.28366 351
35.30377 388
35.32389 364
35.344 344
35.36411 389
35.38423 387
35.40434 405
35.42445 475
35.44457 432
35.46468 408
35.4848 441
35.50491 430
35.52502 451
35.54514 393
35.56525 413
35.58536 401
35.60548 345
35.62559 365
35.64571 347
35.66582 334
35.68593 348
35.70605 322
35.72616 290
35.74627 343
35.76639 306
35.7865 346
35.80661 308
35.82673 323
35.84684 322
35.86696 307
35.88707 384
35.90718 357
35.9273 313
35.94741 319
35.96752 328
35.98764 322
36.00775 321
36.02787 312
36.04798 296
36.06809 313
36.08821 300
36.10832 321
36.12843 329
36.14855 315
36.16866 305
36.18878 325
36.20889 329
36.229 330
36.24912 318
36.26923 368
36.28934 388
36.30946 438
36.32957 451
36.34968 502
36.3698 633
36.38991 850
36.41003 1002
36.43014 1242
36.45025 1505
36.47037 1751
36.49048 1720
36.51059 1650
36.53071 1502
36.55082 1282
36.57094 1146
36.59105 1003
36.61116 806
36.63128 639
36.65139 541
36.6715 418
36.69162 371
36.71173 379
36.73184 324
36.75196 353
36.77207 357
36.79219 357
36.8123 354
36.83241 350
36.85253 383
36.87264 370
36.89275 367
36.91287 409
36.93298 394
36.9531 354
36.97321 374
36.99332 402
37.01344 367
37.03355 328
37.05366 348
37.07378 318
37.09389 317
37.11401 302
37.13412 310
37.15423 293
37.17435 300
37.19446 293
37.21457 278
37.23469 295
37.2548 268
37.27491 257
37.29503 281
37.31514 290
37.33526 267
37.35537 286
37.37548 270
37.3956 276
37.41571 263
37.43582 252
37.45594 297
37.47605 293
37.49617 298
37.51628 257
37.53639 261
37.55651 281
37.57662 284
37.59673 320
37.61685 279
37.63696 296
37.65708 270
37.67719 242
37.6973 274
37.71742 272
37.73753 259
37.75764 252
37.77776 282
37.79787 246
37.81798 254
37.8381 254
37.85821 244
37.87833 245
37.89844 254
37.91855 259
37.93867 236
37.95878 265
37.97889 245
37.99901 247
38.01912 257
38.03924 237
38.05935 280
38.07946 278
38.09958 281
38.11969 271
38.1398 271
38.15992 287
38.18003 287
38.20015 274
38.22026 246
38.24037 283
38.26049 290
38.2806 276
38.30071 317
38.32083 317
38.34094 314
38.36105 340
38.38117 328
38.40128 331
38.4214 301
38.44151 344
38.46162 347
38.48174 341
38.50185 316
38.52196 336
38.54208 327
38.56219 336
38.58231 338
38.60242 334
38.62253 321
38.64265 313
38.66276 235
38.68287 273
38.70299 292
38.7231 265
38.74321 269
38.76333 240
38.78344 304
38.80356 258
38.82367 252
38.84378 257
38.8639 262
38.88401 215
38.90412 257
38.92424 276
38.94435 265
38.96447 287
38.98458 279
39.00469 263
39.02481 282
39.04492 296
39.06503 292
39.08515 266
39.10526 333
39.12538 324
39.14549 333
39.1656 361
39.18572 352
39.20583 392
39.22594 416
39.24606 448
39.26617 506
39.28628 579
39.3064 733
39.32651 933
39.34663 1083
39.36674 1306
39.38685 1458
39.40697 1603
39.42708 1570
39.44719 1484
39.46731 1369
39.48742 1201
39.50754 995
39.52765 842
39.54776 712
39.56788 680
39.58799 493
39.6081 376
39.62822 333
39.64833 296
39.66845 269
39.68856 299
39.70867 256
39.72879 273
39.7489 251
39.76901 234
39.78913 254
39.80924 273
39.82935 262
39.84947 245
39.86958 243
39.8897 260
39.90981 265
39.92992 267
39.95004 296
39.97015 283
39.99026 303
40.01038 277
40.03049 294
40.05061 340
40.07072 334
40.09083 379
40.11095 427
40.13106 515
40.15117 568
40.17129 677
40.1914 778
40.21152 818
40.23163 909
40.25174 894
40.27186 777
40.29197 723
40.31208 616
40.3322 577
40.35231 570
40.37242 520
40.39254 415
40.41265 369
40.43277 316
40.45288 317
40.47299 280
40.49311 309
40.51322 284
40.53333 254
40.55345 249
40.57356 252
40.59368 237
40.61379 248
40.6339 249
40.65402 232
40.67413 261
40.69424 221
40.71436 249
40.73447 231
40.75458 259
40.7747 256
40.79481 228
40.81493 256
40.83504 230
40.85515 236
40.87527 245
40.89538 261
40.91549 246
40.93561 273
40.95572 234
40.97584 253
40.99595 254
41.01606 273
41.03618 261
41.05629 254
41.0764 203
41.09652 219
41.11663 238
41.13675 243
41.15686 233
41.17697 238
41.19709 234
41.2172 273
41.23731 247
41.25743 273
41.27754 254
41.29765 233
41.31777 236
41.33788 217
41.358 265
41.37811 245
41.39822 254
41.41834 279
41.43845 258
41.45856 297
41.47868 273
41.49879 259
41.51891 265
41.53902 285
41.55913 328
41.57925 320
41.59936 323
41.61947 347
41.63959 334
41.6597 367
41.67982 395
41.69993 391
41.72004 452
41.74016 450
41.76027 445
41.78038 451
41.8005 446
41.82061 438
41.84072 424
41.86084 355
41.88095 347
41.90107 284
41.92118 281
41.94129 253
41.96141 272
41.98152 250
42.00163 285
42.02175 230
42.04186 236
42.06198 301
42.08209 247
42.1022 260
42.12232 283
42.14243 297
42.16254 272
42.18266 321
42.20277 351
42.22289 401
42.243 430
42.26311 551
42.28323 549
42.30334 692
42.32345 811
42.34357 952
42.36368 1109
42.38379 1229
42.40391 1219
42.42402 1131
42.44414 1014
42.46425 931
42.48436 812
42.50448 732
42.52459 682
42.5447 593
42.56482 493
42.58493 441
42.60505 313
42.62516 299
42.64527 288
42.66539 299
42.6855 294
42.70561 283
42.72573 274
42.74584 275
42.76595 267
42.78607 259
42.80618 255
42.8263 269
42.84641 258
42.86652 254
42.88664 246
42.90675 218
42.92686 237
42.94698 239
42.96709 260
42.98721 246
43.00732 231
43.02743 230
43.04755 229
43.06766 223
43.08777 233
43.10789 245
43.128 234
43.14812 253
43.16823 234
43.18834 242
43.20846 230
43.22857 251
43.24868 220
43.2688 213
43.28891 216
43.30902 204
43.32914 193
43.34925 190
43.36937 195
43.38948 226
43.40959 222
43.42971 240
43.44982 227
43.46993 237
43.49005 214
43.51016 236
43.53028 241
43.55039 249
43.5705 236
43.59062 231
43.61073 239
43.63084 192
43.65096 223
43.67107 222
43.69119 217
43.7113 212
43.73141 231
43.75153 176
43.77164 214
43.79175 225
43.81187 219
43.83198 207
43.85209 211
43.87221 230
43.89232 222
43.91244 203
43.93255 227
43.95266 209
43.97278 236
43.99289 234
44.013 239
44.03312 224
44.05323 248
44.07335 225
44.09346 237
44.11357 226
44.13369 246
44.1538 236
44.17391 209
44.19403 251
44.21414 225
44.23426 225
44.25437 239
44.27448 242
44.2946 217
44.31471 227
44.33482 235
44.35494 211
44.37505 231
44.39516 222
44.41528 230
44.43539 225
44.45551 220
44.47562 215
44.49573 213
44.51585 239
44.53596 230
44.55607 243
44.57619 249
44.5963 242
44.61642 205
44.63653 216
44.65664 235
44.67676 206
44.69687 206
44.71698 198
44.7371 200
44.75721 239
44.77732 207
44.79744 224
44.81755 208
44.83767 216
44.85778 200
44.87789 227
44.89801 223
44.91812 208
44.93823 205
44.95835 227
44.97846 207
44.99858 220
45.01869 226
45.0388 247
45.05892 221
45.07903 233
45.09914 207
45.11926 229
45.13937 189
45.15949 231
45.1796 221
45.19971 224
45.21983 220
45.23994 206
45.26005 225
45.28017 240
45.30028 208
45.32039 259
45.34051 280
45.36062 262
45.38074 252
45.40085 285
45.42096 290
45.44108 301
45.46119 337
45.4813 352
45.50142 349
45.52153 356
45.54165 380
45.56176 382
45.58187 416
45.60199 502
45.6221 520
45.64221 630
45.66233 723
45.68244 804
45.70256 830
45.72267 912
45.74278 873
45.7629 824
45.78301 749
45.80312 670
45.82324 601
45.84335 557
45.86346 526
45.88358 460
45.90369 417
45.92381 353
45.94392 306
45.96403 251
45.98415 248
46.00426 207
46.02437 270
46.04449 256
46.0646 229
46.08472 239
46.10483 263
46.12494 264
46.14506 245
46.16517 244
46.18528 244
46.2054 266
46.22551 264
46.24563 219
46.26574 273
46.28585 236
46.30597 224
46.32608 220
46.34619 224
46.36631 203
46.38642 223
46.40653 226
46.42665 208
46.44676 216
46.46688 182
46.48699 224
46.5071 223
46.52722 206
46.54733 207
46.56744 211
46.58756 209
46.60767 222
46.62779 203
46.6479 202
46.66801 191
46.68813 193
46.70824 205
46.72835 207
46.74847 206
46.76858 204
46.78869 193
46.80881 237
46.82892 209
46.84904 240
46.86915 216
46.88926 254
46.90938 210
46.92949 244
46.9496 221
46.96972 238
46.98983 226
47.00995 240
47.03006 243
47.05017 254
47.07029 257
47.0904 281
47.11051 247
47.13063 251
47.15074 238
47.17086 271
47.19097 245
47.21108 248
47.2312 232
47.25131 229
47.27142 232
47.29154 250
47.31165 233
47.33176 243
47.35188 238
47.37199 261
47.39211 275
47.41222 280
47.43233 262
47.45245 242
47.47256 238
47.49267 252
47.51279 247
47.5329 256
47.55302 255
47.57313 225
47.59324 263
47.61336 247
47.63347 220
47.65358 232
47.6737 245
47.69381 237
47.71393 199
47.73404 214
47.75415 219
47.77427 232
47.79438 232
47.81449 217
47.83461 225
47.85472 178
47.87483 223
47.89495 237
47.91506 255
47.93518 236
47.95529 197
47.9754 204
47.99552 225
48.01563 210
48.03574 195
48.05586 211
48.07597 207
48.09609 209
48.1162 218
48.13631 207
48.15643 213
48.17654 186
48.19665 202
48.21677 221
48.23688 219
48.257 229
48.27711 229
48.29722 216
48.31734 195
48.33745 230
48.35756 211
48.37768 231
48.39779 230
48.4179 206
48.43802 220
48.45813 236
48.47825 187
48.49836 220
48.51847 205
48.53859 227
48.5587 212
48.57881 193
48.59893 216
48.61904 217
48.63916 244
48.65927 216
48.67938 215
48.6995 277
48.71961 263
48.73972 228
48.75984 251
48.77995 271
48.80006 278
48.82018 273
48.84029 269
48.86041 259
48.88052 249
48.90063 246
48.92075 293
48.94086 270
48.96097 262
48.98109 276
49.0012 243
49.02132 249
49.04143 276
49.06154 261
49.08166 263
49.10177 267
49.12188 229
49.142 257
49.16211 259
49.18223 222
49.20234 227
49.22245 227
49.24257 232
49.26268 226
49.28279 240
49.30291 221
49.32302 231
49.34313 212
49.36325 219
49.38336 219
49.40348 207
49.42359 224
49.4437 230
49.46382 214
49.48393 219
49.50404 241
49.52416 218
49.54427 239
49.56439 251
49.5845 229
49.60461 259
49.62473 259
49.64484 275
49.66495 237
49.68507 284
49.70518 295
49.7253 309
49.74541 297
49.76552 347
49.78564 336
49.80575 370
49.82586 405
49.84598 418
49.86609 443
49.8862 563
49.90632 669
49.92643 755
49.94655 844
49.96666 1121
49.98677 1334
50.00689 1637
50.027 1994
50.04711 2192
50.06723 2373
50.08734 2559
50.10746 2407
50.12757 2099
50.14768 1899
50.1678 1565
50.18791 1391
50.20802 1426
50.22814 1235
50.24825 1165
50.26837 871
50.28848 667
50.30859 502
50.32871 433
50.34882 404
50.36893 366
50.38905 414
50.40916 395
50.42927 435
50.44939 460
50.4695 475
50.48962 493
50.50973 510
50.52984 494
50.54996 442
50.57007 430
50.59018 412
50.6103 439
50.63041 420
50.65053 414
50.67064 395
50.69075 323
50.71087 336
50.73098 300
50.75109 326
50.77121 302
50.79132 326
50.81143 307
50.83155 325
50.85166 298
50.87178 300
50.89189 299
50.912 265
50.93212 288
50.95223 243
50.97234 262
50.99246 246
51.01257 241
51.03269 226
51.0528 259
51.07291 245
51.09303 237
51.11314 243
51.13325 229
51.15337 244
51.17348 193
51.1936 209
51.21371 210
51.23382 251
51.25394 229
51.27405 240
51.29416 236
51.31428 220
51.33439 229
51.3545 197
51.37462 222
51.39473 229
51.41485 217
51.43496 205
51.45507 204
51.47519 194
51.4953 223
51.51541 203
51.53553 207
51.55564 201
51.57576 204
51.59587 198
51.61598 222
51.6361 193
51.65621 192
51.67632 214
51.69644 178
51.71655 204
51.73667 196
51.75678 173
51.77689 203
51.79701 187
51.81712 225
51.83723 209
51.85735 196
51.87746 196
51.89757 195
51.91769 196
51.9378 203
51.95792 194
51.97803 181
51.99814 201
52.01826 204
52.03837 211
52.05848 182
52.0786 192
52.09871 211
52.11883 193
52.13894 181
52.15905 212
52.17917 202
52.19928 208
52.21939 184
52.23951 216
52.25962 206
52.27974 188
52.29985 199
52.31996 196
52.34008 173
52.36019 226
52.3803 205
52.40042 202
52.42053 195
52.44064 205
52.46076 194
52.48087 191
52.50099 210
52.5211 216
52.54121 245
52.56133 224
52.58144 208
52.60155 230
52.62167 205
52.64178 246
52.6619 220
52.68201 209
52.70212 230
52.72224 238
52.74235 238
52.76246 220
52.78258 207
52.80269 240
52.8228 230
52.84292 217
52.86303 217
52.88315 209
52.90326 248
52.92337 213
52.94349 240
52.9636 199
52.98371 210
53.00383 225
53.02394 196
53.04406 237
53.06417 229
53.08428 204
53.1044 244
53.12451 198
53.14462 200
53.16474 204
53.18485 237
53.20497 207
53.22508 222
53.24519 232
53.26531 235
53.28542 251
53.30553 249
53.32565 255
53.34576 258
53.36587 263
53.38599 254
53.4061 254
53.42622 240
53.44633 261
53.46644 242
53.48656 256
53.50667 258
53.52678 239
53.5469 240
53.56701 241
53.58713 231
53.60724 214
53.62735 250
53.64747 198
53.66758 231
53.68769 212
53.70781 246
53.72792 236
53.74804 215
53.76815 254
53.78826 211
53.80838 198
53.82849 260
53.8486 229
53.86872 251
53.88883 240
53.90894 229
53.92906 247
53.94917 254
53.96929 248
53.9894 245
54.00951 263
54.02963 274
54.04974 257
54.06985 274
54.08997 261
54.11008 255
54.1302 239
54.15031 240
54.17042 249
54.19054 278
54.21065 261
54.23076 270
54.25088 266
54.27099 254
54.29111 241
54.31122 247
54.33133 259
54.35145 233
54.37156 236
54.39167 261
54.41179 246
54.4319 279
54.45201 252
54.47213 256
54.49224 247
54.51236 266
54.53247 284
54.55258 282
54.5727 283
54.59281 309
54.61292 339
54.63304 332
54.65315 375
54.67327 414
54.69338 463
54.71349 574
54.73361 596
54.75372 653
54.77383 770
54.79395 816
54.81406 813
54.83417 843
54.85429 793
54.8744 636
54.89452 557
54.91463 553
54.93474 610
54.95486 596
54.97497 513
54.99508 508
55.0152 395
55.03531 345
55.05543 365
55.07554 323
55.09565 310
55.11577 322
55.13588 344
55.15599 369
55.17611 425
55.19622 413
55.21634 501
55.23645 481
55.25656 505
55.27668 544
55.29679 505
55.3169 430
55.33702 430
55.35713 387
55.37724 416
55.39736 414
55.41747 412
55.43759 364
55.4577 338
55.47781 371
55.49793 301
55.51804 272
55.53815 278
55.55827 244
55.57838 271
55.5985 240
55.61861 253
55.63872 243
55.65884 239
55.67895 240
55.69906 247
55.71918 231
55.73929 252
55.75941 228
55.77952 217
55.79963 210
55.81975 216
55.83986 199
55.85997 214
55.88009 225
55.9002 228
55.92031 219
55.94043 239
55.96054 194
55.98066 230
56.00077 215
56.02088 222
56.041 203
56.06111 226
56.08122 210
56.10134 231
56.12145 231
56.14157 206
56.16168 224
56.18179 214
56.20191 193
56.22202 202
56.24213 188
56.26225 218
56.28236 172
56.30248 220
56.32259 197
56.3427 218
56.36282 179
56.38293 209
56.40304 213
56.42316 218
56.44327 209
56.46338 213
56.4835 213
56.50361 229
56.52373 209
56.54384 189
56.56395 232
56.58407 208
56.60418 213
56.62429 193
56.64441 226
56.66452 226
56.68464 242
56.70475 257
56.72486 243
56.74498 231
56.76509 216
56.7852 215
56.80532 216
56.82543 247
56.84554 203
56.86566 216
56.88577 205
56.90589 215
56.926 204
56.94611 210
56.96623 189
56.98634 206
57.00645 191
57.02657 183
57.04668 220
57.0668 232
57.08691 221
57.10702 234
57.12714 256
57.14725 246
57.16736 226
57.18748 245
57.20759 244
57.22771 236
57.24782 224
57.26793 220
57.28805 222
57.30816 240
57.32827 228
57.34839 223
57.3685 250
57.38861 214
57.40873 221
57.42884 234
57.44896 215
57.46907 227
57.48918 203
57.5093 235
57.52941 221
57.54952 208
57.56964 225
57.58975 196
57.60987 191
57.62998 223
57.65009 216
57.67021 213
57.69032 193
57.71043 192
57.73055 196
57.75066 223
57.77078 191
57.79089 198
57.811 202
57.83112 213
57.85123 210
57.87134 196
57.89146 191
57.91157 208
57.93168 196
57.9518 199
57.97191 206
57.99203 201
58.01214 231
58.03225 196
58.05237 198
58.07248 183
58.09259 224
58.11271 215
58.13282 196
58.15294 229
58.17305 174
58.19316 209
58.21328 201
58.23339 188
58.2535 219
58.27362 199
58.29373 229
58.31385 216
58.33396 232
58.35407 202
58.37419 202
58.3943 209
58.41441 218
58.43453 235
58.45464 244
58.47475 237
58.49487 212
58.51498 224
58.5351 220
58.55521 247
58.57532 245
58.59544 260
58.61555 212
58.63566 225
58.65578 248
58.67589 227
58.69601 235
58.71612 226
58.73623 221
58.75635 253
58.77646 215
58.79657 217
58.81669 195
58.8368 204
58.85691 194
58.87703 180
58.89714 202
58.91726 188
58.93737 211
58.95748 211
58.9776 188
58.99771 228
59.01782 212
59.03794 200
59.05805 219
59.07817 227
59.09828 209
59.11839 185
59.13851 222
59.15862 210
59.17873 229
59.19885 219
59.21896 201
59.23908 226
59.25919 242
59.2793 217
59.29942 218
59.31953 225
59.33964 237
59.35976 238
59.37987 262
59.39998 269
59.4201 237
59.44021 269
59.46033 269
59.48044 290
59.50055 292
59.52067 283
59.54078 311
59.56089 269
59.58101 287
59.60112 289
59.62124 350
59.64135 373
59.66146 351
59.68158 413
59.70169 494
59.7218 513
59.74192 644
59.76203 752
59.78215 841
59.80226 1016
59.82237 1266
59.84249 1356
59.8626 1521
59.88271 1676
59.90283 1675
59.92294 1519
59.94305 1275
59.96317 1106
59.98328 957
60.0034 922
60.02351 928
60.04362 952
60.06374 929
60.08385 848
60.10396 685
60.12408 551
60.14419 425
60.16431 355
60.18442 330
60.20453 273
60.22465 286
60.24476 265
60.26487 265
60.28499 269
60.3051 260
60.32522 224
60.34533 225
60.36544 237
60.38556 229
60.40567 236
60.42578 225
60.4459 247
60.46601 211
60.48612 212
60.50624 234
60.52635 253
60.54647 220
60.56658 193
60.58669 200
60.60681 207
60.62692 197
60.64703 222
60.66715 224
60.68726 209
60.70738 217
60.72749 196
60.7476 219
60.76772 232
60.78783 231
60.80794 216
60.82806 206
60.84817 203
60.86828 227
60.8884 212
60.90851 204
60.92863 232
60.94874 211
60.96885 228
60.98897 221
61.00908 231
61.02919 233
61.04931 269
61.06942 274
61.08954 260
61.10965 243
61.12976 254
61.14988 281
61.16999 243
61.1901 251
61.21022 252
61.23033 243
61.25045 228
61.27056 238
61.29067 226
61.31079 222
61.3309 284
61.35101 214
61.37113 215
61.39124 231
61.41135 219
61.43147 242
61.45158 221
61.4717 210
61.49181 225
61.51192 209
61.53204 231
61.55215 200
61.57226 217
61.59238 202
61.61249 222
61.63261 238
61.65272 212
61.67283 234
61.69295 246
61.71306 242
61.73317 241
61.75329 224
61.7734 232
61.79352 213
61.81363 220
61.83374 222
61.85386 246
61.87397 233
61.89408 228
61.9142 211
61.93431 227
61.95442 235
61.97454 263
61.99465 236
62.01477 264
62.03488 249
62.05499 234
62.07511 280
62.09522 245
62.11533 270
62.13545 245
62.15556 258
62.17568 292
62.19579 270
62.2159 249
62.23602 239
62.25613 268
62.27624 243
62.29636 240
62.31647 263
62.33659 252
62.3567 216
62.37681 256
62.39693 258
62.41704 249
62.43715 220
62.45727 241
62.47738 236
62.49749 225
62.51761 236
62.53772 235
62.55784 254
62.57795 261
62.59806 239
62.61818 245
62.63829 246
62.6584 238
62.67852 227
62.69863 242
62.71875 268
62.73886 265
62.75897 211
62.77909 229
62.7992 216
62.81931 237
62.83943 235
62.85954 243
62.87965 270
62.89977 236
62.91988 234
62.94 238
62.96011 242
62.98022 249
63.00034 250
63.02045 269
63.04056 266
63.06068 247
63.08079 289
63.10091 232
63.12102 232
63.14113 221
63.16125 232
63.18136 253
63.20147 239
63.22159 217
63.2417 223
63.26182 239
63.28193 255
63.30204 215
63.32216 225
63.34227 234
63.36238 242
63.3825 228
63.40261 219
63.42272 213
63.44284 219
63.46295 236
63.48307 219
63.50318 228
63.52329 226
63.54341 222
63.56352 221
63.58363 246
63.60375 250
63.62386 243
63.64398 225
63.66409 248
63.6842 258
63.70432 238
63.72443 275
63.74454 289
63.76466 269
63.78477 305
63.80489 329
63.825 349
63.84511 362
63.86523 380
63.88534 459
63.90545 469
63.92557 501
63.94568 496
63.96579 555
63.98591 508
64.00602 504
64.02614 470
64.04625 426
64.06636 381
64.08648 355
64.10659 354
64.1267 331
64.14682 360
64.16693 321
64.18705 321
64.20716 303
64.22727 289
64.24739 238
64.2675 235
64.28761 241
64.30773 205
64.32784 230
64.34796 206
64.36807 192
64.38818 187
64.4083 203
64.42841 186
64.44852 211
64.46864 204
64.48875 186
64.50886 196
64.52898 191
64.54909 191
64.56921 183
64.58932 192
64.60943 194
64.62955 191
64.64966 209
64.66977 170
64.68989 182
64.71 233
64.73012 173
64.75023 204
64.77034 202
64.79046 199
64.81057 194
64.83068 187
64.8508 179
64.87091 198
64.89102 223
64.91114 215
64.93125 217
64.95137 218
64.97148 209
64.99159 219
65.01171 226
65.03182 225
65.05193 216
65.07205 215
65.09216 214
65.11228 238
65.13239 213
65.1525 259
65.17262 262
65.19273 221
65.21284 256
65.23296 212
65.25307 224
65.27319 216
65.2933 213
65.31341 218
65.33353 223
65.35364 259
65.37375 265
65.39387 219
65.41398 222
65.43409 222
65.45421 195
65.47432 217
65.49444 212
65.51455 210
65.53466 213
65.55478 205
65.57489 218
65.595 225
65.61512 238
65.63523 238
65.65535 246
65.67546 234
65.69557 251
65.71569 250
65.7358 226
65.75591 251
65.77603 234
65.79614 237
65.81626 237
65.83637 213
65.85648 212
65.8766 225
65.89671 230
65.91682 232
65.93694 212
65.95705 220
65.97716 215
65.99728 204
66.01739 215
66.03751 190
66.05762 219
66.07773 194
66.09785 228
66.11796 237
66.13807 231
66.15819 225
66.1783 249
66.19842 250
66.21853 228
66.23864 227
66.25876 236
66.27887 242
66.29898 234
66.3191 228
66.33921 217
66.35933 231
66.37944 216
66.39955 234
66.41967 231
66.43978 207
66.45989 200
66.48001 244
66.50012 210
66.52023 217
66.54035 213
66.56046 218
66.58058 219
66.60069 219
66.6208 206
66.64092 207
66.66103 212
66.68114 197
66.70126 190
66.72137 225
66.74149 190
66.7616 198
66.78171 221
66.80183 193
66.82194 232
66.84205 216
66.86217 224
66.88228 229
66.90239 193
66.92251 232
66.94262 207
66.96274 213
66.98285 227
67.00296 212
67.02308 213
67.04319 238
67.0633 215
67.08342 246
67.10353 228
67.12365 227
67.14376 213
67.16387 232
67.18399 224
67.2041 213
67.22421 223
67.24433 243
67.26444 254
67.28456 250
67.30467 239
67.32478 227
67.3449 280
67.36501 284
67.38512 291
67.40524 281
67.42535 309
67.44546 301
67.46558 349
67.48569 405
67.50581 368
67.52592 448
67.54603 508
67.56615 597
67.58626 704
67.60637 811
67.62649 950
67.6466 960
67.66672 1094
67.68683 1041
67.70694 1002
67.72706 873
67.74717 780
67.76728 694
67.7874 642
67.80751 675
67.82763 772
67.84774 747
67.86785 742
67.88797 797
67.90808 763
67.92819 793
67.94831 759
67.96842 776
67.98853 914
68.00865 1023
68.02876 1140
68.04888 1270
68.06899 1319
68.0891 1332
68.10922 1261
68.12933 1126
68.14944 1084
68.16956 1048
68.18967 1093
68.20979 1146
68.2299 1178
68.25001 1269
68.27013 1151
68.29024 1022
68.31035 888
68.33047 784
68.35058 668
68.3707 588
68.39081 588
68.41092 573
68.43104 554
68.45115 500
68.47126 501
68.49138 446
68.51149 372
68.5316 303
68.55172 271
68.57183 258
68.59195 259
68.61206 240
68.63217 211
68.65229 235
68.6724 278
68.69251 246
68.71263 234
68.73274 222
68.75286 220
68.77297 248
68.79308 230
68.8132 233
68.83331 246
68.85342 237
68.87354 214
68.89365 191
68.91376 208
68.93388 211
68.95399 248
68.97411 224
68.99422 246
69.01433 206
69.03445 206
69.05456 211
69.07467 205
69.09479 199
69.1149 214
69.13502 190
69.15513 191
69.17524 200
69.19536 203
69.21547 204
69.23558 206
69.2557 218
69.27581 182
69.29593 233
69.31604 201
69.33615 198
69.35627 222
69.37638 194
69.39649 190
69.41661 173
69.43672 206
69.45683 184
69.47695 207
69.49706 177
69.51718 197
69.53729 197
69.5574 229
69.57752 203
69.59763 212
69.61774 174
69.63786 190
69.65797 193
69.67809 200
69.6982 212
69.71831 196
69.73843 200
69.75854 222
69.77865 200
69.79877 209
69.81888 205
69.839 194
69.85911 196
69.87922 181
69.89934 183
69.91945 195
69.93956 187
69.95968 220
69.97979 182
69.9999 215
70.02002 217
70.04013 206
70.06025 208
70.08036 216
70.10047 201
70.12059 189
70.1407 186
70.16081 195
70.18093 182
70.20104 182
70.22116 185
70.24127 190
70.26138 194
70.2815 209
70.30161 203
70.32172 189
70.34184 182
70.36195 168
70.38207 172
70.40218 193
70.42229 202
70.44241 187
70.46252 176
70.48263 192
70.50275 204
70.52286 181
70.54297 205
70.56309 179
70.5832 220
70.60332 193
70.62343 219
70.64354 207
70.66366 220
70.68377 179
70.70388 190
70.724 187
70.74411 186
70.76423 205
70.78434 209
70.80445 206
70.82457 217
70.84468 191
70.86479 190
70.88491 165
70.90502 155
70.92513 198
70.94525 190
70.96536 221
70.98548 158
71.00559 198
71.0257 181
71.04582 201
71.06593 200
71.08604 186
71.10616 184
71.12627 176
71.14639 174
71.1665 190
71.18661 191
71.20673 190
71.22684 173
71.24695 187
71.26707 208
71.28718 184
71.3073 187
71.32741 186
71.34752 187
71.36764 193
71.38775 184
71.40786 205
71.42798 219
71.44809 222
71.4682 188
71.48832 236
71.50843 203
71.52855 216
71.54866 217
71.56877 188
71.58889 218
71.609 197
71.62911 188
71.64923 201
71.66934 219
71.68946 216
71.70957 232
71.72968 202
71.7498 218
71.76991 191
71.79002 219
71.81014 210
71.83025 200
71.85037 225
71.87048 200
71.89059 198
71.91071 210
71.93082 210
71.95093 214
71.97105 211
71.99116 211
72.01127 228
72.03139 254
72.0515 246
72.07162 218
72.09173 212
72.11184 204
72.13196 242
72.15207 229
72.17218 200
72.1923 206
72.21241 221
72.23253 215
72.25264 217
72.27275 259
72.29287 187
72.31298 222
72.33309 213
72.35321 230
72.37332 201
72.39344 214
72.41355 194
72.43366 221
72.45378 178
72.47389 225
72.494 209
72.51412 205
72.53423 210
72.55434 209
72.57446 233
72.59457 196
72.61469 192
72.6348 205
72.65491 195
72.67503 201
72.69514 201
72.71525 198
72.73537 220
72.75548 191
72.7756 206
72.79571 223
72.81582 224
72.83594 214
72.85605 221
72.87616 194
72.89628 226
72.91639 218
72.9365 204
72.95662 220
72.97673 195
72.99685 232
73.01696 228
73.03707 213
73.05719 228
73.0773 221
73.09741 230
73.11753 225
73.13764 260
73.15776 262
73.17787 239
73.19798 277
73.2181 281
73.23821 269
73.25832 284
73.27844 331
73.29855 363
73.31867 389
73.33878 423
73.35889 427
73.37901 494
73.39912 516
73.41923 498
73.43935 476
73.45946 411
73.47957 355
73.49969 331
73.5198 341
73.53992 339
73.56003 346
73.58014 341
73.60026 346
73.62037 355
73.64048 328
73.6606 321
73.68071 288
73.70083 242
73.72094 242
73.74105 263
73.76117 244
73.78128 223
73.80139 196
73.82151 224
73.84162 226
73.86174 237
73.88185 213
73.90196 205
73.92208 215
73.94219 206
73.9623 216
73.98242 193
74.00253 195
74.02264 195
74.04276 200
74.06287 190
74.08299 201
74.1031 205
74.12321 195
74.14333 207
74.16344 204
74.18355 196
74.20367 193
74.22378 215
74.2439 189
74.26401 169
74.28412 196
74.30424 175
74.32435 208
74.34446 210
74.36458 197
74.38469 222
74.40481 213
74.42492 221
74.44503 209
74.46515 177
74.48526 226
74.50537 199
74.52549 202
74.5456 224
74.56571 200
74.58583 203
74.60594 227
74.62606 203
74.64617 188
74.66628 193
74.6864 213
74.70651 211
74.72662 216
74.74674 194
74.76685 198
74.78697 225
74.80708 209
74.82719 206
74.84731 226
74.86742 211
74.88753 213
74.90765 238
74.92776 219
74.94787 216
74.96799 195
74.9881 212
75.00822 210
