3.00117 21513
3.02128 20941
3.0414 20171
3.06151 19815
3.08162 18893
3.10174 18445
3.12185 18013
3.14197 17737
3.16208 17056
3.18219 16442
3.20231 16356
3.22242 15649
3.24253 15242
3.26265 14495
3.28276 14137
3.30288 14020
3.32299 13591
3.3431 13001
3.36322 12343
3.38333 12126
3.40344 12037
3.42356 11248
3.44367 11168
3.46379 10688
3.4839 10211
3.50401 10155
3.52413 9589
3.54424 9264
3.56435 8980
3.58447 8674
3.60458 8379
3.62469 8023
3.64481 8057
3.66492 7534
3.68504 7299
3.70515 6972
3.72526 6500
3.74538 6507
3.76549 6150
3.7856 5912
3.80572 5731
3.82583 5387
3.84595 5260
3.86606 5096
3.88617 4873
3.90629 4641
3.9264 4331
3.94651 4327
3.96663 4107
3.98674 3891
4.00686 3947
4.02697 3683
4.04708 3535
4.0672 3201
4.08731 2987
4.10742 3167
4.12754 2877
4.14765 2937
4.16776 2558
4.18788 2530
4.20799 2631
4.22811 2438
4.24822 2293
4.26833 2128
4.28845 2190
4.30856 2200
4.32867 2114
4.34879 1987
4.3689 1904
4.38902 1689
4.40913 1878
4.42924 1860
4.44936 1764
4.46947 1673
4.48958 1598
4.5097 1561
4.52981 1585
4.54992 1454
4.57004 1450
4.59015 1431
4.61027 1464
4.63038 1395
4.65049 1222
4.67061 1314
4.69072 1189
4.71083 1259
4.73095 1194
4.75106 1161
4.77118 1198
4.79129 1129
4.8114 1100
4.83152 1174
4.85163 1126
4.87174 1120
4.89186 1021
4.91197 1014
4.93209 1084
4.9522 932
4.97231 957
4.99243 935
5.01254 931
5.03265 984
5.05277 890
5.07288 913
5.09299 883
5.11311 835
5.13322 886
5.15334 806
5.17345 768
5.19356 783
5.21368 762
5.23379 804
5.2539 724
5.27402 738
5.29413 694
5.31425 716
5.33436 735
5.35447 647
5.37459 645
5.3947 644
5.41481 649
5.43493 656
5.45504 626
5.47516 572
5.49527 624
5.51538 602
5.5355 643
5.55561 574
5.57572 562
5.59584 554
5.61595 547
5.63606 555
5.65618 523
5.67629 500
5.69641 569
5.71652 570
5.73663 508
5.75675 496
5.77686 489
5.79697 487
5.81709 511
5.8372 524
5.85732 475
5.87743 446
5.89754 496
5.91766 508
5.93777 491
5.95788 464
5.978 448
5.99811 454
6.01823 483
6.03834 496
6.05845 467
6.07857 480
6.09868 465
6.11879 418
6.13891 450
6.15902 452
6.17913 495
6.19925 454
6.21936 470
6.23948 485
6.25959 440
6.2797 440
6.29982 417
6.31993 423
6.34004 500
6.36016 391
6.38027 400
6.40039 448
6.4205 472
6.44061 436
6.46073 447
6.48084 433
6.50095 413
6.52107 388
6.54118 402
6.56129 425
6.58141 385
6.60152 433
6.62164 416
6.64175 399
6.66186 413
6.68198 407
6.70209 408
6.7222 388
6.74232 468
6.76243 412
6.78255 379
6.80266 403
6.82277 397
6.84289 384
6.863 368
6.88311 398
6.90323 412
6.92334 403
6.94346 400
6.96357 423
6.98368 411
7.0038 403
7.02391 413
7.04402 347
7.06414 352
7.08425 359
7.10436 378
7.12448 433
7.14459 352
7.16471 393
7.18482 375
7.20493 411
7.22505 389
7.24516 396
7.26527 411
7.28539 407
7.3055 367
7.32562 415
7.34573 411
7.36584 366
7.38596 388
7.40607 353
7.42618 377
7.4463 387
7.46641 404
7.48653 393
7.50664 368
7.52675 343
7.54687 410
7.56698 347
7.58709 353
7.60721 370
7.62732 393
7.64743 369
7.66755 376
7.68766 358
7.70778 333
7.72789 383
7.748 435
7.76812 445
7.78823 399
7.80834 412
7.82846 365
7.84857 366
7.86869 408
7.8888 340
7.90891 395
7.92903 377
7.94914 383
7.96925 395
7.98937 416
8.00948 386
8.0296 403
8.04971 371
8.06982 396
8.08994 395
8.11005 391
8.13016 390
8.15028 370
8.17039 372
8.1905 368
8.21062 393
8.23073 366
8.25085 393
8.27096 376
8.29107 353
8.31119 397
8.3313 418
8.35141 377
8.37153 411
8.39164 386
8.41176 361
8.43187 404
8.45198 411
8.4721 395
8.49221 403
8.51232 417
8.53244 408
8.55255 411
8.57266 372
8.59278 388
8.61289 357
8.63301 378
8.65312 377
8.67323 397
8.69335 372
8.71346 396
8.73357 403
8.75369 370
8.7738 383
8.79392 345
8.81403 404
8.83414 381
8.85426 365
8.87437 414
8.89448 388
8.9146 389
8.93471 418
8.95483 374
8.97494 396
8.99505 393
9.01517 417
9.03528 400
9.05539 360
9.07551 381
9.09562 383
9.11573 391
9.13585 384
9.15596 400
9.17608 373
9.19619 375
9.2163 366
9.23642 394
9.25653 360
9.27664 406
9.29676 372
9.31687 403
9.33699 387
9.3571 387
9.37721 397
9.39733 372
9.41744 386
9.43755 368
9.45767 381
9.47778 387
9.4979 387
9.51801 358
9.53812 345
9.55824 382
9.57835 394
9.59846 409
9.61858 383
9.63869 415
9.6588 408
9.67892 389
9.69903 376
9.71915 399
9.73926 381
9.75937 365
9.77949 402
9.7996 386
9.81971 392
9.83983 366
9.85994 376
9.88006 385
9.90017 378
9.92028 368
9.9404 348
9.96051 384
9.98062 396
10.00074 340
10.02085 420
10.04097 376
10.06108 405
10.08119 384
10.10131 399
10.12142 398
10.14153 369
10.16165 414
10.18176 382
10.20187 370
10.22199 377
10.2421 358
10.26222 421
10.28233 380
10.30244 384
10.32256 370
10.34267 400
10.36278 392
10.3829 353
10.40301 395
10.42313 440
10.44324 400
10.46335 356
10.48347 374
10.50358 379
10.52369 406
10.54381 362
10.56392 368
10.58403 405
10.60415 376
10.62426 416
10.64438 393
10.66449 394
10.6846 401
10.70472 337
10.72483 374
10.74494 385
10.76506 388
10.78517 382
10.80529 394
10.8254 394
10.84551 400
10.86563 425
10.88574 426
10.90585 427
10.92597 400
10.94608 415
10.9662 378
10.98631 371
11.00642 406
11.02654 428
11.04665 368
11.06676 413
11.08688 370
11.10699 370
11.1271 446
11.14722 387
11.16733 390
11.18745 361
11.20756 439
11.22767 385
11.24779 416
11.2679 427
11.28801 395
11.30813 431
11.32824 372
11.34836 433
11.36847 404
11.38858 411
11.4087 400
11.42881 419
11.44892 409
11.46904 401
11.48915 423
11.50927 393
11.52938 423
11.54949 405
11.56961 388
11.58972 412
11.60983 424
11.62995 462
11.65006 438
11.67017 459
11.69029 413
11.7104 476
11.73052 475
11.75063 423
11.77074 474
11.79086 421
11.81097 518
11.83108 449
11.8512 445
11.87131 501
11.89143 495
11.91154 521
11.93165 520
11.95177 534
11.97188 547
11.99199 558
12.01211 577
12.03222 593
12.05234 617
12.07245 648
12.09256 665
12.11268 591
12.13279 686
12.1529 704
12.17302 794
12.19313 783
12.21324 806
12.23336 899
12.25347 916
12.27359 938
12.2937 1008
12.31381 1003
12.33393 965
12.35404 985
12.37415 889
12.39427 844
12.41438 834
12.4345 715
12.45461 649
12.47472 625
12.49484 592
12.51495 535
12.53506 524
12.55518 485
12.57529 506
12.5954 508
12.61552 456
12.63563 444
12.65575 472
12.67586 445
12.69597 455
12.71609 397
12.7362 435
12.75631 427
12.77643 385
12.79654 440
12.81666 398
12.83677 375
12.85688 379
12.877 364
12.89711 425
12.91722 388
12.93734 375
12.95745 441
12.97757 354
12.99768 386
13.01779 350
13.03791 368
13.05802 355
13.07813 414
13.09825 347
13.11836 400
13.13847 369
13.15859 407
13.1787 367
13.19882 380
13.21893 357
13.23904 374
13.25916 364
13.27927 399
13.29938 376
13.3195 376
13.33961 353
13.35973 348
13.37984 332
13.39995 385
13.42007 376
13.44018 349
13.46029 392
13.48041 366
13.50052 375
13.52064 397
13.54075 353
13.56086 389
13.58098 383
13.60109 353
13.6212 328
13.64132 377
13.66143 354
13.68154 324
13.70166 360
13.72177 330
13.74189 330
13.762 339
13.78211 370
13.80223 357
13.82234 344
13.84245 325
13.86257 359
13.88268 342
13.9028 338
13.92291 352
13.94302 348
13.96314 361
13.98325 329
14.00336 316
14.02348 354
14.04359 327
14.06371 361
14.08382 341
14.10393 367
14.12405 351
14.14416 352
14.16427 352
14.18439 354
14.2045 312
14.22461 384
14.24473 321
14.26484 366
14.28496 347
14.30507 306
14.32518 351
14.3453 338
14.36541 350
14.38552 335
14.40564 336
14.42575 386
14.44587 321
14.46598 338
14.48609 323
14.50621 363
14.52632 350
14.54643 356
14.56655 370
14.58666 338
14.60677 377
14.62689 359
14.647 352
14.66712 351
14.68723 353
14.70734 331
14.72746 371
14.74757 353
14.76768 362
14.7878 351
14.80791 321
14.82803 356
14.84814 336
14.86825 322
14.88837 321
14.90848 346
14.92859 332
14.94871 346
14.96882 370
14.98894 351
15.00905 326
15.02916 365
15.04928 354
15.06939 335
15.0895 356
15.10962 331
15.12973 363
15.14984 349
15.16996 312
15.19007 339
15.21019 299
15.2303 354
15.25041 318
15.27053 334
15.29064 323
15.31075 365
15.33087 294
15.35098 370
15.3711 316
15.39121 312
15.41132 350
15.43144 332
15.45155 320
15.47166 322
15.49178 361
15.51189 354
15.53201 346
15.55212 334
15.57223 339
15.59235 313
15.61246 351
15.63257 336
15.65269 341
15.6728 332
15.69291 329
15.71303 365
15.73314 343
15.75326 338
15.77337 321
15.79348 334
15.8136 339
15.83371 339
15.85382 368
15.87394 325
15.89405 367
15.91417 323
15.93428 343
15.95439 339
15.97451 341
15.99462 370
16.01473 339
16.03485 313
16.05496 332
16.07508 330
16.09519 329
16.1153 365
16.13542 350
16.15553 339
16.17564 348
16.19576 355
16.21587 347
16.23598 311
16.2561 287
16.27621 326
16.29633 340
16.31644 304
16.33655 367
16.35667 335
16.37678 322
16.39689 349
16.41701 311
16.43712 347
16.45724 356
16.47735 329
16.49746 362
16.51758 326
16.53769 317
16.5578 325
16.57792 346
16.59803 334
16.61814 346
16.63826 356
16.65837 353
16.67849 338
16.6986 351
16.71871 298
16.73883 324
16.75894 365
16.77905 327
16.79917 329
16.81928 315
16.8394 328
16.85951 350
16.87962 333
16.89974 330
16.91985 325
16.93996 332
16.96008 318
16.98019 332
17.00031 331
17.02042 318
17.04053 371
17.06065 309
17.08076 368
17.10087 335
17.12099 354
17.1411 347
17.16121 364
17.18133 331
17.20144 295
17.22156 343
17.24167 329
17.26178 350
17.2819 334
17.30201 319
17.32212 338
17.34224 326
17.36235 329
17.38247 371
17.40258 327
17.42269 338
17.44281 324
17.46292 351
17.48303 362
17.50315 336
17.52326 326
17.54338 344
17.56349 371
17.5836 335
17.60372 366
17.62383 378
17.64394 337
17.66406 320
17.68417 359
17.70428 351
17.7244 333
17.74451 363
17.76463 380
17.78474 344
17.80485 311
17.82497 365
17.84508 356
17.86519 314
17.88531 357
17.90542 364
17.92554 370
17.94565 347
17.96576 366
17.98588 365
18.00599 324
18.0261 347
18.04622 380
18.06633 328
18.08645 365
18.10656 355
18.12667 352
18.14679 330
18.1669 367
18.18701 357
18.20713 365
18.22724 376
18.24735 368
18.26747 332
18.28758 346
18.3077 384
18.32781 349
18.34792 353
18.36804 335
18.38815 346
18.40826 328
18.42838 330
18.44849 354
18.46861 336
18.48872 327
18.50883 343
18.52895 335
18.54906 298
18.56917 366
18.58929 360
18.6094 354
18.62951 338
18.64963 374
18.66974 341
18.68986 353
18.70997 334
18.73008 346
18.7502 380
18.77031 356
18.79042 317
18.81054 375
18.83065 351
18.85077 356
18.87088 372
18.89099 350
18.91111 351
18.93122 324
18.95133 340
18.97145 331
18.99156 358
19.01168 350
19.03179 326
19.0519 362
19.07202 351
19.09213 330
19.11224 336
19.13236 347
19.15247 327
19.17258 331
19.1927 378
19.21281 355
19.23293 355
19.25304 361
19.27315 352
19.29327 359
19.31338 353
19.33349 366
19.35361 377
19.37372 400
19.39384 352
19.41395 397
19.43406 409
19.45418 389
19.47429 424
19.4944 382
19.51452 387
19.53463 402
19.55475 411
19.57486 463
19.59497 429
19.61509 425
19.6352 486
19.65531 502
19.67543 521
19.69554 529
19.71565 563
19.73577 587
19.75588 596
19.776 667
19.79611 685
19.81622 718
19.83634 751
19.85645 785
19.87656 830
19.89668 742
19.91679 755
19.93691 768
19.95702 716
19.97713 710
19.99725 735
20.01736 722
20.03747 670
20.05759 689
20.0777 709
20.09782 725
20.11793 694
20.13804 667
20.15816 653
20.17827 680
20.19838 635
20.2185 676
20.23861 739
20.25872 671
20.27884 707
20.29895 720
20.31907 671
20.33918 796
20.35929 712
20.37941 721
20.39952 738
20.41963 745
20.43975 786
20.45986 756
20.47998 693
20.50009 794
20.5202 814
20.54032 780
20.56043 821
20.58054 931
20.60066 920
20.62077 1006
20.64088 1219
20.661 1350
20.68111 1476
20.70123 1955
20.72134 2346
20.74145 2880
20.76157 3429
20.78168 3929
20.80179 4077
20.82191 4139
20.84202 3798
20.86214 3401
20.88225 2594
20.90236 1925
20.92248 1480
20.94259 1143
20.9627 924
20.98282 878
21.00293 806
21.02305 770
21.04316 759
21.06327 778
21.08339 768
21.1035 725
21.12361 756
21.14373 701
21.16384 756
21.18395 733
21.20407 700
21.22418 773
21.2443 742
21.26441 755
21.28452 729
21.30464 733
21.32475 782
21.34486 751
21.36498 798
21.38509 756
21.40521 782
21.42532 709
21.44543 723
21.46555 731
21.48566 722
21.50577 673
21.52589 651
21.546 659
21.56612 679
21.58623 645
21.60634 673
21.62646 674
21.64657 606
21.66668 614
21.6868 579
21.70691 641
21.72702 589
21.74714 599
21.76725 540
21.78737 537
21.80748 605
21.82759 611
21.84771 565
21.86782 560
21.88793 564
21.90805 538
21.92816 557
21.94828 538
21.96839 516
21.9885 563
22.00862 510
22.02873 519
22.04884 547
22.06896 529
22.08907 561
22.10919 509
22.1293 470
22.14941 479
22.16953 576
22.18964 485
22.20975 505
22.22987 516
22.24998 480
22.27009 482
22.29021 499
22.31032 513
22.33044 515
22.35055 474
22.37066 476
22.39078 474
22.41089 508
22.431 489
22.45112 500
22.47123 458
22.49135 476
22.51146 473
22.53157 454
22.55169 451
22.5718 458
22.59191 514
22.61203 489
22.63214 479
22.65225 491
22.67237 477
22.69248 469
22.7126 453
22.73271 436
22.75282 461
22.77294 477
22.79305 460
22.81316 465
22.83328 449
22.85339 457
22.87351 433
22.89362 494
22.91373 447
22.93385 495
22.95396 466
22.97407 458
22.99419 449
23.0143 478
23.03442 461
23.05453 415
23.07464 432
23.09476 494
23.11487 464
23.13498 401
23.1551 419
23.17521 443
23.19532 465
23.21544 454
23.23555 471
23.25567 440
23.27578 411
23.29589 448
23.31601 456
23.33612 450
23.35623 439
23.37635 426
23.39646 424
23.41658 450
23.43669 442
23.4568 438
23.47692 433
23.49703 455
23.51714 487
23.53726 475
23.55737 418
23.57749 460
23.5976 453
23.61771 467
23.63783 432
23.65794 451
23.67805 454
23.69817 466
23.71828 425
23.73839 439
23.75851 457
23.77862 468
23.79874 468
23.81885 473
23.83896 502
23.85908 512
23.87919 471
23.8993 445
23.91942 500
23.93953 522
23.95965 498
23.97976 520
23.99987 475
24.01999 487
24.0401 499
24.06021 462
24.08033 480
24.10044 470
24.12056 515
24.14067 496
24.16078 488
24.1809 476
24.20101 512
24.22112 481
24.24124 475
24.26135 477
24.28146 493
24.30158 497
24.32169 494
24.34181 516
24.36192 549
24.38203 552
24.40215 566
24.42226 522
24.44237 512
24.46249 538
24.4826 543
24.50272 576
24.52283 561
24.54294 615
24.56306 622
24.58317 591
24.60328 611
24.6234 607
24.64351 703
24.66362 645
24.68374 727
24.70385 751
24.72397 795
24.74408 784
24.76419 820
24.78431 832
24.80442 868
24.82453 890
24.84465 911
24.86476 898
24.88488 851
24.90499 814
24.9251 696
24.94522 725
24.96533 690
24.98544 664
25.00556 600
25.02567 627
25.04579 621
25.0659 612
25.08601 577
25.10613 616
25.12624 578
25.14635 585
25.16647 595
25.18658 575
25.20669 623
25.22681 568
25.24692 562
25.26704 607
25.28715 561
25.30726 594
25.32738 518
25.34749 532
25.3676 496
25.38772 539
25.40783 466
25.42795 476
25.44806 486
25.46817 492
25.48829 496
25.5084 498
25.52851 491
25.54863 537
25.56874 425
25.58886 514
25.60897 507
25.62908 512
25.6492 527
25.66931 546
25.68942 540
25.70954 537
25.72965 532
25.74976 558
25.76988 543
25.78999 568
25.81011 540
25.83022 552
25.85033 585
25.87045 590
25.89056 552
25.91067 598
25.93079 601
25.9509 582
25.97102 598
25.99113 643
26.01124 579
26.03136 660
26.05147 629
26.07158 645
26.0917 669
26.11181 702
26.13193 771
26.15204 806
26.17215 783
26.19227 843
26.21238 899
26.23249 960
26.25261 992
26.27272 1050
26.29283 1229
26.31295 1370
26.33306 1475
26.35318 1753
26.37329 2219
26.3934 2741
26.41352 3411
26.43363 4302
26.45374 5480
26.47386 7140
26.49397 9003
26.51409 11490
26.5342 13847
26.55431 15798
26.57443 16929
26.59454 16849
26.61465 15421
26.63477 12896
26.65488 10586
26.67499 7920
26.69511 5492
26.71522 3773
26.73534 2608
26.75545 1844
26.77556 1435
26.79568 1220
26.81579 1122
26.8359 1022
26.85602 896
26.87613 908
26.89625 806
26.91636 837
26.93647 755
26.95659 660
26.9767 614
26.99681 714
27.01693 648
27.03704 586
27.05716 620
27.07727 576
27.09738 557
27.1175 529
27.13761 544
27.15772 532
27.17784 514
27.19795 551
27.21806 503
27.23818 483
27.25829 542
27.27841 482
27.29852 513
27.31863 528
27.33875 500
27.35886 519
27.37897 517
27.39909 511
27.4192 480
27.43932 499
27.45943 488
27.47954 452
27.49966 446
27.51977 477
27.53988 442
27.56 425
27.58011 467
27.60023 459
27.62034 460
27.64045 445
27.66057 443
27.68068 417
27.70079 455
27.72091 420
27.74102 450
27.76113 450
27.78125 426
27.80136 412
27.82148 427
27.84159 453
27.8617 464
27.88182 407
27.90193 449
27.92204 417
27.94216 435
27.96227 448
27.98239 417
28.0025 402
28.02261 447
28.04273 451
28.06284 425
28.08295 420
28.10307 402
28.12318 427
28.1433 433
28.16341 392
28.18352 374
28.20364 413
28.22375 436
28.24386 354
28.26398 391
28.28409 415
28.3042 409
28.32432 390
28.34443 389
28.36455 415
28.38466 429
28.40477 425
28.42489 393
28.445 400
28.46511 413
28.48523 401
28.50534 372
28.52546 392
28.54557 412
28.56568 411
28.5858 379
28.60591 383
28.62602 371
28.64614 401
28.66625 356
28.68636 334
28.70648 401
28.72659 383
28.74671 375
28.76682 396
28.78693 385
28.80705 418
28.82716 378
28.84727 395
28.86739 402
28.8875 406
28.90762 388
28.92773 374
28.94784 382
28.96796 366
28.98807 439
29.00818 368
29.0283 409
29.04841 413
29.06853 391
29.08864 382
29.10875 381
29.12887 395
29.14898 365
29.16909 388
29.18921 406
29.20932 364
29.22943 409
29.24955 364
29.26966 388
29.28978 365
29.30989 372
29.33 406
29.35012 403
29.37023 424
29.39034 383
29.41046 334
29.43057 386
29.45069 399
29.4708 394
29.49091 384
29.51103 375
29.53114 396
29.55125 373
29.57137 391
29.59148 427
29.6116 360
29.63171 334
29.65182 400
29.67194 398
29.69205 378
29.71216 365
29.73228 379
29.75239 351
29.7725 342
29.79262 358
29.81273 380
29.83285 354
29.85296 379
29.87307 376
29.89319 358
29.9133 382
29.93341 416
29.95353 391
29.97364 359
29.99376 377
30.01387 377
30.03398 390
30.0541 388
30.07421 370
30.09432 352
30.11444 402
30.13455 416
30.15467 395
30.17478 386
30.19489 356
30.21501 402
30.23512 378
30.25523 362
30.27535 355
30.29546 368
30.31557 394
30.33569 390
30.3558 391
30.37592 380
30.39603 356
30.41614 395
30.43626 357
30.45637 331
30.47648 382
30.4966 359
30.51671 398
30.53683 363
30.55694 375
30.57705 392
30.59717 366
30.61728 387
30.63739 381
30.65751 358
30.67762 334
30.69773 370
30.71785 339
30.73796 344
30.75808 369
30.77819 405
30.7983 365
30.81842 353
30.83853 348
30.85864 376
30.87876 325
30.89887 386
30.91899 373
30.9391 354
30.95921 345
30.97933 360
30.99944 350
31.01955 338
31.03967 329
31.05978 363
31.0799 364
31.10001 333
31.12012 365
31.14024 333
31.16035 383
31.18046 337
31.20058 341
31.22069 373
31.2408 368
31.26092 359
31.28103 367
31.30115 381
31.32126 377
31.34137 377
31.36149 345
31.3816 389
31.40171 359
31.42183 349
31.44194 338
31.46206 353
31.48217 325
31.50228 367
31.5224 359
31.54251 336
31.56262 359
31.58274 343
31.60285 352
31.62297 346
31.64308 357
31.66319 358
31.68331 390
31.70342 322
31.72353 343
31.74365 383
31.76376 378
31.78387 338
31.80399 345
31.8241 343
31.84422 337
31.86433 340
31.88444 373
31.90456 370
31.92467 360
31.94478 384
31.9649 317
31.98501 324
32.00513 355
32.02524 371
32.04535 367
32.06547 387
32.08558 361
32.10569 364
32.12581 379
32.14592 366
32.16604 381
32.18615 376
32.20626 397
32.22638 350
32.24649 337
32.2666 359
32.28672 386
32.30683 345
32.32694 359
32.34706 352
32.36717 383
32.38729 386
32.4074 326
32.42751 416
32.44763 387
32.46774 366
32.48785 400
32.50797 388
32.52808 386
32.5482 388
32.56831 376
32.58842 413
32.60854 409
32.62865 389
32.64876 420
32.66888 364
32.68899 413
32.7091 379
32.72922 392
32.74933 362
32.76945 352
32.78956 368
32.80967 410
32.82979 385
32.8499 394
32.87001 393
32.89013 405
32.91024 398
32.93036 452
32.95047 426
32.97058 428
32.9907 421
33.01081 468
33.03092 426
33.05104 485
33.07115 502
33.09127 458
33.11138 459
33.13149 510
33.15161 467
33.17172 494
33.19183 509
33.21195 424
33.23206 476
33.25217 443
33.27229 496
33.2924 457
33.31252 458
33.33263 456
33.35274 433
33.37286 438
33.39297 431
33.41308 457
33.4332 435
33.45331 457
33.47343 467
33.49354 414
33.51365 416
33.53377 466
33.55388 422
33.57399 401
33.59411 426
33.61422 374
33.63434 402
33.65445 407
33.67456 369
33.69468 397
33.71479 410
33.7349 364
33.75502 393
33.77513 389
33.79524 443
33.81536 395
33.83547 390
33.85559 375
33.8757 377
33.89581 383
33.91593 367
33.93604 396
33.95615 397
33.97627 361
33.99638 353
34.0165 402
34.03661 333
34.05672 384
34.07684 344
34.09695 389
34.11706 348
34.13718 395
34.15729 360
34.17741 359
34.19752 378
34.21763 351
34.23775 389
34.25786 383
34.27797 387
34.29809 364
34.3182 375
34.33831 398
34.35843 372
34.37854 378
34.39866 350
34.41877 413
34.43888 400
34.459 409
34.47911 386
34.49922 404
34.51934 328
34.53945 418
34.55957 405
34.57968 403
34.59979 424
34.61991 454
34.64002 474
34.66013 448
34.68025 391
34.70036 449
34.72047 461
34.74059 486
34.7607 480
34.78082 518
34.80093 556
34.82104 520
34.84116 567
34.86127 555
34.88138 605
34.9015 569
34.92161 590
34.94173 621
34.96184 574
34.98195 561
35.00207 534
35.02218 557
35.04229 517
35.06241 502
35.08252 528
35.10264 501
35.12275 538
35.14286 509
35.16298 524
35.18309 509
35.2032 506
35.22332 497
35.24343 474
35.26354 513
35.28366 550
35.30377 533
35.32389 510
35.344 540
35.36411 553
35.38423 525
35.40434 554
35.42445 621
35.44457 550
35.46468 539
35.4848 550
35.50491 606
35.52502 593
35.54514 625
35.56525 606
35.58536 608
35.60548 577
35.62559 580
35.64571 613
35.66582 605
35.68593 623
35.70605 609
35.72616 626
35.74627 568
35.76639 618
35.7865 577
35.80661 637
35.82673 629
35.84684 667
35.86696 646
35.88707 625
35.90718 619
35.9273 597
35.94741 616
35.96752 568
35.98764 573
36.00775 569
36.02787 549
36.04798 540
36.06809 540
36.08821 554
36.10832 497
36.12843 494
36.14855 538
36.16866 516
36.18878 496
36.20889 517
36.229 542
36.24912 553
36.26923 615
36.28934 631
36.30946 653
36.32957 781
36.34968 826
36.3698 928
36.38991 1054
36.41003 1211
36.43014 1299
36.45025 1464
36.47037 1545
36.49048 1442
36.51059 1394
36.53071 1260
36.55082 1120
36.57094 1006
36.59105 894
36.61116 817
36.63128 674
36.65139 631
36.6715 580
36.69162 518
36.71173 520
36.73184 514
36.75196 490
36.77207 473
36.79219 470
36.8123 505
36.83241 511
36.85253 503
36.87264 474
36.89275 449
36.91287 491
36.93298 486
36.9531 446
36.97321 467
36.99332 493
37.01344 457
37.03355 480
37.05366 440
37.07378 460
37.09389 500
37.11401 490
37.13412 480
37.15423 496
37.17435 508
37.19446 482
37.21457 453
37.23469 490
37.2548 423
37.27491 477
37.29503 457
37.31514 428
37.33526 456
37.35537 468
37.37548 454
37.3956 497
37.41571 410
37.43582 443
37.45594 443
37.47605 452
37.49617 434
37.51628 447
37.53639 460
37.55651 446
37.57662 441
37.59673 468
37.61685 496
37.63696 460
37.65708 463
37.67719 437
37.6973 481
37.71742 446
37.73753 443
37.75764 445
37.77776 456
37.79787 472
37.81798 415
37.8381 458
37.85821 464
37.87833 473
37.89844 470
37.91855 466
37.93867 445
37.95878 463
37.97889 465
37.99901 461
38.01912 448
38.03924 506
38.05935 486
38.07946 467
38.09958 502
38.11969 490
38.1398 504
38.15992 521
38.18003 555
38.20015 527
38.22026 540
38.24037 546
38.26049 592
38.2806 549
38.30071 590
38.32083 614
38.34094 605
38.36105 587
38.38117 614
38.40128 604
38.4214 564
38.44151 582
38.46162 600
38.48174 577
38.50185 549
38.52196 556
38.54208 526
38.56219 513
38.58231 523
38.60242 533
38.62253 456
38.64265 498
38.66276 511
38.68287 459
38.70299 454
38.7231 457
38.74321 494
38.76333 458
38.78344 508
38.80356 471
38.82367 464
38.84378 488
38.8639 484
38.88401 497
38.90412 515
38.92424 511
38.94435 507
38.96447 490
38.98458 500
39.00469 523
39.02481 505
39.04492 507
39.06503 555
39.08515 548
39.10526 544
39.12538 623
39.14549 570
39.1656 566
39.18572 640
39.20583 691
39.22594 696
39.24606 740
39.26617 843
39.28628 947
39.3064 1028
39.32651 1187
39.34663 1307
39.36674 1318
39.38685 1371
39.40697 1444
39.42708 1352
39.44719 1219
39.46731 1084
39.48742 1090
39.50754 930
39.52765 833
39.54776 780
39.56788 614
39.58799 510
39.6081 462
39.62822 442
39.64833 416
39.66845 400
39.68856 433
39.70867 459
39.72879 415
39.7489 440
39.76901 414
39.78913 443
39.80924 386
39.82935 423
39.84947 401
39.86958 448
39.8897 419
39.90981 425
39.92992 401
39.95004 436
39.97015 446
39.99026 431
40.01038 438
40.03049 493
40.05061 492
40.07072 552
40.09083 549
40.11095 637
40.13106 668
40.15117 763
40.17129 828
40.1914 844
40.21152 827
40.23163 823
40.25174 825
40.27186 798
40.29197 748
40.31208 664
40.3322 649
40.35231 607
40.37242 519
40.39254 510
40.41265 475
40.43277 411
40.45288 436
40.47299 427
40.49311 415
40.51322 384
40.53333 410
40.55345 421
40.57356 398
40.59368 436
40.61379 390
40.6339 451
40.65402 423
40.67413 428
40.69424 433
40.71436 447
40.73447 403
40.75458 420
40.7747 395
40.79481 420
40.81493 402
40.83504 446
40.85515 420
40.87527 437
40.89538 429
40.91549 421
40.93561 438
40.95572 426
40.97584 374
40.99595 408
41.01606 396
41.03618 422
41.05629 390
41.0764 401
41.09652 413
41.11663 407
41.13675 416
41.15686 397
41.17697 415
41.19709 382
41.2172 377
41.23731 385
41.25743 394
41.27754 386
41.29765 406
41.31777 381
41.33788 408
41.358 373
41.37811 394
41.39822 399
41.41834 389
41.43845 379
41.45856 367
41.47868 375
41.49879 390
41.51891 398
41.53902 400
41.55913 378
41.57925 387
41.59936 392
41.61947 372
41.63959 399
41.6597 394
41.67982 391
41.69993 363
41.72004 361
41.74016 365
41.76027 373
41.78038 386
41.8005 387
41.82061 366
41.84072 386
41.86084 388
41.88095 366
41.90107 357
41.92118 370
41.94129 385
41.96141 381
41.98152 379
42.00163 370
42.02175 342
42.04186 381
42.06198 417
42.08209 411
42.1022 395
42.12232 409
42.14243 479
42.16254 463
42.18266 447
42.20277 546
42.22289 536
42.243 618
42.26311 663
42.28323 746
42.30334 816
42.32345 847
42.34357 988
42.36368 1019
42.38379 988
42.40391 987
42.42402 938
42.44414 874
42.46425 793
42.48436 764
42.50448 628
42.52459 597
42.5447 527
42.56482 485
42.58493 452
42.60505 365
42.62516 388
42.64527 355
42.66539 347
42.6855 379
42.70561 318
42.72573 337
42.74584 354
42.76595 354
42.78607 342
42.80618 361
42.8263 311
42.84641 339
42.86652 345
42.88664 303
42.90675 341
42.92686 366
42.94698 335
42.96709 330
42.98721 324
43.00732 358
43.02743 316
43.04755 336
43.06766 337
43.08777 329
43.10789 341
43.128 322
43.14812 343
43.16823 377
43.18834 326
43.20846 344
43.22857 297
43.24868 331
43.2688 319
43.28891 346
43.30902 349
43.32914 336
43.34925 355
43.36937 284
43.38948 325
43.40959 333
43.42971 341
43.44982 340
43.46993 322
43.49005 346
43.51016 343
43.53028 331
43.55039 330
43.5705 334
43.59062 351
43.61073 353
43.63084 299
43.65096 344
43.67107 325
43.69119 347
43.7113 277
43.73141 365
43.75153 342
43.77164 341
43.79175 355
43.81187 339
43.83198 324
43.85209 348
43.87221 324
43.89232 333
43.91244 317
43.93255 307
43.95266 314
43.97278 321
43.99289 291
44.013 359
44.03312 316
44.05323 343
44.07335 344
44.09346 327
44.11357 355
44.13369 321
44.1538 316
44.17391 319
44.19403 338
44.21414 285
44.23426 332
44.25437 345
44.27448 344
44.2946 325
44.31471 335
44.33482 310
44.35494 309
44.37505 295
44.39516 300
44.41528 295
44.43539 339
44.45551 330
44.47562 308
44.49573 321
44.51585 341
44.53596 342
44.55607 348
44.57619 312
44.5963 346
44.61642 332
44.63653 339
44.65664 302
44.67676 288
44.69687 302
44.71698 353
44.7371 312
44.75721 322
44.77732 334
44.79744 315
44.81755 328
44.83767 352
44.85778 344
44.87789 324
44.89801 328
44.91812 366
44.93823 335
44.95835 304
44.97846 350
44.99858 380
45.01869 370
45.0388 382
45.05892 342
45.07903 329
45.09914 365
45.11926 339
45.13937 357
45.15949 357
45.1796 413
45.19971 361
45.21983 374
45.23994 396
45.26005 377
45.28017 401
45.30028 364
45.32039 413
45.34051 430
45.36062 410
45.38074 443
45.40085 431
45.42096 421
45.44108 457
45.46119 455
45.4813 443
45.50142 411
45.52153 473
45.54165 499
45.56176 544
45.58187 569
45.60199 561
45.6221 624
45.64221 723
45.66233 748
45.68244 747
45.70256 807
45.72267 823
45.74278 782
45.7629 760
45.78301 705
45.80312 631
45.82324 606
45.84335 584
45.86346 552
45.88358 529
45.90369 476
45.92381 451
45.94392 401
45.96403 375
45.98415 369
46.00426 338
46.02437 348
46.04449 369
46.0646 346
46.08472 346
46.10483 351
46.12494 369
46.14506 383
46.16517 340
46.18528 346
46.2054 352
46.22551 342
46.24563 362
46.26574 360
46.28585 377
46.30597 340
46.32608 351
46.34619 315
46.36631 321
46.38642 338
46.40653 356
46.42665 340
46.44676 369
46.46688 355
46.48699 347
46.5071 343
46.52722 352
46.54733 336
46.56744 337
46.58756 336
46.60767 356
46.62779 361
46.6479 357
46.66801 348
46.68813 336
46.70824 361
46.72835 359
46.74847 364
46.76858 352
46.78869 360
46.80881 351
46.82892 367
46.84904 347
46.86915 340
46.88926 354
46.90938 318
46.92949 367
46.9496 300
46.96972 356
46.98983 360
47.00995 349
47.03006 336
47.05017 310
47.07029 315
47.0904 367
47.11051 345
47.13063 319
47.15074 355
47.17086 355
47.19097 351
47.21108 335
47.2312 350
47.25131 362
47.27142 335
47.29154 311
47.31165 350
47.33176 354
47.35188 349
47.37199 372
47.39211 340
47.41222 351
47.43233 327
47.45245 360
47.47256 380
47.49267 363
47.51279 314
47.5329 330
47.55302 322
47.57313 344
47.59324 356
47.61336 343
47.63347 369
47.65358 356
47.6737 341
47.69381 366
47.71393 374
47.73404 337
47.75415 383
47.77427 368
47.79438 357
47.81449 379
47.83461 366
47.85472 355
47.87483 374
47.89495 393
47.91506 365
47.93518 337
47.95529 390
47.9754 360
47.99552 356
48.01563 356
48.03574 346
48.05586 335
48.07597 381
48.09609 346
48.1162 354
48.13631 368
48.15643 312
48.17654 307
48.19665 323
48.21677 319
48.23688 376
48.257 327
48.27711 336
48.29722 351
48.31734 337
48.33745 334
48.35756 326
48.37768 316
48.39779 363
48.4179 319
48.43802 344
48.45813 336
48.47825 344
48.49836 339
48.51847 301
48.53859 340
48.5587 349
48.57881 363
48.59893 330
48.61904 379
48.63916 313
48.65927 358
48.67938 343
48.6995 330
48.71961 378
48.73972 371
48.75984 327
48.77995 310
48.80006 322
48.82018 335
48.84029 327
48.86041 329
48.88052 322
48.90063 333
48.92075 353
48.94086 360
48.96097 344
48.98109 348
49.0012 329
49.02132 343
49.04143 355
49.06154 347
49.08166 335
49.10177 360
49.12188 380
49.142 324
49.16211 382
49.18223 387
49.20234 342
49.22245 322
49.24257 352
49.26268 344
49.28279 365
49.30291 364
49.32302 378
49.34313 402
49.36325 367
49.38336 388
49.40348 379
49.42359 394
49.4437 386
49.46382 380
49.48393 386
49.50404 400
49.52416 389
49.54427 410
49.56439 428
49.5845 412
49.60461 377
49.62473 392
49.64484 369
49.66495 399
49.68507 469
49.70518 458
49.7253 466
49.74541 479
49.76552 487
49.78564 498
49.80575 545
49.82586 590
49.84598 664
49.86609 729
49.8862 790
49.90632 862
49.92643 977
49.94655 1167
49.96666 1306
49.98677 1495
50.00689 1655
50.027 1865
50.04711 1936
50.06723 2051
50.08734 1976
50.10746 1748
50.12757 1552
50.14768 1406
50.1678 1295
50.18791 1168
50.20802 1087
50.22814 1000
50.24825 796
50.26837 684
50.28848 561
50.30859 492
50.32871 457
50.34882 403
50.36893 376
50.38905 428
50.40916 379
50.42927 424
50.44939 401
50.4695 385
50.48962 360
50.50973 377
50.52984 353
50.54996 352
50.57007 390
50.59018 357
50.6103 372
50.63041 374
50.65053 375
50.67064 344
50.69075 379
50.71087 356
50.73098 371
50.75109 356
50.77121 371
50.79132 350
50.81143 327
50.83155 363
50.85166 395
50.87178 315
50.89189 351
50.912 327
50.93212 346
50.95223 367
50.97234 338
50.99246 355
51.01257 377
51.03269 332
51.0528 356
51.07291 331
51.09303 322
51.11314 374
51.13325 352
51.15337 367
51.17348 366
51.1936 327
51.21371 319
51.23382 349
51.25394 327
51.27405 281
51.29416 326
51.31428 321
51.33439 336
51.3545 312
51.37462 341
51.39473 323
51.41485 318
51.43496 320
51.45507 302
51.47519 304
51.4953 305
51.51541 316
51.53553 328
51.55564 320
51.57576 312
51.59587 331
51.61598 280
51.6361 333
51.65621 319
51.67632 329
51.69644 287
51.71655 322
51.73667 336
51.75678 271
51.77689 307
51.79701 312
51.81712 339
51.83723 312
51.85735 316
51.87746 307
51.89757 309
51.91769 326
51.9378 289
51.95792 312
51.97803 305
51.99814 302
52.01826 321
52.03837 341
52.05848 343
52.0786 307
52.09871 320
52.11883 308
52.13894 309
52.15905 318
52.17917 317
52.19928 341
52.21939 316
52.23951 319
52.25962 303
52.27974 316
52.29985 299
52.31996 317
52.34008 305
52.36019 305
52.3803 301
52.40042 324
52.42053 312
52.44064 326
52.46076 307
52.48087 309
52.50099 313
52.5211 305
52.54121 320
52.56133 315
52.58144 314
52.60155 341
52.62167 327
52.64178 297
52.6619 315
52.68201 313
52.70212 316
52.72224 337
52.74235 330
52.76246 326
52.78258 328
52.80269 320
52.8228 289
52.84292 315
52.86303 308
52.88315 281
52.90326 344
52.92337 317
52.94349 311
52.9636 304
52.98371 296
53.00383 306
53.02394 304
53.04406 351
53.06417 360
53.08428 331
53.1044 317
53.12451 358
53.14462 326
53.16474 329
53.18485 353
53.20497 346
53.22508 335
53.24519 325
53.26531 366
53.28542 316
53.30553 363
53.32565 343
53.34576 379
53.36587 384
53.38599 405
53.4061 363
53.42622 373
53.44633 371
53.46644 376
53.48656 350
53.50667 355
53.52678 392
53.5469 396
53.56701 401
53.58713 387
53.60724 398
53.62735 382
53.64747 397
53.66758 390
53.68769 404
53.70781 388
53.72792 425
53.74804 430
53.76815 400
53.78826 409
53.80838 417
53.82849 457
53.8486 404
53.86872 428
53.88883 448
53.90894 425
53.92906 419
53.94917 430
53.96929 427
53.9894 428
54.00951 466
54.02963 450
54.04974 387
54.06985 413
54.08997 422
54.11008 449
54.1302 440
54.15031 420
54.17042 409
54.19054 395
54.21065 420
54.23076 446
54.25088 462
54.27099 430
54.29111 457
54.31122 437
54.33133 448
54.35145 414
54.37156 438
54.39167 440
54.41179 455
54.4319 442
54.45201 439
54.47213 417
54.49224 483
54.51236 487
54.53247 524
54.55258 487
54.5727 478
54.59281 520
54.61292 521
54.63304 593
54.65315 633
54.67327 620
54.69338 691
54.71349 706
54.73361 805
54.75372 878
54.77383 904
54.79395 881
54.81406 870
54.83417 813
54.85429 777
54.8744 738
54.89452 679
54.91463 674
54.93474 701
54.95486 641
54.97497 625
54.99508 565
55.0152 551
55.03531 545
55.05543 560
55.07554 525
55.09565 527
55.11577 503
55.13588 559
55.15599 522
55.17611 588
55.19622 588
55.21634 657
55.23645 642
55.25656 561
55.27668 587
55.29679 552
55.3169 548
55.33702 510
55.35713 516
55.37724 478
55.39736 482
55.41747 496
55.43759 439
55.4577 472
55.47781 441
55.49793 411
55.51804 416
55.53815 428
55.55827 399
55.57838 388
55.5985 385
55.61861 395
55.63872 369
55.65884 385
55.67895 397
55.69906 384
55.71918 355
55.73929 400
55.75941 377
55.77952 395
55.79963 382
55.81975 377
55.83986 374
55.85997 317
55.88009 348
55.9002 384
55.92031 385
55.94043 373
55.96054 360
55.98066 356
56.00077 367
56.02088 350
56.041 367
56.06111 335
56.08122 332
56.10134 352
56.12145 334
56.14157 361
56.16168 330
56.18179 359
56.20191 349
56.22202 356
56.24213 373
56.26225 339
56.28236 342
56.30248 351
56.32259 386
56.3427 357
56.36282 348
56.38293 334
56.40304 353
56.42316 342
56.44327 360
56.46338 350
56.4835 356
56.50361 358
56.52373 356
56.54384 349
56.56395 331
56.58407 340
56.60418 353
56.62429 357
56.64441 333
56.66452 384
56.68464 364
56.70475 350
56.72486 349
56.74498 354
56.76509 371
56.7852 366
56.80532 344
56.82543 347
56.84554 359
56.86566 334
56.88577 328
56.90589 383
56.926 378
56.94611 334
56.96623 367
56.98634 338
57.00645 325
57.02657 404
57.04668 339
57.0668 371
57.08691 342
57.10702 365
57.12714 355
57.14725 338
57.16736 371
57.18748 346
57.20759 371
57.22771 323
57.24782 349
57.26793 365
57.28805 352
57.30816 349
57.32827 343
57.34839 318
57.3685 331
57.38861 331
57.40873 352
57.42884 320
57.44896 329
57.46907 319
57.48918 327
57.5093 317
57.52941 350
57.54952 336
57.56964 332
57.58975 347
57.60987 336
57.62998 343
57.65009 362
57.67021 373
57.69032 337
57.71043 331
57.73055 345
57.75066 322
57.77078 322
57.79089 314
57.811 303
57.83112 335
57.85123 365
57.87134 328
57.89146 305
57.91157 318
57.93168 348
57.9518 294
57.97191 278
57.99203 358
58.01214 339
58.03225 352
58.05237 323
58.07248 322
58.09259 330
58.11271 327
58.13282 320
58.15294 303
58.17305 336
58.19316 337
58.21328 314
58.23339 299
58.2535 349
58.27362 345
58.29373 310
58.31385 306
58.33396 310
58.35407 321
58.37419 332
58.3943 346
58.41441 352
58.43453 307
58.45464 357
58.47475 314
58.49487 304
58.51498 308
58.5351 352
58.55521 356
58.57532 340
58.59544 331
58.61555 316
58.63566 313
58.65578 346
58.67589 337
58.69601 315
58.71612 319
58.73623 359
58.75635 326
58.77646 338
58.79657 335
58.81669 311
58.8368 303
58.85691 309
58.87703 341
58.89714 313
58.91726 330
58.93737 325
58.95748 333
58.9776 302
58.99771 328
59.01782 339
59.03794 330
59.05805 326
59.07817 349
59.09828 331
59.11839 338
59.13851 303
59.15862 345
59.17873 298
59.19885 324
59.21896 333
59.23908 353
59.25919 348
59.2793 311
59.29942 328
59.31953 383
59.33964 322
59.35976 383
59.37987 364
59.39998 370
59.4201 386
59.44021 402
59.46033 386
59.48044 406
59.50055 417
59.52067 424
59.54078 424
59.56089 451
59.58101 462
59.60112 437
59.62124 506
59.64135 503
59.66146 583
59.68158 615
59.70169 669
59.7218 703
59.74192 808
59.76203 876
59.78215 1015
59.80226 1130
59.82237 1210
59.84249 1274
59.8626 1350
59.88271 1367
59.90283 1367
59.92294 1267
59.94305 1092
59.96317 1011
59.98328 995
60.0034 961
60.02351 854
60.04362 837
60.06374 789
60.08385 698
60.10396 603
60.12408 531
60.14419 499
60.16431 400
60.18442 429
60.20453 375
60.22465 406
60.24476 376
60.26487 361
60.28499 384
60.3051 353
60.32522 348
60.34533 355
60.36544 353
60.38556 342
60.40567 393
60.42578 335
60.4459 336
60.46601 324
60.48612 344
60.50624 323
60.52635 330
60.54647 352
60.56658 333
60.58669 324
60.60681 326
60.62692 325
60.64703 320
60.66715 337
60.68726 339
60.70738 327
60.72749 320
60.7476 304
60.76772 316
60.78783 317
60.80794 316
60.82806 325
60.84817 321
60.86828 304
60.8884 288
60.90851 355
60.92863 297
60.94874 345
60.96885 337
60.98897 318
61.00908 314
61.02919 345
61.04931 319
61.06942 316
61.08954 299
61.10965 335
61.12976 284
61.14988 329
61.16999 308
61.1901 317
61.21022 323
61.23033 314
61.25045 341
61.27056 326
61.29067 317
61.31079 335
61.3309 313
61.35101 349
61.37113 309
61.39124 339
61.41135 341
61.43147 330
61.45158 333
61.4717 345
61.49181 319
61.51192 307
61.53204 341
61.55215 330
61.57226 318
61.59238 329
61.61249 392
61.63261 352
61.65272 330
61.67283 310
61.69295 359
61.71306 347
61.73317 360
61.75329 386
61.7734 342
61.79352 374
61.81363 389
61.83374 366
61.85386 370
61.87397 400
61.89408 417
61.9142 381
61.93431 398
61.95442 403
61.97454 428
61.99465 432
62.01477 420
62.03488 422
62.05499 430
62.07511 488
62.09522 482
62.11533 511
62.13545 450
62.15556 514
62.17568 501
62.19579 474
62.2159 484
62.23602 517
62.25613 491
62.27624 486
62.29636 523
62.31647 462
62.33659 485
62.3567 471
62.37681 461
62.39693 474
62.41704 434
62.43715 438
62.45727 417
62.47738 457
62.49749 425
62.51761 384
62.53772 419
62.55784 384
62.57795 379
62.59806 386
62.61818 376
62.63829 356
62.6584 353
62.67852 358
62.69863 366
62.71875 369
62.73886 342
62.75897 359
62.77909 341
62.7992 344
62.81931 352
62.83943 355
62.85954 348
62.87965 319
62.89977 350
62.91988 327
62.94 342
62.96011 326
62.98022 316
63.00034 312
63.02045 327
63.04056 323
63.06068 339
63.08079 347
63.10091 366
63.12102 313
63.14113 332
63.16125 338
63.18136 341
63.20147 351
63.22159 339
63.2417 330
63.26182 322
63.28193 334
63.30204 340
63.32216 372
63.34227 339
63.36238 352
63.3825 331
63.40261 356
63.42272 346
63.44284 340
63.46295 353
63.48307 362
63.50318 366
63.52329 329
63.54341 343
63.56352 319
63.58363 375
63.60375 344
63.62386 343
63.64398 368
63.66409 348
63.6842 384
63.70432 381
63.72443 398
63.74454 398
63.76466 429
63.78477 432
63.80489 436
63.825 442
63.84511 450
63.86523 499
63.88534 515
63.90545 534
63.92557 543
63.94568 526
63.96579 556
63.98591 525
64.00602 546
64.02614 431
64.04625 461
64.06636 429
64.08648 445
64.10659 456
64.1267 439
64.14682 434
64.16693 416
64.18705 380
64.20716 392
64.22727 392
64.24739 337
64.2675 382
64.28761 358
64.30773 317
64.32784 395
64.34796 339
64.36807 326
64.38818 307
64.4083 355
64.42841 345
64.44852 307
64.46864 348
64.48875 347
64.50886 324
64.52898 319
64.54909 320
64.56921 319
64.58932 317
64.60943 306
64.62955 351
64.64966 324
64.66977 333
64.68989 321
64.71 329
64.73012 299
64.75023 313
64.77034 333
64.79046 282
64.81057 305
64.83068 315
64.8508 288
64.87091 319
64.89102 321
64.91114 300
64.93125 328
64.95137 346
64.97148 324
64.99159 324
65.01171 317
65.03182 337
65.05193 293
65.07205 308
65.09216 314
65.11228 318
65.13239 300
65.1525 344
65.17262 289
65.19273 303
65.21284 301
65.23296 337
65.25307 315
65.27319 315
65.2933 327
65.31341 313
65.33353 328
65.35364 318
65.37375 318
65.39387 288
65.41398 322
65.43409 320
65.45421 336
65.47432 313
65.49444 336
65.51455 299
65.53466 313
65.55478 305
65.57489 315
65.595 336
65.61512 357
65.63523 345
65.65535 351
65.67546 348
65.69557 337
65.71569 358
65.7358 350
65.75591 361
65.77603 357
65.79614 318
65.81626 336
65.83637 303
65.85648 319
65.8766 353
65.89671 328
65.91682 336
65.93694 322
65.95705 337
65.97716 298
65.99728 270
66.01739 301
66.03751 298
66.05762 305
66.07773 304
66.09785 326
66.11796 296
66.13807 327
66.15819 318
66.1783 288
66.19842 309
66.21853 288
66.23864 323
66.25876 331
66.27887 322
66.29898 279
66.3191 321
66.33921 324
66.35933 296
66.37944 303
66.39955 323
66.41967 319
66.43978 283
66.45989 300
66.48001 310
66.50012 303
66.52023 264
66.54035 329
66.56046 328
66.58058 325
66.60069 277
66.6208 303
66.64092 316
66.66103 310
66.68114 284
66.70126 324
66.72137 316
66.74149 313
66.7616 292
66.78171 312
66.80183 317
66.82194 316
66.84205 297
66.86217 295
66.88228 282
66.90239 326
66.92251 327
66.94262 329
66.96274 332
66.98285 338
67.00296 318
67.02308 307
67.04319 317
67.0633 341
67.08342 310
67.10353 334
67.12365 339
67.14376 366
67.16387 334
67.18399 336
67.2041 355
67.22421 379
67.24433 347
67.26444 363
67.28456 392
67.30467 380
67.32478 365
67.3449 378
67.36501 419
67.38512 411
67.40524 431
67.42535 433
67.44546 418
67.46558 462
67.48569 507
67.50581 610
67.52592 592
67.54603 662
67.56615 714
67.58626 836
67.60637 880
67.62649 871
67.6466 932
67.66672 962
67.68683 930
67.70694 803
67.72706 798
67.74717 759
67.76728 719
67.7874 724
67.80751 737
67.82763 751
67.84774 764
67.86785 793
67.88797 812
67.90808 821
67.92819 874
67.94831 874
67.96842 897
67.98853 1036
68.00865 1066
68.02876 1166
68.04888 1189
68.06899 1161
68.0891 1194
68.10922 1130
68.12933 1115
68.14944 1099
68.16956 1048
68.18967 1068
68.20979 1040
68.2299 1082
68.25001 1045
68.27013 974
68.29024 861
68.31035 765
68.33047 720
68.35058 646
68.3707 630
68.39081 608
68.41092 577
68.43104 526
68.45115 498
68.47126 468
68.49138 416
68.51149 390
68.5316 367
68.55172 359
68.57183 329
68.59195 380
68.61206 328
68.63217 337
68.65229 317
68.6724 322
68.69251 323
68.71263 328
68.73274 314
68.75286 325
68.77297 315
68.79308 308
68.8132 298
68.83331 324
68.85342 311
68.87354 315
68.89365 293
68.91376 305
68.93388 316
68.95399 317
68.97411 312
68.99422 293
69.01433 323
69.03445 321
69.05456 305
69.07467 322
69.09479 335
69.1149 309
69.13502 285
69.15513 302
69.17524 322
69.19536 267
69.21547 298
69.23558 296
69.2557 294
69.27581 290
69.29593 282
69.31604 271
69.33615 299
69.35627 287
69.37638 313
69.39649 283
69.41661 305
69.43672 285
69.45683 314
69.47695 312
69.49706 294
69.51718 298
69.53729 324
69.5574 285
69.57752 299
69.59763 361
69.61774 287
69.63786 320
69.65797 322
69.67809 343
69.6982 303
69.71831 314
69.73843 328
69.75854 299
69.77865 325
69.79877 280
69.81888 307
69.839 310
69.85911 306
69.87922 337
69.89934 299
69.91945 323
69.93956 293
69.95968 329
69.97979 299
69.9999 309
70.02002 322
70.04013 309
70.06025 312
70.08036 309
70.10047 309
70.12059 312
70.1407 283
70.16081 311
70.18093 302
70.20104 287
70.22116 308
70.24127 288
70.26138 305
70.2815 313
70.30161 279
70.32172 311
70.34184 304
70.36195 330
70.38207 288
70.40218 299
70.42229 300
70.44241 274
70.46252 300
70.48263 287
70.50275 300
70.52286 273
70.54297 298
70.56309 295
70.5832 275
70.60332 291
70.62343 286
70.64354 310
70.66366 288
70.68377 291
70.70388 288
70.724 264
70.74411 317
70.76423 270
70.78434 305
70.80445 279
70.82457 267
70.84468 288
70.86479 301
70.88491 271
70.90502 275
70.92513 320
70.94525 287
70.96536 285
70.98548 270
71.00559 280
71.0257 279
71.04582 266
71.06593 301
71.08604 320
71.10616 277
71.12627 308
71.14639 261
71.1665 287
71.18661 298
71.20673 277
71.22684 269
71.24695 286
71.26707 271
71.28718 328
71.3073 291
71.32741 297
71.34752 318
71.36764 265
71.38775 275
71.40786 299
71.42798 289
71.44809 289
71.4682 319
71.48832 288
71.50843 280
71.52855 286
71.54866 302
71.56877 309
71.58889 304
71.609 291
71.62911 293
71.64923 300
71.66934 333
71.68946 268
71.70957 309
71.72968 306
71.7498 304
71.76991 306
71.79002 318
71.81014 306
71.83025 316
71.85037 312
71.87048 268
71.89059 306
71.91071 306
71.93082 296
71.95093 343
71.97105 318
71.99116 304
72.01127 312
72.03139 291
72.0515 304
72.07162 310
72.09173 294
72.11184 296
72.13196 298
72.15207 288
72.17218 299
72.1923 322
72.21241 282
72.23253 282
72.25264 309
72.27275 293
72.29287 311
72.31298 312
72.33309 321
72.35321 306
72.37332 288
72.39344 289
72.41355 291
72.43366 318
72.45378 314
72.47389 322
72.494 304
72.51412 309
72.53423 279
72.55434 280
72.57446 278
72.59457 287
72.61469 308
72.6348 314
72.65491 296
72.67503 275
72.69514 278
72.71525 283
72.73537 301
72.75548 288
72.7756 306
72.79571 309
72.81582 300
72.83594 331
72.85605 315
72.87616 300
72.89628 303
72.91639 292
72.9365 316
72.95662 309
72.97673 305
72.99685 280
73.01696 301
73.03707 353
73.05719 332
73.0773 332
73.09741 360
73.11753 319
73.13764 359
73.15776 350
73.17787 356
73.19798 375
73.2181 375
73.23821 387
73.25832 396
73.27844 420
73.29855 450
73.31867 496
73.33878 453
73.35889 545
73.37901 521
73.39912 517
73.41923 455
73.43935 446
73.45946 415
73.47957 411
73.49969 402
73.5198 395
73.53992 466
73.56003 399
73.58014 419
73.60026 417
73.62037 394
73.64048 370
73.6606 398
73.68071 356
73.70083 352
73.72094 330
73.74105 354
73.76117 311
73.78128 315
73.80139 310
73.82151 290
73.84162 304
73.86174 296
73.88185 299
73.90196 310
73.92208 293
73.94219 313
73.9623 259
73.98242 302
74.00253 279
74.02264 285
74.04276 298
74.06287 320
74.08299 284
74.1031 314
74.12321 280
74.14333 299
74.16344 305
74.18355 292
74.20367 295
74.22378 260
74.2439 301
74.26401 287
74.28412 296
74.30424 292
74.32435 276
74.34446 306
74.36458 251
74.38469 285
74.40481 276
74.42492 253
74.44503 249
74.46515 278
74.48526 291
74.50537 262
74.52549 287
74.5456 313
74.56571 295
74.58583 310
74.60594 286
74.62606 269
74.64617 303
74.66628 303
74.6864 312
74.70651 289
74.72662 286
74.74674 308
74.76685 306
74.78697 327
74.80708 268
74.82719 277
74.84731 243
74.86742 303
74.88753 338
74.90765 271
74.92776 318
74.94787 278
74.96799 292
74.9881 278
75.00822 285
