3.00117 21572
3.02128 20275
3.0414 20179
3.06151 19948
3.08162 19117
3.10174 18651
3.12185 17930
3.14197 17911
3.16208 16909
3.18219 16725
3.20231 16226
3.22242 15523
3.24253 15364
3.26265 14568
3.28276 14324
3.30288 13947
3.32299 13527
3.3431 13419
3.36322 12687
3.38333 12449
3.40344 11820
3.42356 11323
3.44367 11546
3.46379 10731
3.4839 10669
3.50401 10365
3.52413 9752
3.54424 9709
3.56435 9244
3.58447 8910
3.60458 8507
3.62469 8253
3.64481 8088
3.66492 7630
3.68504 7588
3.70515 6956
3.72526 6981
3.74538 6942
3.76549 6403
3.7856 6251
3.80572 5743
3.82583 5759
3.84595 5742
3.86606 5462
3.88617 5153
3.90629 5025
3.9264 4763
3.94651 4695
3.96663 4422
3.98674 4197
4.00686 4263
4.02697 3897
4.04708 3909
4.0672 3771
4.08731 3550
4.10742 3383
4.12754 3235
4.14765 3367
4.16776 3206
4.18788 3081
4.20799 2909
4.22811 2801
4.24822 2731
4.26833 2776
4.28845 2596
4.30856 2470
4.32867 2399
4.34879 2411
4.3689 2364
4.38902 2381
4.40913 2279
4.42924 2162
4.44936 2312
4.46947 2227
4.48958 2147
4.5097 2160
4.52981 2055
4.54992 1966
4.57004 1943
4.59015 1999
4.61027 1919
4.63038 1953
4.65049 1900
4.67061 1924
4.69072 1795
4.71083 1771
4.73095 1753
4.75106 1799
4.77118 1816
4.79129 1744
4.8114 1742
4.83152 1717
4.85163 1696
4.87174 1626
4.89186 1601
4.91197 1537
4.93209 1617
4.9522 1638
4.97231 1475
4.99243 1565
5.01254 1527
5.03265 1540
5.05277 1468
5.07288 1568
5.09299 1418
5.11311 1445
5.13322 1536
5.15334 1564
5.17345 1449
5.19356 1329
5.21368 1405
5.23379 1315
5.2539 1367
5.27402 1394
5.29413 1311
5.31425 1373
5.33436 1373
5.35447 1357
5.37459 1303
5.3947 1243
5.41481 1254
5.43493 1292
5.45504 1267
5.47516 1313
5.49527 1263
5.51538 1211
5.5355 1282
5.55561 1251
5.57572 1251
5.59584 1282
5.61595 1241
5.63606 1174
5.65618 1234
5.67629 1290
5.69641 1233
5.71652 1174
5.73663 1186
5.75675 1220
5.77686 1168
5.79697 1185
5.81709 1127
5.8372 1129
5.85732 1168
5.87743 1174
5.89754 1074
5.91766 1156
5.93777 1081
5.95788 1127
5.978 1059
5.99811 1066
6.01823 1085
6.03834 1066
6.05845 1045
6.07857 1088
6.09868 999
6.11879 1002
6.13891 1004
6.15902 1049
6.17913 989
6.19925 1008
6.21936 977
6.23948 970
6.25959 1013
6.2797 953
6.29982 988
6.31993 930
6.34004 956
6.36016 969
6.38027 996
6.40039 947
6.4205 942
6.44061 910
6.46073 956
6.48084 865
6.50095 948
6.52107 974
6.54118 895
6.56129 820
6.58141 839
6.60152 847
6.62164 872
6.64175 837
6.66186 911
6.68198 890
6.70209 863
6.7222 851
6.74232 890
6.76243 806
6.78255 810
6.80266 868
6.82277 825
6.84289 804
6.863 794
6.88311 786
6.90323 826
6.92334 745
6.94346 781
6.96357 783
6.98368 747
7.0038 739
7.02391 747
7.04402 785
7.06414 801
7.08425 776
7.10436 688
7.12448 690
7.14459 707
7.16471 719
7.18482 742
7.20493 757
7.22505 761
7.24516 693
7.26527 740
7.28539 658
7.3055 678
7.32562 694
7.34573 662
7.36584 678
7.38596 693
7.40607 722
7.42618 676
7.4463 663
7.46641 691
7.48653 725
7.50664 706
7.52675 694
7.54687 701
7.56698 613
7.58709 659
7.60721 679
7.62732 669
7.64743 619
7.66755 627
7.68766 656
7.70778 643
7.72789 644
7.748 676
7.76812 656
7.78823 685
7.80834 605
7.82846 690
7.84857 666
7.86869 617
7.8888 611
7.90891 642
7.92903 639
7.94914 625
7.96925 624
7.98937 597
8.00948 586
8.0296 664
8.04971 577
8.06982 659
8.08994 604
8.11005 600
8.13016 644
8.15028 610
8.17039 629
8.1905 650
8.21062 637
8.23073 659
8.25085 659
8.27096 577
8.29107 569
8.31119 604
8.3313 640
8.35141 644
8.37153 604
8.39164 605
8.41176 592
8.43187 662
8.45198 600
8.4721 630
8.49221 643
8.51232 605
8.53244 597
8.55255 605
8.57266 636
8.59278 615
8.61289 658
8.63301 620
8.65312 661
8.67323 641
8.69335 699
8.71346 697
8.73357 604
8.75369 648
8.7738 644
8.79392 620
8.81403 638
8.83414 652
8.85426 634
8.87437 605
8.89448 616
8.9146 585
8.93471 620
8.95483 558
8.97494 591
8.99505 579
9.01517 568
9.03528 548
9.05539 549
9.07551 538
9.09562 567
9.11573 617
9.13585 567
9.15596 544
9.17608 504
9.19619 533
9.2163 494
9.23642 521
9.25653 559
9.27664 518
9.29676 552
9.31687 539
9.33699 495
9.3571 569
9.37721 537
9.39733 503
9.41744 541
9.43755 531
9.45767 534
9.47778 543
9.4979 500
9.51801 511
9.53812 521
9.55824 547
9.57835 563
9.59846 499
9.61858 502
9.63869 520
9.6588 505
9.67892 501
9.69903 524
9.71915 476
9.73926 495
9.75937 498
9.77949 540
9.7996 484
9.81971 520
9.83983 514
9.85994 505
9.88006 501
9.90017 494
9.92028 501
9.9404 536
9.96051 504
9.98062 502
10.00074 471
10.02085 477
10.04097 481
10.06108 491
10.08119 478
10.10131 492
10.12142 450
10.14153 472
10.16165 526
10.18176 518
10.20187 504
10.22199 522
10.2421 516
10.26222 478
10.28233 470
10.30244 461
10.32256 495
10.34267 526
10.36278 505
10.3829 540
10.40301 506
10.42313 494
10.44324 477
10.46335 510
10.48347 483
10.50358 470
10.52369 474
10.54381 533
10.56392 490
10.58403 476
10.60415 521
10.62426 463
10.64438 528
10.66449 508
10.6846 465
10.70472 470
10.72483 508
10.74494 482
10.76506 491
10.78517 506
10.80529 488
10.8254 464
10.84551 508
10.86563 507
10.88574 556
10.90585 471
10.92597 521
10.94608 493
10.9662 472
10.98631 495
11.00642 513
11.02654 501
11.04665 557
11.06676 474
11.08688 508
11.10699 525
11.1271 532
11.14722 547
11.16733 557
11.18745 471
11.20756 557
11.22767 539
11.24779 493
11.2679 454
11.28801 514
11.30813 530
11.32824 561
11.34836 530
11.36847 590
11.38858 529
11.4087 512
11.42881 569
11.44892 490
11.46904 518
11.48915 535
11.50927 603
11.52938 530
11.54949 575
11.56961 549
11.58972 539
11.60983 536
11.62995 509
11.65006 575
11.67017 533
11.69029 547
11.7104 570
11.73052 559
11.75063 608
11.77074 606
11.79086 601
11.81097 598
11.83108 593
11.8512 547
11.87131 643
11.89143 640
11.91154 636
11.93165 634
11.95177 619
11.97188 651
11.99199 641
12.01211 691
12.03222 643
12.05234 698
12.07245 644
12.09256 664
12.11268 673
12.13279 691
12.1529 763
12.17302 749
12.19313 745
12.21324 746
12.23336 763
12.25347 724
12.27359 768
12.2937 723
12.31381 690
12.33393 688
12.35404 740
12.37415 720
12.39427 636
12.41438 631
12.4345 637
12.45461 576
12.47472 591
12.49484 582
12.51495 566
12.53506 508
12.55518 582
12.57529 517
12.5954 527
12.61552 526
12.63563 549
12.65575 481
12.67586 551
12.69597 527
12.71609 507
12.7362 470
12.75631 472
12.77643 494
12.79654 456
12.81666 476
12.83677 492
12.85688 453
12.877 460
12.89711 508
12.91722 452
12.93734 454
12.95745 426
12.97757 436
12.99768 433
13.01779 440
13.03791 449
13.05802 458
13.07813 465
13.09825 433
13.11836 468
13.13847 446
13.15859 437
13.1787 423
13.19882 439
13.21893 440
13.23904 444
13.25916 406
13.27927 386
13.29938 435
13.3195 390
13.33961 411
13.35973 416
13.37984 388
13.39995 426
13.42007 459
13.44018 380
13.46029 417
13.48041 421
13.50052 409
13.52064 411
13.54075 416
13.56086 443
13.58098 409
13.60109 438
13.6212 390
13.64132 426
13.66143 393
13.68154 421
13.70166 411
13.72177 432
13.74189 387
13.762 440
13.78211 414
13.80223 427
13.82234 401
13.84245 382
13.86257 402
13.88268 404
13.9028 405
13.92291 394
13.94302 398
13.96314 388
13.98325 399
14.00336 410
14.02348 417
14.04359 339
14.06371 397
14.08382 367
14.10393 405
14.12405 421
14.14416 401
14.16427 442
14.18439 391
14.2045 391
14.22461 370
14.24473 428
14.26484 387
14.28496 414
14.30507 399
14.32518 421
14.3453 409
14.36541 386
14.38552 406
14.40564 381
14.42575 356
14.44587 390
14.46598 371
14.48609 386
14.50621 391
14.52632 405
14.54643 384
14.56655 371
14.58666 381
14.60677 386
14.62689 385
14.647 404
14.66712 386
14.68723 388
14.70734 369
14.72746 385
14.74757 388
14.76768 391
14.7878 405
14.80791 430
14.82803 414
14.84814 410
14.86825 392
14.88837 427
14.90848 403
14.92859 433
14.94871 403
14.96882 376
14.98894 395
15.00905 395
15.02916 389
15.04928 398
15.06939 392
15.0895 363
15.10962 407
15.12973 393
15.14984 407
15.16996 369
15.19007 454
15.21019 418
15.2303 369
15.25041 383
15.27053 416
15.29064 402
15.31075 392
15.33087 358
15.35098 383
15.3711 393
15.39121 367
15.41132 408
15.43144 399
15.45155 371
15.47166 382
15.49178 406
15.51189 406
15.53201 356
15.55212 406
15.57223 401
15.59235 387
15.61246 434
15.63257 404
15.65269 412
15.6728 412
15.69291 374
15.71303 379
15.73314 389
15.75326 404
15.77337 389
15.79348 391
15.8136 383
15.83371 394
15.85382 401
15.87394 377
15.89405 379
15.91417 424
15.93428 414
15.95439 390
15.97451 439
15.99462 357
16.01473 383
16.03485 381
16.05496 434
16.07508 415
16.09519 400
16.1153 409
16.13542 381
16.15553 385
16.17564 379
16.19576 414
16.21587 399
16.23598 392
16.2561 367
16.27621 385
16.29633 376
16.31644 372
16.33655 420
16.35667 391
16.37678 414
16.39689 376
16.41701 423
16.43712 388
16.45724 412
16.47735 380
16.49746 435
16.51758 434
16.53769 379
16.5578 397
16.57792 399
16.59803 386
16.61814 385
16.63826 379
16.65837 393
16.67849 406
16.6986 342
16.71871 419
16.73883 402
16.75894 389
16.77905 398
16.79917 385
16.81928 391
16.8394 387
16.85951 379
16.87962 353
16.89974 427
16.91985 442
16.93996 420
16.96008 378
16.98019 427
17.00031 403
17.02042 393
17.04053 400
17.06065 409
17.08076 435
17.10087 405
17.12099 426
17.1411 435
17.16121 425
17.18133 433
17.20144 413
17.22156 404
17.24167 436
17.26178 396
17.2819 428
17.30201 406
17.32212 421
17.34224 399
17.36235 439
17.38247 417
17.40258 430
17.42269 424
17.44281 390
17.46292 408
17.48303 422
17.50315 391
17.52326 460
17.54338 436
17.56349 412
17.5836 420
17.60372 446
17.62383 460
17.64394 439
17.66406 461
17.68417 450
17.70428 457
17.7244 407
17.74451 407
17.76463 402
17.78474 422
17.80485 449
17.82497 443
17.84508 447
17.86519 436
17.88531 410
17.90542 409
17.92554 446
17.94565 382
17.96576 424
17.98588 434
18.00599 432
18.0261 425
18.04622 433
18.06633 437
18.08645 462
18.10656 447
18.12667 433
18.14679 440
18.1669 398
18.18701 384
18.20713 429
18.22724 415
18.24735 395
18.26747 438
18.28758 447
18.3077 431
18.32781 444
18.34792 431
18.36804 426
18.38815 426
18.40826 421
18.42838 417
18.44849 413
18.46861 458
18.48872 437
18.50883 437
18.52895 422
18.54906 385
18.56917 459
18.58929 410
18.6094 410
18.62951 440
18.64963 441
18.66974 447
18.68986 469
18.70997 475
18.73008 422
18.7502 456
18.77031 488
18.79042 446
18.81054 461
18.83065 445
18.85077 424
18.87088 486
18.89099 418
18.91111 482
18.93122 444
18.95133 440
18.97145 472
18.99156 472
19.01168 499
19.03179 478
19.0519 480
19.07202 479
19.09213 474
19.11224 494
19.13236 479
19.15247 509
19.17258 497
19.1927 556
19.21281 496
19.23293 563
19.25304 513
19.27315 594
19.29327 570
19.31338 577
19.33349 634
19.35361 588
19.37372 614
19.39384 638
19.41395 684
19.43406 654
19.45418 722
19.47429 798
19.4944 826
19.51452 827
19.53463 905
19.55475 896
19.57486 941
19.59497 963
19.61509 1070
19.6352 1121
19.65531 1180
19.67543 1220
19.69554 1240
19.71565 1299
19.73577 1314
19.75588 1407
19.776 1379
19.79611 1429
19.81622 1405
19.83634 1370
19.85645 1427
19.87656 1345
19.89668 1371
19.91679 1299
19.93691 1216
19.95702 1223
19.97713 1225
19.99725 1206
20.01736 1170
20.03747 1157
20.05759 1171
20.0777 1169
20.09782 1084
20.11793 1106
20.13804 1089
20.15816 1058
20.17827 1101
20.19838 1117
20.2185 1120
20.23861 1005
20.25872 1008
20.27884 970
20.29895 1048
20.31907 1037
20.33918 1050
20.35929 1013
20.37941 1040
20.39952 973
20.41963 1001
20.43975 1000
20.45986 997
20.47998 1014
20.50009 1045
20.5202 1011
20.54032 1009
20.56043 1019
20.58054 1058
20.60066 1006
20.62077 1050
20.64088 1055
20.661 1163
20.68111 1357
20.70123 1397
20.72134 1447
20.74145 1687
20.76157 1865
20.78168 1857
20.80179 1804
20.82191 1896
20.84202 1679
20.86214 1517
20.88225 1317
20.90236 1224
20.92248 1112
20.94259 1025
20.9627 942
20.98282 942
21.00293 908
21.02305 915
21.04316 850
21.06327 859
21.08339 873
21.1035 804
21.12361 794
21.14373 847
21.16384 821
21.18395 873
21.20407 862
21.22418 780
21.2443 864
21.26441 794
21.28452 815
21.30464 807
21.32475 824
21.34486 799
21.36498 803
21.38509 758
21.40521 806
21.42532 897
21.44543 781
21.46555 780
21.48566 780
21.50577 744
21.52589 799
21.546 807
21.56612 784
21.58623 709
21.60634 775
21.62646 747
21.64657 759
21.66668 782
21.6868 759
21.70691 769
21.72702 778
21.74714 789
21.76725 742
21.78737 722
21.80748 737
21.82759 731
21.84771 835
21.86782 764
21.88793 786
21.90805 761
21.92816 764
21.94828 788
21.96839 731
21.9885 741
22.00862 766
22.02873 739
22.04884 727
22.06896 750
22.08907 741
22.10919 688
22.1293 765
22.14941 736
22.16953 700
22.18964 744
22.20975 741
22.22987 746
22.24998 708
22.27009 709
22.29021 642
22.31032 690
22.33044 710
22.35055 715
22.37066 741
22.39078 725
22.41089 703
22.431 727
22.45112 665
22.47123 732
22.49135 696
22.51146 750
22.53157 677
22.55169 717
22.5718 714
22.59191 651
22.61203 729
22.63214 681
22.65225 704
22.67237 689
22.69248 675
22.7126 725
22.73271 730
22.75282 725
22.77294 722
22.79305 661
22.81316 727
22.83328 698
22.85339 667
22.87351 651
22.89362 691
22.91373 782
22.93385 687
22.95396 716
22.97407 676
22.99419 682
23.0143 669
23.03442 713
23.05453 697
23.07464 698
23.09476 643
23.11487 694
23.13498 660
23.1551 692
23.17521 683
23.19532 672
23.21544 709
23.23555 683
23.25567 656
23.27578 664
23.29589 715
23.31601 670
23.33612 717
23.35623 666
23.37635 689
23.39646 671
23.41658 680
23.43669 690
23.4568 649
23.47692 670
23.49703 704
23.51714 686
23.53726 696
23.55737 718
23.57749 761
23.5976 671
23.61771 675
23.63783 704
23.65794 709
23.67805 669
23.69817 681
23.71828 705
23.73839 674
23.75851 688
23.77862 670
23.79874 685
23.81885 674
23.83896 675
23.85908 654
23.87919 660
23.8993 750
23.91942 668
23.93953 680
23.95965 628
23.97976 728
23.99987 683
24.01999 656
24.0401 710
24.06021 695
24.08033 639
24.10044 709
24.12056 750
24.14067 739
24.16078 710
24.1809 655
24.20101 742
24.22112 706
24.24124 690
24.26135 702
24.28146 732
24.30158 657
24.32169 690
24.34181 712
24.36192 662
24.38203 686
24.40215 729
24.42226 675
24.44237 719
24.46249 684
24.4826 730
24.50272 771
24.52283 729
24.54294 794
24.56306 723
24.58317 775
24.60328 801
24.6234 798
24.64351 828
24.66362 859
24.68374 853
24.70385 798
24.72397 826
24.74408 877
24.76419 820
24.78431 833
24.80442 876
24.82453 842
24.84465 868
24.86476 896
24.88488 870
24.90499 846
24.9251 849
24.94522 862
24.96533 908
24.98544 811
25.00556 819
25.02567 824
25.04579 808
25.0659 763
25.08601 864
25.10613 793
25.12624 812
25.14635 932
25.16647 855
25.18658 848
25.20669 896
25.22681 864
25.24692 878
25.26704 814
25.28715 853
25.30726 818
25.32738 799
25.34749 796
25.3676 861
25.38772 783
25.40783 796
25.42795 785
25.44806 794
25.46817 709
25.48829 757
25.5084 764
25.52851 763
25.54863 790
25.56874 784
25.58886 719
25.60897 662
25.62908 707
25.6492 697
25.66931 727
25.68942 748
25.70954 733
25.72965 703
25.74976 729
25.76988 665
25.78999 729
25.81011 712
25.83022 680
25.85033 697
25.87045 691
25.89056 712
25.91067 737
25.93079 724
25.9509 678
25.97102 769
25.99113 725
26.01124 709
26.03136 713
26.05147 722
26.07158 754
26.0917 703
26.11181 738
26.13193 730
26.15204 776
26.17215 828
26.19227 785
26.21238 846
26.23249 851
26.25261 843
26.27272 891
26.29283 1013
26.31295 1049
26.33306 1151
26.35318 1232
26.37329 1374
26.3934 1505
26.41352 1788
26.43363 2237
26.45374 2638
26.47386 3131
26.49397 3760
26.51409 4490
26.5342 4978
26.55431 5359
26.57443 5523
26.59454 5261
26.61465 4743
26.63477 4084
26.65488 3230
26.67499 2529
26.69511 1891
26.71522 1526
26.73534 1285
26.75545 1108
26.77556 957
26.79568 897
26.81579 915
26.8359 822
26.85602 844
26.87613 776
26.89625 788
26.91636 757
26.93647 818
26.95659 725
26.9767 755
26.99681 732
27.01693 742
27.03704 674
27.05716 705
27.07727 674
27.09738 692
27.1175 684
27.13761 700
27.15772 678
27.17784 673
27.19795 649
27.21806 633
27.23818 631
27.25829 660
27.27841 705
27.29852 731
27.31863 666
27.33875 736
27.35886 710
27.37897 721
27.39909 743
27.4192 697
27.43932 723
27.45943 713
27.47954 684
27.49966 673
27.51977 628
27.53988 613
27.56 651
27.58011 629
27.60023 601
27.62034 652
27.64045 649
27.66057 631
27.68068 667
27.70079 648
27.72091 621
27.74102 688
27.76113 628
27.78125 647
27.80136 647
27.82148 645
27.84159 651
27.8617 634
27.88182 624
27.90193 648
27.92204 591
27.94216 577
27.96227 597
27.98239 607
28.0025 586
28.02261 554
28.04273 614
28.06284 532
28.08295 577
28.10307 590
28.12318 594
28.1433 574
28.16341 543
28.18352 586
28.20364 574
28.22375 535
28.24386 551
28.26398 531
28.28409 530
28.3042 550
28.32432 515
28.34443 543
28.36455 553
28.38466 582
28.40477 509
28.42489 551
28.445 538
28.46511 550
28.48523 525
28.50534 552
28.52546 602
28.54557 539
28.56568 514
28.5858 502
28.60591 561
28.62602 533
28.64614 534
28.66625 541
28.68636 514
28.70648 518
28.72659 566
28.74671 527
28.76682 523
28.78693 520
28.80705 492
28.82716 554
28.84727 531
28.86739 526
28.8875 486
28.90762 498
28.92773 519
28.94784 487
28.96796 500
28.98807 491
29.00818 523
29.0283 497
29.04841 502
29.06853 510
29.08864 508
29.10875 514
29.12887 486
29.14898 524
29.16909 484
29.18921 490
29.20932 518
29.22943 504
29.24955 488
29.26966 502
29.28978 498
29.30989 542
29.33 493
29.35012 519
29.37023 507
29.39034 533
29.41046 521
29.43057 537
29.45069 477
29.4708 498
29.49091 477
29.51103 556
29.53114 519
29.55125 513
29.57137 540
29.59148 492
29.6116 523
29.63171 518
29.65182 532
29.67194 538
29.69205 489
29.71216 520
29.73228 495
29.75239 569
29.7725 566
29.79262 500
29.81273 534
29.83285 515
29.85296 575
29.87307 500
29.89319 500
29.9133 495
29.93341 512
29.95353 542
29.97364 524
29.99376 512
30.01387 519
30.03398 533
30.0541 490
30.07421 530
30.09432 515
30.11444 504
30.13455 537
30.15467 518
30.17478 492
30.19489 491
30.21501 512
30.23512 477
30.25523 482
30.27535 474
30.29546 487
30.31557 474
30.33569 478
30.3558 500
30.37592 509
30.39603 500
30.41614 521
30.43626 464
30.45637 440
30.47648 481
30.4966 456
30.51671 513
30.53683 491
30.55694 459
30.57705 459
30.59717 486
30.61728 494
30.63739 548
30.65751 469
30.67762 464
30.69773 482
30.71785 469
30.73796 467
30.75808 452
30.77819 476
30.7983 506
30.81842 469
30.83853 474
30.85864 486
30.87876 493
30.89887 463
30.91899 497
30.9391 483
30.95921 472
30.97933 472
30.99944 450
31.01955 446
31.03967 457
31.05978 474
31.0799 472
31.10001 450
31.12012 466
31.14024 438
31.16035 482
31.18046 491
31.20058 450
31.22069 443
31.2408 462
31.26092 448
31.28103 443
31.30115 419
31.32126 438
31.34137 473
31.36149 437
31.3816 453
31.40171 398
31.42183 427
31.44194 414
31.46206 419
31.48217 470
31.50228 442
31.5224 442
31.54251 453
31.56262 436
31.58274 442
31.60285 430
31.62297 441
31.64308 430
31.66319 442
31.68331 385
31.70342 454
31.72353 418
31.74365 459
31.76376 423
31.78387 407
31.80399 426
31.8241 460
31.84422 471
31.86433 458
31.88444 436
31.90456 451
31.92467 426
31.94478 462
31.9649 452
31.98501 436
32.00513 454
32.02524 443
32.04535 433
32.06547 445
32.08558 409
32.10569 427
32.12581 420
32.14592 401
32.16604 431
32.18615 419
32.20626 440
32.22638 421
32.24649 454
32.2666 418
32.28672 398
32.30683 440
32.32694 423
32.34706 415
32.36717 404
32.38729 416
32.4074 418
32.42751 430
32.44763 426
32.46774 393
32.48785 408
32.50797 404
32.52808 355
32.5482 370
32.56831 390
32.58842 372
32.60854 408
32.62865 406
32.64876 428
32.66888 384
32.68899 416
32.7091 418
32.72922 414
32.74933 414
32.76945 441
32.78956 408
32.80967 448
32.82979 403
32.8499 370
32.87001 390
32.89013 401
32.91024 385
32.93036 404
32.95047 374
32.97058 405
32.9907 385
33.01081 411
33.03092 411
33.05104 388
33.07115 420
33.09127 428
33.11138 428
33.13149 378
33.15161 451
33.17172 392
33.19183 399
33.21195 405
33.23206 371
33.25217 431
33.27229 388
33.2924 393
33.31252 359
33.33263 378
33.35274 400
33.37286 413
33.39297 441
33.41308 409
33.4332 399
33.45331 409
33.47343 396
33.49354 396
33.51365 406
33.53377 420
33.55388 408
33.57399 400
33.59411 408
33.61422 413
33.63434 443
33.65445 409
33.67456 378
33.69468 406
33.71479 403
33.7349 425
33.75502 449
33.77513 418
33.79524 425
33.81536 457
33.83547 422
33.85559 418
33.8757 467
33.89581 413
33.91593 467
33.93604 468
33.95615 452
33.97627 445
33.99638 470
34.0165 465
34.03661 468
34.05672 482
34.07684 496
34.09695 500
34.11706 474
34.13718 534
34.15729 551
34.17741 559
34.19752 554
34.21763 570
34.23775 540
34.25786 580
34.27797 591
34.29809 557
34.3182 579
34.33831 615
34.35843 549
34.37854 582
34.39866 629
34.41877 587
34.43888 597
34.459 627
34.47911 650
34.49922 599
34.51934 668
34.53945 632
34.55957 695
34.57968 636
34.59979 684
34.61991 723
34.64002 748
34.66013 746
34.68025 787
34.70036 763
34.72047 783
34.74059 768
34.7607 818
34.78082 828
34.80093 824
34.82104 859
34.84116 931
34.86127 821
34.88138 844
34.9015 800
34.92161 827
34.94173 863
34.96184 853
34.98195 809
35.00207 755
35.02218 852
35.04229 851
35.06241 754
35.08252 737
35.10264 731
35.12275 678
35.14286 718
35.16298 711
35.18309 691
35.2032 709
35.22332 708
35.24343 630
35.26354 667
35.28366 623
35.30377 654
35.32389 635
35.344 681
35.36411 685
35.38423 628
35.40434 628
35.42445 699
35.44457 645
35.46468 681
35.4848 679
35.50491 651
35.52502 633
35.54514 676
35.56525 666
35.58536 679
35.60548 611
35.62559 632
35.64571 708
35.66582 666
35.68593 708
35.70605 672
35.72616 647
35.74627 746
35.76639 665
35.7865 655
35.80661 655
35.82673 660
35.84684 739
35.86696 607
35.88707 649
35.90718 692
35.9273 596
35.94741 646
35.96752 675
35.98764 606
36.00775 623
36.02787 640
36.04798 605
36.06809 624
36.08821 628
36.10832 625
36.12843 592
36.14855 576
36.16866 628
36.18878 618
36.20889 613
36.229 652
36.24912 682
36.26923 655
36.28934 689
36.30946 699
36.32957 697
36.34968 756
36.3698 808
36.38991 855
36.41003 791
36.43014 850
36.45025 868
36.47037 882
36.49048 871
36.51059 843
36.53071 788
36.55082 730
36.57094 783
36.59105 712
36.61116 655
36.63128 675
36.65139 645
36.6715 648
36.69162 629
36.71173 585
36.73184 610
36.75196 561
36.77207 600
36.79219 550
36.8123 606
36.83241 570
36.85253 601
36.87264 598
36.89275 565
36.91287 584
36.93298 612
36.9531 595
36.97321 590
36.99332 591
37.01344 640
37.03355 577
37.05366 570
37.07378 575
37.09389 543
37.11401 628
37.13412 588
37.15423 601
37.17435 609
37.19446 579
37.21457 590
37.23469 569
37.2548 575
37.27491 627
37.29503 543
37.31514 587
37.33526 605
37.35537 587
37.37548 551
37.3956 607
37.41571 582
37.43582 580
37.45594 609
37.47605 632
37.49617 595
37.51628 612
37.53639 659
37.55651 572
37.57662 594
37.59673 644
37.61685 645
37.63696 606
37.65708 618
37.67719 616
37.6973 627
37.71742 626
37.73753 645
37.75764 577
37.77776 601
37.79787 645
37.81798 677
37.8381 631
37.85821 619
37.87833 595
37.89844 591
37.91855 643
37.93867 576
37.95878 579
37.97889 606
37.99901 602
38.01912 609
38.03924 558
38.05935 581
38.07946 614
38.09958 577
38.11969 590
38.1398 564
38.15992 581
38.18003 600
38.20015 615
38.22026 650
38.24037 626
38.26049 669
38.2806 648
38.30071 628
38.32083 657
38.34094 605
38.36105 600
38.38117 604
38.40128 623
38.4214 643
38.44151 627
38.46162 636
38.48174 566
38.50185 540
38.52196 589
38.54208 599
38.56219 582
38.58231 576
38.60242 609
38.62253 559
38.64265 555
38.66276 565
38.68287 564
38.70299 547
38.7231 597
38.74321 554
38.76333 562
38.78344 550
38.80356 555
38.82367 550
38.84378 535
38.8639 528
38.88401 481
38.90412 513
38.92424 580
38.94435 522
38.96447 572
38.98458 544
39.00469 544
39.02481 525
39.04492 524
39.06503 558
39.08515 517
39.10526 536
39.12538 576
39.14549 542
39.1656 584
39.18572 589
39.20583 598
39.22594 609
39.24606 589
39.26617 593
39.28628 639
39.3064 680
39.32651 710
39.34663 748
39.36674 759
39.38685 780
39.40697 785
39.42708 755
39.44719 656
39.46731 617
39.48742 650
39.50754 576
39.52765 552
39.54776 564
39.56788 551
39.58799 552
39.6081 515
39.62822 472
39.64833 473
39.66845 455
39.68856 485
39.70867 499
39.72879 482
39.7489 484
39.76901 481
39.78913 519
39.80924 494
39.82935 505
39.84947 511
39.86958 472
39.8897 469
39.90981 474
39.92992 484
39.95004 485
39.97015 504
39.99026 516
40.01038 487
40.03049 497
40.05061 515
40.07072 500
40.09083 530
40.11095 554
40.13106 559
40.15117 587
40.17129 580
40.1914 630
40.21152 594
40.23163 587
40.25174 608
40.27186 561
40.29197 536
40.31208 498
40.3322 526
40.35231 519
40.37242 469
40.39254 490
40.41265 462
40.43277 462
40.45288 492
40.47299 438
40.49311 464
40.51322 464
40.53333 456
40.55345 427
40.57356 447
40.59368 426
40.61379 475
40.6339 447
40.65402 443
40.67413 476
40.69424 479
40.71436 418
40.73447 428
40.75458 451
40.7747 483
40.79481 434
40.81493 471
40.83504 452
40.85515 460
40.87527 485
40.89538 471
40.91549 456
40.93561 440
40.95572 454
40.97584 468
40.99595 508
41.01606 440
41.03618 486
41.05629 480
41.0764 480
41.09652 471
41.11663 471
41.13675 473
41.15686 442
41.17697 443
41.19709 476
41.2172 444
41.23731 491
41.25743 480
41.27754 450
41.29765 454
41.31777 428
41.33788 470
41.358 479
41.37811 463
41.39822 412
41.41834 448
41.43845 471
41.45856 445
41.47868 457
41.49879 453
41.51891 467
41.53902 469
41.55913 440
41.57925 473
41.59936 472
41.61947 428
41.63959 458
41.6597 435
41.67982 451
41.69993 476
41.72004 493
41.74016 453
41.76027 486
41.78038 481
41.8005 446
41.82061 453
41.84072 439
41.86084 448
41.88095 445
41.90107 452
41.92118 436
41.94129 455
41.96141 460
41.98152 464
42.00163 412
42.02175 459
42.04186 467
42.06198 462
42.08209 460
42.1022 481
42.12232 472
42.14243 417
42.16254 494
42.18266 483
42.20277 527
42.22289 518
42.243 522
42.26311 516
42.28323 539
42.30334 582
42.32345 641
42.34357 653
42.36368 665
42.38379 617
42.40391 567
42.42402 581
42.44414 531
42.46425 517
42.48436 509
42.50448 485
42.52459 481
42.5447 452
42.56482 428
42.58493 430
42.60505 436
42.62516 390
42.64527 420
42.66539 412
42.6855 457
42.70561 391
42.72573 401
42.74584 417
42.76595 412
42.78607 410
42.80618 434
42.8263 392
42.84641 413
42.86652 406
42.88664 407
42.90675 415
42.92686 424
42.94698 388
42.96709 425
42.98721 394
43.00732 395
43.02743 403
43.04755 414
43.06766 393
43.08777 380
43.10789 403
43.128 409
43.14812 388
43.16823 424
43.18834 419
43.20846 403
43.22857 399
43.24868 404
43.2688 395
43.28891 399
43.30902 381
43.32914 408
43.34925 393
43.36937 364
43.38948 419
43.40959 399
43.42971 424
43.44982 391
43.46993 391
43.49005 416
43.51016 394
43.53028 411
43.55039 437
43.5705 378
43.59062 395
43.61073 405
43.63084 394
43.65096 396
43.67107 400
43.69119 403
43.7113 386
43.73141 376
43.75153 411
43.77164 383
43.79175 409
43.81187 394
43.83198 390
43.85209 446
43.87221 405
43.89232 410
43.91244 401
43.93255 399
43.95266 426
43.97278 413
43.99289 406
44.013 388
44.03312 429
44.05323 393
44.07335 402
44.09346 363
44.11357 377
44.13369 360
44.1538 384
44.17391 359
44.19403 372
44.21414 398
44.23426 434
44.25437 423
44.27448 439
44.2946 386
44.31471 337
44.33482 362
44.35494 450
44.37505 389
44.39516 384
44.41528 391
44.43539 405
44.45551 382
44.47562 432
44.49573 394
44.51585 418
44.53596 392
44.55607 423
44.57619 387
44.5963 420
44.61642 402
44.63653 395
44.65664 420
44.67676 420
44.69687 413
44.71698 418
44.7371 413
44.75721 404
44.77732 403
44.79744 429
44.81755 428
44.83767 410
44.85778 396
44.87789 420
44.89801 412
44.91812 402
44.93823 416
44.95835 420
44.97846 381
44.99858 422
45.01869 424
45.0388 412
45.05892 407
45.07903 435
45.09914 426
45.11926 448
45.13937 447
45.15949 423
45.1796 399
45.19971 451
45.21983 462
45.23994 440
45.26005 455
45.28017 460
45.30028 458
45.32039 464
45.34051 429
45.36062 476
45.38074 455
45.40085 463
45.42096 433
45.44108 470
45.46119 463
45.4813 454
45.50142 460
45.52153 500
45.54165 472
45.56176 501
45.58187 497
45.60199 533
45.6221 525
45.64221 526
45.66233 550
45.68244 575
45.70256 547
45.72267 518
45.74278 500
45.7629 502
45.78301 514
45.80312 503
45.82324 465
45.84335 479
45.86346 486
45.88358 445
45.90369 428
45.92381 440
45.94392 419
45.96403 435
45.98415 419
46.00426 395
46.02437 436
46.04449 403
46.0646 396
46.08472 388
46.10483 391
46.12494 438
46.14506 430
46.16517 449
46.18528 436
46.2054 418
46.22551 394
46.24563 420
46.26574 433
46.28585 416
46.30597 397
46.32608 434
46.34619 408
46.36631 414
46.38642 407
46.40653 395
46.42665 396
46.44676 409
46.46688 362
46.48699 419
46.5071 428
46.52722 382
46.54733 406
46.56744 399
46.58756 415
46.60767 386
46.62779 404
46.6479 383
46.66801 397
46.68813 397
46.70824 405
46.72835 372
46.74847 391
46.76858 398
46.78869 406
46.80881 431
46.82892 393
46.84904 369
46.86915 411
46.88926 425
46.90938 396
46.92949 390
46.9496 409
46.96972 399
46.98983 403
47.00995 443
47.03006 362
47.05017 369
47.07029 389
47.0904 381
47.11051 409
47.13063 378
47.15074 379
47.17086 378
47.19097 408
47.21108 418
47.2312 390
47.25131 371
47.27142 425
47.29154 395
47.31165 394
47.33176 374
47.35188 395
47.37199 392
47.39211 374
47.41222 372
47.43233 373
47.45245 389
47.47256 411
47.49267 406
47.51279 358
47.5329 361
47.55302 384
47.57313 417
47.59324 367
47.61336 389
47.63347 377
47.65358 402
47.6737 396
47.69381 401
47.71393 382
47.73404 424
47.75415 403
47.77427 385
47.79438 379
47.81449 412
47.83461 383
47.85472 409
47.87483 379
47.89495 360
47.91506 406
47.93518 406
47.95529 363
47.9754 376
47.99552 384
48.01563 401
48.03574 384
48.05586 354
48.07597 388
48.09609 367
48.1162 375
48.13631 390
48.15643 365
48.17654 385
48.19665 357
48.21677 377
48.23688 368
48.257 350
48.27711 353
48.29722 345
48.31734 350
48.33745 378
48.35756 356
48.37768 381
48.39779 361
48.4179 409
48.43802 364
48.45813 370
48.47825 374
48.49836 377
48.51847 317
48.53859 402
48.5587 364
48.57881 354
48.59893 411
48.61904 339
48.63916 337
48.65927 404
48.67938 375
48.6995 369
48.71961 342
48.73972 360
48.75984 371
48.77995 365
48.80006 339
48.82018 375
48.84029 353
48.86041 362
48.88052 341
48.90063 374
48.92075 359
48.94086 366
48.96097 411
48.98109 342
49.0012 371
49.02132 343
49.04143 360
49.06154 390
49.08166 374
49.10177 381
49.12188 371
49.142 342
49.16211 339
49.18223 356
49.20234 382
49.22245 384
49.24257 334
49.26268 372
49.28279 313
49.30291 383
49.32302 376
49.34313 351
49.36325 353
49.38336 346
49.40348 342
49.42359 352
49.4437 369
49.46382 357
49.48393 351
49.50404 355
49.52416 392
49.54427 359
49.56439 359
49.5845 356
49.60461 377
49.62473 349
49.64484 340
49.66495 353
49.68507 370
49.70518 382
49.7253 379
49.74541 412
49.76552 410
49.78564 422
49.80575 430
49.82586 462
49.84598 446
49.86609 523
49.8862 494
49.90632 517
49.92643 563
49.94655 598
49.96666 598
49.98677 675
50.00689 705
50.027 754
50.04711 728
50.06723 825
50.08734 728
50.10746 697
50.12757 688
50.14768 598
50.1678 572
50.18791 558
50.20802 555
50.22814 488
50.24825 474
50.26837 465
50.28848 441
50.30859 413
50.32871 393
50.34882 371
50.36893 400
50.38905 393
50.40916 386
50.42927 384
50.44939 371
50.4695 374
50.48962 382
50.50973 414
50.52984 373
50.54996 369
50.57007 365
50.59018 373
50.6103 362
50.63041 422
50.65053 390
50.67064 383
50.69075 351
50.71087 376
50.73098 349
50.75109 354
50.77121 354
50.79132 361
50.81143 403
50.83155 373
50.85166 333
50.87178 370
50.89189 369
50.912 351
50.93212 378
50.95223 368
50.97234 385
50.99246 354
51.01257 338
51.03269 320
51.0528 310
51.07291 344
51.09303 329
51.11314 311
51.13325 320
51.15337 345
51.17348 341
51.1936 304
51.21371 319
51.23382 357
51.25394 329
51.27405 328
51.29416 328
51.31428 300
51.33439 361
51.3545 306
51.37462 349
51.39473 327
51.41485 322
51.43496 308
51.45507 319
51.47519 357
51.4953 366
51.51541 314
51.53553 333
51.55564 338
51.57576 321
51.59587 314
51.61598 320
51.6361 351
51.65621 332
51.67632 355
51.69644 357
51.71655 348
51.73667 316
51.75678 332
51.77689 348
51.79701 346
51.81712 334
51.83723 302
51.85735 331
51.87746 343
51.89757 361
51.91769 354
51.9378 323
51.95792 340
51.97803 343
51.99814 297
52.01826 354
52.03837 338
52.05848 341
52.0786 339
52.09871 315
52.11883 323
52.13894 346
52.15905 338
52.17917 358
52.19928 309
52.21939 341
52.23951 325
52.25962 318
52.27974 341
52.29985 352
52.31996 296
52.34008 359
52.36019 336
52.3803 343
52.40042 353
52.42053 372
52.44064 338
52.46076 350
52.48087 361
52.50099 320
52.5211 333
52.54121 329
52.56133 356
52.58144 353
52.60155 350
52.62167 331
52.64178 339
52.6619 346
52.68201 350
52.70212 331
52.72224 347
52.74235 329
52.76246 362
52.78258 327
52.80269 361
52.8228 310
52.84292 322
52.86303 311
52.88315 348
52.90326 354
52.92337 354
52.94349 326
52.9636 335
52.98371 342
53.00383 334
53.02394 343
53.04406 370
53.06417 364
53.08428 335
53.1044 357
53.12451 345
53.14462 361
53.16474 358
53.18485 352
53.20497 376
53.22508 365
53.24519 350
53.26531 350
53.28542 430
53.30553 384
53.32565 365
53.34576 397
53.36587 346
53.38599 388
53.4061 401
53.42622 366
53.44633 396
53.46644 379
53.48656 401
53.50667 382
53.52678 357
53.5469 375
53.56701 384
53.58713 413
53.60724 414
53.62735 416
53.64747 425
53.66758 368
53.68769 393
53.70781 392
53.72792 384
53.74804 392
53.76815 398
53.78826 418
53.80838 403
53.82849 441
53.8486 456
53.86872 415
53.88883 429
53.90894 387
53.92906 447
53.94917 459
53.96929 412
53.9894 441
54.00951 434
54.02963 446
54.04974 462
54.06985 431
54.08997 473
54.11008 420
54.1302 473
54.15031 434
54.17042 409
54.19054 446
54.21065 456
54.23076 468
54.25088 453
54.27099 500
54.29111 457
54.31122 445
54.33133 461
54.35145 457
54.37156 509
54.39167 472
54.41179 479
54.4319 463
54.45201 493
54.47213 471
54.49224 480
54.51236 488
54.53247 478
54.55258 500
54.5727 499
54.59281 526
54.61292 502
54.63304 513
54.65315 493
54.67327 521
54.69338 513
54.71349 580
54.73361 591
54.75372 600
54.77383 604
54.79395 592
54.81406 563
54.83417 635
54.85429 588
54.8744 532
54.89452 560
54.91463 574
54.93474 512
54.95486 545
54.97497 573
54.99508 559
55.0152 528
55.03531 478
55.05543 470
55.07554 488
55.09565 492
55.11577 497
55.13588 522
55.15599 476
55.17611 527
55.19622 528
55.21634 498
55.23645 521
55.25656 545
55.27668 519
55.29679 528
55.3169 472
55.33702 510
55.35713 543
55.37724 481
55.39736 449
55.41747 441
55.43759 414
55.4577 454
55.47781 457
55.49793 468
55.51804 436
55.53815 438
55.55827 455
55.57838 450
55.5985 489
55.61861 445
55.63872 428
55.65884 446
55.67895 440
55.69906 417
55.71918 463
55.73929 428
55.75941 440
55.77952 425
55.79963 454
55.81975 438
55.83986 391
55.85997 427
55.88009 401
55.9002 424
55.92031 425
55.94043 415
55.96054 426
55.98066 410
56.00077 442
56.02088 420
56.041 424
56.06111 448
56.08122 424
56.10134 430
56.12145 395
56.14157 388
56.16168 386
56.18179 496
56.20191 406
56.22202 408
56.24213 371
56.26225 447
56.28236 402
56.30248 385
56.32259 405
56.3427 398
56.36282 381
56.38293 401
56.40304 437
56.42316 396
56.44327 399
56.46338 400
56.4835 421
56.50361 402
56.52373 392
56.54384 422
56.56395 417
56.58407 407
56.60418 443
56.62429 366
56.64441 429
56.66452 408
56.68464 415
56.70475 380
56.72486 381
56.74498 394
56.76509 394
56.7852 367
56.80532 413
56.82543 401
56.84554 396
56.86566 403
56.88577 418
56.90589 371
56.926 370
56.94611 399
56.96623 406
56.98634 367
57.00645 367
57.02657 360
57.04668 414
57.0668 391
57.08691 363
57.10702 385
57.12714 365
57.14725 379
57.16736 368
57.18748 395
57.20759 355
57.22771 372
57.24782 394
57.26793 371
57.28805 367
57.30816 344
57.32827 385
57.34839 363
57.3685 376
57.38861 391
57.40873 371
57.42884 387
57.44896 383
57.46907 365
57.48918 373
57.5093 347
57.52941 352
57.54952 383
57.56964 352
57.58975 345
57.60987 367
57.62998 358
57.65009 361
57.67021 348
57.69032 368
57.71043 355
57.73055 320
57.75066 358
57.77078 389
57.79089 405
57.811 331
57.83112 384
57.85123 367
57.87134 381
57.89146 382
57.91157 393
57.93168 326
57.9518 366
57.97191 364
57.99203 361
58.01214 307
58.03225 346
58.05237 357
58.07248 335
58.09259 346
58.11271 309
58.13282 371
58.15294 376
58.17305 323
58.19316 368
58.21328 361
58.23339 362
58.2535 345
58.27362 360
58.29373 353
58.31385 347
58.33396 351
58.35407 340
58.37419 343
58.3943 337
58.41441 376
58.43453 353
58.45464 348
58.47475 353
58.49487 367
58.51498 386
58.5351 362
58.55521 365
58.57532 332
58.59544 355
58.61555 385
58.63566 404
58.65578 333
58.67589 337
58.69601 365
58.71612 341
58.73623 353
58.75635 403
58.77646 358
58.79657 349
58.81669 373
58.8368 357
58.85691 335
58.87703 326
58.89714 363
58.91726 336
58.93737 372
58.95748 386
58.9776 349
58.99771 357
59.01782 343
59.03794 370
59.05805 361
59.07817 355
59.09828 317
59.11839 357
59.13851 337
59.15862 344
59.17873 387
59.19885 352
59.21896 380
59.23908 362
59.25919 331
59.2793 341
59.29942 375
59.31953 359
59.33964 372
59.35976 372
59.37987 393
59.39998 371
59.4201 343
59.44021 335
59.46033 371
59.48044 397
59.50055 386
59.52067 372
59.54078 404
59.56089 403
59.58101 405
59.60112 416
59.62124 449
59.64135 433
59.66146 461
59.68158 456
59.70169 497
59.7218 533
59.74192 519
59.76203 538
59.78215 588
59.80226 559
59.82237 623
59.84249 656
59.8626 694
59.88271 704
59.90283 608
59.92294 575
59.94305 556
59.96317 532
59.98328 539
60.0034 528
60.02351 526
60.04362 518
60.06374 480
60.08385 457
60.10396 434
60.12408 433
60.14419 454
60.16431 418
60.18442 394
60.20453 417
60.22465 418
60.24476 395
60.26487 421
60.28499 422
60.3051 388
60.32522 417
60.34533 405
60.36544 404
60.38556 440
60.40567 412
60.42578 389
60.4459 386
60.46601 413
60.48612 408
60.50624 382
60.52635 386
60.54647 398
60.56658 411
60.58669 377
60.60681 397
60.62692 398
60.64703 386
60.66715 394
60.68726 396
60.70738 403
60.72749 363
60.7476 382
60.76772 378
60.78783 380
60.80794 397
60.82806 394
60.84817 358
60.86828 367
60.8884 384
60.90851 387
60.92863 371
60.94874 382
60.96885 408
60.98897 400
61.00908 410
61.02919 404
61.04931 417
61.06942 418
61.08954 390
61.10965 403
61.12976 401
61.14988 428
61.16999 444
61.1901 438
61.21022 428
61.23033 408
61.25045 404
61.27056 460
61.29067 479
61.31079 446
61.3309 434
61.35101 458
61.37113 492
61.39124 464
61.41135 480
61.43147 499
61.45158 512
61.4717 475
61.49181 491
61.51192 484
61.53204 494
61.55215 472
61.57226 514
61.59238 491
61.61249 499
61.63261 455
61.65272 498
61.67283 514
61.69295 526
61.71306 513
61.73317 527
61.75329 519
61.7734 498
61.79352 481
61.81363 548
61.83374 490
61.85386 525
61.87397 490
61.89408 563
61.9142 532
61.93431 577
61.95442 518
61.97454 541
61.99465 527
62.01477 571
62.03488 547
62.05499 587
62.07511 581
62.09522 587
62.11533 542
62.13545 538
62.15556 531
62.17568 540
62.19579 559
62.2159 529
62.23602 547
62.25613 511
62.27624 556
62.29636 492
62.31647 502
62.33659 493
62.3567 434
62.37681 476
62.39693 469
62.41704 448
62.43715 476
62.45727 447
62.47738 456
62.49749 424
62.51761 453
62.53772 427
62.55784 420
62.57795 412
62.59806 387
62.61818 367
62.63829 395
62.6584 402
62.67852 436
62.69863 395
62.71875 390
62.73886 369
62.75897 358
62.77909 376
62.7992 369
62.81931 368
62.83943 366
62.85954 351
62.87965 373
62.89977 373
62.91988 362
62.94 397
62.96011 385
62.98022 399
63.00034 338
63.02045 368
63.04056 381
63.06068 356
63.08079 373
63.10091 365
63.12102 380
63.14113 348
63.16125 380
63.18136 342
63.20147 375
63.22159 406
63.2417 345
63.26182 392
63.28193 393
63.30204 376
63.32216 378
63.34227 360
63.36238 391
63.3825 388
63.40261 402
63.42272 375
63.44284 353
63.46295 383
63.48307 381
63.50318 392
63.52329 337
63.54341 367
63.56352 359
63.58363 388
63.60375 337
63.62386 362
63.64398 388
63.66409 357
63.6842 366
63.70432 369
63.72443 361
63.74454 376
63.76466 375
63.78477 340
63.80489 392
63.825 401
63.84511 405
63.86523 391
63.88534 408
63.90545 401
63.92557 383
63.94568 385
63.96579 418
63.98591 401
64.00602 381
64.02614 396
64.04625 408
64.06636 371
64.08648 383
64.10659 373
64.1267 384
64.14682 353
64.16693 404
64.18705 345
64.20716 374
64.22727 357
64.24739 314
64.2675 290
64.28761 297
64.30773 359
64.32784 328
64.34796 326
64.36807 339
64.38818 340
64.4083 366
64.42841 326
64.44852 347
64.46864 339
64.48875 334
64.50886 317
64.52898 330
64.54909 346
64.56921 343
64.58932 321
64.60943 349
64.62955 348
64.64966 319
64.66977 312
64.68989 337
64.71 343
64.73012 305
64.75023 346
64.77034 329
64.79046 350
64.81057 346
64.83068 332
64.8508 323
64.87091 325
64.89102 345
64.91114 320
64.93125 322
64.95137 327
64.97148 332
64.99159 308
65.01171 337
65.03182 330
65.05193 342
65.07205 322
65.09216 346
65.11228 332
65.13239 359
65.1525 337
65.17262 341
65.19273 339
65.21284 358
65.23296 343
65.25307 348
65.27319 364
65.2933 343
65.31341 328
65.33353 312
65.35364 338
65.37375 372
65.39387 375
65.41398 356
65.43409 322
65.45421 329
65.47432 333
65.49444 337
65.51455 338
65.53466 350
65.55478 358
65.57489 302
65.595 329
65.61512 344
65.63523 330
65.65535 352
65.67546 322
65.69557 341
65.71569 357
65.7358 344
65.75591 354
65.77603 339
65.79614 345
65.81626 324
65.83637 311
65.85648 324
65.8766 347
65.89671 310
65.91682 320
65.93694 313
65.95705 301
65.97716 305
65.99728 309
66.01739 334
66.03751 334
66.05762 315
66.07773 321
66.09785 327
66.11796 333
66.13807 330
66.15819 306
66.1783 339
66.19842 343
66.21853 310
66.23864 324
66.25876 351
66.27887 316
66.29898 296
66.3191 300
66.33921 316
66.35933 342
66.37944 342
66.39955 320
66.41967 301
66.43978 350
66.45989 320
66.48001 324
66.50012 340
66.52023 349
66.54035 297
66.56046 289
66.58058 339
66.60069 313
66.6208 287
66.64092 311
66.66103 332
66.68114 318
66.70126 326
66.72137 354
66.74149 299
66.7616 300
66.78171 340
66.80183 350
66.82194 330
66.84205 310
66.86217 333
66.88228 303
66.90239 328
66.92251 327
66.94262 348
66.96274 305
66.98285 334
67.00296 356
67.02308 326
67.04319 328
67.0633 354
67.08342 331
67.10353 335
67.12365 360
67.14376 337
67.16387 322
67.18399 361
67.2041 323
67.22421 335
67.24433 356
67.26444 345
67.28456 337
67.30467 363
67.32478 366
67.3449 361
67.36501 358
67.38512 373
67.40524 347
67.42535 367
67.44546 407
67.46558 372
67.48569 380
67.50581 419
67.52592 406
67.54603 479
67.56615 467
67.58626 478
67.60637 491
67.62649 494
67.6466 470
67.66672 533
67.68683 486
67.70694 485
67.72706 453
67.74717 479
67.76728 475
67.7874 452
67.80751 484
67.82763 446
67.84774 453
67.86785 512
67.88797 501
67.90808 489
67.92819 476
67.94831 497
67.96842 526
67.98853 602
68.00865 578
68.02876 572
68.04888 605
68.06899 582
68.0891 560
68.10922 569
68.12933 540
68.14944 584
68.16956 575
68.18967 576
68.20979 563
68.2299 532
68.25001 541
68.27013 514
68.29024 508
68.31035 470
68.33047 398
68.35058 432
68.3707 455
68.39081 400
68.41092 434
68.43104 371
68.45115 399
68.47126 366
68.49138 368
68.51149 316
68.5316 341
68.55172 374
68.57183 337
68.59195 351
68.61206 325
68.63217 335
68.65229 360
68.6724 351
68.69251 352
68.71263 331
68.73274 354
68.75286 319
68.77297 344
68.79308 352
68.8132 324
68.83331 333
68.85342 352
68.87354 356
68.89365 310
68.91376 361
68.93388 346
68.95399 343
68.97411 304
68.99422 334
69.01433 314
69.03445 346
69.05456 310
69.07467 321
69.09479 338
69.1149 348
69.13502 309
69.15513 345
69.17524 378
69.19536 312
69.21547 320
69.23558 332
69.2557 332
69.27581 314
69.29593 347
69.31604 302
69.33615 340
69.35627 351
69.37638 337
69.39649 336
69.41661 321
69.43672 317
69.45683 321
69.47695 337
69.49706 312
69.51718 336
69.53729 323
69.5574 315
69.57752 333
69.59763 308
69.61774 327
69.63786 304
69.65797 332
69.67809 317
69.6982 333
69.71831 289
69.73843 331
69.75854 345
69.77865 317
69.79877 332
69.81888 309
69.839 318
69.85911 287
69.87922 343
69.89934 344
69.91945 355
69.93956 304
69.95968 335
69.97979 324
69.9999 354
70.02002 326
70.04013 351
70.06025 314
70.08036 332
70.10047 350
70.12059 346
70.1407 324
70.16081 336
70.18093 335
70.20104 348
70.22116 346
70.24127 356
70.26138 324
70.2815 307
70.30161 291
70.32172 329
70.34184 332
70.36195 360
70.38207 319
70.40218 307
70.42229 336
70.44241 305
70.46252 289
70.48263 277
70.50275 329
70.52286 325
70.54297 303
70.56309 330
70.5832 319
70.60332 312
70.62343 318
70.64354 303
70.66366 305
70.68377 333
70.70388 343
70.724 322
70.74411 297
70.76423 305
70.78434 292
70.80445 316
70.82457 343
70.84468 322
70.86479 316
70.88491 343
70.90502 338
70.92513 329
70.94525 361
70.96536 319
70.98548 319
71.00559 338
71.0257 300
71.04582 321
71.06593 332
71.08604 332
71.10616 326
71.12627 337
71.14639 295
71.1665 341
71.18661 337
71.20673 327
71.22684 330
71.24695 314
71.26707 326
71.28718 315
71.3073 309
71.32741 315
71.34752 326
71.36764 346
71.38775 318
71.40786 314
71.42798 339
71.44809 315
71.4682 305
71.48832 321
71.50843 324
71.52855 351
71.54866 314
71.56877 321
71.58889 310
71.609 329
71.62911 322
71.64923 347
71.66934 325
71.68946 313
71.70957 336
71.72968 338
71.7498 341
71.76991 336
71.79002 317
71.81014 323
71.83025 324
71.85037 317
71.87048 322
71.89059 323
71.91071 336
71.93082 336
71.95093 332
71.97105 317
71.99116 339
72.01127 318
72.03139 347
72.0515 331
72.07162 336
72.09173 360
72.11184 334
72.13196 348
72.15207 342
72.17218 360
72.1923 317
72.21241 320
72.23253 335
72.25264 346
72.27275 376
72.29287 340
72.31298 354
72.33309 341
72.35321 367
72.37332 334
72.39344 355
72.41355 342
72.43366 325
72.45378 370
72.47389 341
72.494 330
72.51412 341
72.53423 343
72.55434 328
72.57446 353
72.59457 360
72.61469 353
72.6348 358
72.65491 348
72.67503 374
72.69514 366
72.71525 351
72.73537 377
72.75548 375
72.7756 360
72.79571 363
72.81582 372
72.83594 361
72.85605 351
72.87616 336
72.89628 366
72.91639 380
72.9365 385
72.95662 367
72.97673 387
72.99685 394
73.01696 374
73.03707 399
73.05719 373
73.0773 378
73.09741 367
73.11753 347
73.13764 358
73.15776 394
73.17787 375
73.19798 382
73.2181 388
73.23821 375
73.25832 388
73.27844 409
73.29855 396
73.31867 440
73.33878 441
73.35889 415
73.37901 410
73.39912 429
73.41923 398
73.43935 392
73.45946 388
73.47957 378
73.49969 386
73.5198 406
73.53992 365
73.56003 380
73.58014 393
73.60026 406
73.62037 413
73.64048 369
73.6606 408
73.68071 369
73.70083 372
73.72094 364
73.74105 350
73.76117 309
73.78128 353
73.80139 313
73.82151 383
73.84162 341
73.86174 355
73.88185 370
73.90196 381
73.92208 341
73.94219 323
73.9623 338
73.98242 366
74.00253 363
74.02264 361
74.04276 334
74.06287 318
74.08299 347
74.1031 338
74.12321 320
74.14333 371
74.16344 370
74.18355 374
74.20367 326
74.22378 348
74.2439 306
74.26401 346
74.28412 347
74.30424 352
74.32435 346
74.34446 348
74.36458 329
74.38469 337
74.40481 311
74.42492 352
74.44503 354
74.46515 335
74.48526 338
74.50537 344
74.52549 331
74.5456 339
74.56571 365
74.58583 356
74.60594 339
74.62606 336
74.64617 330
74.66628 349
74.6864 318
74.70651 322
74.72662 372
74.74674 309
74.76685 333
74.78697 325
74.80708 331
74.82719 323
74.84731 348
74.86742 322
74.88753 349
74.90765 337
74.92776 358
74.94787 337
74.96799 362
74.9881 317
75.00822 363
