3.00117 20789
3.02128 19943
3.0414 19454
3.06151 19085
3.08162 17824
3.10174 18150
3.12185 17498
3.14197 16920
3.16208 16469
3.18219 15855
3.20231 15897
3.22242 15063
3.24253 14717
3.26265 14226
3.28276 13543
3.30288 13427
3.32299 13013
3.3431 12616
3.36322 12292
3.38333 11647
3.40344 11436
3.42356 11145
3.44367 10714
3.46379 10323
3.4839 10090
3.50401 10058
3.52413 9243
3.54424 9022
3.56435 8784
3.58447 8407
3.60458 8281
3.62469 7838
3.64481 7672
3.66492 7277
3.68504 6930
3.70515 6928
3.72526 6501
3.74538 6439
3.76549 6211
3.7856 5836
3.80572 5807
3.82583 5609
3.84595 5274
3.86606 5057
3.88617 4844
3.90629 4963
3.9264 4352
3.94651 4301
3.96663 4117
3.98674 4063
4.00686 4071
4.02697 3567
4.04708 3731
4.0672 3509
4.08731 3306
4.10742 3342
4.12754 3298
4.14765 3114
4.16776 3008
4.18788 2737
4.20799 2935
4.22811 2738
4.24822 2621
4.26833 2585
4.28845 2520
4.30856 2490
4.32867 2497
4.34879 2364
4.3689 2248
4.38902 2192
4.40913 2249
4.42924 2247
4.44936 2158
4.46947 2144
4.48958 2058
4.5097 2042
4.52981 2038
4.54992 1883
4.57004 2019
4.59015 1992
4.61027 1960
4.63038 2003
4.65049 1733
4.67061 1839
4.69072 1822
4.71083 1809
4.73095 1750
4.75106 1676
4.77118 1667
4.79129 1628
4.8114 1680
4.83152 1724
4.85163 1637
4.87174 1700
4.89186 1488
4.91197 1601
4.93209 1603
4.9522 1526
4.97231 1573
4.99243 1442
5.01254 1459
5.03265 1546
5.05277 1461
5.07288 1441
5.09299 1452
5.11311 1348
5.13322 1377
5.15334 1399
5.17345 1367
5.19356 1370
5.21368 1368
5.23379 1390
5.2539 1323
5.27402 1257
5.29413 1243
5.31425 1249
5.33436 1330
5.35447 1281
5.37459 1226
5.3947 1311
5.41481 1251
5.43493 1244
5.45504 1275
5.47516 1207
5.49527 1200
5.51538 1220
5.5355 1222
5.55561 1201
5.57572 1183
5.59584 1217
5.61595 1242
5.63606 1260
5.65618 1146
5.67629 1159
5.69641 1155
5.71652 1130
5.73663 1147
5.75675 1179
5.77686 1051
5.79697 1179
5.81709 1145
5.8372 1070
5.85732 1076
5.87743 1062
5.89754 1095
5.91766 1128
5.93777 1136
5.95788 1100
5.978 1066
5.99811 1078
6.01823 1115
6.03834 1056
6.05845 1038
6.07857 1072
6.09868 1065
6.11879 1086
6.13891 1070
6.15902 1069
6.17913 1025
6.19925 948
6.21936 987
6.23948 1011
6.25959 984
6.2797 970
6.29982 1037
6.31993 1019
6.34004 995
6.36016 1058
6.38027 988
6.40039 995
6.4205 950
6.44061 911
6.46073 974
6.48084 989
6.50095 895
6.52107 989
6.54118 963
6.56129 977
6.58141 869
6.60152 966
6.62164 920
6.64175 934
6.66186 949
6.68198 896
6.70209 892
6.7222 899
6.74232 844
6.76243 901
6.78255 849
6.80266 864
6.82277 846
6.84289 887
6.863 866
6.88311 840
6.90323 797
6.92334 828
6.94346 833
6.96357 839
6.98368 826
7.0038 833
7.02391 814
7.04402 782
7.06414 824
7.08425 820
7.10436 782
7.12448 799
7.14459 838
7.16471 779
7.18482 821
7.20493 717
7.22505 785
7.24516 772
7.26527 718
7.28539 801
7.3055 724
7.32562 683
7.34573 717
7.36584 789
7.38596 791
7.40607 760
7.42618 772
7.4463 714
7.46641 717
7.48653 697
7.50664 650
7.52675 718
7.54687 700
7.56698 701
7.58709 710
7.60721 688
7.62732 633
7.64743 727
7.66755 692
7.68766 746
7.70778 679
7.72789 735
7.748 749
7.76812 643
7.78823 671
7.80834 642
7.82846 697
7.84857 602
7.86869 664
7.8888 684
7.90891 640
7.92903 690
7.94914 691
7.96925 643
7.98937 692
8.00948 647
8.0296 691
8.04971 632
8.06982 675
8.08994 655
8.11005 617
8.13016 643
8.15028 697
8.17039 646
8.1905 664
8.21062 627
8.23073 663
8.25085 621
8.27096 668
8.29107 593
8.31119 620
8.3313 620
8.35141 611
8.37153 578
8.39164 646
8.41176 613
8.43187 631
8.45198 648
8.4721 633
8.49221 621
8.51232 600
8.53244 685
8.55255 578
8.57266 640
8.59278 595
8.61289 671
8.63301 609
8.65312 676
8.67323 630
8.69335 686
8.71346 656
8.73357 633
8.75369 644
8.7738 632
8.79392 625
8.81403 620
8.83414 652
8.85426 610
8.87437 603
8.89448 589
8.9146 611
8.93471 592
8.95483 578
8.97494 629
8.99505 595
9.01517 593
9.03528 644
9.05539 549
9.07551 590
9.09562 530
9.11573 570
9.13585 537
9.15596 561
9.17608 526
9.19619 536
9.2163 547
9.23642 545
9.25653 542
9.27664 508
9.29676 528
9.31687 524
9.33699 501
9.3571 561
9.37721 541
9.39733 576
9.41744 556
9.43755 536
9.45767 523
9.47778 538
9.4979 563
9.51801 537
9.53812 508
9.55824 559
9.57835 553
9.59846 526
9.61858 558
9.63869 507
9.6588 524
9.67892 539
9.69903 525
9.71915 529
9.73926 525
9.75937 524
9.77949 519
9.7996 483
9.81971 519
9.83983 521
9.85994 503
9.88006 512
9.90017 512
9.92028 490
9.9404 502
9.96051 515
9.98062 497
10.00074 523
10.02085 525
10.04097 481
10.06108 450
10.08119 497
10.10131 504
10.12142 532
10.14153 510
10.16165 511
10.18176 473
10.20187 515
10.22199 495
10.2421 492
10.26222 540
10.28233 513
10.30244 544
10.32256 459
10.34267 522
10.36278 509
10.3829 526
10.40301 492
10.42313 510
10.44324 498
10.46335 536
10.48347 498
10.50358 532
10.52369 483
10.54381 495
10.56392 518
10.58403 496
10.60415 510
10.62426 513
10.64438 515
10.66449 489
10.6846 537
10.70472 499
10.72483 556
10.74494 510
10.76506 520
10.78517 525
10.80529 519
10.8254 500
10.84551 553
10.86563 451
10.88574 513
10.90585 503
10.92597 563
10.94608 475
10.9662 553
10.98631 549
11.00642 465
11.02654 520
11.04665 515
11.06676 500
11.08688 537
11.10699 494
11.1271 503
11.14722 492
11.16733 508
11.18745 535
11.20756 553
11.22767 537
11.24779 508
11.2679 510
11.28801 486
11.30813 542
11.32824 527
11.34836 539
11.36847 550
11.38858 586
11.4087 518
11.42881 528
11.44892 541
11.46904 524
11.48915 502
11.50927 489
11.52938 514
11.54949 517
11.56961 558
11.58972 564
11.60983 511
11.62995 520
11.65006 576
11.67017 596
11.69029 578
11.7104 538
11.73052 566
11.75063 556
11.77074 560
11.79086 557
11.81097 574
11.83108 612
11.8512 573
11.87131 660
11.89143 616
11.91154 665
11.93165 634
11.95177 610
11.97188 687
11.99199 598
12.01211 653
12.03222 632
12.05234 664
12.07245 679
12.09256 624
12.11268 673
12.13279 655
12.1529 660
12.17302 635
12.19313 653
12.21324 630
12.23336 684
12.25347 660
12.27359 671
12.2937 630
12.31381 660
12.33393 614
12.35404 626
12.37415 610
12.39427 622
12.41438 605
12.4345 561
12.45461 612
12.47472 588
12.49484 529
12.51495 497
12.53506 530
12.55518 510
12.57529 489
12.5954 516
12.61552 521
12.63563 516
12.65575 510
12.67586 459
12.69597 478
12.71609 506
12.7362 452
12.75631 467
12.77643 469
12.79654 448
12.81666 499
12.83677 433
12.85688 488
12.877 450
12.89711 484
12.91722 444
12.93734 421
12.95745 462
12.97757 497
12.99768 473
13.01779 459
13.03791 429
13.05802 490
13.07813 432
13.09825 447
13.11836 420
13.13847 468
13.15859 460
13.1787 483
13.19882 425
13.21893 431
13.23904 436
13.25916 417
13.27927 487
13.29938 430
13.3195 450
13.33961 475
13.35973 470
13.37984 434
13.39995 419
13.42007 438
13.44018 414
13.46029 452
13.48041 448
13.50052 477
13.52064 455
13.54075 437
13.56086 405
13.58098 441
13.60109 460
13.6212 400
13.64132 441
13.66143 422
13.68154 471
13.70166 390
13.72177 456
13.74189 458
13.762 438
13.78211 411
13.80223 438
13.82234 383
13.84245 473
13.86257 405
13.88268 427
13.9028 420
13.92291 440
13.94302 450
13.96314 408
13.98325 409
14.00336 405
14.02348 425
14.04359 434
14.06371 444
14.08382 406
14.10393 470
14.12405 449
14.14416 412
14.16427 458
14.18439 431
14.2045 435
14.22461 396
14.24473 409
14.26484 433
14.28496 410
14.30507 458
14.32518 420
14.3453 437
14.36541 433
14.38552 435
14.40564 424
14.42575 396
14.44587 430
14.46598 450
14.48609 396
14.50621 419
14.52632 426
14.54643 416
14.56655 425
14.58666 412
14.60677 427
14.62689 431
14.647 434
14.66712 417
14.68723 439
14.70734 434
14.72746 439
14.74757 417
14.76768 423
14.7878 431
14.80791 427
14.82803 403
14.84814 483
14.86825 477
14.88837 413
14.90848 447
14.92859 421
14.94871 412
14.96882 436
14.98894 406
15.00905 454
15.02916 437
15.04928 428
15.06939 445
15.0895 424
15.10962 429
15.12973 423
15.14984 443
15.16996 401
15.19007 402
15.21019 399
15.2303 419
15.25041 421
15.27053 454
15.29064 434
15.31075 416
15.33087 398
15.35098 443
15.3711 424
15.39121 420
15.41132 473
15.43144 417
15.45155 385
15.47166 429
15.49178 439
15.51189 432
15.53201 463
15.55212 416
15.57223 437
15.59235 445
15.61246 444
15.63257 455
15.65269 443
15.6728 403
15.69291 417
15.71303 422
15.73314 430
15.75326 422
15.77337 480
15.79348 444
15.8136 439
15.83371 427
15.85382 448
15.87394 419
15.89405 448
15.91417 435
15.93428 455
15.95439 459
15.97451 461
15.99462 446
16.01473 388
16.03485 418
16.05496 455
16.07508 453
16.09519 460
16.1153 448
16.13542 494
16.15553 419
16.17564 460
16.19576 418
16.21587 458
16.23598 453
16.2561 450
16.27621 452
16.29633 432
16.31644 437
16.33655 406
16.35667 464
16.37678 417
16.39689 462
16.41701 454
16.43712 497
16.45724 460
16.47735 469
16.49746 446
16.51758 465
16.53769 448
16.5578 463
16.57792 442
16.59803 446
16.61814 451
16.63826 481
16.65837 464
16.67849 442
16.6986 435
16.71871 461
16.73883 457
16.75894 463
16.77905 440
16.79917 472
16.81928 466
16.8394 488
16.85951 456
16.87962 434
16.89974 442
16.91985 470
16.93996 462
16.96008 488
16.98019 533
17.00031 485
17.02042 474
17.04053 463
17.06065 447
17.08076 439
17.10087 467
17.12099 488
17.1411 458
17.16121 457
17.18133 501
17.20144 503
17.22156 517
17.24167 494
17.26178 482
17.2819 491
17.30201 481
17.32212 479
17.34224 479
17.36235 508
17.38247 462
17.40258 495
17.42269 484
17.44281 479
17.46292 526
17.48303 469
17.50315 506
17.52326 478
17.54338 488
17.56349 482
17.5836 522
17.60372 504
17.62383 490
17.64394 496
17.66406 541
17.68417 516
17.70428 522
17.7244 537
17.74451 502
17.76463 485
17.78474 536
17.80485 492
17.82497 489
17.84508 539
17.86519 478
17.88531 509
17.90542 498
17.92554 552
17.94565 505
17.96576 491
17.98588 522
18.00599 510
18.0261 510
18.04622 501
18.06633 470
18.08645 531
18.10656 528
18.12667 508
18.14679 522
18.1669 507
18.18701 563
18.20713 495
18.22724 496
18.24735 541
18.26747 577
18.28758 553
18.3077 564
18.32781 519
18.34792 581
18.36804 561
18.38815 536
18.40826 531
18.42838 579
18.44849 526
18.46861 523
18.48872 559
18.50883 544
18.52895 530
18.54906 487
18.56917 539
18.58929 539
18.6094 517
18.62951 549
18.64963 565
18.66974 565
18.68986 597
18.70997 594
18.73008 518
18.7502 558
18.77031 565
18.79042 561
18.81054 558
18.83065 592
18.85077 575
18.87088 555
18.89099 607
18.91111 594
18.93122 619
18.95133 593
18.97145 597
18.99156 595
19.01168 566
19.03179 607
19.0519 644
19.07202 624
19.09213 648
19.11224 620
19.13236 605
19.15247 646
19.17258 666
19.1927 639
19.21281 694
19.23293 674
19.25304 705
19.27315 724
19.29327 720
19.31338 735
19.33349 774
19.35361 793
19.37372 805
19.39384 805
19.41395 841
19.43406 886
19.45418 840
19.47429 881
19.4944 950
19.51452 943
19.53463 1065
19.55475 1061
19.57486 1099
19.59497 1190
19.61509 1138
19.6352 1175
19.65531 1255
19.67543 1303
19.69554 1274
19.71565 1372
19.73577 1413
19.75588 1408
19.776 1364
19.79611 1391
19.81622 1340
19.83634 1372
19.85645 1300
19.87656 1359
19.89668 1339
19.91679 1269
19.93691 1227
19.95702 1221
19.97713 1206
19.99725 1231
20.01736 1165
20.03747 1182
20.05759 1210
20.0777 1199
20.09782 1274
20.11793 1250
20.13804 1146
20.15816 1120
20.17827 1211
20.19838 1074
20.2185 1161
20.23861 1138
20.25872 1089
20.27884 1090
20.29895 1135
20.31907 1090
20.33918 1113
20.35929 1090
20.37941 1079
20.39952 1033
20.41963 1073
20.43975 1117
20.45986 1032
20.47998 1120
20.50009 1153
20.5202 1085
20.54032 1149
20.56043 1185
20.58054 1139
20.60066 1191
20.62077 1187
20.64088 1357
20.661 1371
20.68111 1440
20.70123 1510
20.72134 1538
20.74145 1594
20.76157 1630
20.78168 1578
20.80179 1523
20.82191 1464
20.84202 1333
20.86214 1359
20.88225 1146
20.90236 1089
20.92248 1067
20.94259 1021
20.9627 960
20.98282 1010
21.00293 998
21.02305 958
21.04316 996
21.06327 970
21.08339 1007
21.1035 1008
21.12361 1033
21.14373 992
21.16384 1004
21.18395 993
21.20407 954
21.22418 935
21.2443 968
21.26441 903
21.28452 961
21.30464 976
21.32475 933
21.34486 971
21.36498 920
21.38509 955
21.40521 938
21.42532 1011
21.44543 919
21.46555 887
21.48566 922
21.50577 886
21.52589 947
21.546 899
21.56612 925
21.58623 939
21.60634 932
21.62646 949
21.64657 904
21.66668 932
21.6868 933
21.70691 874
21.72702 935
21.74714 903
21.76725 899
21.78737 898
21.80748 871
21.82759 916
21.84771 941
21.86782 882
21.88793 892
21.90805 865
21.92816 880
21.94828 829
21.96839 904
21.9885 862
22.00862 868
22.02873 833
22.04884 858
22.06896 921
22.08907 907
22.10919 869
22.1293 828
22.14941 835
22.16953 896
22.18964 811
22.20975 891
22.22987 858
22.24998 883
22.27009 859
22.29021 869
22.31032 918
22.33044 895
22.35055 841
22.37066 920
22.39078 871
22.41089 875
22.431 853
22.45112 838
22.47123 899
22.49135 900
22.51146 906
22.53157 884
22.55169 840
22.5718 921
22.59191 880
22.61203 813
22.63214 871
22.65225 868
22.67237 843
22.69248 895
22.7126 780
22.73271 886
22.75282 845
22.77294 877
22.79305 847
22.81316 865
22.83328 865
22.85339 822
22.87351 824
22.89362 838
22.91373 813
22.93385 821
22.95396 823
22.97407 795
22.99419 865
23.0143 801
23.03442 818
23.05453 834
23.07464 818
23.09476 823
23.11487 844
23.13498 797
23.1551 890
23.17521 799
23.19532 776
23.21544 832
23.23555 818
23.25567 857
23.27578 823
23.29589 831
23.31601 800
23.33612 821
23.35623 876
23.37635 842
23.39646 767
23.41658 826
23.43669 831
23.4568 813
23.47692 802
23.49703 771
23.51714 819
23.53726 769
23.55737 805
23.57749 771
23.5976 801
23.61771 812
23.63783 859
23.65794 816
23.67805 759
23.69817 806
23.71828 788
23.73839 753
23.75851 845
23.77862 772
23.79874 805
23.81885 820
23.83896 802
23.85908 833
23.87919 822
23.8993 809
23.91942 802
23.93953 789
23.95965 771
23.97976 781
23.99987 831
24.01999 777
24.0401 805
24.06021 764
24.08033 845
24.10044 834
24.12056 838
24.14067 847
24.16078 833
24.1809 821
24.20101 798
24.22112 815
24.24124 790
24.26135 743
24.28146 803
24.30158 787
24.32169 866
24.34181 819
24.36192 847
24.38203 811
24.40215 786
24.42226 860
24.44237 870
24.46249 835
24.4826 828
24.50272 825
24.52283 880
24.54294 851
24.56306 902
24.58317 794
24.60328 868
24.6234 882
24.64351 850
24.66362 879
24.68374 909
24.70385 929
24.72397 905
24.74408 901
24.76419 920
24.78431 925
24.80442 903
24.82453 900
24.84465 905
24.86476 885
24.88488 867
24.90499 869
24.9251 880
24.94522 918
24.96533 891
24.98544 864
25.00556 886
25.02567 915
25.04579 904
25.0659 881
25.08601 903
25.10613 890
25.12624 897
25.14635 917
25.16647 891
25.18658 837
25.20669 927
25.22681 893
25.24692 893
25.26704 830
25.28715 862
25.30726 855
25.32738 806
25.34749 850
25.3676 840
25.38772 797
25.40783 834
25.42795 791
25.44806 782
25.46817 790
25.48829 794
25.5084 813
25.52851 773
25.54863 866
25.56874 810
25.58886 827
25.60897 809
25.62908 760
25.6492 825
25.66931 786
25.68942 762
25.70954 816
25.72965 774
25.74976 778
25.76988 743
25.78999 761
25.81011 751
25.83022 800
25.85033 696
25.87045 758
25.89056 796
25.91067 775
25.93079 739
25.9509 718
25.97102 798
25.99113 718
26.01124 809
26.03136 797
26.05147 789
26.07158 807
26.0917 835
26.11181 838
26.13193 825
26.15204 869
26.17215 907
26.19227 948
26.21238 933
26.23249 982
26.25261 981
26.27272 1129
26.29283 1137
26.31295 1277
26.33306 1340
26.35318 1496
26.37329 1690
26.3934 1932
26.41352 2101
26.43363 2364
26.45374 2737
26.47386 2955
26.49397 3275
26.51409 3553
26.5342 3554
26.55431 3342
26.57443 3305
26.59454 2811
26.61465 2461
26.63477 2035
26.65488 1771
26.67499 1394
26.69511 1148
26.71522 1041
26.73534 973
26.75545 884
26.77556 891
26.79568 858
26.81579 837
26.8359 831
26.85602 733
26.87613 800
26.89625 754
26.91636 790
26.93647 780
26.95659 735
26.9767 701
26.99681 803
27.01693 749
27.03704 702
27.05716 710
27.07727 636
27.09738 663
27.1175 643
27.13761 721
27.15772 716
27.17784 628
27.19795 686
27.21806 711
27.23818 649
27.25829 705
27.27841 705
27.29852 675
27.31863 695
27.33875 731
27.35886 713
27.37897 691
27.39909 697
27.4192 718
27.43932 715
27.45943 678
27.47954 632
27.49966 650
27.51977 608
27.53988 683
27.56 671
27.58011 660
27.60023 635
27.62034 654
27.64045 665
27.66057 646
27.68068 708
27.70079 629
27.72091 653
27.74102 602
27.76113 642
27.78125 627
27.80136 643
27.82148 616
27.84159 690
27.8617 570
27.88182 586
27.90193 634
27.92204 585
27.94216 593
27.96227 603
27.98239 578
28.0025 593
28.02261 589
28.04273 551
28.06284 649
28.08295 603
28.10307 588
28.12318 612
28.1433 578
28.16341 595
28.18352 601
28.20364 597
28.22375 570
28.24386 602
28.26398 553
28.28409 571
28.3042 587
28.32432 581
28.34443 585
28.36455 574
28.38466 549
28.40477 599
28.42489 535
28.445 612
28.46511 581
28.48523 528
28.50534 505
28.52546 606
28.54557 578
28.56568 532
28.5858 564
28.60591 545
28.62602 537
28.64614 585
28.66625 573
28.68636 554
28.70648 532
28.72659 533
28.74671 577
28.76682 524
28.78693 523
28.80705 509
28.82716 533
28.84727 552
28.86739 538
28.8875 535
28.90762 570
28.92773 528
28.94784 534
28.96796 550
28.98807 501
29.00818 517
29.0283 525
29.04841 567
29.06853 556
29.08864 549
29.10875 556
29.12887 540
29.14898 540
29.16909 526
29.18921 521
29.20932 566
29.22943 534
29.24955 512
29.26966 558
29.28978 535
29.30989 504
29.33 525
29.35012 511
29.37023 520
29.39034 510
29.41046 525
29.43057 545
29.45069 535
29.4708 540
29.49091 551
29.51103 538
29.53114 520
29.55125 562
29.57137 495
29.59148 525
29.6116 571
29.63171 542
29.65182 532
29.67194 544
29.69205 546
29.71216 547
29.73228 573
29.75239 522
29.7725 532
29.79262 542
29.81273 535
29.83285 489
29.85296 509
29.87307 528
29.89319 492
29.9133 505
29.93341 476
29.95353 498
29.97364 515
29.99376 521
30.01387 466
30.03398 478
30.0541 482
30.07421 516
30.09432 533
30.11444 512
30.13455 523
30.15467 465
30.17478 485
30.19489 513
30.21501 516
30.23512 510
30.25523 556
30.27535 504
30.29546 510
30.31557 475
30.33569 465
30.3558 467
30.37592 501
30.39603 504
30.41614 543
30.43626 512
30.45637 492
30.47648 497
30.4966 497
30.51671 528
30.53683 487
30.55694 514
30.57705 470
30.59717 489
30.61728 506
30.63739 519
30.65751 487
30.67762 490
30.69773 509
30.71785 478
30.73796 493
30.75808 483
30.77819 457
30.7983 481
30.81842 475
30.83853 465
30.85864 483
30.87876 465
30.89887 480
30.91899 475
30.9391 423
30.95921 480
30.97933 455
30.99944 483
31.01955 501
31.03967 462
31.05978 468
31.0799 472
31.10001 488
31.12012 488
31.14024 468
31.16035 477
31.18046 487
31.20058 450
31.22069 455
31.2408 490
31.26092 484
31.28103 459
31.30115 440
31.32126 479
31.34137 448
31.36149 454
31.3816 446
31.40171 479
31.42183 456
31.44194 470
31.46206 477
31.48217 443
31.50228 424
31.5224 439
31.54251 438
31.56262 434
31.58274 472
31.60285 463
31.62297 466
31.64308 437
31.66319 442
31.68331 451
31.70342 455
31.72353 439
31.74365 452
31.76376 424
31.78387 473
31.80399 425
31.8241 444
31.84422 463
31.86433 453
31.88444 440
31.90456 459
31.92467 468
31.94478 453
31.9649 444
31.98501 429
32.00513 456
32.02524 434
32.04535 428
32.06547 461
32.08558 442
32.10569 447
32.12581 447
32.14592 433
32.16604 421
32.18615 408
32.20626 466
32.22638 417
32.24649 456
32.2666 406
32.28672 456
32.30683 476
32.32694 416
32.34706 452
32.36717 438
32.38729 444
32.4074 428
32.42751 436
32.44763 414
32.46774 468
32.48785 439
32.50797 437
32.52808 429
32.5482 423
32.56831 423
32.58842 430
32.60854 411
32.62865 396
32.64876 393
32.66888 394
32.68899 411
32.7091 439
32.72922 410
32.74933 444
32.76945 434
32.78956 423
32.80967 414
32.82979 419
32.8499 407
32.87001 413
32.89013 396
32.91024 363
32.93036 418
32.95047 427
32.97058 443
32.9907 436
33.01081 444
33.03092 422
33.05104 430
33.07115 424
33.09127 437
33.11138 442
33.13149 419
33.15161 414
33.17172 414
33.19183 402
33.21195 397
33.23206 414
33.25217 427
33.27229 420
33.2924 394
33.31252 447
33.33263 410
33.35274 422
33.37286 425
33.39297 436
33.41308 417
33.4332 429
33.45331 419
33.47343 393
33.49354 401
33.51365 392
33.53377 406
33.55388 393
33.57399 402
33.59411 437
33.61422 458
33.63434 406
33.65445 428
33.67456 462
33.69468 431
33.71479 418
33.7349 432
33.75502 456
33.77513 462
33.79524 416
33.81536 416
33.83547 426
33.85559 440
33.8757 464
33.89581 473
33.91593 443
33.93604 426
33.95615 438
33.97627 451
33.99638 466
34.0165 479
34.03661 482
34.05672 521
34.07684 471
34.09695 491
34.11706 512
34.13718 490
34.15729 508
34.17741 501
34.19752 533
34.21763 551
34.23775 495
34.25786 576
34.27797 565
34.29809 538
34.3182 536
34.33831 594
34.35843 605
34.37854 610
34.39866 594
34.41877 569
34.43888 596
34.459 585
34.47911 615
34.49922 639
34.51934 658
34.53945 665
34.55957 688
34.57968 624
34.59979 666
34.61991 667
34.64002 658
34.66013 696
34.68025 730
34.70036 716
34.72047 721
34.74059 722
34.7607 715
34.78082 727
34.80093 755
34.82104 691
34.84116 778
34.86127 756
34.88138 685
34.9015 712
34.92161 716
34.94173 700
34.96184 714
34.98195 702
35.00207 708
35.02218 678
35.04229 683
35.06241 678
35.08252 613
35.10264 690
35.12275 641
35.14286 618
35.16298 646
35.18309 655
35.2032 651
35.22332 622
35.24343 624
35.26354 608
35.28366 648
35.30377 636
35.32389 625
35.344 643
35.36411 627
35.38423 675
35.40434 666
35.42445 602
35.44457 676
35.46468 578
35.4848 569
35.50491 619
35.52502 621
35.54514 619
35.56525 598
35.58536 647
35.60548 640
35.62559 632
35.64571 611
35.66582 647
35.68593 595
35.70605 626
35.72616 614
35.74627 641
35.76639 639
35.7865 601
35.80661 626
35.82673 616
35.84684 602
35.86696 645
35.88707 680
35.90718 604
35.9273 595
35.94741 639
35.96752 637
35.98764 614
36.00775 588
36.02787 631
36.04798 601
36.06809 558
36.08821 639
36.10832 613
36.12843 593
36.14855 589
36.16866 562
36.18878 599
36.20889 598
36.229 617
36.24912 577
36.26923 614
36.28934 646
36.30946 661
36.32957 655
36.34968 660
36.3698 722
36.38991 727
36.41003 738
36.43014 710
36.45025 742
36.47037 701
36.49048 654
36.51059 664
36.53071 635
36.55082 632
36.57094 576
36.59105 570
36.61116 575
36.63128 618
36.65139 617
36.6715 586
36.69162 576
36.71173 551
36.73184 538
36.75196 565
36.77207 588
36.79219 517
36.8123 590
36.83241 603
36.85253 575
36.87264 562
36.89275 545
36.91287 539
36.93298 538
36.9531 505
36.97321 576
36.99332 592
37.01344 547
37.03355 583
37.05366 532
37.07378 548
37.09389 514
37.11401 560
37.13412 510
37.15423 573
37.17435 550
37.19446 553
37.21457 542
37.23469 504
37.2548 548
37.27491 566
37.29503 549
37.31514 547
37.33526 572
37.35537 514
37.37548 545
37.3956 540
37.41571 577
37.43582 540
37.45594 513
37.47605 548
37.49617 601
37.51628 553
37.53639 523
37.55651 596
37.57662 583
37.59673 567
37.61685 561
37.63696 597
37.65708 617
37.67719 554
37.6973 604
37.71742 565
37.73753 551
37.75764 568
37.77776 573
37.79787 550
37.81798 540
37.8381 526
37.85821 542
37.87833 515
37.89844 519
37.91855 532
37.93867 564
37.95878 535
37.97889 564
37.99901 572
38.01912 565
38.03924 536
38.05935 567
38.07946 524
38.09958 625
38.11969 557
38.1398 527
38.15992 596
38.18003 568
38.20015 599
38.22026 577
38.24037 576
38.26049 551
38.2806 574
38.30071 612
38.32083 553
38.34094 578
38.36105 585
38.38117 551
38.40128 529
38.4214 549
38.44151 568
38.46162 564
38.48174 520
38.50185 561
38.52196 557
38.54208 574
38.56219 484
38.58231 523
38.60242 503
38.62253 544
38.64265 490
38.66276 493
38.68287 507
38.70299 518
38.7231 497
38.74321 503
38.76333 478
38.78344 499
38.80356 529
38.82367 474
38.84378 550
38.8639 473
38.88401 535
38.90412 554
38.92424 516
38.94435 512
38.96447 516
38.98458 535
39.00469 474
39.02481 502
39.04492 488
39.06503 537
39.08515 515
39.10526 484
39.12538 541
39.14549 556
39.1656 570
39.18572 546
39.20583 562
39.22594 577
39.24606 626
39.26617 637
39.28628 642
39.3064 633
39.32651 606
39.34663 624
39.36674 619
39.38685 639
39.40697 611
39.42708 606
39.44719 586
39.46731 525
39.48742 552
39.50754 467
39.52765 529
39.54776 475
39.56788 489
39.58799 430
39.6081 429
39.62822 490
39.64833 465
39.66845 419
39.68856 427
39.70867 444
39.72879 435
39.7489 468
39.76901 483
39.78913 477
39.80924 483
39.82935 487
39.84947 420
39.86958 474
39.8897 467
39.90981 490
39.92992 481
39.95004 455
39.97015 475
39.99026 484
40.01038 497
40.03049 449
40.05061 474
40.07072 493
40.09083 520
40.11095 502
40.13106 518
40.15117 520
40.17129 540
40.1914 473
40.21152 462
40.23163 500
40.25174 513
40.27186 483
40.29197 511
40.31208 462
40.3322 474
40.35231 426
40.37242 453
40.39254 468
40.41265 456
40.43277 468
40.45288 451
40.47299 415
40.49311 415
40.51322 418
40.53333 469
40.55345 456
40.57356 467
40.59368 412
40.61379 449
40.6339 431
40.65402 451
40.67413 443
40.69424 442
40.71436 426
40.73447 468
40.75458 422
40.7747 395
40.79481 452
40.81493 446
40.83504 425
40.85515 452
40.87527 448
40.89538 422
40.91549 436
40.93561 431
40.95572 441
40.97584 472
40.99595 410
41.01606 433
41.03618 417
41.05629 425
41.0764 431
41.09652 451
41.11663 404
41.13675 416
41.15686 453
41.17697 417
41.19709 427
41.2172 453
41.23731 420
41.25743 414
41.27754 421
41.29765 441
41.31777 417
41.33788 418
41.358 412
41.37811 433
41.39822 485
41.41834 420
41.43845 478
41.45856 419
41.47868 450
41.49879 412
41.51891 411
41.53902 422
41.55913 426
41.57925 424
41.59936 420
41.61947 420
41.63959 422
41.6597 454
41.67982 451
41.69993 428
41.72004 424
41.74016 418
41.76027 419
41.78038 418
41.8005 446
41.82061 449
41.84072 467
41.86084 411
41.88095 439
41.90107 416
41.92118 433
41.94129 435
41.96141 467
41.98152 451
42.00163 416
42.02175 412
42.04186 403
42.06198 436
42.08209 410
42.1022 477
42.12232 447
42.14243 450
42.16254 488
42.18266 444
42.20277 489
42.22289 429
42.243 486
42.26311 510
42.28323 497
42.30334 511
42.32345 532
42.34357 520
42.36368 533
42.38379 514
42.40391 492
42.42402 523
42.44414 479
42.46425 452
42.48436 452
42.50448 455
42.52459 392
42.5447 432
42.56482 446
42.58493 417
42.60505 388
42.62516 363
42.64527 389
42.66539 402
42.6855 436
42.70561 424
42.72573 419
42.74584 368
42.76595 378
42.78607 394
42.80618 417
42.8263 367
42.84641 418
42.86652 406
42.88664 433
42.90675 412
42.92686 358
42.94698 419
42.96709 403
42.98721 385
43.00732 373
43.02743 375
43.04755 373
43.06766 415
43.08777 431
43.10789 438
43.128 398
43.14812 388
43.16823 400
43.18834 382
43.20846 421
43.22857 393
43.24868 406
43.2688 374
43.28891 369
43.30902 391
43.32914 379
43.34925 398
43.36937 398
43.38948 405
43.40959 380
43.42971 396
43.44982 407
43.46993 426
43.49005 411
43.51016 378
43.53028 401
43.55039 373
43.5705 387
43.59062 418
43.61073 417
43.63084 386
43.65096 370
43.67107 389
43.69119 420
43.7113 417
43.73141 407
43.75153 382
43.77164 367
43.79175 398
43.81187 434
43.83198 413
43.85209 399
43.87221 376
43.89232 397
43.91244 377
43.93255 412
43.95266 417
43.97278 422
43.99289 392
44.013 415
44.03312 374
44.05323 419
44.07335 403
44.09346 407
44.11357 399
44.13369 360
44.1538 404
44.17391 408
44.19403 406
44.21414 351
44.23426 387
44.25437 409
44.27448 410
44.2946 374
44.31471 365
44.33482 381
44.35494 370
44.37505 373
44.39516 395
44.41528 419
44.43539 386
44.45551 400
44.47562 361
44.49573 384
44.51585 405
44.53596 388
44.55607 427
44.57619 396
44.5963 372
44.61642 413
44.63653 407
44.65664 397
44.67676 410
44.69687 390
44.71698 362
44.7371 365
44.75721 412
44.77732 406
44.79744 382
44.81755 391
44.83767 426
44.85778 423
44.87789 413
44.89801 439
44.91812 427
44.93823 377
44.95835 411
44.97846 403
44.99858 395
45.01869 391
45.0388 405
45.05892 410
45.07903 412
45.09914 412
45.11926 424
45.13937 443
45.15949 401
45.1796 402
45.19971 370
45.21983 411
45.23994 429
45.26005 389
45.28017 404
45.30028 436
45.32039 441
45.34051 409
45.36062 410
45.38074 458
45.40085 421
45.42096 438
45.44108 493
45.46119 468
45.4813 414
45.50142 436
45.52153 451
45.54165 456
45.56176 460
45.58187 448
45.60199 474
45.6221 451
45.64221 478
45.66233 480
45.68244 476
45.70256 476
45.72267 489
45.74278 442
45.7629 451
45.78301 442
45.80312 447
45.82324 421
45.84335 429
45.86346 429
45.88358 388
45.90369 379
45.92381 421
45.94392 365
45.96403 383
45.98415 412
46.00426 429
46.02437 419
46.04449 421
46.0646 402
46.08472 428
46.10483 437
46.12494 371
46.14506 338
46.16517 403
46.18528 419
46.2054 401
46.22551 384
46.24563 381
46.26574 378
46.28585 422
46.30597 390
46.32608 430
46.34619 454
46.36631 370
46.38642 362
46.40653 383
46.42665 406
46.44676 371
46.46688 355
46.48699 399
46.5071 422
46.52722 404
46.54733 382
46.56744 394
46.58756 375
46.60767 406
46.62779 366
46.6479 408
46.66801 392
46.68813 367
46.70824 369
46.72835 380
46.74847 357
46.76858 397
46.78869 394
46.80881 375
46.82892 397
46.84904 408
46.86915 376
46.88926 400
46.90938 406
46.92949 393
46.9496 373
46.96972 394
46.98983 378
47.00995 387
47.03006 407
47.05017 368
47.07029 383
47.0904 424
47.11051 348
47.13063 367
47.15074 401
47.17086 368
47.19097 365
47.21108 404
47.2312 364
47.25131 391
47.27142 384
47.29154 350
47.31165 373
47.33176 371
47.35188 341
47.37199 393
47.39211 340
47.41222 369
47.43233 397
47.45245 359
47.47256 401
47.49267 404
47.51279 390
47.5329 360
47.55302 376
47.57313 387
47.59324 374
47.61336 391
47.63347 376
47.65358 347
47.6737 410
47.69381 390
47.71393 397
47.73404 401
47.75415 383
47.77427 358
47.79438 373
47.81449 383
47.83461 372
47.85472 407
47.87483 387
47.89495 404
47.91506 392
47.93518 375
47.95529 380
47.9754 383
47.99552 379
48.01563 379
48.03574 368
48.05586 372
48.07597 413
48.09609 323
48.1162 353
48.13631 345
48.15643 366
48.17654 386
48.19665 376
48.21677 372
48.23688 382
48.257 370
48.27711 365
48.29722 385
48.31734 382
48.33745 354
48.35756 349
48.37768 380
48.39779 384
48.4179 365
48.43802 395
48.45813 333
48.47825 358
48.49836 347
48.51847 377
48.53859 377
48.5587 360
48.57881 378
48.59893 355
48.61904 382
48.63916 366
48.65927 346
48.67938 342
48.6995 365
48.71961 337
48.73972 343
48.75984 344
48.77995 365
48.80006 361
48.82018 319
48.84029 380
48.86041 358
48.88052 365
48.90063 364
48.92075 357
48.94086 337
48.96097 349
48.98109 368
49.0012 352
49.02132 366
49.04143 400
49.06154 368
49.08166 347
49.10177 353
49.12188 320
49.142 327
49.16211 342
49.18223 366
49.20234 314
49.22245 388
49.24257 361
49.26268 335
49.28279 332
49.30291 359
49.32302 327
49.34313 347
49.36325 362
49.38336 344
49.40348 350
49.42359 391
49.4437 374
49.46382 373
49.48393 353
49.50404 354
49.52416 361
49.54427 394
49.56439 390
49.5845 385
49.60461 381
49.62473 379
49.64484 365
49.66495 372
49.68507 402
49.70518 405
49.7253 379
49.74541 415
49.76552 409
49.78564 418
49.80575 420
49.82586 510
49.84598 440
49.86609 498
49.8862 526
49.90632 541
49.92643 559
49.94655 590
49.96666 622
49.98677 614
50.00689 598
50.027 623
50.04711 611
50.06723 592
50.08734 638
50.10746 524
50.12757 530
50.14768 454
50.1678 475
50.18791 487
50.20802 439
50.22814 427
50.24825 411
50.26837 341
50.28848 361
50.30859 358
50.32871 358
50.34882 353
50.36893 371
50.38905 344
50.40916 376
50.42927 338
50.44939 362
50.4695 356
50.48962 384
50.50973 345
50.52984 347
50.54996 347
50.57007 373
50.59018 351
50.6103 347
50.63041 349
50.65053 359
50.67064 368
50.69075 345
50.71087 327
50.73098 363
50.75109 294
50.77121 331
50.79132 368
50.81143 329
50.83155 331
50.85166 374
50.87178 353
50.89189 323
50.912 353
50.93212 334
50.95223 349
50.97234 340
50.99246 354
51.01257 313
51.03269 360
51.0528 373
51.07291 347
51.09303 323
51.11314 313
51.13325 359
51.15337 353
51.17348 341
51.1936 329
51.21371 309
51.23382 317
51.25394 330
51.27405 367
51.29416 326
51.31428 317
51.33439 324
51.3545 342
51.37462 336
51.39473 324
51.41485 335
51.43496 341
51.45507 343
51.47519 334
51.4953 331
51.51541 370
51.53553 326
51.55564 365
51.57576 359
51.59587 342
51.61598 367
51.6361 324
51.65621 340
51.67632 337
51.69644 361
51.71655 332
51.73667 338
51.75678 335
51.77689 347
51.79701 345
51.81712 307
51.83723 328
51.85735 360
51.87746 341
51.89757 314
51.91769 333
51.9378 319
51.95792 339
51.97803 295
51.99814 355
52.01826 325
52.03837 336
52.05848 320
52.0786 328
52.09871 303
52.11883 342
52.13894 344
52.15905 337
52.17917 331
52.19928 335
52.21939 357
52.23951 342
52.25962 363
52.27974 341
52.29985 336
52.31996 337
52.34008 323
52.36019 341
52.3803 365
52.40042 348
52.42053 358
52.44064 359
52.46076 305
52.48087 319
52.50099 349
52.5211 352
52.54121 364
52.56133 324
52.58144 337
52.60155 359
52.62167 376
52.64178 345
52.6619 346
52.68201 339
52.70212 333
52.72224 395
52.74235 360
52.76246 352
52.78258 355
52.80269 371
52.8228 373
52.84292 342
52.86303 344
52.88315 360
52.90326 337
52.92337 350
52.94349 371
52.9636 327
52.98371 347
53.00383 354
53.02394 338
53.04406 336
53.06417 365
53.08428 352
53.1044 373
53.12451 348
53.14462 376
53.16474 346
53.18485 358
53.20497 349
53.22508 346
53.24519 374
53.26531 389
53.28542 376
53.30553 357
53.32565 376
53.34576 361
53.36587 340
53.38599 351
53.4061 380
53.42622 398
53.44633 369
53.46644 358
53.48656 362
53.50667 360
53.52678 396
53.5469 373
53.56701 359
53.58713 379
53.60724 412
53.62735 398
53.64747 404
53.66758 416
53.68769 370
53.70781 410
53.72792 421
53.74804 422
53.76815 400
53.78826 397
53.80838 424
53.82849 383
53.8486 408
53.86872 389
53.88883 412
53.90894 403
53.92906 403
53.94917 424
53.96929 447
53.9894 457
54.00951 419
54.02963 452
54.04974 411
54.06985 445
54.08997 410
54.11008 450
54.1302 431
54.15031 447
54.17042 434
54.19054 425
54.21065 441
54.23076 455
54.25088 420
54.27099 414
54.29111 427
54.31122 411
54.33133 462
54.35145 440
54.37156 441
54.39167 446
54.41179 438
54.4319 452
54.45201 475
54.47213 467
54.49224 445
54.51236 453
54.53247 455
54.55258 458
54.5727 516
54.59281 494
54.61292 506
54.63304 503
54.65315 495
54.67327 507
54.69338 508
54.71349 476
54.73361 496
54.75372 521
54.77383 515
54.79395 503
54.81406 498
54.83417 471
54.85429 491
54.8744 480
54.89452 482
54.91463 541
54.93474 487
54.95486 482
54.97497 479
54.99508 453
55.0152 481
55.03531 453
55.05543 426
55.07554 459
55.09565 454
55.11577 450
55.13588 435
55.15599 462
55.17611 465
55.19622 431
55.21634 420
55.23645 435
55.25656 448
55.27668 437
55.29679 458
55.3169 475
55.33702 447
55.35713 430
55.37724 453
55.39736 461
55.41747 414
55.43759 430
55.4577 381
55.47781 401
55.49793 431
55.51804 416
55.53815 395
55.55827 408
55.57838 430
55.5985 394
55.61861 395
55.63872 386
55.65884 399
55.67895 398
55.69906 376
55.71918 413
55.73929 387
55.75941 422
55.77952 441
55.79963 379
55.81975 420
55.83986 370
55.85997 400
55.88009 401
55.9002 402
55.92031 382
55.94043 391
55.96054 385
55.98066 341
56.00077 402
56.02088 398
56.041 406
56.06111 395
56.08122 407
56.10134 391
56.12145 407
56.14157 383
56.16168 392
56.18179 419
56.20191 403
56.22202 385
56.24213 383
56.26225 365
56.28236 383
56.30248 400
56.32259 400
56.3427 369
56.36282 387
56.38293 382
56.40304 369
56.42316 390
56.44327 385
56.46338 430
56.4835 368
56.50361 402
56.52373 396
56.54384 403
56.56395 396
56.58407 357
56.60418 361
56.62429 382
56.64441 370
56.66452 417
56.68464 359
56.70475 385
56.72486 355
56.74498 400
56.76509 400
56.7852 365
56.80532 383
56.82543 385
56.84554 354
56.86566 357
56.88577 357
56.90589 382
56.926 347
56.94611 359
56.96623 353
56.98634 360
57.00645 347
57.02657 393
57.04668 367
57.0668 355
57.08691 349
57.10702 342
57.12714 352
57.14725 394
57.16736 395
57.18748 428
57.20759 381
57.22771 403
57.24782 367
57.26793 333
57.28805 339
57.30816 342
57.32827 385
57.34839 339
57.3685 383
57.38861 374
57.40873 331
57.42884 341
57.44896 366
57.46907 348
57.48918 371
57.5093 344
57.52941 388
57.54952 334
57.56964 374
57.58975 364
57.60987 324
57.62998 358
57.65009 378
57.67021 356
57.69032 349
57.71043 358
57.73055 338
57.75066 353
57.77078 315
57.79089 347
57.811 327
57.83112 368
57.85123 327
57.87134 366
57.89146 301
57.91157 341
57.93168 358
57.9518 362
57.97191 366
57.99203 376
58.01214 342
58.03225 336
58.05237 349
58.07248 334
58.09259 352
58.11271 349
58.13282 359
58.15294 356
58.17305 383
58.19316 357
58.21328 364
58.23339 330
58.2535 370
58.27362 355
58.29373 367
58.31385 376
58.33396 318
58.35407 340
58.37419 369
58.3943 317
58.41441 334
58.43453 347
58.45464 315
58.47475 361
58.49487 339
58.51498 336
58.5351 340
58.55521 349
58.57532 338
58.59544 352
58.61555 361
58.63566 364
58.65578 334
58.67589 335
58.69601 331
58.71612 314
58.73623 348
58.75635 356
58.77646 321
58.79657 347
58.81669 328
58.8368 362
58.85691 353
58.87703 369
58.89714 326
58.91726 338
58.93737 338
58.95748 342
58.9776 341
58.99771 343
59.01782 340
59.03794 306
59.05805 374
59.07817 360
59.09828 342
59.11839 363
59.13851 355
59.15862 347
59.17873 342
59.19885 341
59.21896 350
59.23908 353
59.25919 365
59.2793 382
59.29942 360
59.31953 368
59.33964 359
59.35976 341
59.37987 369
59.39998 350
59.4201 395
59.44021 354
59.46033 388
59.48044 383
59.50055 405
59.52067 406
59.54078 389
59.56089 391
59.58101 403
59.60112 458
59.62124 376
59.64135 433
59.66146 433
59.68158 429
59.70169 426
59.7218 482
59.74192 490
59.76203 494
59.78215 489
59.80226 525
59.82237 539
59.84249 555
59.8626 492
59.88271 500
59.90283 479
59.92294 507
59.94305 445
59.96317 446
59.98328 483
60.0034 440
60.02351 422
60.04362 474
60.06374 387
60.08385 426
60.10396 416
60.12408 382
60.14419 401
60.16431 390
60.18442 403
60.20453 373
60.22465 362
60.24476 372
60.26487 370
60.28499 352
60.3051 377
60.32522 369
60.34533 376
60.36544 399
60.38556 385
60.40567 375
60.42578 387
60.4459 392
60.46601 379
60.48612 346
60.50624 350
60.52635 362
60.54647 353
60.56658 377
60.58669 379
60.60681 367
60.62692 335
60.64703 363
60.66715 367
60.68726 377
60.70738 375
60.72749 407
60.7476 339
60.76772 394
60.78783 357
60.80794 384
60.82806 360
60.84817 384
60.86828 396
60.8884 370
60.90851 406
60.92863 387
60.94874 399
60.96885 426
60.98897 399
61.00908 405
61.02919 423
61.04931 377
61.06942 403
61.08954 378
61.10965 388
61.12976 409
61.14988 397
61.16999 405
61.1901 444
61.21022 458
61.23033 365
61.25045 412
61.27056 408
61.29067 458
61.31079 394
61.3309 449
61.35101 442
61.37113 452
61.39124 456
61.41135 433
61.43147 426
61.45158 467
61.4717 494
61.49181 469
61.51192 445
61.53204 449
61.55215 437
61.57226 448
61.59238 472
61.61249 443
61.63261 497
61.65272 479
61.67283 457
61.69295 446
61.71306 474
61.73317 489
61.75329 501
61.7734 504
61.79352 528
61.81363 529
61.83374 465
61.85386 486
61.87397 498
61.89408 540
61.9142 523
61.93431 504
61.95442 519
61.97454 480
61.99465 484
62.01477 548
62.03488 521
62.05499 534
62.07511 537
62.09522 523
62.11533 519
62.13545 499
62.15556 486
62.17568 529
62.19579 498
62.2159 483
62.23602 480
62.25613 491
62.27624 485
62.29636 451
62.31647 459
62.33659 458
62.3567 425
62.37681 430
62.39693 459
62.41704 440
62.43715 436
62.45727 439
62.47738 418
62.49749 450
62.51761 386
62.53772 382
62.55784 395
62.57795 392
62.59806 383
62.61818 410
62.63829 382
62.6584 392
62.67852 377
62.69863 385
62.71875 396
62.73886 362
62.75897 380
62.77909 369
62.7992 373
62.81931 365
62.83943 385
62.85954 369
62.87965 381
62.89977 380
62.91988 376
62.94 378
62.96011 391
62.98022 371
63.00034 340
63.02045 362
63.04056 358
63.06068 370
63.08079 357
63.10091 350
63.12102 400
63.14113 366
63.16125 357
63.18136 344
63.20147 330
63.22159 379
63.2417 348
63.26182 316
63.28193 352
63.30204 353
63.32216 377
63.34227 365
63.36238 369
63.3825 367
63.40261 344
63.42272 345
63.44284 357
63.46295 352
63.48307 383
63.50318 386
63.52329 373
63.54341 362
63.56352 337
63.58363 377
63.60375 407
63.62386 342
63.64398 380
63.66409 400
63.6842 357
63.70432 352
63.72443 366
63.74454 358
63.76466 386
63.78477 367
63.80489 388
63.825 381
63.84511 370
63.86523 403
63.88534 375
63.90545 395
63.92557 392
63.94568 377
63.96579 360
63.98591 365
64.00602 336
64.02614 361
64.04625 360
64.06636 372
64.08648 340
64.10659 355
64.1267 351
64.14682 341
64.16693 367
64.18705 335
64.20716 357
64.22727 356
64.24739 350
64.2675 311
64.28761 341
64.30773 320
64.32784 304
64.34796 345
64.36807 328
64.38818 333
64.4083 335
64.42841 368
64.44852 351
64.46864 317
64.48875 347
64.50886 377
64.52898 341
64.54909 318
64.56921 344
64.58932 348
64.60943 381
64.62955 339
64.64966 352
64.66977 332
64.68989 280
64.71 320
64.73012 335
64.75023 344
64.77034 312
64.79046 346
64.81057 339
64.83068 304
64.8508 308
64.87091 317
64.89102 342
64.91114 304
64.93125 316
64.95137 317
64.97148 350
64.99159 345
65.01171 316
65.03182 346
65.05193 318
65.07205 327
65.09216 339
65.11228 313
65.13239 329
65.1525 314
65.17262 368
65.19273 337
65.21284 331
65.23296 323
65.25307 324
65.27319 316
65.2933 319
65.31341 338
65.33353 337
65.35364 324
65.37375 322
65.39387 326
65.41398 338
65.43409 326
65.45421 313
65.47432 340
65.49444 351
65.51455 307
65.53466 344
65.55478 308
65.57489 335
65.595 335
65.61512 323
65.63523 349
65.65535 355
65.67546 324
65.69557 341
65.71569 322
65.7358 355
65.75591 339
65.77603 336
65.79614 330
65.81626 324
65.83637 319
65.85648 350
65.8766 326
65.89671 339
65.91682 348
65.93694 318
65.95705 347
65.97716 338
65.99728 320
66.01739 326
66.03751 347
66.05762 349
66.07773 318
66.09785 332
66.11796 331
66.13807 338
66.15819 332
66.1783 325
66.19842 350
66.21853 315
66.23864 336
66.25876 329
66.27887 322
66.29898 315
66.3191 308
66.33921 309
66.35933 319
66.37944 315
66.39955 329
66.41967 323
66.43978 318
66.45989 308
66.48001 325
66.50012 337
66.52023 350
66.54035 318
66.56046 355
66.58058 298
66.60069 334
66.6208 326
66.64092 317
66.66103 331
66.68114 335
66.70126 323
66.72137 328
66.74149 287
66.7616 326
66.78171 351
66.80183 321
66.82194 317
66.84205 332
66.86217 315
66.88228 316
66.90239 292
66.92251 312
66.94262 319
66.96274 316
66.98285 349
67.00296 330
67.02308 343
67.04319 342
67.0633 335
67.08342 300
67.10353 328
67.12365 355
67.14376 334
67.16387 325
67.18399 362
67.2041 321
67.22421 372
67.24433 334
67.26444 353
67.28456 348
67.30467 342
67.32478 348
67.3449 366
67.36501 365
67.38512 374
67.40524 364
67.42535 369
67.44546 387
67.46558 405
67.48569 384
67.50581 396
67.52592 430
67.54603 442
67.56615 421
67.58626 466
67.60637 413
67.62649 460
67.6466 428
67.66672 447
67.68683 451
67.70694 421
67.72706 422
67.74717 426
67.76728 439
67.7874 442
67.80751 392
67.82763 477
67.84774 444
67.86785 459
67.88797 446
67.90808 452
67.92819 428
67.94831 474
67.96842 515
67.98853 498
68.00865 488
68.02876 508
68.04888 510
68.06899 469
68.0891 436
68.10922 470
68.12933 445
68.14944 489
68.16956 431
68.18967 459
68.20979 435
68.2299 465
68.25001 420
68.27013 438
68.29024 400
68.31035 394
68.33047 382
68.35058 393
68.3707 402
68.39081 400
68.41092 381
68.43104 343
68.45115 379
68.47126 353
68.49138 358
68.51149 347
68.5316 323
68.55172 313
68.57183 364
68.59195 311
68.61206 342
68.63217 371
68.65229 314
68.6724 347
68.69251 315
68.71263 342
68.73274 333
68.75286 336
68.77297 336
68.79308 320
68.8132 338
68.83331 314
68.85342 310
68.87354 338
68.89365 327
68.91376 298
68.93388 331
68.95399 339
68.97411 311
68.99422 319
69.01433 333
69.03445 285
69.05456 337
69.07467 310
69.09479 319
69.1149 341
69.13502 329
69.15513 313
69.17524 305
69.19536 296
69.21547 312
69.23558 305
69.2557 351
69.27581 319
69.29593 338
69.31604 335
69.33615 315
69.35627 318
69.37638 339
69.39649 361
69.41661 288
69.43672 324
69.45683 358
69.47695 350
69.49706 296
69.51718 330
69.53729 292
69.5574 279
69.57752 320
69.59763 301
69.61774 337
69.63786 294
69.65797 323
69.67809 326
69.6982 299
69.71831 351
69.73843 293
69.75854 302
69.77865 337
69.79877 321
69.81888 346
69.839 332
69.85911 314
69.87922 321
69.89934 315
69.91945 318
69.93956 297
69.95968 345
69.97979 321
69.9999 332
70.02002 289
70.04013 327
70.06025 330
70.08036 332
70.10047 342
70.12059 333
70.1407 285
70.16081 305
70.18093 298
70.20104 329
70.22116 335
70.24127 338
70.26138 331
70.2815 340
70.30161 329
70.32172 335
70.34184 308
70.36195 311
70.38207 287
70.40218 312
70.42229 306
70.44241 328
70.46252 329
70.48263 314
70.50275 323
70.52286 317
70.54297 308
70.56309 311
70.5832 328
70.60332 328
70.62343 314
70.64354 293
70.66366 319
70.68377 340
70.70388 305
70.724 313
70.74411 322
70.76423 290
70.78434 297
70.80445 306
70.82457 299
70.84468 304
70.86479 334
70.88491 322
70.90502 299
70.92513 340
70.94525 334
70.96536 321
70.98548 341
71.00559 335
71.0257 321
71.04582 341
71.06593 306
71.08604 324
71.10616 304
71.12627 328
71.14639 347
71.1665 318
71.18661 310
71.20673 328
71.22684 303
71.24695 336
71.26707 311
71.28718 352
71.3073 352
71.32741 311
71.34752 313
71.36764 307
71.38775 319
71.40786 353
71.42798 305
71.44809 295
71.4682 325
71.48832 307
71.50843 334
71.52855 324
71.54866 305
71.56877 301
71.58889 297
71.609 327
71.62911 309
71.64923 329
71.66934 324
71.68946 357
71.70957 321
71.72968 308
71.7498 277
71.76991 329
71.79002 322
71.81014 327
71.83025 327
71.85037 364
71.87048 311
71.89059 288
71.91071 312
71.93082 313
71.95093 333
71.97105 358
71.99116 342
72.01127 311
72.03139 300
72.0515 332
72.07162 338
72.09173 320
72.11184 330
72.13196 342
72.15207 345
72.17218 317
72.1923 337
72.21241 369
72.23253 335
72.25264 330
72.27275 343
72.29287 329
72.31298 328
72.33309 342
72.35321 330
72.37332 343
72.39344 348
72.41355 338
72.43366 359
72.45378 325
72.47389 305
72.494 325
72.51412 372
72.53423 359
72.55434 364
72.57446 350
72.59457 343
72.61469 336
72.6348 361
72.65491 374
72.67503 358
72.69514 357
72.71525 369
72.73537 356
72.75548 336
72.7756 347
72.79571 340
72.81582 394
72.83594 349
72.85605 343
72.87616 363
72.89628 342
72.91639 348
72.9365 367
72.95662 350
72.97673 328
72.99685 346
73.01696 326
73.03707 345
73.05719 359
73.0773 354
73.09741 376
73.11753 376
73.13764 369
73.15776 357
73.17787 383
73.19798 363
73.2181 378
73.23821 379
73.25832 370
73.27844 377
73.29855 403
73.31867 363
73.33878 378
73.35889 402
73.37901 395
73.39912 394
73.41923 360
73.43935 381
73.45946 383
73.47957 396
73.49969 373
73.5198 389
73.53992 373
73.56003 379
73.58014 355
73.60026 370
73.62037 405
73.64048 376
73.6606 344
73.68071 341
73.70083 328
73.72094 327
73.74105 336
73.76117 334
73.78128 353
73.80139 325
73.82151 346
73.84162 307
73.86174 334
73.88185 347
73.90196 344
73.92208 337
73.94219 364
73.9623 360
73.98242 382
74.00253 347
74.02264 358
74.04276 340
74.06287 319
74.08299 356
74.1031 329
74.12321 350
74.14333 304
74.16344 343
74.18355 310
74.20367 317
74.22378 328
74.2439 353
74.26401 333
74.28412 336
74.30424 337
74.32435 357
74.34446 342
74.36458 321
74.38469 325
74.40481 316
74.42492 310
74.44503 327
74.46515 373
74.48526 339
74.50537 333
74.52549 328
74.5456 322
74.56571 335
74.58583 338
74.60594 333
74.62606 302
74.64617 333
74.66628 323
74.6864 338
74.70651 321
74.72662 351
74.74674 334
74.76685 329
74.78697 315
74.80708 354
74.82719 348
74.84731 333
74.86742 311
74.88753 342
74.90765 327
74.92776 358
74.94787 342
74.96799 333
74.9881 317
75.00822 300
