3.00117 21687
3.02128 20690
3.0414 21011
3.06151 19866
3.08162 19405
3.10174 18931
3.12185 18352
3.14197 18222
3.16208 17368
3.18219 16836
3.20231 16610
3.22242 15776
3.24253 15855
3.26265 15235
3.28276 14481
3.30288 14136
3.32299 13449
3.3431 13513
3.36322 12808
3.38333 12571
3.40344 12019
3.42356 11369
3.44367 11332
3.46379 10952
3.4839 10702
3.50401 10159
3.52413 9859
3.54424 9505
3.56435 9303
3.58447 8706
3.60458 8572
3.62469 8279
3.64481 7966
3.66492 7807
3.68504 7362
3.70515 7210
3.72526 6668
3.74538 6691
3.76549 6313
3.7856 6065
3.80572 5849
3.82583 5458
3.84595 5306
3.86606 5123
3.88617 5028
3.90629 4758
3.9264 4457
3.94651 4444
3.96663 4253
3.98674 3986
4.00686 3818
4.02697 3691
4.04708 3745
4.0672 3504
4.08731 3153
4.10742 3109
4.12754 2938
4.14765 2933
4.16776 2786
4.18788 2617
4.20799 2563
4.22811 2436
4.24822 2409
4.26833 2453
4.28845 2214
4.30856 2066
4.32867 1997
4.34879 2010
4.3689 1981
4.38902 1888
4.40913 1816
4.42924 1858
4.44936 1834
4.46947 1749
4.48958 1650
4.5097 1775
4.52981 1635
4.54992 1538
4.57004 1589
4.59015 1489
4.61027 1465
4.63038 1489
4.65049 1417
4.67061 1466
4.69072 1360
4.71083 1412
4.73095 1363
4.75106 1340
4.77118 1369
4.79129 1223
4.8114 1282
4.83152 1200
4.85163 1111
4.87174 1176
4.89186 1059
4.91197 1055
4.93209 1072
4.9522 1101
4.97231 1093
4.99243 982
5.01254 1012
5.03265 992
5.05277 887
5.07288 977
5.09299 911
5.11311 959
5.13322 919
5.15334 902
5.17345 922
5.19356 876
5.21368 870
5.23379 841
5.2539 827
5.27402 808
5.29413 768
5.31425 780
5.33436 789
5.35447 758
5.37459 768
5.3947 753
5.41481 734
5.43493 732
5.45504 687
5.47516 707
5.49527 674
5.51538 704
5.5355 640
5.55561 623
5.57572 655
5.59584 650
5.61595 635
5.63606 612
5.65618 613
5.67629 586
5.69641 629
5.71652 655
5.73663 671
5.75675 629
5.77686 609
5.79697 579
5.81709 603
5.8372 636
5.85732 646
5.87743 613
5.89754 624
5.91766 612
5.93777 680
5.95788 603
5.978 615
5.99811 626
6.01823 678
6.03834 700
6.05845 681
6.07857 638
6.09868 736
6.11879 765
6.13891 794
6.15902 819
6.17913 881
6.19925 973
6.21936 959
6.23948 900
6.25959 861
6.2797 926
6.29982 793
6.31993 766
6.34004 755
6.36016 753
6.38027 664
6.40039 598
6.4205 594
6.44061 559
6.46073 588
6.48084 539
6.50095 554
6.52107 509
6.54118 523
6.56129 536
6.58141 546
6.60152 497
6.62164 549
6.64175 526
6.66186 545
6.68198 528
6.70209 529
6.7222 515
6.74232 469
6.76243 505
6.78255 493
6.80266 517
6.82277 529
6.84289 495
6.863 496
6.88311 465
6.90323 511
6.92334 525
6.94346 504
6.96357 468
6.98368 509
7.0038 561
7.02391 546
7.04402 523
7.06414 536
7.08425 488
7.10436 553
7.12448 503
7.14459 509
7.16471 509
7.18482 496
7.20493 513
7.22505 498
7.24516 574
7.26527 563
7.28539 564
7.3055 541
7.32562 572
7.34573 505
7.36584 577
7.38596 590
7.40607 574
7.42618 566
7.4463 558
7.46641 619
7.48653 578
7.50664 616
7.52675 575
7.54687 608
7.56698 586
7.58709 599
7.60721 617
7.62732 585
7.64743 579
7.66755 579
7.68766 672
7.70778 616
7.72789 594
7.748 527
7.76812 582
7.78823 625
7.80834 661
7.82846 606
7.84857 574
7.86869 515
7.8888 583
7.90891 611
7.92903 568
7.94914 586
7.96925 638
7.98937 605
8.00948 608
8.0296 569
8.04971 571
8.06982 665
8.08994 671
8.11005 615
8.13016 595
8.15028 573
8.17039 568
8.1905 629
8.21062 639
8.23073 608
8.25085 605
8.27096 596
8.29107 577
8.31119 604
8.3313 569
8.35141 619
8.37153 587
8.39164 608
8.41176 639
8.43187 637
8.45198 594
8.4721 634
8.49221 633
8.51232 625
8.53244 639
8.55255 633
8.57266 625
8.59278 622
8.61289 652
8.63301 636
8.65312 669
8.67323 704
8.69335 686
8.71346 743
8.73357 830
8.75369 815
8.7738 895
8.79392 1005
8.81403 1060
8.83414 1083
8.85426 1124
8.87437 1118
8.89448 1016
8.9146 908
8.93471 819
8.95483 721
8.97494 694
8.99505 590
9.01517 619
9.03528 575
9.05539 514
9.07551 509
9.09562 514
9.11573 542
9.13585 531
9.15596 551
9.17608 543
9.19619 504
9.2163 497
9.23642 508
9.25653 450
9.27664 503
9.29676 527
9.31687 466
9.33699 529
9.3571 461
9.37721 467
9.39733 503
9.41744 472
9.43755 513
9.45767 502
9.47778 512
9.4979 485
9.51801 496
9.53812 478
9.55824 501
9.57835 440
9.59846 476
9.61858 532
9.63869 491
9.6588 451
9.67892 499
9.69903 484
9.71915 451
9.73926 512
9.75937 456
9.77949 468
9.7996 451
9.81971 475
9.83983 484
9.85994 518
9.88006 459
9.90017 463
9.92028 429
9.9404 446
9.96051 462
9.98062 476
10.00074 439
10.02085 445
10.04097 487
10.06108 466
10.08119 498
10.10131 441
10.12142 477
10.14153 452
10.16165 444
10.18176 492
10.20187 433
10.22199 478
10.2421 423
10.26222 473
10.28233 463
10.30244 425
10.32256 473
10.34267 491
10.36278 478
10.3829 462
10.40301 385
10.42313 449
10.44324 452
10.46335 467
10.48347 445
10.50358 428
10.52369 459
10.54381 467
10.56392 460
10.58403 465
10.60415 492
10.62426 392
10.64438 430
10.66449 409
10.6846 470
10.70472 445
10.72483 460
10.74494 457
10.76506 459
10.78517 475
10.80529 402
10.8254 426
10.84551 441
10.86563 376
10.88574 423
10.90585 430
10.92597 453
10.94608 443
10.9662 460
10.98631 435
11.00642 442
11.02654 437
11.04665 479
11.06676 441
11.08688 417
11.10699 466
11.1271 420
11.14722 416
11.16733 456
11.18745 421
11.20756 453
11.22767 460
11.24779 494
11.2679 472
11.28801 405
11.30813 441
11.32824 442
11.34836 479
11.36847 409
11.38858 434
11.4087 493
11.42881 472
11.44892 445
11.46904 462
11.48915 486
11.50927 473
11.52938 464
11.54949 442
11.56961 448
11.58972 492
11.60983 472
11.62995 462
11.65006 468
11.67017 480
11.69029 501
11.7104 476
11.73052 516
11.75063 457
11.77074 502
11.79086 469
11.81097 532
11.83108 515
11.8512 533
11.87131 534
11.89143 549
11.91154 529
11.93165 561
11.95177 534
11.97188 529
11.99199 492
12.01211 587
12.03222 577
12.05234 585
12.07245 541
12.09256 590
12.11268 590
12.13279 555
12.1529 601
12.17302 593
12.19313 642
12.21324 656
12.23336 630
12.25347 612
12.27359 664
12.2937 699
12.31381 640
12.33393 696
12.35404 698
12.37415 745
12.39427 732
12.41438 743
12.4345 729
12.45461 710
12.47472 728
12.49484 734
12.51495 637
12.53506 604
12.55518 634
12.57529 581
12.5954 647
12.61552 579
12.63563 501
12.65575 503
12.67586 527
12.69597 482
12.71609 468
12.7362 525
12.75631 478
12.77643 468
12.79654 489
12.81666 431
12.83677 442
12.85688 420
12.877 446
12.89711 440
12.91722 433
12.93734 433
12.95745 402
12.97757 451
12.99768 432
13.01779 413
13.03791 483
13.05802 456
13.07813 452
13.09825 374
13.11836 417
13.13847 444
13.15859 433
13.1787 429
13.19882 389
13.21893 401
13.23904 404
13.25916 444
13.27927 402
13.29938 434
13.3195 368
13.33961 450
13.35973 440
13.37984 415
13.39995 389
13.42007 366
13.44018 367
13.46029 402
13.48041 374
13.50052 397
13.52064 385
13.54075 455
13.56086 429
13.58098 369
13.60109 418
13.6212 411
13.64132 401
13.66143 422
13.68154 389
13.70166 430
13.72177 424
13.74189 400
13.762 403
13.78211 444
13.80223 421
13.82234 403
13.84245 385
13.86257 415
13.88268 429
13.9028 425
13.92291 435
13.94302 398
13.96314 417
13.98325 408
14.00336 450
14.02348 405
14.04359 416
14.06371 381
14.08382 391
14.10393 423
14.12405 383
14.14416 454
14.16427 407
14.18439 396
14.2045 421
14.22461 452
14.24473 421
14.26484 393
14.28496 428
14.30507 372
14.32518 435
14.3453 435
14.36541 441
14.38552 420
14.40564 421
14.42575 405
14.44587 408
14.46598 392
14.48609 407
14.50621 363
14.52632 405
14.54643 402
14.56655 423
14.58666 369
14.60677 429
14.62689 387
14.647 439
14.66712 368
14.68723 360
14.70734 419
14.72746 402
14.74757 406
14.76768 434
14.7878 440
14.80791 406
14.82803 407
14.84814 373
14.86825 384
14.88837 408
14.90848 396
14.92859 421
14.94871 380
14.96882 416
14.98894 379
15.00905 444
15.02916 396
15.04928 392
15.06939 386
15.0895 379
15.10962 356
15.12973 413
15.14984 402
15.16996 413
15.19007 378
15.21019 408
15.2303 434
15.25041 386
15.27053 400
15.29064 411
15.31075 374
15.33087 390
15.35098 413
15.3711 394
15.39121 411
15.41132 395
15.43144 439
15.45155 429
15.47166 414
15.49178 439
15.51189 396
15.53201 421
15.55212 385
15.57223 417
15.59235 432
15.61246 412
15.63257 403
15.65269 396
15.6728 392
15.69291 389
15.71303 403
15.73314 393
15.75326 366
15.77337 410
15.79348 398
15.8136 390
15.83371 430
15.85382 419
15.87394 397
15.89405 383
15.91417 414
15.93428 368
15.95439 418
15.97451 373
15.99462 398
16.01473 424
16.03485 385
16.05496 374
16.07508 394
16.09519 399
16.1153 394
16.13542 387
16.15553 339
16.17564 394
16.19576 404
16.21587 394
16.23598 422
16.2561 399
16.27621 396
16.29633 372
16.31644 383
16.33655 396
16.35667 389
16.37678 415
16.39689 404
16.41701 395
16.43712 421
16.45724 399
16.47735 413
16.49746 401
16.51758 368
16.53769 382
16.5578 396
16.57792 382
16.59803 370
16.61814 379
16.63826 395
16.65837 383
16.67849 381
16.6986 398
16.71871 391
16.73883 432
16.75894 362
16.77905 395
16.79917 353
16.81928 384
16.8394 391
16.85951 400
16.87962 411
16.89974 413
16.91985 453
16.93996 397
16.96008 383
16.98019 401
17.00031 403
17.02042 425
17.04053 444
17.06065 411
17.08076 407
17.10087 405
17.12099 430
17.1411 396
17.16121 393
17.18133 429
17.20144 387
17.22156 398
17.24167 383
17.26178 396
17.2819 439
17.30201 439
17.32212 391
17.34224 416
17.36235 412
17.38247 398
17.40258 443
17.42269 400
17.44281 432
17.46292 409
17.48303 433
17.50315 423
17.52326 427
17.54338 445
17.56349 397
17.5836 428
17.60372 453
17.62383 423
17.64394 480
17.66406 520
17.68417 600
17.70428 590
17.7244 608
17.74451 597
17.76463 588
17.78474 535
17.80485 556
17.82497 525
17.84508 472
17.86519 478
17.88531 464
17.90542 475
17.92554 436
17.94565 399
17.96576 475
17.98588 469
18.00599 405
18.0261 447
18.04622 451
18.06633 448
18.08645 384
18.10656 374
18.12667 383
18.14679 393
18.1669 354
18.18701 420
18.20713 418
18.22724 432
18.24735 400
18.26747 418
18.28758 414
18.3077 449
18.32781 436
18.34792 390
18.36804 417
18.38815 377
18.40826 420
18.42838 398
18.44849 431
18.46861 386
18.48872 438
18.50883 438
18.52895 405
18.54906 468
18.56917 415
18.58929 435
18.6094 439
18.62951 481
18.64963 485
18.66974 487
18.68986 444
18.70997 485
18.73008 489
18.7502 476
18.77031 433
18.79042 464
18.81054 504
18.83065 470
18.85077 474
18.87088 455
18.89099 441
18.91111 436
18.93122 440
18.95133 431
18.97145 397
18.99156 433
19.01168 413
19.03179 425
19.0519 434
19.07202 426
19.09213 492
19.11224 443
19.13236 477
19.15247 446
19.17258 557
19.1927 521
19.21281 523
19.23293 547
19.25304 565
19.27315 566
19.29327 578
19.31338 549
19.33349 584
19.35361 541
19.37372 541
19.39384 598
19.41395 560
19.43406 577
19.45418 552
19.47429 638
19.4944 507
19.51452 576
19.53463 581
19.55475 564
19.57486 556
19.59497 630
19.61509 557
19.6352 587
19.65531 647
19.67543 684
19.69554 717
19.71565 742
19.73577 809
19.75588 907
19.776 905
19.79611 1006
19.81622 1067
19.83634 1064
19.85645 1109
19.87656 1183
19.89668 1036
19.91679 1041
19.93691 979
19.95702 844
19.97713 903
19.99725 787
20.01736 772
20.03747 701
20.05759 669
20.0777 709
20.09782 684
20.11793 664
20.13804 696
20.15816 637
20.17827 723
20.19838 643
20.2185 669
20.23861 631
20.25872 648
20.27884 646
20.29895 675
20.31907 650
20.33918 641
20.35929 610
20.37941 597
20.39952 626
20.41963 634
20.43975 605
20.45986 623
20.47998 605
20.50009 662
20.5202 704
20.54032 639
20.56043 715
20.58054 692
20.60066 761
20.62077 730
20.64088 784
20.661 831
20.68111 929
20.70123 976
20.72134 1070
20.74145 1256
20.76157 1525
20.78168 1706
20.80179 1919
20.82191 2063
20.84202 2175
20.86214 1990
20.88225 1731
20.90236 1459
20.92248 1172
20.94259 999
20.9627 814
20.98282 740
21.00293 674
21.02305 682
21.04316 687
21.06327 673
21.08339 645
21.1035 611
21.12361 682
21.14373 663
21.16384 714
21.18395 634
21.20407 679
21.22418 622
21.2443 669
21.26441 706
21.28452 716
21.30464 678
21.32475 654
21.34486 669
21.36498 676
21.38509 680
21.40521 606
21.42532 616
21.44543 614
21.46555 654
21.48566 642
21.50577 624
21.52589 673
21.546 639
21.56612 643
21.58623 659
21.60634 606
21.62646 643
21.64657 614
21.66668 640
21.6868 579
21.70691 640
21.72702 568
21.74714 569
21.76725 563
21.78737 594
21.80748 523
21.82759 514
21.84771 556
21.86782 548
21.88793 562
21.90805 558
21.92816 529
21.94828 548
21.96839 604
21.9885 565
22.00862 580
22.02873 506
22.04884 506
22.06896 575
22.08907 554
22.10919 494
22.1293 527
22.14941 508
22.16953 562
22.18964 523
22.20975 526
22.22987 558
22.24998 567
22.27009 543
22.29021 576
22.31032 549
22.33044 542
22.35055 559
22.37066 557
22.39078 526
22.41089 527
22.431 545
22.45112 562
22.47123 505
22.49135 544
22.51146 500
22.53157 492
22.55169 532
22.5718 564
22.59191 519
22.61203 529
22.63214 574
22.65225 554
22.67237 568
22.69248 557
22.7126 551
22.73271 577
22.75282 566
22.77294 606
22.79305 650
22.81316 638
22.83328 702
22.85339 710
22.87351 661
22.89362 718
22.91373 629
22.93385 692
22.95396 648
22.97407 676
22.99419 617
23.0143 596
23.03442 536
23.05453 535
23.07464 529
23.09476 515
23.11487 545
23.13498 536
23.1551 512
23.17521 508
23.19532 521
23.21544 501
23.23555 508
23.25567 462
23.27578 477
23.29589 508
23.31601 496
23.33612 525
23.35623 469
23.37635 501
23.39646 529
23.41658 510
23.43669 489
23.4568 533
23.47692 511
23.49703 510
23.51714 491
23.53726 543
23.55737 507
23.57749 533
23.5976 534
23.61771 557
23.63783 562
23.65794 579
23.67805 593
23.69817 638
23.71828 736
23.73839 669
23.75851 633
23.77862 703
23.79874 735
23.81885 694
23.83896 692
23.85908 702
23.87919 748
23.8993 687
23.91942 643
23.93953 592
23.95965 604
23.97976 568
23.99987 642
24.01999 553
24.0401 555
24.06021 493
24.08033 578
24.10044 534
24.12056 545
24.14067 576
24.16078 546
24.1809 593
24.20101 582
24.22112 530
24.24124 593
24.26135 532
24.28146 544
24.30158 602
24.32169 558
24.34181 532
24.36192 584
24.38203 545
24.40215 596
24.42226 559
24.44237 593
24.46249 566
24.4826 577
24.50272 604
24.52283 570
24.54294 613
24.56306 573
24.58317 603
24.60328 623
24.6234 633
24.64351 585
24.66362 634
24.68374 614
24.70385 663
24.72397 622
24.74408 665
24.76419 604
24.78431 640
24.80442 626
24.82453 626
24.84465 651
24.86476 734
24.88488 637
24.90499 632
24.9251 655
24.94522 690
24.96533 674
24.98544 720
25.00556 694
25.02567 726
25.04579 750
25.0659 734
25.08601 806
25.10613 742
25.12624 739
25.14635 756
25.16647 730
25.18658 686
25.20669 715
25.22681 707
25.24692 645
25.26704 656
25.28715 702
25.30726 688
25.32738 691
25.34749 716
25.3676 759
25.38772 804
25.40783 829
25.42795 803
25.44806 879
25.46817 844
25.48829 880
25.5084 853
25.52851 807
25.54863 740
25.56874 782
25.58886 677
25.60897 671
25.62908 634
25.6492 648
25.66931 610
25.68942 634
25.70954 671
25.72965 626
25.74976 646
25.76988 632
25.78999 629
25.81011 605
25.83022 637
25.85033 610
25.87045 670
25.89056 686
25.91067 686
25.93079 687
25.9509 703
25.97102 660
25.99113 680
26.01124 700
26.03136 685
26.05147 756
26.07158 723
26.0917 775
26.11181 732
26.13193 738
26.15204 730
26.17215 773
26.19227 823
26.21238 828
26.23249 867
26.25261 833
26.27272 889
26.29283 956
26.31295 979
26.33306 933
26.35318 1048
26.37329 1185
26.3934 1349
26.41352 1405
26.43363 1707
26.45374 1958
26.47386 2615
26.49397 3179
26.51409 3923
26.5342 4988
26.55431 6231
26.57443 7270
26.59454 7830
26.61465 7802
26.63477 7379
26.65488 6355
26.67499 5259
26.69511 4123
26.71522 3110
26.73534 2481
26.75545 1806
26.77556 1475
26.79568 1255
26.81579 1150
26.8359 1033
26.85602 998
26.87613 880
26.89625 852
26.91636 754
26.93647 788
26.95659 695
26.9767 653
26.99681 641
27.01693 615
27.03704 590
27.05716 593
27.07727 603
27.09738 603
27.1175 565
27.13761 590
27.15772 549
27.17784 566
27.19795 542
27.21806 547
27.23818 546
27.25829 554
27.27841 557
27.29852 523
27.31863 494
27.33875 509
27.35886 514
27.37897 522
27.39909 515
27.4192 531
27.43932 505
27.45943 536
27.47954 532
27.49966 533
27.51977 582
27.53988 506
27.56 529
27.58011 605
27.60023 562
27.62034 561
27.64045 572
27.66057 623
27.68068 602
27.70079 635
27.72091 677
27.74102 677
27.76113 745
27.78125 785
27.80136 788
27.82148 824
27.84159 792
27.8617 801
27.88182 826
27.90193 717
27.92204 715
27.94216 732
27.96227 643
27.98239 600
28.0025 585
28.02261 585
28.04273 600
28.06284 551
28.08295 529
28.10307 543
28.12318 549
28.1433 548
28.16341 552
28.18352 554
28.20364 571
28.22375 559
28.24386 525
28.26398 505
28.28409 557
28.3042 525
28.32432 532
28.34443 539
28.36455 458
28.38466 520
28.40477 586
28.42489 499
28.445 494
28.46511 588
28.48523 500
28.50534 540
28.52546 509
28.54557 560
28.56568 496
28.5858 511
28.60591 502
28.62602 509
28.64614 523
28.66625 495
28.68636 513
28.70648 536
28.72659 511
28.74671 493
28.76682 438
28.78693 475
28.80705 434
28.82716 476
28.84727 497
28.86739 482
28.8875 500
28.90762 444
28.92773 472
28.94784 473
28.96796 503
28.98807 485
29.00818 425
29.0283 486
29.04841 446
29.06853 435
29.08864 458
29.10875 464
29.12887 467
29.14898 470
29.16909 468
29.18921 493
29.20932 472
29.22943 482
29.24955 493
29.26966 493
29.28978 471
29.30989 461
29.33 487
29.35012 418
29.37023 456
29.39034 469
29.41046 477
29.43057 474
29.45069 476
29.4708 480
29.49091 488
29.51103 473
29.53114 469
29.55125 458
29.57137 503
29.59148 537
29.6116 507
29.63171 476
29.65182 542
29.67194 540
29.69205 584
29.71216 620
29.73228 651
29.75239 622
29.7725 653
29.79262 754
29.81273 763
29.83285 727
29.85296 747
29.87307 706
29.89319 708
29.9133 716
29.93341 689
29.95353 639
29.97364 599
29.99376 567
30.01387 578
30.03398 561
30.0541 504
30.07421 491
30.09432 541
30.11444 492
30.13455 542
30.15467 509
30.17478 473
30.19489 470
30.21501 499
30.23512 496
30.25523 474
30.27535 465
30.29546 496
30.31557 462
30.33569 452
30.3558 488
30.37592 484
30.39603 498
30.41614 454
30.43626 492
30.45637 522
30.47648 508
30.4966 486
30.51671 503
30.53683 508
30.55694 469
30.57705 480
30.59717 479
30.61728 480
30.63739 448
30.65751 469
30.67762 464
30.69773 500
30.71785 477
30.73796 482
30.75808 502
30.77819 412
30.7983 443
30.81842 501
30.83853 490
30.85864 453
30.87876 452
30.89887 485
30.91899 472
30.9391 484
30.95921 503
30.97933 499
30.99944 540
31.01955 495
31.03967 525
31.05978 524
31.0799 570
31.10001 628
31.12012 581
31.14024 603
31.16035 636
31.18046 630
31.20058 650
31.22069 716
31.2408 667
31.26092 626
31.28103 650
31.30115 582
31.32126 587
31.34137 588
31.36149 593
31.3816 531
31.40171 528
31.42183 504
31.44194 507
31.46206 538
31.48217 522
31.50228 513
31.5224 500
31.54251 498
31.56262 480
31.58274 447
31.60285 476
31.62297 462
31.64308 483
31.66319 510
31.68331 417
31.70342 469
31.72353 454
31.74365 447
31.76376 457
31.78387 454
31.80399 474
31.8241 511
31.84422 516
31.86433 521
31.88444 512
31.90456 539
31.92467 554
31.94478 601
31.9649 584
31.98501 584
32.00513 606
32.02524 623
32.04535 573
32.06547 578
32.08558 512
32.10569 556
32.12581 478
32.14592 495
32.16604 471
32.18615 508
32.20626 495
32.22638 512
32.24649 492
32.2666 476
32.28672 468
32.30683 483
32.32694 451
32.34706 488
32.36717 473
32.38729 472
32.4074 494
32.42751 517
32.44763 563
32.46774 491
32.48785 490
32.50797 486
32.52808 528
32.5482 488
32.56831 478
32.58842 477
32.60854 483
32.62865 463
32.64876 448
32.66888 477
32.68899 489
32.7091 453
32.72922 483
32.74933 464
32.76945 435
32.78956 461
32.80967 465
32.82979 462
32.8499 476
32.87001 465
32.89013 474
32.91024 480
32.93036 555
32.95047 479
32.97058 501
32.9907 502
33.01081 509
33.03092 474
33.05104 471
33.07115 501
33.09127 457
33.11138 536
33.13149 507
33.15161 472
33.17172 469
33.19183 527
33.21195 528
33.23206 495
33.25217 469
33.27229 465
33.2924 483
33.31252 476
33.33263 536
33.35274 497
33.37286 509
33.39297 474
33.41308 493
33.4332 525
33.45331 490
33.47343 501
33.49354 498
33.51365 465
33.53377 502
33.55388 498
33.57399 472
33.59411 515
33.61422 481
33.63434 467
33.65445 513
33.67456 467
33.69468 496
33.71479 515
33.7349 520
33.75502 508
33.77513 520
33.79524 572
33.81536 508
33.83547 556
33.85559 527
33.8757 503
33.89581 540
33.91593 603
33.93604 580
33.95615 576
33.97627 550
33.99638 608
34.0165 602
34.03661 609
34.05672 687
34.07684 690
34.09695 752
34.11706 724
34.13718 689
34.15729 784
34.17741 745
34.19752 829
34.21763 788
34.23775 728
34.25786 740
34.27797 747
34.29809 684
34.3182 667
34.33831 679
34.35843 658
34.37854 659
34.39866 670
34.41877 660
34.43888 679
34.459 658
34.47911 673
34.49922 729
34.51934 697
34.53945 694
34.55957 675
34.57968 722
34.59979 727
34.61991 739
34.64002 725
34.66013 687
34.68025 723
34.70036 764
34.72047 803
34.74059 720
34.7607 779
34.78082 763
34.80093 825
34.82104 882
34.84116 920
34.86127 943
34.88138 1032
34.9015 989
34.92161 1070
34.94173 1126
34.96184 1041
34.98195 1138
35.00207 1071
35.02218 1035
35.04229 1040
35.06241 958
35.08252 948
35.10264 865
35.12275 880
35.14286 811
35.16298 793
35.18309 742
35.2032 686
35.22332 671
35.24343 663
35.26354 626
35.28366 612
35.30377 607
35.32389 600
35.344 592
35.36411 560
35.38423 560
35.40434 607
35.42445 551
35.44457 595
35.46468 611
35.4848 548
35.50491 564
35.52502 576
35.54514 575
35.56525 587
35.58536 572
35.60548 583
35.62559 595
35.64571 579
35.66582 579
35.68593 606
35.70605 604
35.72616 661
35.74627 629
35.76639 583
35.7865 606
35.80661 592
35.82673 608
35.84684 634
35.86696 615
35.88707 657
35.90718 620
35.9273 615
35.94741 614
35.96752 589
35.98764 624
36.00775 583
36.02787 556
36.04798 543
36.06809 527
36.08821 565
36.10832 577
36.12843 580
36.14855 585
36.16866 604
36.18878 557
36.20889 552
36.229 581
36.24912 560
36.26923 573
36.28934 615
36.30946 667
36.32957 667
36.34968 728
36.3698 758
36.38991 760
36.41003 844
36.43014 906
36.45025 1007
36.47037 1083
36.49048 1055
36.51059 1074
36.53071 1017
36.55082 984
36.57094 851
36.59105 902
36.61116 795
36.63128 726
36.65139 735
36.6715 710
36.69162 648
36.71173 663
36.73184 670
36.75196 661
36.77207 655
36.79219 689
36.8123 706
36.83241 654
36.85253 629
36.87264 661
36.89275 643
36.91287 690
36.93298 646
36.9531 657
36.97321 664
36.99332 655
37.01344 683
37.03355 627
37.05366 600
37.07378 618
37.09389 625
37.11401 610
37.13412 621
37.15423 635
37.17435 626
37.19446 643
37.21457 636
37.23469 601
37.2548 625
37.27491 576
37.29503 628
37.31514 592
37.33526 598
37.35537 602
37.37548 609
37.3956 589
37.41571 587
37.43582 594
37.45594 588
37.47605 591
37.49617 600
37.51628 594
37.53639 613
37.55651 585
37.57662 618
37.59673 567
37.61685 535
37.63696 589
37.65708 581
37.67719 625
37.6973 587
37.71742 593
37.73753 622
37.75764 596
37.77776 621
37.79787 571
37.81798 559
37.8381 553
37.85821 578
37.87833 568
37.89844 490
37.91855 548
37.93867 501
37.95878 499
37.97889 485
37.99901 509
38.01912 514
38.03924 486
38.05935 504
38.07946 518
38.09958 473
38.11969 485
38.1398 485
38.15992 528
38.18003 478
38.20015 492
38.22026 537
38.24037 506
38.26049 515
38.2806 499
38.30071 527
38.32083 520
38.34094 489
38.36105 516
38.38117 497
38.40128 495
38.4214 512
38.44151 503
38.46162 511
38.48174 501
38.50185 534
38.52196 530
38.54208 496
38.56219 516
38.58231 477
38.60242 531
38.62253 463
38.64265 537
38.66276 481
38.68287 490
38.70299 478
38.7231 500
38.74321 502
38.76333 460
38.78344 489
38.80356 504
38.82367 474
38.84378 515
38.8639 527
38.88401 504
38.90412 499
38.92424 483
38.94435 545
38.96447 503
38.98458 501
39.00469 495
39.02481 482
39.04492 513
39.06503 516
39.08515 540
39.10526 553
39.12538 527
39.14549 518
39.1656 583
39.18572 564
39.20583 569
39.22594 566
39.24606 662
39.26617 600
39.28628 628
39.3064 717
39.32651 722
39.34663 718
39.36674 806
39.38685 861
39.40697 866
39.42708 888
39.44719 869
39.46731 826
39.48742 763
39.50754 657
39.52765 673
39.54776 628
39.56788 573
39.58799 614
39.6081 518
39.62822 543
39.64833 534
39.66845 532
39.68856 516
39.70867 485
39.72879 530
39.7489 483
39.76901 507
39.78913 554
39.80924 523
39.82935 543
39.84947 487
39.86958 526
39.8897 495
39.90981 522
39.92992 518
39.95004 542
39.97015 543
39.99026 545
40.01038 564
40.03049 615
40.05061 592
40.07072 573
40.09083 624
40.11095 628
40.13106 634
40.15117 622
40.17129 674
40.1914 681
40.21152 687
40.23163 769
40.25174 723
40.27186 698
40.29197 714
40.31208 684
40.3322 619
40.35231 621
40.37242 570
40.39254 588
40.41265 569
40.43277 526
40.45288 536
40.47299 492
40.49311 480
40.51322 506
40.53333 471
40.55345 493
40.57356 506
40.59368 503
40.61379 481
40.6339 513
40.65402 508
40.67413 525
40.69424 495
40.71436 501
40.73447 506
40.75458 461
40.7747 490
40.79481 532
40.81493 494
40.83504 514
40.85515 482
40.87527 507
40.89538 573
40.91549 525
40.93561 524
40.95572 485
40.97584 521
40.99595 538
41.01606 531
41.03618 557
41.05629 521
41.0764 482
41.09652 481
41.11663 534
41.13675 465
41.15686 521
41.17697 480
41.19709 498
41.2172 515
41.23731 572
41.25743 527
41.27754 539
41.29765 589
41.31777 546
41.33788 570
41.358 560
41.37811 532
41.39822 521
41.41834 532
41.43845 508
41.45856 520
41.47868 532
41.49879 514
41.51891 537
41.53902 501
41.55913 504
41.57925 510
41.59936 508
41.61947 533
41.63959 478
41.6597 464
41.67982 474
41.69993 475
41.72004 466
41.74016 442
41.76027 476
41.78038 480
41.8005 453
41.82061 460
41.84072 479
41.86084 492
41.88095 486
41.90107 489
41.92118 494
41.94129 467
41.96141 504
41.98152 514
42.00163 494
42.02175 492
42.04186 474
42.06198 547
42.08209 509
42.1022 493
42.12232 528
42.14243 466
42.16254 522
42.18266 531
42.20277 582
42.22289 555
42.243 581
42.26311 626
42.28323 609
42.30334 681
42.32345 751
42.34357 778
42.36368 847
42.38379 852
42.40391 867
42.42402 859
42.44414 825
42.46425 741
42.48436 696
42.50448 668
42.52459 644
42.5447 623
42.56482 555
42.58493 483
42.60505 487
42.62516 488
42.64527 446
42.66539 487
42.6855 447
42.70561 438
42.72573 413
42.74584 404
42.76595 429
42.78607 438
42.80618 371
42.8263 416
42.84641 441
42.86652 396
42.88664 407
42.90675 406
42.92686 413
42.94698 394
42.96709 432
42.98721 435
43.00732 406
43.02743 409
43.04755 427
43.06766 415
43.08777 409
43.10789 425
43.128 403
43.14812 413
43.16823 403
43.18834 395
43.20846 432
43.22857 397
43.24868 409
43.2688 423
43.28891 445
43.30902 440
43.32914 402
43.34925 409
43.36937 398
43.38948 397
43.40959 375
43.42971 429
43.44982 379
43.46993 402
43.49005 401
43.51016 398
43.53028 443
43.55039 421
43.5705 418
43.59062 428
43.61073 402
43.63084 392
43.65096 433
43.67107 433
43.69119 421
43.7113 420
43.73141 407
43.75153 432
43.77164 395
43.79175 443
43.81187 371
43.83198 435
43.85209 443
43.87221 421
43.89232 412
43.91244 437
43.93255 429
43.95266 439
43.97278 419
43.99289 457
44.013 456
44.03312 431
44.05323 445
44.07335 421
44.09346 448
44.11357 437
44.13369 474
44.1538 395
44.17391 439
44.19403 471
44.21414 471
44.23426 431
44.25437 438
44.27448 417
44.2946 451
44.31471 440
44.33482 447
44.35494 451
44.37505 471
44.39516 460
44.41528 455
44.43539 449
44.45551 449
44.47562 443
44.49573 482
44.51585 475
44.53596 455
44.55607 454
44.57619 498
44.5963 500
44.61642 463
44.63653 462
44.65664 503
44.67676 473
44.69687 463
44.71698 504
44.7371 507
44.75721 466
44.77732 466
44.79744 486
44.81755 467
44.83767 473
44.85778 431
44.87789 500
44.89801 483
44.91812 484
44.93823 480
44.95835 474
44.97846 486
44.99858 502
45.01869 521
45.0388 502
45.05892 512
45.07903 509
45.09914 474
45.11926 477
45.13937 522
45.15949 513
45.1796 521
45.19971 516
45.21983 548
45.23994 582
45.26005 565
45.28017 567
45.30028 575
45.32039 608
45.34051 594
45.36062 552
45.38074 590
45.40085 604
45.42096 606
45.44108 583
45.46119 591
45.4813 568
45.50142 514
45.52153 586
45.54165 567
45.56176 516
45.58187 552
45.60199 548
45.6221 549
45.64221 544
45.66233 603
45.68244 631
45.70256 608
45.72267 641
45.74278 637
45.7629 570
45.78301 656
45.80312 591
45.82324 555
45.84335 585
45.86346 558
45.88358 557
45.90369 541
45.92381 543
45.94392 522
45.96403 485
45.98415 529
46.00426 488
46.02437 510
46.04449 477
46.0646 480
46.08472 468
46.10483 505
46.12494 438
46.14506 480
46.16517 429
46.18528 464
46.2054 470
46.22551 431
46.24563 451
46.26574 447
46.28585 443
46.30597 428
46.32608 417
46.34619 412
46.36631 420
46.38642 474
46.40653 420
46.42665 445
46.44676 440
46.46688 476
46.48699 433
46.5071 443
46.52722 441
46.54733 443
46.56744 418
46.58756 415
46.60767 433
46.62779 447
46.6479 420
46.66801 471
46.68813 420
46.70824 462
46.72835 450
46.74847 424
46.76858 396
46.78869 400
46.80881 413
46.82892 431
46.84904 388
46.86915 413
46.88926 409
46.90938 414
46.92949 388
46.9496 421
46.96972 429
46.98983 398
47.00995 437
47.03006 449
47.05017 441
47.07029 431
47.0904 439
47.11051 390
47.13063 423
47.15074 406
47.17086 424
47.19097 398
47.21108 379
47.2312 389
47.25131 377
47.27142 409
47.29154 388
47.31165 411
47.33176 439
47.35188 463
47.37199 377
47.39211 396
47.41222 414
47.43233 382
47.45245 423
47.47256 405
47.49267 417
47.51279 438
47.5329 411
47.55302 396
47.57313 457
47.59324 383
47.61336 390
47.63347 367
47.65358 395
47.6737 395
47.69381 401
47.71393 387
47.73404 442
47.75415 399
47.77427 414
47.79438 383
47.81449 416
47.83461 413
47.85472 428
47.87483 424
47.89495 411
47.91506 412
47.93518 407
47.95529 396
47.9754 425
47.99552 411
48.01563 420
48.03574 420
48.05586 408
48.07597 413
48.09609 402
48.1162 398
48.13631 420
48.15643 427
48.17654 403
48.19665 403
48.21677 403
48.23688 431
48.257 371
48.27711 376
48.29722 397
48.31734 395
48.33745 383
48.35756 425
48.37768 419
48.39779 413
48.4179 437
48.43802 388
48.45813 449
48.47825 393
48.49836 430
48.51847 409
48.53859 439
48.5587 389
48.57881 415
48.59893 427
48.61904 456
48.63916 445
48.65927 421
48.67938 456
48.6995 448
48.71961 391
48.73972 433
48.75984 429
48.77995 418
48.80006 435
48.82018 427
48.84029 426
48.86041 416
48.88052 420
48.90063 404
48.92075 386
48.94086 413
48.96097 407
48.98109 400
49.0012 413
49.02132 423
49.04143 410
49.06154 386
49.08166 408
49.10177 392
49.12188 398
49.142 414
49.16211 435
49.18223 422
49.20234 393
49.22245 395
49.24257 391
49.26268 429
49.28279 399
49.30291 396
49.32302 372
49.34313 418
49.36325 425
49.38336 408
49.40348 412
49.42359 393
49.4437 396
49.46382 371
49.48393 454
49.50404 424
49.52416 420
49.54427 427
49.56439 468
49.5845 430
49.60461 433
49.62473 416
49.64484 453
49.66495 418
49.68507 442
49.70518 422
49.7253 447
49.74541 456
49.76552 467
49.78564 470
49.80575 507
49.82586 464
49.84598 498
49.86609 501
49.8862 542
49.90632 542
49.92643 598
49.94655 590
49.96666 700
49.98677 770
50.00689 842
50.027 923
50.04711 1011
50.06723 963
50.08734 1059
50.10746 1002
50.12757 958
50.14768 903
50.1678 836
50.18791 713
50.20802 748
50.22814 719
50.24825 620
50.26837 574
50.28848 521
50.30859 474
50.32871 451
50.34882 446
50.36893 460
50.38905 428
50.40916 429
50.42927 425
50.44939 393
50.4695 397
50.48962 402
50.50973 393
50.52984 443
50.54996 444
50.57007 452
50.59018 427
50.6103 399
50.63041 392
50.65053 369
50.67064 385
50.69075 393
50.71087 377
50.73098 412
50.75109 398
50.77121 386
50.79132 392
50.81143 368
50.83155 411
50.85166 392
50.87178 423
50.89189 402
50.912 408
50.93212 371
50.95223 404
50.97234 424
50.99246 389
51.01257 394
51.03269 387
51.0528 389
51.07291 383
51.09303 368
51.11314 379
51.13325 409
51.15337 394
51.17348 418
51.1936 402
51.21371 404
51.23382 440
51.25394 401
51.27405 417
51.29416 382
51.31428 383
51.33439 406
51.3545 381
51.37462 397
51.39473 390
51.41485 390
51.43496 378
51.45507 397
51.47519 390
51.4953 421
51.51541 366
51.53553 355
51.55564 370
51.57576 381
51.59587 388
51.61598 410
51.6361 396
51.65621 364
51.67632 405
51.69644 372
51.71655 392
51.73667 380
51.75678 399
51.77689 378
51.79701 387
51.81712 396
51.83723 365
51.85735 373
51.87746 366
51.89757 404
51.91769 423
51.9378 406
51.95792 347
51.97803 399
51.99814 433
52.01826 371
52.03837 382
52.05848 408
52.0786 371
52.09871 390
52.11883 366
52.13894 345
52.15905 366
52.17917 400
52.19928 407
52.21939 399
52.23951 383
52.25962 406
52.27974 388
52.29985 383
52.31996 355
52.34008 406
52.36019 369
52.3803 379
52.40042 409
52.42053 412
52.44064 401
52.46076 410
52.48087 401
52.50099 403
52.5211 421
52.54121 453
52.56133 428
52.58144 450
52.60155 451
52.62167 426
52.64178 426
52.6619 417
52.68201 465
52.70212 442
52.72224 418
52.74235 420
52.76246 476
52.78258 473
52.80269 441
52.8228 491
52.84292 462
52.86303 445
52.88315 417
52.90326 445
52.92337 462
52.94349 446
52.9636 465
52.98371 454
53.00383 400
53.02394 481
53.04406 465
53.06417 423
53.08428 426
53.1044 414
53.12451 470
53.14462 414
53.16474 440
53.18485 423
53.20497 418
53.22508 418
53.24519 463
53.26531 482
53.28542 443
53.30553 427
53.32565 408
53.34576 443
53.36587 435
53.38599 445
53.4061 480
53.42622 438
53.44633 453
53.46644 485
53.48656 464
53.50667 468
53.52678 497
53.5469 449
53.56701 455
53.58713 442
53.60724 453
53.62735 491
53.64747 419
53.66758 460
53.68769 415
53.70781 460
53.72792 466
53.74804 483
53.76815 447
53.78826 462
53.80838 491
53.82849 454
53.8486 472
53.86872 524
53.88883 495
53.90894 482
53.92906 502
53.94917 470
53.96929 490
53.9894 425
54.00951 496
54.02963 497
54.04974 429
54.06985 472
54.08997 462
54.11008 500
54.1302 504
54.15031 461
54.17042 516
54.19054 447
54.21065 513
54.23076 447
54.25088 444
54.27099 497
54.29111 432
54.31122 528
54.33133 476
54.35145 489
54.37156 473
54.39167 506
54.41179 494
54.4319 492
54.45201 473
54.47213 453
54.49224 484
54.51236 513
54.53247 534
54.55258 531
54.5727 521
54.59281 503
54.61292 558
54.63304 613
54.65315 572
54.67327 597
54.69338 588
54.71349 607
54.73361 614
54.75372 638
54.77383 691
54.79395 692
54.81406 701
54.83417 666
54.85429 690
54.8744 644
54.89452 596
54.91463 587
54.93474 581
54.95486 586
54.97497 589
54.99508 592
55.0152 561
55.03531 620
55.05543 531
55.07554 623
55.09565 582
55.11577 523
55.13588 563
55.15599 546
55.17611 588
55.19622 587
55.21634 593
55.23645 566
55.25656 581
55.27668 603
55.29679 582
55.3169 592
55.33702 527
55.35713 572
55.37724 538
55.39736 527
55.41747 534
55.43759 545
55.4577 532
55.47781 491
55.49793 499
55.51804 524
55.53815 474
55.55827 448
55.57838 507
55.5985 499
55.61861 491
55.63872 522
55.65884 521
55.67895 508
55.69906 564
55.71918 478
55.73929 518
55.75941 512
55.77952 531
55.79963 530
55.81975 527
55.83986 528
55.85997 540
55.88009 511
55.9002 493
55.92031 507
55.94043 518
55.96054 467
55.98066 449
56.00077 478
56.02088 452
56.041 492
56.06111 463
56.08122 467
56.10134 452
56.12145 428
56.14157 444
56.16168 465
56.18179 478
56.20191 455
56.22202 462
56.24213 449
56.26225 422
56.28236 428
56.30248 397
56.32259 461
56.3427 480
56.36282 433
56.38293 405
56.40304 411
56.42316 428
56.44327 446
56.46338 420
56.4835 430
56.50361 419
56.52373 442
56.54384 446
56.56395 413
56.58407 438
56.60418 430
56.62429 410
56.64441 448
56.66452 427
56.68464 418
56.70475 384
56.72486 421
56.74498 441
56.76509 416
56.7852 425
56.80532 412
56.82543 426
56.84554 440
56.86566 428
56.88577 430
56.90589 479
56.926 414
56.94611 460
56.96623 420
56.98634 417
57.00645 406
57.02657 382
57.04668 443
57.0668 474
57.08691 411
57.10702 462
57.12714 441
57.14725 431
57.16736 419
57.18748 366
57.20759 417
57.22771 437
57.24782 422
57.26793 439
57.28805 404
57.30816 430
57.32827 439
57.34839 425
57.3685 417
57.38861 466
57.40873 439
57.42884 419
57.44896 427
57.46907 419
57.48918 397
57.5093 421
57.52941 439
57.54952 425
57.56964 441
57.58975 444
57.60987 399
57.62998 407
57.65009 435
57.67021 405
57.69032 437
57.71043 445
57.73055 419
57.75066 415
57.77078 410
57.79089 394
57.811 408
57.83112 433
57.85123 409
57.87134 418
57.89146 392
57.91157 380
57.93168 417
57.9518 379
57.97191 404
57.99203 411
58.01214 406
58.03225 392
58.05237 413
58.07248 402
58.09259 377
58.11271 418
58.13282 389
58.15294 406
58.17305 407
58.19316 351
58.21328 412
58.23339 365
58.2535 390
58.27362 384
58.29373 431
58.31385 390
58.33396 420
58.35407 419
58.37419 405
58.3943 398
58.41441 421
58.43453 361
58.45464 391
58.47475 385
58.49487 422
58.51498 396
58.5351 376
58.55521 397
58.57532 354
58.59544 365
58.61555 433
58.63566 395
58.65578 409
58.67589 408
58.69601 418
58.71612 403
58.73623 414
58.75635 375
58.77646 407
58.79657 402
58.81669 408
58.8368 375
58.85691 394
58.87703 375
58.89714 380
58.91726 385
58.93737 401
58.95748 416
58.9776 424
58.99771 394
59.01782 398
59.03794 434
59.05805 422
59.07817 403
59.09828 433
59.11839 418
59.13851 399
59.15862 421
59.17873 430
59.19885 456
59.21896 427
59.23908 446
59.25919 437
59.2793 436
59.29942 475
59.31953 429
59.33964 437
59.35976 462
59.37987 471
59.39998 483
59.4201 457
59.44021 476
59.46033 421
59.48044 439
59.50055 446
59.52067 456
59.54078 460
59.56089 457
59.58101 474
59.60112 486
59.62124 503
59.64135 472
59.66146 477
59.68158 537
59.70169 551
59.7218 589
59.74192 663
59.76203 612
59.78215 634
59.80226 740
59.82237 759
59.84249 807
59.8626 890
59.88271 907
59.90283 904
59.92294 917
59.94305 841
59.96317 805
59.98328 700
60.0034 737
60.02351 782
60.04362 729
60.06374 724
60.08385 733
60.10396 703
60.12408 631
60.14419 613
60.16431 598
60.18442 622
60.20453 589
60.22465 590
60.24476 569
60.26487 574
60.28499 601
60.3051 568
60.32522 556
60.34533 557
60.36544 570
60.38556 548
60.40567 542
60.42578 523
60.4459 526
60.46601 529
60.48612 547
60.50624 515
60.52635 495
60.54647 518
60.56658 498
60.58669 516
60.60681 514
60.62692 489
60.64703 456
60.66715 488
60.68726 436
60.70738 461
60.72749 466
60.7476 429
60.76772 455
60.78783 466
60.80794 484
60.82806 432
60.84817 463
60.86828 433
60.8884 420
60.90851 427
60.92863 448
60.94874 451
60.96885 427
60.98897 459
61.00908 423
61.02919 445
61.04931 405
61.06942 426
61.08954 443
61.10965 479
61.12976 414
61.14988 432
61.16999 446
61.1901 434
61.21022 437
61.23033 437
61.25045 433
61.27056 451
61.29067 435
61.31079 457
61.3309 451
61.35101 467
61.37113 429
61.39124 509
61.41135 477
61.43147 458
61.45158 479
61.4717 491
61.49181 478
61.51192 473
61.53204 505
61.55215 481
61.57226 475
61.59238 561
61.61249 519
61.63261 536
61.65272 562
61.67283 576
61.69295 543
61.71306 564
61.73317 536
61.75329 546
61.7734 507
61.79352 587
61.81363 536
61.83374 593
61.85386 568
61.87397 543
61.89408 543
61.9142 507
61.93431 537
61.95442 518
61.97454 505
61.99465 495
62.01477 505
62.03488 487
62.05499 430
62.07511 455
62.09522 475
62.11533 476
62.13545 463
62.15556 463
62.17568 419
62.19579 487
62.2159 464
62.23602 438
62.25613 465
62.27624 443
62.29636 440
62.31647 483
62.33659 446
62.3567 437
62.37681 456
62.39693 437
62.41704 434
62.43715 429
62.45727 448
62.47738 410
62.49749 442
62.51761 418
62.53772 402
62.55784 434
62.57795 415
62.59806 402
62.61818 417
62.63829 406
62.6584 401
62.67852 405
62.69863 408
62.71875 395
62.73886 402
62.75897 407
62.77909 419
62.7992 396
62.81931 396
62.83943 396
62.85954 396
62.87965 395
62.89977 427
62.91988 392
62.94 395
62.96011 416
62.98022 393
63.00034 394
63.02045 397
63.04056 423
63.06068 418
63.08079 392
63.10091 426
63.12102 419
63.14113 414
63.16125 391
63.18136 397
63.20147 397
63.22159 368
63.2417 426
63.26182 386
63.28193 387
63.30204 376
63.32216 400
63.34227 349
63.36238 434
63.3825 412
63.40261 392
63.42272 378
63.44284 377
63.46295 402
63.48307 409
63.50318 387
63.52329 411
63.54341 416
63.56352 352
63.58363 373
63.60375 403
63.62386 391
63.64398 392
63.66409 427
63.6842 433
63.70432 413
63.72443 392
63.74454 414
63.76466 388
63.78477 397
63.80489 420
63.825 445
63.84511 407
63.86523 463
63.88534 443
63.90545 465
63.92557 433
63.94568 454
63.96579 468
63.98591 449
64.00602 437
64.02614 454
64.04625 421
64.06636 435
64.08648 438
64.10659 436
64.1267 450
64.14682 422
64.16693 400
64.18705 407
64.20716 392
64.22727 374
64.24739 410
64.2675 375
64.28761 393
64.30773 399
64.32784 379
64.34796 368
64.36807 362
64.38818 353
64.4083 356
64.42841 353
64.44852 392
64.46864 381
64.48875 378
64.50886 417
64.52898 384
64.54909 379
64.56921 374
64.58932 387
64.60943 392
64.62955 332
64.64966 403
64.66977 369
64.68989 352
64.71 347
64.73012 365
64.75023 374
64.77034 388
64.79046 360
64.81057 342
64.83068 349
64.8508 376
64.87091 340
64.89102 367
64.91114 384
64.93125 358
64.95137 398
64.97148 379
64.99159 365
65.01171 389
65.03182 350
65.05193 363
65.07205 338
65.09216 380
65.11228 360
65.13239 362
65.1525 370
65.17262 359
65.19273 378
65.21284 377
65.23296 362
65.25307 429
65.27319 348
65.2933 421
65.31341 356
65.33353 331
65.35364 369
65.37375 381
65.39387 342
65.41398 378
65.43409 380
65.45421 361
65.47432 388
65.49444 386
65.51455 381
65.53466 369
65.55478 390
65.57489 381
65.595 390
65.61512 359
65.63523 372
65.65535 390
65.67546 361
65.69557 372
65.71569 369
65.7358 396
65.75591 387
65.77603 361
65.79614 374
65.81626 399
65.83637 366
65.85648 396
65.8766 367
65.89671 405
65.91682 403
65.93694 392
65.95705 395
65.97716 378
65.99728 401
66.01739 371
66.03751 370
66.05762 372
66.07773 373
66.09785 341
66.11796 363
66.13807 376
66.15819 386
66.1783 393
66.19842 369
66.21853 410
66.23864 386
66.25876 383
66.27887 394
66.29898 366
66.3191 358
66.33921 345
66.35933 356
66.37944 309
66.39955 343
66.41967 352
66.43978 358
66.45989 375
66.48001 333
66.50012 359
66.52023 368
66.54035 357
66.56046 356
66.58058 387
66.60069 370
66.6208 375
66.64092 380
66.66103 401
66.68114 408
66.70126 385
66.72137 365
66.74149 369
66.7616 367
66.78171 364
66.80183 393
66.82194 333
66.84205 379
66.86217 339
66.88228 384
66.90239 369
66.92251 376
66.94262 375
66.96274 375
66.98285 383
67.00296 378
67.02308 357
67.04319 370
67.0633 358
67.08342 362
67.10353 374
67.12365 405
67.14376 358
67.16387 400
67.18399 385
67.2041 365
67.22421 376
67.24433 343
67.26444 367
67.28456 397
67.30467 353
67.32478 374
67.3449 384
67.36501 379
67.38512 401
67.40524 395
67.42535 450
67.44546 394
67.46558 412
67.48569 419
67.50581 461
67.52592 442
67.54603 467
67.56615 495
67.58626 522
67.60637 516
67.62649 566
67.6466 540
67.66672 562
67.68683 593
67.70694 558
67.72706 580
67.74717 546
67.76728 514
67.7874 513
67.80751 518
67.82763 485
67.84774 520
67.86785 575
67.88797 496
67.90808 540
67.92819 561
67.94831 560
67.96842 576
67.98853 578
68.00865 585
68.02876 629
68.04888 668
68.06899 693
68.0891 686
68.10922 647
68.12933 695
68.14944 625
68.16956 627
68.18967 631
68.20979 685
68.2299 644
68.25001 702
68.27013 621
68.29024 632
68.31035 584
68.33047 518
68.35058 552
68.3707 494
68.39081 495
68.41092 473
68.43104 484
68.45115 448
68.47126 409
68.49138 407
68.51149 421
68.5316 402
68.55172 412
68.57183 410
68.59195 388
68.61206 398
68.63217 380
68.65229 389
68.6724 373
68.69251 333
68.71263 378
68.73274 381
68.75286 332
68.77297 371
68.79308 378
68.8132 398
68.83331 397
68.85342 378
68.87354 377
68.89365 365
68.91376 401
68.93388 375
68.95399 372
68.97411 400
68.99422 365
69.01433 392
69.03445 411
69.05456 378
69.07467 430
69.09479 399
69.1149 391
69.13502 358
69.15513 381
69.17524 405
69.19536 404
69.21547 402
69.23558 424
69.2557 429
69.27581 426
69.29593 412
69.31604 432
69.33615 416
69.35627 439
69.37638 422
69.39649 430
69.41661 452
69.43672 424
69.45683 401
69.47695 431
69.49706 382
69.51718 401
69.53729 415
69.5574 382
69.57752 387
69.59763 389
69.61774 374
69.63786 387
69.65797 391
69.67809 380
69.6982 416
69.71831 397
69.73843 375
69.75854 405
69.77865 396
69.79877 388
69.81888 358
69.839 353
69.85911 394
69.87922 367
69.89934 382
69.91945 395
69.93956 360
69.95968 393
69.97979 375
69.9999 390
70.02002 361
70.04013 396
70.06025 365
70.08036 394
70.10047 368
70.12059 385
70.1407 388
70.16081 370
70.18093 397
70.20104 386
70.22116 351
70.24127 415
70.26138 388
70.2815 380
70.30161 350
70.32172 390
70.34184 348
70.36195 411
70.38207 378
70.40218 370
70.42229 396
70.44241 369
70.46252 344
70.48263 379
70.50275 357
70.52286 349
70.54297 349
70.56309 332
70.5832 359
70.60332 391
70.62343 305
70.64354 319
70.66366 381
70.68377 335
70.70388 349
70.724 319
70.74411 360
70.76423 365
70.78434 390
70.80445 355
70.82457 349
70.84468 305
70.86479 375
70.88491 360
70.90502 375
70.92513 390
70.94525 365
70.96536 394
70.98548 364
71.00559 354
71.0257 385
71.04582 348
71.06593 402
71.08604 392
71.10616 405
71.12627 388
71.14639 377
71.1665 413
71.18661 401
71.20673 375
71.22684 384
71.24695 385
71.26707 398
71.28718 382
71.3073 372
71.32741 378
71.34752 356
71.36764 365
71.38775 406
71.40786 360
71.42798 370
71.44809 370
71.4682 366
71.48832 363
71.50843 385
71.52855 386
71.54866 381
71.56877 348
71.58889 338
71.609 362
71.62911 396
71.64923 412
71.66934 366
71.68946 403
71.70957 369
71.72968 327
71.7498 378
71.76991 360
71.79002 354
71.81014 372
71.83025 357
71.85037 362
71.87048 367
71.89059 362
71.91071 364
71.93082 348
71.95093 372
71.97105 333
71.99116 335
72.01127 368
72.03139 350
72.0515 371
72.07162 355
72.09173 347
72.11184 357
72.13196 356
72.15207 363
72.17218 371
72.1923 384
72.21241 357
72.23253 356
72.25264 386
72.27275 393
72.29287 368
72.31298 366
72.33309 352
72.35321 338
72.37332 378
72.39344 364
72.41355 386
72.43366 385
72.45378 361
72.47389 350
72.494 379
72.51412 373
72.53423 383
72.55434 368
72.57446 372
72.59457 375
72.61469 374
72.6348 403
72.65491 356
72.67503 387
72.69514 381
72.71525 405
72.73537 399
72.75548 363
72.7756 381
72.79571 410
72.81582 415
72.83594 392
72.85605 408
72.87616 411
72.89628 415
72.91639 397
72.9365 425
72.95662 418
72.97673 390
72.99685 386
73.01696 415
73.03707 416
73.05719 394
73.0773 409
73.09741 394
73.11753 402
73.13764 425
73.15776 417
73.17787 413
73.19798 380
73.2181 426
73.23821 428
73.25832 384
73.27844 444
73.29855 423
73.31867 428
73.33878 420
73.35889 458
73.37901 433
73.39912 460
73.41923 445
73.43935 448
73.45946 439
73.47957 414
73.49969 403
73.5198 396
73.53992 395
73.56003 426
73.58014 387
73.60026 404
73.62037 388
73.64048 408
73.6606 383
73.68071 374
73.70083 387
73.72094 360
73.74105 353
73.76117 319
73.78128 347
73.80139 349
73.82151 346
73.84162 357
73.86174 366
73.88185 372
73.90196 323
73.92208 348
73.94219 308
73.9623 329
73.98242 336
74.00253 368
74.02264 344
74.04276 361
74.06287 332
74.08299 315
74.1031 358
74.12321 362
74.14333 361
74.16344 333
74.18355 349
74.20367 326
74.22378 339
74.2439 353
74.26401 321
74.28412 354
74.30424 363
74.32435 357
74.34446 363
74.36458 339
74.38469 342
74.40481 346
74.42492 346
74.44503 365
74.46515 372
74.48526 363
74.50537 344
74.52549 379
74.5456 332
74.56571 386
74.58583 332
74.60594 380
74.62606 360
74.64617 352
74.66628 335
74.6864 330
74.70651 312
74.72662 365
74.74674 351
74.76685 348
74.78697 351
74.80708 319
74.82719 357
74.84731 346
74.86742 356
74.88753 378
74.90765 356
74.92776 352
74.94787 351
74.96799 357
74.9881 351
75.00822 346
