3.00117 19950.2398755129
3.02128 19608.7005232315
3.0414 18786
3.06151 18510.7339577366
3.08162 17663.2886198732
3.10174 17329.7082452071
3.12185 17085.0789452365
3.14197 16519.8159255462
3.16208 15943.7984740712
3.18219 15183.1246331074
3.20231 15222.8221171162
3.22242 14354.1986866555
3.24253 14113.3752843737
3.26265 14183.2320275695
3.28276 13005.4466150238
3.30288 12948.0813960891
3.32299 12419.3486346784
3.3431 11917
3.36322 11743.508139617
3.38333 11069.4663602467
3.40344 10993.3574146443
3.42356 10340.0673509856
3.44367 10120.2193203545
3.46379 9775.28250729453
3.4839 9237
3.50401 9232.93109477584
3.52413 8812.27040967749
3.54424 8464.58344880675
3.56435 8262.80262588956
3.58447 7840.55349469843
3.60458 7562.29297291918
3.62469 7223.15038159635
3.64481 7026.94947115009
3.66492 6847.58530286848
3.68504 6345.45308541906
3.70515 6323.86858280138
3.72526 6072.662035686
3.74538 5811.15200285635
3.76549 5641.17400581899
3.7856 5170
3.80572 5009.9399843784
3.82583 4894.68164195881
3.84595 4651.59985049583
3.86606 4511.58064882863
3.88617 4138.31507976962
3.90629 4123.01466380986
3.9264 3981
3.94651 3867.91698890454
3.96663 3606.53325526636
3.98674 3357.77715913365
4.00686 3355.98319069749
4.02697 3238.41910327317
4.04708 3007.92878526183
4.0672 3160
4.08731 2588.81930079653
4.10742 2634.11684307177
4.12754 2568.66721696181
4.14765 2465.88038928102
4.16776 2544.19708004782
4.18788 2257.2753099468
4.20799 2150.98673203254
4.22811 2180.97090870068
4.24822 2091.02694897191
4.26833 2143.76034328381
4.28845 1838.64658880458
4.30856 1933.80189448206
4.32867 1904.09073545264
4.34879 1883.00463703288
4.3689 1833
4.38902 1693.9028954995
4.40913 1678.06093375726
4.42924 1704.93507404054
4.44936 1656.94667245928
4.46947 1693.16432474238
4.48958 1481.11266652457
4.5097 1540
4.52981 1574.99095022311
4.54992 1524.92476562425
4.57004 1449.89177469636
4.59015 1403.17888915507
4.61027 1327.03888389374
4.63038 1351.97741263876
4.65049 1331.02620566389
4.67061 1274.97865793391
4.69072 1257.00233604879
4.71083 1232.8618196081
4.73095 1131.98213338666
4.75106 1217.84863659724
4.77118 1211.06019197685
4.79129 1145.02626121101
4.8114 1109
4.83152 1074.98052026484
4.85163 1064.97132262329
4.87174 1050.04264684688
4.89186 1074.07849658863
4.91197 1005.99365155724
4.93209 1076.98471307547
4.9522 1031
4.97231 991.96159503573
4.99243 890.911767322484
5.01254 911.141889553653
5.03265 967.988747575418
5.05277 911.133942428613
5.07288 836.041155757509
5.09299 841.976136196748
5.11311 881.993692968325
5.13322 836.987688951941
5.15334 833.837165947433
5.17345 720.977699145253
5.19356 791.021943674446
5.21368 694.027745131457
5.23379 789.940703179226
5.2539 821
5.27402 698.880234149251
5.29413 652.063844689014
5.31425 727.083742440451
5.33436 695.096385599045
5.35447 671.011711947257
5.37459 670.996166278543
5.3947 670
5.41481 623.977768223026
5.43493 614.055043824068
5.45504 657.998685938845
5.47516 625.002261420818
5.49527 655.005422262703
5.51538 605.043773735155
5.5355 596
5.55561 587.991471660179
5.57572 569.988106580307
5.59584 573.03987849621
5.61595 595.976124005284
5.63606 578.086650858234
5.65618 532.027072912171
5.67629 534.988429018729
5.69641 552.998556695079
5.71652 534.988354468095
5.73663 552.069931312486
5.75675 577.883559596202
5.77686 505.994950258227
5.79697 564.007202174363
5.81709 487.019687504885
5.8372 523
5.85732 514.963308297725
5.87743 479.967773631012
5.89754 476.01271024807
5.91766 476.031560756783
5.93777 461.977540628574
5.95788 494.987620823114
5.978 480
5.99811 478.991164369743
6.01823 456.014505662743
6.03834 488.012212272853
6.05845 466.010475192103
6.07857 497.939402017374
6.09868 510.026058742033
6.11879 467.014252919529
6.13891 475.017785568187
6.15902 490.957781962329
6.17913 421.962330155358
6.19925 459.119071053646
6.21936 477.003002141448
6.23948 471.006147210918
6.25959 467.001879442192
6.2797 456
6.29982 440.017597736145
6.31993 470.997146484527
6.34004 436.961535822885
6.36016 441.021224352861
6.38027 406.046030445582
6.40039 397.997544623365
6.4205 416
6.44061 452.997933738315
6.46073 419.981368374372
6.48084 444.054535085536
6.50095 431.158635923881
6.52107 380.94197584463
6.54118 461.002344498661
6.56129 383.011427520719
6.58141 448.027370823123
6.60152 425.931925929384
6.62164 377.011352432735
6.64175 429.13729910523
6.66186 452.003600710034
6.68198 438.021238084004
6.70209 424.99690776826
6.7222 441
6.74232 426.978180909951
6.76243 415.006470778165
6.78255 434.063985404429
6.80266 443.046240371297
6.82277 398.060923889645
6.84289 390.984872451859
6.863 423
6.88311 385.989222079071
6.90323 396.017415154013
6.92334 391.985814443428
6.94346 398.948894476779
6.96357 422.008457967025
6.98368 402.990847917107
7.0038 434
7.02391 402.986087190496
7.04402 391.98132351756
7.06414 372.020014660945
7.08425 399.993918240684
7.10436 372.039568050703
7.12448 377.989151718784
7.14459 380.998388265356
7.16471 396.014998805679
7.18482 423.002145754986
7.20493 400.96430025496
7.22505 399.05387195114
7.24516 425.975888209257
7.26527 413.042309994971
7.28539 391.00180972583
7.3055 404
7.32562 401.973340692389
7.34573 374.001921636587
7.36584 395.001687260036
7.38596 380.967581393525
7.40607 419.986598076597
7.42618 395.009877333815
7.4463 409
7.46641 387.99925734259
7.48653 412.026017762016
7.50664 408.989243485037
7.52675 407.02671798698
7.54687 384.039515716414
7.56698 374.979480848466
7.58709 409.989137123023
7.60721 402.988098291819
7.62732 371.960054218518
7.64743 350.038167239971
7.66755 405.092394842817
7.68766 390.10761501526
7.70778 348.988844031418
7.72789 401.977638667934
7.748 404
7.76812 378.990052018126
7.78823 380.995591455284
7.80834 370.995533842336
7.82846 383.958664358275
7.84857 400.986525300596
7.86869 400.004382403158
7.8888 394
7.90891 400.995448294262
7.92903 379.984090388583
7.94914 385.007816878728
7.96925 373.064301665414
7.98937 362.949903499405
8.00948 405.012625685251
8.0296 362
8.04971 421.001251358005
8.06982 373.008193917887
8.08994 434.007528225805
8.11005 366.894945298638
8.13016 380.987375883446
8.15028 361.000899202314
8.17039 394.980512981794
8.1905 413
8.21062 400.978094294489
8.23073 390.028193626817
8.25085 407.919131403206
8.27096 342.064662417778
8.29107 362.958245478636
8.31119 380.981291852855
8.3313 425
8.35141 391.982638160904
8.37153 389.036005292589
8.39164 414.008897521036
8.41176 393.059307737915
8.43187 386.949462544997
8.45198 421.02176788644
8.4721 362
8.49221 393.01090453693
8.51232 368.954409558379
8.53244 349.058656049085
8.55255 406.896943424283
8.57266 410.025110619508
8.59278 396.023724120036
8.61289 377.994019403004
8.63301 402.99832559178
8.65312 380.007318959543
8.67323 420.037514835105
8.69335 408.947393904692
8.71346 399.006793264659
8.73357 395.010458808343
8.75369 388.000762897009
8.7738 391
8.79392 383.985084913575
8.81403 374.011710007616
8.83414 396.039292740951
8.85426 393.05916126372
8.87437 371.959496034401
8.89448 422.989234657485
8.9146 381
8.93471 380.016327649246
8.95483 404.975814628529
8.97494 359.943662921158
8.99505 373.909697174178
9.01517 398.99990554996
9.03528 380.01825902193
9.05539 369.008296472229
9.07551 362.015474617109
9.09562 403.997315330808
9.11573 351.924478798291
9.13585 346.078060400153
9.15596 377.000069075704
9.17608 365.971676298124
9.19619 407.011936182925
9.2163 348
9.23642 425.022994730076
9.25653 359.894478403119
9.27664 355.099628931781
9.29676 402.007587591447
9.31687 362.021287008999
9.33699 384.995241219509
9.3571 370
9.37721 383.993751241159
9.39733 336.927095678701
9.41744 332.103946750624
9.43755 397.944188942219
9.45767 381.988730020993
9.47778 415.001797631496
9.4979 378
9.51801 404.008541216839
9.53812 385.967459866285
9.55824 365.999386232729
9.57835 363.920421091297
9.59846 335.92398385644
9.61858 398.018633535969
9.63869 318.008408783457
9.6588 386
9.67892 372.981374015641
9.69903 370.969937506589
9.71915 334.963100894705
9.73926 359.907845892382
9.75937 393.990401000551
9.77949 375.013327059945
9.7996 354
9.81971 350.014306582654
9.83983 388.009259448632
9.85994 359.952446363323
9.88006 364.959563987997
9.90017 389.95133113398
9.92028 410.015681133929
9.9404 367
9.96051 365.017034855802
9.98062 418.054175856004
10.00074 427.874081077486
10.02085 351.997390646431
10.04097 411.982962936944
10.06108 356.034128507053
10.08119 374.992733921726
10.10131 368.005931663625
10.12142 390.985839425
10.14153 347.977340802423
10.16165 370.030435641955
10.18176 359.001665345724
10.20187 372.999896243532
10.22199 346.01904227416
10.2421 334
10.26222 390.025723593535
10.28233 372.966021151878
10.30244 376.04646322646
10.32256 396.00348731872
10.34267 379.011251008247
10.36278 389.986275389261
10.3829 381
10.40301 350.016325948855
10.42313 412.00505741376
10.44324 353.930410398033
10.46335 369.97387015177
10.48347 363.965488464897
10.50358 401.010129279365
10.52369 352.009021707988
10.54381 383.014226566467
10.56392 379.987669310988
10.58403 377.004480675236
10.60415 389.068324759489
10.62426 415.992173809554
10.64438 399.013370247373
10.66449 398.002087729048
10.6846 383
10.70472 377.012241049448
10.72483 381.948583668528
10.74494 341.034500630901
10.76506 403.939017268706
10.78517 376.052750509622
10.80529 371.992696118088
10.8254 397
10.84551 423.991597138775
10.86563 380.970111241395
10.88574 388.984606989454
10.90585 361.021972463726
10.92597 380.971461213179
10.94608 383.001615464236
10.9662 384
10.98631 385.011002111808
11.00642 406.984241997699
11.02654 374.016216302875
11.04665 422.923074142263
11.06676 417.006133357866
11.08688 426.009648414153
11.10699 397.008975079188
11.1271 398
11.14722 400.035610199499
11.16733 435.959832265668
11.18745 370.961476944532
11.20756 412.960347886738
11.22767 391.006437556896
11.24779 419.990997562844
11.2679 406
11.28801 403.011560847935
11.30813 435.02556728521
11.32824 432.996154473743
11.34836 439.989017009272
11.36847 430.04349242332
11.38858 402.002834170047
11.4087 418
11.42881 401.992698811146
11.44892 408.024270388307
11.46904 434.026128542285
11.48915 440.945692614446
11.50927 451.074077227228
11.52938 370.03569411012
11.54949 403.974221126151
11.56961 432.007241688962
11.58972 449.024861231348
11.60983 463.972342246765
11.62995 430.987526093851
11.65006 449.012484732644
11.67017 415.026658745167
11.69029 424.997253166917
11.7104 416
11.73052 439.041261660393
11.75063 464.973598679296
11.77074 437.045961199708
11.79086 497.952539096982
11.81097 469.034239312414
11.83108 495.938580172122
11.8512 535
11.87131 473.988496614133
11.89143 515.08777162783
11.91154 535.947594577209
11.93165 500.988508336513
11.95177 551.916592888642
11.97188 591.955398873275
11.99199 622.012526798518
12.01211 569.995080256823
12.03222 614.040738464308
12.05234 628.039828883879
12.07245 656.012731779532
12.09256 650.943786818457
12.11268 698.989352713695
12.13279 683.986010799697
12.1529 766
12.17302 793.991056909523
12.19313 803.103447950546
12.21324 908.147543214066
12.23336 925.000610554986
12.25347 930.011017785909
12.27359 930.976156190251
12.2937 1013
12.31381 1032.99991226004
12.33393 1023.95389456897
12.35404 995.019268992102
12.37415 1012.10846252209
12.39427 907.147537978423
12.41438 854.034931490997
12.4345 817
12.45461 785.977254636135
12.47472 720.925980315613
12.49484 654.901120074186
12.51495 611.139452810067
12.53506 554.056390252135
12.55518 548.019835303761
12.57529 513.007398026494
12.5954 513
12.61552 478.012466026178
12.63563 512.963786227988
12.65575 434.888273572162
12.67586 446.987541510914
12.69597 437.956629798904
12.71609 475.019314953861
12.7362 378
12.75631 416.037927274611
12.77643 448.942493966805
12.79654 373.903400107466
12.81666 373.984323630446
12.83677 384.925082950293
12.85688 450.97804624856
12.877 409
12.89711 375.00729597364
12.91722 405.998544714755
12.93734 368.946278961069
12.95745 376.944222441025
12.97757 396.968181518791
12.99768 422.969865686671
13.01779 428.024596906339
13.03791 362.993879015047
13.05802 393.99683936427
13.07813 352.99222145451
13.09825 397.083056769691
13.11836 388.04661266623
13.13847 374.013104347369
13.15859 369.997759581354
13.1787 382
13.19882 394.008479999972
13.21893 389.962849470483
13.23904 368.025862469621
13.25916 403.970830371586
13.27927 380.053517462832
13.29938 357.012137844295
13.3195 346
13.33961 332.003399922665
13.35973 364.065888902715
13.37984 388.975098098513
13.39995 354.059328645041
13.42007 352.004271712002
13.44018 346.9857832006
13.46029 371.997209916636
13.48041 361.00266780825
13.50052 374.982082824866
13.52064 330.953300888431
13.54075 344.047940625433
13.56086 344.029032138898
13.58098 328.008918429431
13.60109 338.982395854602
13.6212 367
13.64132 330.000283606654
13.66143 372.044461679244
13.68154 355.91691092771
13.70166 322.024795108378
13.72177 328.983585593514
13.74189 333.997778416285
13.762 339
13.78211 341.00594497225
13.80223 359.016511239974
13.82234 340.887754902594
13.84245 290.973041812551
13.86257 341.975675958697
13.88268 316.997763153496
13.9028 347
13.92291 301.997383549138
13.94302 345.025559569983
13.96314 327.960817913091
13.98325 334.942835582425
14.00336 340.071959158175
14.02348 294.997954409023
14.04359 355.962353497528
14.06371 383.981184496678
14.08382 312.946788770533
14.10393 305.022325689175
14.12405 320.036599077688
14.14416 324.03345352593
14.16427 312.953072543666
14.18439 367.988717830255
14.2045 336
14.22461 302.997390838549
14.24473 312.00313309439
14.26484 313.053339116764
14.28496 351.979380101505
14.30507 326.044122511604
14.32518 311.015060082685
14.3453 299
14.36541 322.005798882688
14.38552 316.998217088187
14.40564 329.032986629159
14.42575 331.055838036696
14.44587 308.980241096489
14.46598 341.000752650653
14.48609 305.010951940659
14.50621 315.005349763912
14.52632 306.984988919381
14.54643 303.020344152788
14.56655 322.014011528635
14.58666 313.012319002348
14.60677 322.966998916185
14.62689 336.00662656299
14.647 310
14.66712 322.00232498049
14.68723 313.010929015036
14.70734 326.967089220017
14.72746 297.972280770694
14.74757 349.955299046941
14.76768 331.034278232212
14.7878 314
14.80791 327.011360564952
14.82803 337.971196368107
14.84814 320.066214845445
14.86825 376.992752099611
14.88837 315.089589476653
14.90848 302.984979021874
14.92859 319.992777862626
14.94871 325.997930081653
14.96882 316.993148868606
14.98894 324.051301572355
15.00905 335.902353196024
15.02916 281.989285372473
15.04928 341.964172133958
15.06939 319.019045967379
15.0895 300
15.10962 309.043429730226
15.12973 345.95860580462
15.14984 275.93600777216
15.16996 310.898357628419
15.19007 323.04665233247
15.21019 287.997380945093
15.2303 324
15.25041 305.998164336111
15.27053 329.024948834812
15.29064 318.951480177901
15.31075 291.081650240038
15.33087 268.990968695255
15.35098 305.946902708116
15.3711 333
15.39121 298.016425633173
15.41132 377.027515011476
15.43144 330.910457685347
15.45155 331.95665977285
15.47166 325.084383512574
15.49178 281.000494003053
15.51189 318.986985372427
15.53201 300.978054868766
15.55212 281.036201278978
15.57223 339.019047264167
15.59235 302.945728486712
15.61246 309.030304131789
15.63257 265.046331507134
15.65269 275.979999240907
15.6728 314
15.69291 325.019071534294
15.71303 360.955929200065
15.73314 282.906986426628
15.75326 296.951255669289
15.77337 300.995722165587
15.79348 307.005931671084
15.8136 294
15.83371 308.00434676035
15.85382 301.989003233105
15.87394 294.992999160101
15.89405 295.982331504905
15.91417 297.028194024183
15.93428 279.979535723906
15.95439 331.979398823574
15.97451 334.989466010085
15.99462 303.95948432549
16.01473 278.019548829867
16.03485 318.076074786726
16.05496 313.060604055658
16.07508 290.989867649242
16.09519 326.984305268829
16.1153 332
16.13542 310.974019459804
16.15553 303.046082961231
16.17564 347.021497563452
16.19576 315.075261857512
16.21587 300.000462592215
16.23598 302.997053444641
16.2561 301
16.27621 291.999092640646
16.29633 308.055062529444
16.31644 333.960688963117
16.33655 290.028970870093
16.35667 325.936648244754
16.37678 339.011075490398
16.39689 323.003386517205
16.41701 323.99667636976
16.43712 308.991534778674
16.45724 309.997524510648
16.47735 306.011049945768
16.49746 315.997131911969
16.51758 307.007217499928
16.53769 312.990767807964
16.5578 324
16.57792 291.982611931106
16.59803 301.025483819473
16.61814 306.988331045646
16.63826 303.96954182074
16.65837 327.988621149531
16.67849 302.02567720766
16.6986 274
16.71871 343.013378210214
16.73883 311.954294504436
16.75894 307.981728404268
16.77905 295.951885740108
16.79917 334.981041918277
16.81928 316.009880923516
16.8394 327
16.85951 313.996108300228
16.87962 312.986448409345
16.89974 308.088286397013
16.91985 369.983099031151
16.93996 315.101076405773
16.96008 307.989913057934
16.98019 314.994957906946
17.00031 321.995672021822
17.02042 305.997647584799
17.04053 316.000345898177
17.06065 317.085684429758
17.08076 362.000402744241
17.10087 325.014891573489
17.12099 335.020482630442
17.1411 265
17.16121 327.018961134406
17.18133 298.932246417415
17.20144 284.029163151703
17.22156 306.978840396839
17.24167 303.000604157716
17.26178 308.006021082221
17.2819 297
17.30201 317.003140451191
17.32212 299.97710909388
17.34224 297.051359852794
17.36235 327.991088663821
17.38247 324.934890939408
17.40258 376.034174723454
17.42269 292.002380156453
17.44281 367.013013525433
17.46292 312.962997374746
17.48303 331.022187722542
17.50315 317.981512404303
17.52326 324.012041663557
17.54338 315.974441985501
17.56349 358.995945510399
17.5836 330
17.60372 332.978651968037
17.62383 298.008761738979
17.64394 342.050394245753
17.66406 338.968818207235
17.68417 371.997283669927
17.70428 326.061313014618
17.7244 284
17.74451 293.019787225995
17.76463 339.037602650321
17.78474 337.988492513607
17.80485 339.005144599166
17.82497 328.023673731389
17.84508 314.009409339549
17.86519 314.992710948816
17.88531 339.012840199183
17.90542 352.99608970925
17.92554 333.949885949435
17.94565 323.03668951406
17.96576 342.019472353547
17.98588 310.014600048901
18.00599 320.997317594815
18.0261 321
18.04622 354.992081920521
18.06633 301.92300640304
18.08645 292.063601190003
18.10656 326.952093088406
18.12667 328.021201178043
18.14679 318.995603797654
18.1669 338
18.18701 331.997471500967
18.20713 333.999305353126
18.22724 328.995823249744
18.24735 322.067003671992
18.26747 309.920944090416
18.28758 382.005335160261
18.3077 303
18.32781 312.001741110038
18.34792 296.016859019403
18.36804 350.085398955445
18.38815 356.021875995264
18.40826 343.057561675624
18.42838 313.004335332932
18.44849 339.981490121084
18.46861 346.978842255709
18.48872 289.982950781598
18.50883 325.067698505462
18.52895 342.98646838225
18.54906 321.070437298745
18.56917 297.981728757323
18.58929 329.993467766484
18.6094 322
18.62951 343.999902073891
18.64963 316.967849835256
18.66974 317.011012213049
18.68986 323.959647667757
18.70997 341.022017295825
18.73008 305.017927964204
18.7502 320
18.77031 323.990153906052
18.79042 312.03134468987
18.81054 361.009703589927
18.83065 316.096333977761
18.85077 319.959440071504
18.87088 331.024970267015
18.89099 301.990361777757
18.91111 347.999203377611
18.93122 297.974962492461
18.95133 324.045549728858
18.97145 333.019860721501
18.99156 350.96352199382
19.01168 354.018377278836
19.03179 329.005145817248
19.0519 330
19.07202 304.98723496458
19.09213 307.996456095571
19.11224 301.020463403932
19.13236 334.916756274131
19.15247 353.032721861044
19.17258 315.013780060634
19.1927 330
19.21281 330.01304809109
19.23293 369.005885680638
19.25304 335.951530902863
19.27315 331.050457859579
19.29327 305.9764278538
19.31338 358.959422102796
19.33349 357.012834739473
19.35361 343.007215917207
19.37372 363.988859449122
19.39384 323.946529759934
19.41395 337.094684020729
19.43406 365.005053560715
19.45418 348.992245019444
19.47429 380.990424495912
19.4944 383
19.51452 412.004665375855
19.53463 390.981809992023
19.55475 395.990478392317
19.57486 383.987106138365
19.59497 421.916622907066
19.61509 463.995034856541
19.6352 456
19.65531 485.013825038485
19.67543 516.093395244163
19.69554 579.008003571351
19.71565 555.897928103784
19.73577 654.911358975038
19.75588 658.969418653331
19.776 752
19.79611 810.99568879361
19.81622 791.042968180061
19.83634 869.020098559584
19.85645 830.91013179462
19.87656 945.848839428803
19.89668 931.039045005635
19.91679 918.001417943695
19.93691 915.001301446945
19.95702 906.959559912879
19.97713 851.956477799953
19.99725 843.921521710088
20.01736 806.959351833811
20.03747 860.998391521967
20.05759 798.025465424147
20.0777 804
20.09782 823.998326802443
20.11793 798.938646417762
20.13804 786.103937909985
20.15816 843.071617055459
20.17827 735.091944851078
20.19838 777.913621489327
20.2185 819
20.23861 759.997285432488
20.25872 798.995796987915
20.27884 756.020270254269
20.29895 811.001614952585
20.31907 757.006826398043
20.33918 829.924881331149
20.35929 842.021054534121
20.37941 781.975106979965
20.39952 792.092200193787
20.41963 880.964921383771
20.43975 756.740006507129
20.45986 750.896539149514
20.47998 799.974141898752
20.50009 807.992446429802
20.5202 834
20.54032 801.906152051271
20.56043 720.029830466793
20.58054 820.137619624593
20.60066 809.059024431864
20.62077 821.917645163399
20.64088 877.984383517695
20.661 872
20.68111 980.080188341248
20.70123 1176.3509035406
20.72134 1421.44091680273
20.74145 1659.18756745416
20.76157 2099.24692482034
20.78168 2660.3457448756
20.80179 3365.67023353811
20.82191 3828.09557652384
20.84202 3837.98433391849
20.86214 3781.46758339918
20.88225 3262.41049767263
20.90236 2615.33635377031
20.92248 1985.49985931551
20.94259 1594.18893567313
20.9627 1224
20.98282 1064.84002738565
21.00293 884.832134473937
21.02305 853.946042847233
21.04316 813.032586930803
21.06327 824.99922732035
21.08339 786.033093060259
21.1035 737
21.12361 786.029790801783
21.14373 798.917372257938
21.16384 726.96870064046
21.18395 758.011556834835
21.20407 716.993282073947
21.22418 772.968880971812
21.2443 764
21.26441 793.992698631516
21.28452 747.99900234089
21.30464 802.085496010323
21.32475 794.081684840705
21.34486 762.062989618888
21.36498 739.005553911754
21.38509 745.997073503209
21.40521 749.006003202033
21.42532 757.9819405428
21.44543 720.964787428132
21.46555 721.004204967763
21.48566 715.002281833399
21.50577 702.080614272053
21.52589 637.008196823524
21.546 673
21.56612 655.942461952484
21.58623 597.96039775744
21.60634 623.130072351079
21.62646 668.050076593977
21.64657 595.073292133141
21.66668 602.973857445171
21.6868 613
21.70691 612.004453360114
21.72702 628.011208701928
21.74714 616.922121795614
21.76725 573.048075424231
21.78737 582.97792758043
21.80748 580.018736199903
21.82759 562.001193710385
21.84771 567.996200498823
21.86782 568.050701432323
21.88793 631.993958016795
21.90805 568.919755762617
21.92816 581.038826990082
21.94828 534.991438319912
21.96839 592.989638127818
21.9885 559
22.00862 556.950580217139
22.02873 494.034772929771
22.04884 565.968207161557
22.06896 477.019740482544
22.08907 552.974402692518
22.10919 481.022882257219
22.1293 516
22.14941 539.999765572144
22.16953 531.991076937547
22.18964 525.964973930152
22.20975 495.085140662383
22.22987 479.974891796009
22.24998 514.973443768319
22.27009 518.004729327564
22.29021 523.017609497427
22.31032 552.973045035272
22.33044 497.995660749266
22.35055 532.941242844301
22.37066 459.039901517824
22.39078 516.944127293149
22.41089 515.018179437645
22.431 473
22.45112 462.044947550295
22.47123 527.034876203207
22.49135 488.855421090833
22.51146 460.977337255081
22.53157 492.962768077142
22.55169 499.997047810877
22.5718 515
22.59191 511.980435149883
22.61203 458.958138242075
22.63214 467.033493849315
22.65225 479.941519284174
22.67237 496.035989575143
22.69248 456.995806530911
22.7126 493
22.73271 452.995966656127
22.75282 492.031450996026
22.77294 486.967175510604
22.79305 470.077932691941
22.81316 439.997792397572
22.83328 461.000458536588
22.85339 440.998095012025
22.87351 467.001512280221
22.89362 453.019828693622
22.91373 490.984150282062
22.93385 437.943288567133
22.95396 470.916947816242
22.97407 481.022733444859
22.99419 454.015731901646
23.0143 444
23.03442 489.013519407175
23.05453 473.002542691591
23.07464 493.989585549623
23.09476 462.026939926854
23.11487 480.969296993265
23.13498 477.023564915778
23.1551 447
23.17521 437.00729436747
23.19532 470.037955372822
23.21544 477.911628990388
23.23555 423.995635942686
23.25567 486.90368335499
23.27578 493.052514607413
23.29589 434.006045226962
23.31601 456.996613830488
23.33612 406.958404920704
23.35623 406.03166191222
23.37635 436.109645165569
23.39646 471.999665125659
23.41658 435.047825329104
23.43669 413.99098009397
23.4568 451
23.47692 454.00812412228
23.49703 471.005945724524
23.51714 448.921804421853
23.53726 422.981323036256
23.55737 455.965646424556
23.57749 461.992201140304
23.5976 482
23.61771 461.006096490763
23.63783 496.001095497502
23.65794 442.861387829085
23.67805 416.898097129048
23.69817 477.983652702276
23.71828 436.027227298926
23.73839 462.973455603848
23.75851 505.010374370999
23.77862 501.980264051288
23.79874 487.008954049338
23.81885 498.982550064292
23.83896 477.012660608012
23.85908 494.979543297283
23.87919 491.016851536763
23.8993 454
23.91942 484.044591594388
23.93953 504.972552733325
23.95965 491.12366531803
23.97976 580.90651976692
23.99987 553.078071217124
24.01999 518.013258595359
24.0401 505
24.06021 532.004552439416
24.08033 516.976818984889
24.10044 515.004134775424
24.12056 514.997552854257
24.14067 517.001508303655
24.16078 496.053840593912
24.1809 448
24.20101 507.022159443544
24.22112 509.997084300566
24.24124 516.994431203348
24.26135 501.031705053501
24.28146 499.000246330395
24.30158 505.971928096568
24.32169 524.01880678383
24.34181 461.995634759286
24.36192 524.072796057237
24.38203 549.970058802495
24.40215 518.979869712211
24.42226 538.961383679947
24.44237 535.032207289447
24.46249 522.990540648157
24.4826 550
24.50272 510.983361367504
24.52283 535.047319980882
24.54294 558.061443228999
24.56306 590.975274782787
24.58317 592.96413213879
24.60328 625.006672334014
24.6234 597
24.64351 661.027142905766
24.66362 680.015537197432
24.68374 716.095664191994
24.70385 742.054884672548
24.72397 715.940347172038
24.74408 830.872027165039
24.76419 886.022074241665
24.78431 783.954328201385
24.80442 791.126296290296
24.82453 949.118518699434
24.84465 923.884613331111
24.86476 927.914336397601
24.88488 943.068306880238
24.90499 845.008481341316
24.9251 903
24.94522 828.903094300678
24.96533 768.956978299818
24.98544 750.957902581697
25.00556 712.113348153081
25.02567 673.972471731704
25.04579 718.998153704178
25.0659 674
25.08601 674.998591405824
25.10613 638.909596664956
25.12624 590.986337875496
25.14635 620.915820136424
25.16647 640.968186762278
25.18658 657.011022450086
25.20669 638.991479075677
25.22681 692.023602512395
25.24692 720.035833051945
25.26704 740.911238691906
25.28715 657.890050220136
25.30726 665.012346336216
25.32738 626.026494450053
25.34749 610.026030415003
25.3676 541
25.38772 568.002176780088
25.40783 524.943181788738
25.42795 522.030614675791
25.44806 529.992460729514
25.46817 533.98745080946
25.48829 536.009674461981
25.5084 512
25.52851 521.981928640456
25.54863 470.023712385497
25.56874 534.018534571069
25.58886 488.992073967296
25.60897 542.001650105525
25.62908 485.011015315973
25.6492 546
25.66931 546.984469429001
25.68942 530.019775389572
25.70954 560.987625887065
25.72965 523.039354937748
25.74976 544.957021462339
25.76988 548.992509599342
25.78999 566.992895769198
25.81011 568.997693917421
25.83022 562.992304708656
25.85033 555.994882109498
25.87045 565.068523979421
25.89056 580.069010021256
25.91067 520.035651198463
25.93079 548.981676237028
25.9509 550
25.97102 523.01921136878
25.99113 571.02909419577
26.01124 551.97891570773
26.03136 580.89556758416
26.05147 617.006808413763
26.07158 591.003905006972
26.0917 619
26.11181 628.005217637649
26.13193 640.996934581983
26.15204 651.132825559806
26.17215 736.944253002979
26.19227 688.068443083341
26.21238 706.929475702955
26.23249 780.979546151552
26.25261 797.017315179724
26.27272 851.029617304224
26.29283 847.998435714875
26.31295 865.041122602652
26.33306 896.838322511271
26.35318 1027.85398584623
26.37329 1152.95039768445
26.3934 1268
26.41352 1488.20609782029
26.43363 1669.29816481277
26.45374 2022.18160288246
26.47386 2813.30321268122
26.49397 3731.32795405571
26.51409 5215.07104858702
26.5342 7411
26.55431 10076.4602941044
26.57443 13094.2576554049
26.59454 15342.875714491
26.61465 15867.7745597642
26.63477 14979.9273214954
26.65488 13260.3346750165
26.67499 10559.2835654137
26.69511 8245.82222185573
26.71522 5751.64839024364
26.73534 3789.93735343579
26.75545 2621.84514413693
26.77556 1914.2406685467
26.79568 1375.37425790161
26.81579 1161.06418862255
26.8359 1066
26.85602 1045.92445875052
26.87613 918.846818976019
26.89625 875.942445461762
26.91636 831.135430753216
26.93647 752.113402681499
26.95659 694.019447077197
26.9767 676
26.99681 685.998998187569
27.01693 659.933891532787
27.03704 617.950563587815
27.05716 604.047749696977
27.07727 576.007302344821
27.09738 583.019511493785
27.1175 537
27.13761 542.015237987503
27.15772 564.99497599194
27.17784 535.943146783585
27.19795 517.06049048479
27.21806 478.094972582829
27.23818 450.982867493614
27.25829 508.964381342326
27.27841 546.992204287658
27.29852 505.98210452152
27.31863 523.023582586817
27.33875 523.014176778864
27.35886 535.005225300067
27.37897 524.983992027706
27.39909 555.988795258223
27.4192 562
27.43932 569.978788587074
27.45943 525.950630607629
27.47954 522.019569601081
27.49966 527.006461255475
27.51977 520.004339001859
27.53988 512.029984019974
27.56 480
27.58011 507.000403305967
27.60023 464.922477275363
27.62034 434.982267328979
27.64045 442.946435817058
27.66057 460.998960986149
27.68068 456.982293635256
27.70079 474.01640408442
27.72091 414.994180672062
27.74102 443.989980697904
27.76113 386.951799717102
27.78125 408.078662529838
27.80136 419.990843882449
27.82148 430.981400883434
27.84159 435.017106674604
27.8617 397
27.88182 439.981518873798
27.90193 380.00895497686
27.92204 464.133805031928
27.94216 449.134831071749
27.96227 398.987021498014
27.98239 438.00026120392
28.0025 391
28.02261 416.028204705198
28.04273 442.939732256642
28.06284 375.969078766967
28.08295 421.90233482011
28.10307 414.041158843499
28.12318 404.979957581058
28.1433 425
28.16341 379.992794776315
28.18352 397.997205328431
28.20364 377.033135708352
28.22375 429.07381834855
28.24386 413.054466142481
28.26398 393.02806245925
28.28409 374.986969852885
28.3042 427
28.32432 399.947799376969
28.34443 371.024842606817
28.36455 410.040098175502
28.38466 384.083566428036
28.40477 357.010447947256
28.42489 372.981684626985
28.445 407
28.46511 389.987812467307
28.48523 382.019970343299
28.50534 405.032023661141
28.52546 409.987819328783
28.54557 413.024897805729
28.56568 383.020136641313
28.5858 383
28.60591 387.000988605378
28.62602 385.993520771377
28.64614 385.036003903473
28.66625 406.014773409406
28.68636 384.988932876806
28.70648 411.998643158605
28.72659 382.009894484247
28.74671 388.003057239725
28.76682 373.97136508753
28.78693 355.014908961926
28.80705 383.039789432787
28.82716 372.045670368551
28.84727 363.971948192953
28.86739 392.994747936631
28.8875 376
28.90762 357.984484045941
28.92773 348.005048465602
28.94784 356.998282988497
28.96796 357.940499305162
28.98807 389.03403398083
29.00818 341.986362590527
29.0283 408
29.04841 358.969612714015
29.06853 342.03268501273
29.08864 370.013155466347
29.10875 358.993492981536
29.12887 366.04345517352
29.14898 322.993951182238
29.16909 371.98879865185
29.18921 352.997002385268
29.20932 380.025604439801
29.22943 389.016445430461
29.24955 390.908239089235
29.26966 343.002525070825
29.28978 382.981809857757
29.30989 358.013306041041
29.33 358
29.35012 365.995909036335
29.37023 361.01749048117
29.39034 377.986703301967
29.41046 352.023493302487
29.43057 370.950674744017
29.45069 395.994256492103
29.4708 380
29.49091 331.001120082204
29.51103 368.010800000608
29.53114 358.098633514268
29.55125 435.012179433307
29.57137 342.116542523925
29.59148 335.980079355811
29.6116 352
29.63171 376.995693416737
29.65182 338.967792370048
29.67194 340.054324875707
29.69205 366.010605789972
29.71216 358.975160994299
29.73228 384.99729333548
29.75239 364.004103259325
29.7725 375
29.79262 357.989378384358
29.81273 370.041191483103
29.83285 386.968260535888
29.85296 367.965500609456
29.87307 405.999275341301
29.89319 372.003436289254
29.9133 399
29.93341 363.979324085927
29.95353 350.019732973163
29.97364 368.001532557815
29.99376 353.014362503477
30.01387 361.984818614419
30.03398 358.018341916956
30.0541 353
30.07421 408.010864168691
30.09432 375.945123362384
30.11444 335.965802058626
30.13455 344.923358938036
30.15467 372.992760982229
30.17478 369.975181415027
30.19489 407.999883365209
30.21501 377.999142051916
30.23512 398.979876131632
30.25523 346.984206612631
30.27535 383.03708636
30.29546 352.067543270103
30.31557 342.998532688104
30.33569 339.004497070546
30.3558 336
30.37592 372.051031937676
30.39603 401.968021207425
30.41614 342.894603414318
30.43626 335.929697536734
30.45637 378.970414487041
30.47648 364.030222756716
30.4966 347
30.51671 358.996216503347
30.53683 320.920284114135
30.55694 295.058475003992
30.57705 355.899516320009
30.59717 355.016978454383
30.61728 355.994857173069
30.63739 356.003139056072
30.65751 338.984616809801
30.67762 321.024908046418
30.69773 369.031279188777
30.71785 356.997235536529
30.73796 382.94962336387
30.75808 380.031128642074
30.77819 355.990570810233
30.7983 395
30.81842 368.015660645655
30.83853 411.981996801514
30.85864 351.968270365643
30.87876 387.992577682361
30.89887 341.047783098687
30.91899 356.984533701617
30.9391 375
30.95921 359.969933474112
30.97933 300.010778907099
30.99944 366.09976291616
31.01955 364.039418824239
31.03967 360.007456928054
31.05978 352.997183258004
31.0799 359
31.10001 334.990413392536
31.12012 333.008478349514
31.14024 346.036268343974
31.16035 369.927282593306
31.18046 381.060488013244
31.20058 332.021116717915
31.22069 343.997939019528
31.2408 338
31.26092 369.983157403765
31.28103 322.999686970733
31.30115 377.097481780665
31.32126 368.043151706544
31.34137 362.991941471239
31.36149 355.019382741467
31.3816 308
31.40171 334.016844542707
31.42183 346.993989060287
31.44194 346.036281185632
31.46206 367.017910917839
31.48217 333.031882283067
31.50228 336.995727809053
31.5224 346
31.54251 391.993945545404
31.56262 329.957530943279
31.58274 342.065995435915
31.60285 360.000333725251
31.62297 352.004241360468
31.64308 352.012465589508
31.66319 324.01540665511
31.68331 310.005185127905
31.70342 336.025194780656
31.72353 351.016787429676
31.74365 345.899387860302
31.76376 314.91550262159
31.78387 388.004780435434
31.80399 310.021840262031
31.8241 340
31.84422 339.994727779137
31.86433 343.997720089881
31.88444 341.028623697324
31.90456 364.986464793934
31.92467 350.022055165503
31.94478 355.974882546543
31.9649 372
31.98501 330.990531218698
32.00513 355.067994934317
32.02524 382.98553866406
32.04535 350.077681531388
32.06547 335.017261604231
32.08558 328.985634136646
32.10569 360.984230497078
32.12581 369.990925691478
32.14592 350.008223333195
32.16604 372.988565378863
32.18615 342.983533639177
32.20626 368.959933318428
32.22638 367.999023552847
32.24649 377.998536993049
32.2666 370
32.28672 372.005931567782
32.30683 369.974390206007
32.32694 340.939417109665
32.34706 327.974033003923
32.36717 355.965084164781
32.38729 361.003753149252
32.4074 348
32.42751 336.000613514332
32.44763 353.040724830417
32.46774 373.001195873627
32.48785 367.962227492013
32.50797 400.966414005073
32.52808 393.029914495194
32.5482 369
32.56831 397.017217316341
32.58842 409.982728515114
32.60854 382.985592773835
32.62865 401.944800707776
32.64876 400.060780996929
32.66888 360.02561796993
32.68899 361.990329417612
32.7091 372
32.72922 350.008811530702
32.74933 380.007160011001
32.76945 363.026836645653
32.78956 398.98219415372
32.80967 369.042907929073
32.82979 363.001013409606
32.8499 362
32.87001 381.997792453038
32.89013 362.002787694165
32.91024 392.054180673316
32.93036 401.982014209647
32.95047 411.00983892837
32.97058 395.003530621737
32.9907 419
33.01081 458.006821480077
33.03092 444.978487914152
33.05104 434.001609047028
33.07115 441.976801912734
33.09127 442.021125010913
33.11138 424.006579489693
33.13149 439.982826598949
33.15161 471.004708110028
33.17172 456.97865769334
33.19183 447.006526765671
33.21195 457.010012594344
33.23206 446.046471057333
33.25217 424.014185821946
33.27229 432.988933399031
33.2924 446
33.31252 417.986950439161
33.33263 428.018103097093
33.35274 422.959209097499
33.37286 404.003960785953
33.39297 426.939399949451
33.41308 451.019376563473
33.4332 403
33.45331 397.999156876384
33.47343 394.021245186193
33.49354 418.009714763247
33.51365 397.061143924256
33.53377 395.958936087551
33.55388 433.974808116005
33.57399 430.01327543464
33.59411 396.985318893674
33.61422 379.994791127601
33.63434 378.99299633886
33.65445 377.025638910255
33.67456 389.01534189696
33.69468 378.973675347821
33.71479 420.002627133702
33.7349 359
33.75502 329.996150379502
33.77513 348.071318251584
33.79524 406.081364746787
33.81536 402.098015185736
33.83547 352.008807510387
33.85559 381.993805467392
33.8757 357
33.89581 355.011031926213
33.91593 382.022684240021
33.93604 369.924027411485
33.95615 332.030279563533
33.97627 345.977368703257
33.99638 344.012398517398
34.0165 335
34.03661 336.992302532094
34.05672 326.033006207467
34.07684 382.035634323448
34.09695 360.999741107403
34.11706 394.959178769521
34.13718 380.024763475843
34.15729 374.990506832776
34.17741 393.995254735265
34.19752 353.956184669843
34.21763 341.040012828065
34.23775 389.104549519587
34.25786 396.05978734679
34.27797 364.991102256768
34.29809 405.982164480327
34.3182 405
34.33831 380.001852292843
34.35843 404.017203942438
34.37854 388.954125908122
34.39866 367.059690947919
34.41877 343.987542596172
34.43888 388.937997795327
34.459 417
34.47911 359.001215438109
34.49922 419.034896297977
34.51934 396.942293199617
34.53945 403.910985640242
34.55957 442.964497249267
34.57968 436.03458628306
34.59979 408.993351850012
34.61991 450.011520439299
34.64002 447.007859112979
34.66013 477.03935164627
34.68025 493.061143963764
34.70036 507.068914048038
34.72047 464.955478713968
34.74059 545.984250735098
34.7607 514
34.78082 559.0446650856
34.80093 577.027839672983
34.82104 599.001041256251
34.84116 579.029065910333
34.86127 581.989512923726
34.88138 594.965713010539
34.9015 637
34.92161 634.001240774773
34.94173 653.026951357803
34.96184 648.94054731237
34.98195 623.963892429083
35.00207 659.992708917101
35.02218 620.045544459153
35.04229 607.988965632606
35.06241 631.996478629819
35.08252 588.949261894696
35.10264 562.00230176367
35.12275 572.996405180385
35.14286 564.973061648741
35.16298 589.004724331492
35.18309 548.022580280409
35.2032 528
35.22332 544.020042313398
35.24343 554.995638971332
35.26354 540.965049435652
35.28366 533.979674782676
35.30377 564.92727151867
35.32389 594.012545741977
35.344 530
35.36411 529.020447838367
35.38423 579.052705603607
35.40434 598.048738942478
35.42445 613.07778865206
35.44457 563.006460819554
35.46468 596.00274332289
35.4848 551
35.50491 588.030028456833
35.52502 630.015811646905
35.54514 637.045813524954
35.56525 649.126324235365
35.58536 579.981630041031
35.60548 665.936446681749
35.62559 658.015221709624
35.64571 655.012733097335
35.66582 668.961366951857
35.68593 608.987369394975
35.70605 643.995103831429
35.72616 603.997422064902
35.74627 654.955418350155
35.76639 646.995770999642
35.7865 672
35.80661 628.994532097534
35.82673 655.008819074409
35.84684 621.932370647247
35.86696 614.979878018602
35.88707 636.942294591739
35.90718 668.005809468332
35.9273 641
35.94741 657.994117513256
35.96752 605.945525202223
35.98764 590.05374176065
36.00775 619.035599360574
36.02787 563.075728895469
36.04798 551.983922226034
36.06809 570.995034889759
36.08821 567.995995377344
36.10832 554.974341218136
36.12843 531.000278308104
36.14855 545.995467677016
36.16866 533.968201987783
36.18878 571.98424293022
36.20889 545.022980800036
36.229 524
36.24912 558.988197137191
36.26923 505.952496960096
36.28934 523.062736154546
36.30946 549.925689903547
36.32957 603.908063786199
36.34968 659.95398860048
36.3698 706
36.38991 775.030239545262
36.41003 834.12148855421
36.43014 966.372161531382
36.45025 1180.48083752163
36.47037 1350.80545263196
36.49048 1432.97382147471
36.51059 1431.99616623011
36.53071 1400.92375064748
36.55082 1197.90364964267
36.57094 1190.82293570355
36.59105 1004.68286107281
36.61116 979.071404550714
36.63128 866.144001281056
36.65139 746.041825126953
36.6715 677
36.69162 585.948832125085
36.71173 564.93436835102
36.73184 502.956498079006
36.75196 534.918039937822
36.77207 548.011992747541
36.79219 530.01188557318
36.8123 509
36.83241 500.995227759036
36.85253 502.045977535125
36.87264 540.006982366583
36.89275 516.999580656321
36.91287 544.983969527001
36.93298 516.045715936261
36.9531 499
36.97321 563.023122417486
36.99332 562.970994237297
37.01344 519.882612343
37.03355 475.988840305058
37.05366 514.947512394876
37.07378 512.001736177336
37.09389 521.000690378136
37.11401 506.996188617402
37.13412 509.999083281999
37.15423 489.940678866634
37.17435 473.121971829246
37.19446 542.995238999501
37.21457 483.043425303077
37.23469 517.980804362992
37.2548 512
37.27491 472.989902968264
37.29503 465.972406230881
37.31514 440.996326818846
37.33526 466.943021102338
37.35537 481.984929515984
37.37548 484.017878011681
37.3956 460
37.41571 478.008165175754
37.43582 477.992447090072
37.45594 469.979971657286
37.47605 473.911303177035
37.49617 512.010051812236
37.51628 457.059035333532
37.53639 444.978604250699
37.55651 496.002036756223
37.57662 462.994504404998
37.59673 500.04511935214
37.61685 495.958664207188
37.63696 485.017184426826
37.65708 485.978790286038
37.67719 513.994889728347
37.6973 498
37.71742 491.026063185748
37.73753 527.012934522328
37.75764 505.967926622621
37.77776 496.073451902546
37.79787 449.010408705282
37.81798 489.953808342701
37.8381 517
37.85821 525.980293379303
37.87833 461.952412189222
37.89844 477.040918824744
37.91855 471.057783273305
37.93867 457.977101605423
37.95878 487.987410811201
37.97889 482.995445956031
37.99901 513.012774322568
38.01912 517.993090741254
38.03924 495.902476484783
38.05935 459.064518522955
38.07946 525.930433115867
38.09958 487.081747750644
38.11969 452.962765296206
38.1398 573
38.15992 513.946592546742
38.18003 523.036752046649
38.20015 531.015255342482
38.22026 534.032064848981
38.24037 523.944362351179
38.26049 586.987266395641
38.2806 563
38.30071 585.029263944595
38.32083 627.97344178698
38.34094 569.934168107497
38.36105 586.932716208156
38.38117 600.973237281698
38.40128 619.002767335295
38.4214 600
38.44151 613.011695756501
38.46162 627.999614311972
38.48174 611.950145056361
38.50185 593.010469829092
38.52196 591.041534210902
38.54208 558.017005348299
38.56219 562.997438780494
38.58231 554.993781006244
38.60242 545.993904418676
38.62253 544.006010725678
38.64265 553.027523725752
38.66276 556.024433676247
38.68287 540.001467417725
38.70299 550.999467996269
38.7231 530
38.74321 504.997057888883
38.76333 512.004423848509
38.78344 491.91023629481
38.80356 452.004369162554
38.82367 477.981636856647
38.84378 468.99589285626
38.8639 490
38.88401 476.995781452223
38.90412 483.005851431165
38.92424 480.993878380101
38.94435 482.984111301444
38.96447 489.9932856078
38.98458 481.030177575831
39.00469 462.982143099026
39.02481 528.013704645393
39.04492 500.967872470683
39.06503 509.066834131032
39.08515 544.963144698486
39.10526 489.089983101868
39.12538 483.986961950253
39.14549 500.985728401169
39.1656 546
39.18572 575.963908509396
39.20583 512.98171030292
39.22594 550.015391253355
39.24606 522.977375908975
39.26617 588.904871469682
39.28628 621.96936092439
39.3064 678
39.32651 776.055160142942
39.34663 902.221632782685
39.36674 1048.22129494877
39.38685 1153.60028426676
39.40697 1340.81641396679
39.42708 1349.06669500492
39.44719 1268.0365830122
39.46731 1197.95428364143
39.48742 1075.86565879959
39.50754 968.890716646562
39.52765 926.771143838434
39.54776 777.301234083943
39.56788 673.062452074495
39.58799 612.046162298318
39.6081 508
39.62822 489.970882672078
39.64833 436.947576069244
39.66845 435.012439745343
39.68856 429.01752617438
39.70867 416.03986959793
39.72879 387.005091547995
39.7489 398
39.76901 407.007863935028
39.78913 433.042085527645
39.80924 437.928882141896
39.82935 387.056841751295
39.84947 402.966467099469
39.86958 411.992090922968
39.8897 418
39.90981 395.990608104745
39.92992 391.003801474546
39.95004 403.049062708289
39.97015 425.994094864992
39.99026 411.020528001334
40.01038 420.976353049528
40.03049 441.995928457864
40.05061 429.985338586795
40.07072 417.034581550267
40.09083 472.024796556025
40.11095 458.053591035056
40.13106 525.883207629549
40.15117 552.958080431738
40.17129 594.982136160428
40.1914 642
40.21152 779.134229647745
40.23163 876.099837676396
40.25174 903.94470050779
40.27186 823.2263851277
40.29197 724.083857742748
40.31208 709.003861983902
40.3322 689
40.35231 645.97421917003
40.37242 589.943867170253
40.39254 547.967274565337
40.41265 534.112751569652
40.43277 461.093608787505
40.45288 442.977079357789
40.47299 466.007267080524
40.49311 417.980362918513
40.51322 417.025513690343
40.53333 436.990925384872
40.55345 404.906600675016
40.57356 386.987104001294
40.59368 409.973281805876
40.61379 418.010393515062
40.6339 391
40.65402 419.0245595565
40.67413 415.964647104488
40.69424 379.906324801691
40.71436 351.959825637465
40.73447 408.920068586544
40.75458 430.000284671559
40.7747 416
40.79481 383.993797579893
40.81493 412.103452841862
40.83504 470.992547735215
40.85515 423.052593209997
40.87527 441.002339098602
40.89538 407.020321695819
40.91549 417.99295891081
40.93561 416.99691838458
40.95572 415.001640401486
40.97584 426.053050249529
40.99595 444.954556685062
41.01606 409.008948285937
41.03618 435.990596156692
41.05629 416.006081662039
41.0764 415
41.09652 376.989633037324
41.11663 407.06194484142
41.13675 425.978334093297
41.15686 405.025070709399
41.17697 411.97426086182
41.19709 417.010162541009
41.2172 388
41.23731 404.005612613123
41.25743 396.984012406442
41.27754 392.997235380613
41.29765 395.967174340598
41.31777 415.973886657842
41.33788 414.028969664175
41.358 381
41.37811 398.002314643961
41.39822 389.011175291863
41.41834 420.032870722297
41.43845 407.057764906255
41.45856 394.997234710047
41.47868 399.006427878716
41.49879 379.011686663498
41.51891 380.021622498796
41.53902 430.002648408528
41.55913 376.905331571141
41.57925 347.005556272019
41.59936 365.957334629099
41.61947 371.024064640111
41.63959 353.99641434604
41.6597 384
41.67982 392.001824164625
41.69993 396.003652536255
41.72004 387.95285753393
41.74016 362.0187943278
41.76027 380.939278125859
41.78038 410.009338438383
41.8005 376
41.82061 383.000027652344
41.84072 373.008610762577
41.86084 395.002765769169
41.88095 366.086921340179
41.90107 345.017008317616
41.92118 342.988626538535
41.94129 363.988756322695
41.96141 377.000078477365
41.98152 359.964896722844
42.00163 342.053742471101
42.02175 400.028568789623
42.04186 353.097094456252
42.06198 348.969251883028
42.08209 383.991048178698
42.1022 367
42.12232 335.030276454453
42.14243 394.012459565665
42.16254 346.943679101728
42.18266 373.91128745799
42.20277 397.000197058466
42.22289 402.978555372662
42.243 471
42.26311 495.017119685498
42.28323 542.03843189895
42.30334 557.096400626443
42.32345 663.639308380826
42.34357 786.910161197703
42.36368 817.923694771268
42.38379 929.969251972617
42.40391 940.021048229532
42.42402 1005.99712146888
42.44414 910.764720272347
42.46425 826.848350573824
42.48436 771.113281501649
42.50448 719.034315999265
42.52459 677.043377706958
42.5447 572
42.56482 537.901054512162
42.58493 401.918005859034
42.60505 432.004636718535
42.62516 365.125529838698
42.64527 351.983770486699
42.66539 367.985852879721
42.6855 395
42.70561 373.986154829337
42.72573 355.985075058385
42.74584 337.919996023661
42.76595 300.984940521863
42.78607 345.940108634979
42.80618 344.037262543286
42.8263 305
42.84641 321.010470225321
42.86652 337.024824418212
42.88664 360.998299913273
42.90675 339.038336101284
42.92686 344.971008412799
42.94698 349.012826058431
42.96709 328.006924226777
42.98721 327.001262143537
43.00732 328.00373571171
43.02743 337.018616579324
43.04755 334.918542187939
43.06766 294.020391912773
43.08777 320.952147881072
43.10789 329.006449783031
43.128 307
43.14812 302.020419179594
43.16823 331.018082580368
43.18834 336.065521168383
43.20846 371.047704483898
43.22857 302.058557791639
43.24868 314.987489887926
43.2688 304
43.28891 309.996253404179
43.30902 296.011050065371
43.32914 337.088097822126
43.34925 349.072759437939
43.36937 317.976701428453
43.38948 359.00350266267
43.40959 310.012568122648
43.42971 333.013172327479
43.44982 330.982313579803
43.46993 315.990465547987
43.49005 319.018429608818
43.51016 330.957085564995
43.53028 343.021723686255
43.55039 305.006003419782
43.5705 326
43.59062 310.954145181131
43.61073 279.036341928625
43.63084 343.089736728559
43.65096 335.07298771394
43.67107 313.97834647098
43.69119 349.988385334677
43.7113 335
43.73141 293.994140801927
43.75153 315.047880729336
43.77164 329.982807188108
43.79175 317.971576965143
43.81187 341.00611453786
43.83198 309.021710253817
43.85209 319.985931687833
43.87221 336.996338018012
43.89232 312.980213357991
43.91244 312.02387490882
43.93255 328.042220544769
43.95266 335.02176500043
43.97278 322.988363767234
43.99289 349.995500969052
44.013 337
44.03312 344.999207029628
44.05323 333.999886154529
44.07335 348.02539299473
44.09346 343.027336196583
44.11357 329.018269252079
44.13369 320.003144805874
44.1538 316
44.17391 316.000129599341
44.19403 309.973755549115
44.21414 290.990113660995
44.23426 308.931878250115
44.25437 339.977837727618
44.27448 336.012411323562
44.2946 329
44.31471 329.993101367102
44.33482 325.041204484126
44.35494 375.972672212603
44.37505 309.08484938922
44.39516 337.927564665731
44.41528 333.039173284128
44.43539 310.979985224126
44.45551 378.006566041174
44.47562 331.969899647606
44.49573 350.035888600442
44.51585 343.925122173018
44.53596 319.98713754491
44.55607 353.948602038224
44.57619 350.02692966608
44.5963 287
44.61642 325.053902506771
44.63653 344.964020636864
44.65664 309.994141164713
44.67676 337.970701555488
44.69687 319.043377826779
44.71698 304.997467463371
44.7371 315
44.75721 320.007605436561
44.77732 343.01600506562
44.79744 343.984663996215
44.81755 334.030184556157
44.83767 326.991987651626
44.85778 328.027262383203
44.87789 296.992856154533
44.89801 354.023779277469
44.91812 359.983366889849
44.93823 355.032966073514
44.95835 375.941288914927
44.97846 331.993285471788
44.99858 372.001672064234
45.01869 330.999733193131
45.0388 368
45.05892 311.99293380694
45.07903 366.052849559348
45.09914 352.976358226049
45.11926 361.999884209374
45.13937 346.013902542408
45.15949 347.003922431757
45.1796 333
45.19971 354.010665157131
45.21983 358.985572667273
45.23994 352.022307493687
45.26005 379.931501215776
45.28017 382.04709888235
45.30028 342.015002271354
45.32039 369.972293815759
45.34051 399.983177244652
45.36062 336.980569260101
45.38074 378.092012945461
45.40085 375.878576192282
45.42096 329.989697287001
45.44108 384.944846300205
45.46119 405.000941829453
45.4813 406
45.50142 428.00998416765
45.52153 419.979916602426
45.54165 410.982088099532
45.56176 417.928212055424
45.58187 460.980939807
45.60199 452.990983049415
45.6221 503
45.64221 518.007012998956
45.66233 566.137395038672
45.68244 666.123089188347
45.70256 705.841650239203
45.72267 795.986479571304
45.74278 732.036919293376
45.7629 761
45.78301 750.978869654754
45.80312 701.958963775947
45.82324 658.863516460493
45.84335 596.997326192158
45.86346 629.05013623413
45.88358 552.034402355797
45.90369 557.026211977156
45.92381 461.987851846602
45.94392 498.976734225304
45.96403 402.911239732532
45.98415 414.016792403771
46.00426 387.030683356971
46.02437 395.998477503631
46.04449 384.99729152744
46.0646 408
46.08472 387.951054560611
46.10483 349.009860395306
46.12494 381.004083909204
46.14506 352.01128516714
46.16517 374.995872107576
46.18528 359.981311427286
46.2054 401
46.22551 359.990894031881
46.24563 377.002111652685
46.26574 351.97690865508
46.28585 363.985154045233
46.30597 345.049492587698
46.32608 328.978385042158
46.34619 369.989517340811
46.36631 355.987593279896
46.38642 344.000744211077
46.40653 354.023889893522
46.42665 359.95812863221
46.44676 328.052587611058
46.46688 330.964370790634
46.48699 361.008932979874
46.5071 312
46.52722 346.05608147708
46.54733 386.025838856853
46.56744 374.922692889033
46.58756 329.064542354336
46.60767 322.980465279943
46.62779 336.998033677243
46.6479 336
46.66801 361.013704902667
46.68813 372.986009095621
46.70824 352.971793799942
46.72835 353.97742059086
46.74847 360.001631345289
46.76858 355.001643188118
46.78869 367.984247887897
46.80881 388.988512529357
46.82892 339.976725146802
46.84904 349.999633793648
46.86915 328.97733353476
46.88926 344.957142537993
46.90938 355.996133121976
46.92949 346.016926012713
46.9496 320
46.96972 372.014780420579
46.98983 341.973148615993
47.00995 358.038131306953
47.03006 356.002794613159
47.05017 360.005661628907
47.07029 348.00365311279
47.0904 349
47.11051 352.009305933182
47.13063 371.991040253673
47.15074 342.956374253271
47.17086 347.95694501666
47.19097 366.988966271136
47.21108 353.035892930771
47.2312 322
47.25131 349.007958869586
47.27142 341.993953610473
47.29154 354.046554872549
47.31165 374.971966135162
47.33176 367.058992257467
47.35188 334.015422337882
47.37199 341.991771171168
47.39211 357.009113556304
47.41222 372.000179443954
47.43233 355.966963878353
47.45245 347.033413471103
47.47256 365.009156725832
47.49267 343.010655303848
47.51279 358.992543710082
47.5329 360
47.55302 362.001333060535
47.57313 358.990218523607
47.59324 352.995755857835
47.61336 351.017594640738
47.63347 344.97980759955
47.65358 360.018303863534
47.6737 334
47.69381 387.996670802513
47.71393 325.96327700096
47.73404 369.096912003909
47.75415 376.050336437022
47.77427 350.037196951322
47.79438 341.982216418898
47.81449 380.976972873349
47.83461 404.993005429758
47.85472 372.985971578203
47.87483 382.002363560996
47.89495 368.989230581209
47.91506 370.039971251585
47.93518 339.005159334222
47.95529 370.978269414058
47.9754 396
47.99552 385.995627144644
48.01563 384.974895913522
48.03574 359.987219026587
48.05586 370.004924607486
48.07597 349.024859080316
48.09609 354.988054712191
48.1162 380
48.13631 373.989445325889
48.15643 352.985556907479
48.17654 356.012014482475
48.19665 352.043178273498
48.21677 334.003767834385
48.23688 339.011593145945
48.257 322
48.27711 353.00033624791
48.29722 321.984037499624
48.31734 345.078980565485
48.33745 361.943199232904
48.35756 320.046035560479
48.37768 327.986367905088
48.39779 333.99488065368
48.4179 353
48.43802 359.987230097361
48.45813 333.961376541334
48.47825 324.021020445863
48.49836 344.950452480606
48.51847 357.013795702575
48.53859 343.995404516796
48.5587 363
48.57881 328.992435206564
48.59893 338.997953358098
48.61904 324.011033107583
48.63916 348.982057685815
48.65927 337.999675120624
48.67938 347.015900457697
48.6995 318
48.71961 351.006225228189
48.73972 332.991030117822
48.75984 345.011218072514
48.77995 331.04825698391
48.80006 323.982051818103
48.82018 341.983922958623
48.84029 348.999321671456
48.86041 352.00418417615
48.88052 355.986053443584
48.90063 342.026310538589
48.92075 371.979175111582
48.94086 336.004262201742
48.96097 362.019211197807
48.98109 319.997010364835
49.0012 371
49.02132 331.967182942318
49.04143 331.999096661199
49.06154 315.974742956392
49.08166 319.969521980262
49.10177 342.951670578818
49.12188 377.971046706855
49.142 383
49.16211 338.984510036898
49.18223 337.022927155956
49.20234 351.011369798004
49.22245 340.072237893951
49.24257 327.937998899401
49.26268 390.984574598917
49.28279 354.012566986161
49.30291 369.009694202022
49.32302 361.971344687011
49.34313 338.00402679254
49.36325 367.082673338394
49.38336 382.00763719514
49.40348 369.012044493059
49.42359 376.981476579953
49.4437 412
49.46382 365.961636748423
49.48393 364.027384474396
49.50404 380.01435097429
49.52416 377.016293097229
49.54427 371.002175486793
49.56439 365.010950072104
49.5845 344
49.60461 380.016340490194
49.62473 399.037393083969
49.64484 414.944125349575
49.66495 365.035891239687
49.68507 396.952259012603
49.70518 392.032291477366
49.7253 368
49.74541 397.001777139118
49.76552 380.010630974806
49.78564 407.973653899218
49.80575 367.007069900148
49.82586 424.895497390666
49.84598 436.006248839686
49.86609 457.964340614393
49.8862 532
49.90632 500.024596877988
49.92643 602.155505356464
49.94655 677.222354992139
49.96666 810.674784094987
49.98677 991.701486426
50.00689 1173.93758436047
50.027 1283
50.04711 1568.18472126671
50.06723 1883.21372815463
50.08734 1867.90931691651
50.10746 1844.15413108001
50.12757 1674.33681605304
50.14768 1438.23633711699
50.1678 1238
50.18791 1168.97987168146
50.20802 1133.98219536922
50.22814 1119.93045331053
50.24825 1039.31370543418
50.26837 883.254147489816
50.28848 706.190693712066
50.30859 548.033889059908
50.32871 537.979993970597
50.34882 444.92013435862
50.36893 415.993314470903
50.38905 410.990680917347
50.40916 406.020757460353
50.42927 384.052832614838
50.44939 366.982542362386
50.4695 418
50.48962 367.980509946252
50.50973 386.9831935357
50.52984 350.020666070221
50.54996 411.912074137319
50.57007 396.073925234887
50.59018 367.978036996898
50.6103 414
50.63041 375.971199932674
50.65053 344.010029056761
50.67064 370.026337245036
50.69075 365.984448018007
50.71087 385.985682371389
50.73098 366.044269998696
50.75109 336.989323802146
50.77121 377.997237839952
50.79132 329.979680820241
50.81143 355.027581708405
50.83155 341.955983269391
50.85166 341.973524121026
50.87178 356.990528174758
50.89189 355.006141066516
50.912 346
50.93212 364.011722624116
50.95223 358.977448654617
50.97234 353.031205142944
50.99246 378.975776875778
51.01257 365.042643121561
51.03269 339.008856881662
51.0528 342
51.07291 372.998374207977
51.09303 333.937645291687
51.11314 324.046953452398
51.13325 352.989413846409
51.15337 329.038423279734
51.17348 320.000292289512
51.1936 331
51.21371 358.992904334476
51.23382 312.970224253367
51.25394 319.028131298827
51.27405 318.028817291672
51.29416 309.989726058813
51.31428 326.982310817446
51.33439 338.994666344997
51.3545 338
51.37462 300.986028094073
51.39473 316.026878418583
51.41485 317.98238791234
51.43496 315.979585669099
51.45507 323.028228978584
51.47519 290.006159310525
51.4953 310
51.51541 329.005852398551
51.53553 322.943991743985
51.55564 285.012425671043
51.57576 332.916141690975
51.59587 331.055431708355
51.61598 296.004356599671
51.6361 316
51.65621 308.001249782627
51.67632 320.995548733476
51.69644 309.036529111807
51.71655 341.022465873776
51.73667 301.009320411412
51.75678 332.990306980886
51.77689 308.005756010448
51.79701 322.001728106123
51.81712 298.970712353634
51.83723 291.031864520305
51.85735 321.02525493607
51.87746 299.075257377598
51.89757 279.972779230762
51.91769 314.993750181928
51.9378 303
51.95792 323.009170559007
51.97803 304.952863913151
51.99814 290.036152818837
52.01826 326.951049035607
52.03837 321.035631457744
52.05848 303.001011297725
52.0786 314
52.09871 312.000327276047
52.11883 313.985860152215
52.13894 293.96643352058
52.15905 291.97273989922
52.17917 302.999889603322
52.19928 295.999177652362
52.21939 310.989769172515
52.23951 322.998950908014
52.25962 319.011807514671
52.27974 333.975426167754
52.29985 304.988217553014
52.31996 324.991410318733
52.34008 302.021421033523
52.36019 303.990655615156
52.3803 317
52.40042 309.030738834846
52.42053 356.003327812607
52.44064 307.913940903002
52.46076 306.952695917985
52.48087 324.005481981399
52.50099 309.00144464089
52.5211 320
52.54121 316.005387436489
52.56133 338.011088824671
52.58144 326.984639340924
52.60155 327.02356713631
52.62167 310.007835130741
52.64178 318.993659051285
52.6619 314
52.68201 312.002731584712
52.70212 322.010210323424
52.72224 324.98492544024
52.74235 315.994853662643
52.76246 325.995351743617
52.78258 316.011238386029
52.80269 311.00106940002
52.8228 309
52.84292 307.997622587816
52.86303 308.01146414711
52.88315 330.093985695086
52.90326 360.006042902622
52.92337 333.025272549086
52.94349 339.994712848009
52.9636 335
52.98371 321.005392111613
53.00383 352.040750395836
53.02394 354.963726839242
53.04406 336.998595757941
53.06417 354.97677705519
53.08428 353.014802126216
53.1044 332
53.12451 324.013864366992
53.14462 368.021460373379
53.16474 355.963559087923
53.18485 352.983296419629
53.20497 358.003674750708
53.22508 351.999814348347
53.24519 352.008115266107
53.26531 344.020474426287
53.28542 404.007731167187
53.30553 351.927494576024
53.32565 356.106669880378
53.34576 393.000275534561
53.36587 355.068129203467
53.38599 332.998650404391
53.4061 361
53.42622 413.026249509638
53.44633 399.938118560754
53.46644 357.949001681577
53.48656 350.011571211489
53.50667 351.953680203526
53.52678 392.989577854947
53.5469 373
53.56701 381.99774545685
53.58713 361.992278101111
53.60724 379.0326881095
53.62735 385.97184280735
53.64747 393.029655556354
53.66758 369.97978254017
53.68769 418.991861634731
53.70781 399.000689478065
53.72792 421.987273489954
53.74804 375.96142351835
53.76815 415.173955062037
53.78826 449.082439548315
53.80838 372.033338050418
53.82849 390.000880668727
53.8486 377
53.86872 477.039875135444
53.88883 424.891763728971
53.90894 405.068161477932
53.92906 454.949966801506
53.94917 442.036239031869
53.96929 430.999994526924
53.9894 424
54.00951 397.008579481877
54.02963 454.075997557448
54.04974 466.977700530618
54.06985 437.140975926404
54.08997 396.957740128161
54.11008 465.970245008223
54.1302 441
54.15031 467.017783728356
54.17042 482.998602306414
54.19054 482.029581495665
54.21065 499.025097959678
54.23076 470.020955840794
54.25088 482.996072861258
54.27099 468.005579925966
54.29111 467.997957631606
54.31122 457.997617410746
54.33133 472.038459606978
54.35145 486.965847079748
54.37156 456.037198080693
54.39167 466.957148582842
54.41179 485.004599673659
54.4319 455
54.45201 449.005908773077
54.47213 474.055505655796
54.49224 490.930899706493
54.51236 443.976291159583
54.53247 495.996382176614
54.55258 442.027009820449
54.5727 472
54.59281 469.987726047215
54.61292 465.043597925309
54.63304 518.992962476657
54.65315 475.991674312554
54.67327 535.93876614939
54.69338 537.981382188825
54.71349 584.984570896453
54.73361 598.018567183413
54.75372 678.098372926891
54.77383 773.137659104523
54.79395 850.119622963092
54.81406 861.041610507428
54.83417 827.050241149665
54.85429 801.012174893085
54.8744 765
54.89452 706.960565625732
54.91463 690.986769835802
54.93474 682.000216619948
54.95486 688.001158463174
54.97497 672.041439421652
54.99508 635.047027263163
55.0152 586
55.03531 565.000896111497
55.05543 554.911710428324
55.07554 476.941379012222
55.09565 507.910789330819
55.11577 514.999994648307
55.13588 519.999826143722
55.15599 511.006302056751
55.17611 507.005729287072
55.19622 543.062364027114
55.21634 601.03933173313
55.23645 603.09440096814
55.25656 654.025352867925
55.27668 581.052943725722
55.29679 588.984844324399
55.3169 613
55.33702 613.935603498319
55.35713 530.978205198775
55.37724 566.965442915564
55.39736 491.07029165675
55.41747 523.954978109677
55.43759 509.015511913447
55.4577 485
55.47781 470.001812587183
55.49793 474.966816675027
55.51804 420.876621296297
55.53815 387.976267907314
55.55827 422.955023163127
55.57838 420.033808894479
55.5985 384
55.61861 404.01503586739
55.63872 410.971241278185
55.65884 380.02660659954
55.67895 420.986864774096
55.69906 391.003212446531
55.71918 425.98431486986
55.73929 406.008132363531
55.75941 404.993328216763
55.77952 388.015875616094
55.79963 420.996590925548
55.81975 374.885165345289
55.83986 366.950076233673
55.85997 394.990999511211
55.88009 382.001990873072
55.9002 398
55.92031 408.003031357653
55.94043 407.980039957982
55.96054 385.96280177402
55.98066 380.985652787762
56.00077 387.010501198493
56.02088 372.005934971733
56.041 383
56.06111 392.996823431043
56.08122 372.976787078445
56.10134 361.007475826165
56.12145 373.972120116727
56.14157 380.983129701002
56.16168 392.00242652294
56.18179 372.014160221869
56.20191 354.00115775963
56.22202 372.019104654538
56.24213 384.016181609634
56.26225 378.896285285482
56.28236 322.058977480258
56.30248 337.96244945638
56.32259 366.993251580419
56.3427 371
56.36282 377.991257174512
56.38293 362.001540251164
56.40304 380.021514178655
56.42316 377.992687485975
56.44327 384.02022606335
56.46338 361.997339948781
56.4835 387
56.50361 372.99180102069
56.52373 377.036270231469
56.54384 405.030543423881
56.56395 396.071091966118
56.58407 370.00886267179
56.60418 376.007778189484
56.62429 348.014279421631
56.64441 348.019228774918
56.66452 386.99113839903
56.68464 344.975721077075
56.70475 373.040267816014
56.72486 348.086209607899
56.74498 332.962966965974
56.76509 392.985483827744
56.7852 370
56.80532 344.998246159853
56.82543 351.993961717499
56.84554 348.053557111737
56.86566 391.968112245481
56.88577 366.055747826843
56.90589 347.999303336587
56.926 362
56.94611 367.989970695307
56.96623 339.99247213606
56.98634 347.961192618879
57.00645 317.957435427165
57.02657 371.965675999535
57.04668 344.030660363189
57.0668 345
57.08691 360.000924352534
57.10702 351.994342112889
57.12714 355.011796428939
57.14725 355.022360251934
57.16736 338.041628851863
57.18748 338.955595473207
57.20759 393.994924727823
57.22771 352.97847028056
57.24782 343.009996777316
57.26793 349.991199976669
57.28805 337.996208279494
57.30816 349.976235458008
57.32827 359.970664654502
57.34839 374.009269098884
57.3685 334
57.38861 334.996924560043
57.40873 322.017579515601
57.42884 354.032402626925
57.44896 336.069077146118
57.46907 313.996013476299
57.48918 341.958403497821
57.5093 357
57.52941 299.998042882411
57.54952 343.014754797524
57.56964 315.984935237351
57.58975 343.954456499494
57.60987 336.008499685257
57.62998 343.995579043348
57.65009 335.007483287002
57.67021 319.991910108518
57.69032 314.017028937511
57.71043 342.020727822802
57.73055 332.960599832345
57.75066 328.979142101793
57.77078 343.993068103604
57.79089 336.008605699062
57.811 319
57.83112 325.035159012069
57.85123 356.978260609447
57.87134 313.979339119653
57.89146 347.942604366436
57.91157 336.058389101719
57.93168 309.986304229866
57.9518 343
57.97191 318.996977365926
57.99203 346.042636758548
58.01214 356.005314574429
58.03225 348.082250710996
58.05237 321.958564763219
58.07248 371.009300017175
58.09259 311.011461922297
58.11271 342.007137558184
58.13282 312.971603037705
58.15294 314.031726307592
58.17305 327.016895546178
58.19316 333.966764026364
58.21328 357.98086010894
58.23339 354.016714920581
58.2535 316
58.27362 335.019525950282
58.29373 336.992772542873
58.31385 330.969435677126
58.33396 330.928712864105
58.35407 368.029899879084
58.37419 311.007551830733
58.3943 350
58.41441 333.988759109046
58.43453 329.001110873952
58.45464 334.039094354434
58.47475 355.003623185498
58.49487 332.029692818105
58.51498 329.994045627868
58.5351 322
58.55521 292.008142645373
58.57532 351.055459422776
58.59544 361.941220303349
58.61555 323.052927702019
58.63566 329.962308091168
58.65578 338.009488584705
58.67589 321.003832978868
58.69601 343.027534216815
58.71612 383.975396509729
58.73623 323.979561201187
58.75635 360.019614881913
58.77646 321.053218264938
58.79657 341.932554959893
58.81669 365.011006259347
58.8368 313
58.85691 312.01862068453
58.87703 352.016165315522
58.89714 333.970095677536
58.91726 336.991490685603
58.93737 333.007486023915
58.95748 332.996241119729
58.9776 346
58.99771 366.991365005972
59.01782 325.980566377078
59.03794 346.065037962802
59.05805 359.03056864083
59.07817 340.002474381215
59.09828 350.008162360621
59.11839 325.005185478795
59.13851 331.99792592012
59.15862 323.020956277857
59.17873 350.965672774237
59.19885 303.026628614746
59.21896 375.890880787247
59.23908 370.029342254963
59.25919 343.017774444634
59.2793 319
59.29942 364.020872689565
59.31953 345.966301987589
59.33964 343.01280976424
59.35976 347.00034929717
59.37987 341.017566737574
59.39998 337.979838129452
59.4201 369
59.44021 361.996717645988
59.46033 366.004236277616
59.48044 368.026317803945
59.50055 388.967515039512
59.52067 389.999442282
59.54078 393.002533484106
59.56089 386.00107340688
59.58101 388.999579846032
59.60112 392.023422888367
59.62124 428.04726907691
59.64135 435.025499469541
59.66146 453.974040964455
59.68158 467.96381675808
59.70169 506.001290340068
59.7218 478
59.74192 545.102605236131
59.76203 632.067660700097
59.78215 655.112752693922
59.80226 758.695586927645
59.82237 923.77855093751
59.84249 1041.9488862248
59.8626 1164
59.88271 1324.04986697536
59.90283 1343.96729190816
59.92294 1271.6638010326
59.94305 1078.244791577
59.96317 1053.13819012832
59.98328 886.106193394435
60.0034 872
60.02351 816.997768732424
60.04362 871.038899409415
60.06374 853.918088604789
60.08385 814.111675820021
60.10396 731.293366418839
60.12408 573.087399411922
60.14419 563.002797511024
60.16431 509.960852459243
60.18442 445.969599357437
60.20453 432.95526231001
60.22465 382.903732633318
60.24476 375.97215808369
60.26487 386.011993161713
60.28499 364.008800161848
60.3051 356
60.32522 336.981610627941
60.34533 337.042126871492
60.36544 372.021305448527
60.38556 348.075251840432
60.40567 332.964634108329
60.42578 370.988298822731
60.4459 348
60.46601 352.016676748407
60.48612 370.960622265962
60.50624 298.931539790178
60.52635 317.954599240689
60.54647 320.958949967086
60.56658 348.038192070774
60.58669 273.00876803167
60.60681 317.007784966988
60.62692 296.02372909903
60.64703 367.058566412311
60.66715 344.914805776491
60.68726 335.990249809556
60.70738 337.009070348288
60.72749 323.003674259153
60.7476 328
60.76772 334.996828588794
60.78783 331.015063838177
60.80794 349.009762159986
60.82806 338.017214207092
60.84817 340.991434145166
60.86828 343.996332840993
60.8884 342
60.90851 317.994168655207
60.92863 324.015553444831
60.94874 321.964102283175
60.96885 309.950999009009
60.98897 354.943047121278
61.00908 359.025092258242
61.02919 327.010520685361
61.04931 320.997893457536
61.06942 321.019981710148
61.08954 350.021801676787
61.10965 335.952269090294
61.12976 333.964647038226
61.14988 350.009773458573
61.16999 326.001169042978
61.1901 348
61.21022 332.970839633712
61.23033 323.04351328773
61.25045 361.999558942048
61.27056 329.02080942792
61.29067 348.995311586375
61.31079 328.002441494048
61.3309 349
61.35101 353.006968661783
61.37113 366.972339764407
61.39124 328.975906360966
61.41135 362.864224210737
61.43147 391.030532270366
61.45158 341.038184694799
61.4717 342
61.49181 369.007409673732
61.51192 353.949733925484
61.53204 304.990393841516
61.55215 349.857126902947
61.57226 377.018317164431
61.59238 356.999276615784
61.61249 381.989458572086
61.63261 382.996285054459
61.65272 389.02958797783
61.67283 410.958991398992
61.69295 355.952497926093
61.71306 384.94847496489
61.73317 388.978443994542
61.75329 410.004366341856
61.7734 383
61.79352 409.997815747707
61.81363 374.972866999775
61.83374 392.042133168387
61.85386 386.066359844192
61.87397 365.94897436633
61.89408 436.951080984511
61.9142 436
61.93431 422.995806595025
61.95442 421.009350935321
61.97454 442.055538445926
61.99465 472.914125690398
62.01477 497.99763596514
62.03488 481.016581035707
62.05499 485.985553229625
62.07511 520.008667264256
62.09522 528.027100338088
62.11533 569.030934086643
62.13545 554.926853025556
62.15556 540.974197971247
62.17568 569.97743748178
62.19579 567.012745870213
62.2159 545
62.23602 569.012050126472
62.25613 553.960485650924
62.27624 541.019570827354
62.29636 570.924772621789
62.31647 594.003518113536
62.33659 568.01848288007
62.3567 531
62.37681 509.006036402856
62.39693 535.00218941439
62.41704 505.945707574215
62.43715 503.963487558621
62.45727 504.055646764574
62.47738 437.065907766401
62.49749 423.969079770047
62.51761 501.004646588772
62.53772 442.95745494054
62.55784 451.023722171567
62.57795 435.934935885972
62.59806 416.024041429386
62.61818 405.018134096693
62.63829 388.998007820421
62.6584 399
62.67852 373.011412761752
62.69863 413.018187041396
62.71875 387.961471478494
62.73886 394.014075878733
62.75897 368.02400754688
62.77909 369.001845804806
62.7992 351
62.81931 350.013463148751
62.83943 377.989259142317
62.85954 338.9371366529
62.87965 333.995791932389
62.89977 339.958215242071
62.91988 377.981919895342
62.94 361
62.96011 323.985096190349
62.98022 316.022319998924
63.00034 354.060358460637
63.02045 364.992481541127
63.04056 367.007247027553
63.06068 354.02126918047
63.08079 346.985490091073
63.10091 386.000280980762
63.12102 344.962609923932
63.14113 342.026721418682
63.16125 360.027411977592
63.18136 361.010052692299
63.20147 343.062396050264
63.22159 308.991821829551
63.2417 366
63.26182 363.968981406154
63.28193 338.998196289891
63.30204 348.982379476374
63.32216 338.927355115386
63.34227 396.989858376435
63.36238 347.039013141859
63.3825 360
63.40261 380.992765285565
63.42272 349.98926018472
63.44284 367.031553435754
63.46295 361.048655651011
63.48307 346.996421052918
63.50318 360.990210839543
63.52329 361.998367397659
63.54341 375.00946771134
63.56352 382.98364030181
63.58363 358.998008174998
63.60375 369.957430770272
63.62386 342.956787097864
63.64398 393.000699557535
63.66409 346.004805488921
63.6842 399
63.70432 415.990722732095
63.72443 386.916368136563
63.74454 342.022770659043
63.76466 401.891064303167
63.78477 418.004358462152
63.80489 414.003455603669
63.825 403
63.84511 406.019965058427
63.86523 467.068367433271
63.88534 468.930965789213
63.90545 447.910812842458
63.92557 520.929600756868
63.94568 517.017179842495
63.96579 514.998043769845
63.98591 529.018675799567
64.00602 550.954099426777
64.02614 460.886045414171
64.04625 466.051865525011
64.06636 453.099106305409
64.08648 421.953777234331
64.10659 494.006656682904
64.1267 422
64.14682 502.007938986506
64.16693 417.922591965481
64.18705 446.079632364807
64.20716 434.056027540455
64.22727 406.05880154318
64.24739 367.007546035298
64.2675 376
64.28761 369.99209582764
64.30773 362.017285329089
64.32784 378.993344126172
64.34796 362.990374219962
64.36807 379.02374036442
64.38818 343.000957388559
64.4083 375
64.42841 338.979531235209
64.44852 328.016070727501
64.46864 350.019083474114
64.48875 342.031040793577
64.50886 337.991396076237
64.52898 343.998896309116
64.54909 335.008819604219
64.56921 324.004897429532
64.58932 339.993407132164
64.60943 314.984393100648
64.62955 331.053846234053
64.64966 335.032134383366
64.66977 313.016607766801
64.68989 318.993762029119
64.71 327
64.73012 333.017632989724
64.75023 347.983854990834
64.77034 329.026709369359
64.79046 361.008001750499
64.81057 326.00974824168
64.83068 352.994153252724
64.8508 334
64.87091 360.99470721959
64.89102 312.972382737029
64.91114 328.045508926754
64.93125 327.053887027175
64.95137 314.963082684245
64.97148 352.999528496003
64.99159 321.004185779155
65.01171 346.006009879269
65.03182 321.963130958744
65.05193 294.974864554424
65.07205 285.991281559824
65.09216 300.903340672964
65.11228 355.98115683448
65.13239 344.996088966918
65.1525 370
65.17262 328.97803880499
65.19273 331.974484941089
65.21284 294.976661637845
65.23296 319.944662138552
65.25307 330.98755026306
65.27319 338.003565267796
65.2933 323
65.31341 327.995881513043
65.33353 306.98317987556
65.35364 322.070765074448
65.37375 344.049823698754
65.39387 305.009727109794
65.41398 337.972317727855
65.43409 328.017754150231
65.45421 293.991549958382
65.47432 298.013625497528
65.49444 304.990420385206
65.51455 304.058551690727
65.53466 338.975235247228
65.55478 324.013518315064
65.57489 321.006017408752
65.595 309
65.61512 346.018986644028
65.63523 335.981335494568
65.65535 338.017453371078
65.67546 343.983376771123
65.69557 360.957563877486
65.71569 379.008531803941
65.7358 345
65.75591 369.009010707487
65.77603 358.965984819513
65.79614 342.99019539101
65.81626 348.975216637477
65.83637 351.031193596881
65.85648 326.994735094086
65.8766 352
65.89671 336.005729281827
65.91682 365.993482431194
65.93694 319.933304213509
65.95705 325.948643189763
65.97716 334.013817947832
65.99728 319.013650319907
66.01739 313.000592454204
66.03751 324.016658622182
66.05762 342.957424288388
66.07773 276.994737615252
66.09785 341.127949401687
66.11796 332.074287122659
66.13807 304.019784764663
66.15819 307.990936029277
66.1783 333
66.19842 339.9685607913
66.21853 294.977522423915
66.23864 319.058027796286
66.25876 326.017191317799
66.27887 313.019023847775
66.29898 315.970573048836
66.3191 342
66.33921 290.985200425926
66.35933 301.022088277949
66.37944 310.054712479863
66.39955 344.982716848552
66.41967 320.037988211501
66.43978 317.986244158557
66.45989 322.01189182234
66.48001 292.001943124187
66.50012 337.053159666934
66.52023 349.934662716433
66.54035 295.996280644766
66.56046 338.966625897191
66.58058 315.008680806681
66.60069 335.995491877241
66.6208 314
66.64092 305.019843680638
66.66103 332.007136759511
66.68114 315.987542481141
66.70126 322.019306598936
66.72137 300.999840687113
66.74149 326.988031618952
66.7616 329
66.78171 309.987247871185
66.80183 292.005852419368
66.82194 316.055991877015
66.84205 332.984263557614
66.86217 331.012924086879
66.88228 323.001638526117
66.90239 319.010337778684
66.92251 300.007883741412
66.94262 344.032331639359
66.96274 335.9243229506
66.98285 295.939039825786
67.00296 306.90262141639
67.02308 353.000336161401
67.04319 312.016086159119
67.0633 324
67.08342 359.002656033001
67.10353 324.924562986695
67.12365 300.056317177877
67.14376 352.913147194157
67.16387 358.035308075468
67.18399 326.014833615332
67.2041 310
67.22421 316.002048620582
67.24433 320.021817549538
67.26444 340.018866640426
67.28456 341.973484578721
67.30467 361.995355113654
67.32478 343.022492937378
67.3449 338
67.36501 361.007629771651
67.38512 358.986362229975
67.40524 358.06080062268
67.42535 403.935092907801
67.44546 398.030371920251
67.46558 398.980137221481
67.48569 424.991884116299
67.50581 437.014345276706
67.52592 467.997383319056
67.54603 456.057601150347
67.56615 536.130869741511
67.58626 571.805286958967
67.60637 704.90732935856
67.62649 708.967419726773
67.6466 844
67.66672 868.039846521404
67.68683 931.012165327376
67.70694 861.818361491246
67.72706 800.070214153185
67.74717 767.077045544629
67.76728 699.060771409778
67.7874 654
67.80751 629.011762640333
67.82763 686.066625163621
67.84774 708.068836018571
67.86785 738.067457820842
67.88797 678.024039279048
67.90808 712.983897678004
67.92819 702.98681667138
67.94831 750.995844497397
67.96842 685.955913590214
67.98853 699.044578573341
68.00865 743.23884463963
68.02876 903.603856749261
68.04888 1060.94061707658
68.06899 1065.9757564267
68.0891 1156
68.10922 1102.94147892586
68.12933 1070.92563432032
68.14944 983.802663664189
68.16956 907.088601935203
68.18967 909.916106856144
68.20979 986.970506975962
68.2299 1025
68.25001 1090.02136996984
68.27013 1095.98415769664
68.29024 1056.8016182083
68.31035 918.306010771705
68.33047 824.157662103953
68.35058 698.113784351545
68.3707 637
68.39081 660.997744659228
68.41092 608.93237833193
68.43104 561.959120806394
68.45115 555.978473239253
68.47126 545.985672302018
68.49138 551.034899480448
68.51149 484.026216030431
68.5316 456
68.55172 395.945734647831
68.57183 364.976829332051
68.59195 358.00680731669
68.61206 361.014646481567
68.63217 350.991497239499
68.65229 357.013709325778
68.6724 311
68.69251 340.018974397533
68.71263 349.969755772858
68.73274 324.995642426154
68.75286 339.007922428519
68.77297 324.973060337451
68.79308 362.996485883787
68.8132 333
68.83331 355.002117943957
68.85342 337.002824275876
68.87354 363.016906397387
68.89365 346.024317786829
68.91376 357.969002151942
68.93388 353.031324024999
68.95399 313.012196662131
68.97411 318.012189185382
68.99422 325.965617314183
69.01433 294.062187908371
69.03445 376.045444772396
69.05456 305.162060779735
69.07467 293.907762848153
69.09479 368.98720879758
69.1149 339
69.13502 343.014382780906
69.15513 337.95315230083
69.17524 299.964137159445
69.19536 314.931687812197
69.21547 331.03930596071
69.23558 288.009636148853
69.2557 321
69.27581 330.999623499419
69.29593 327.983841446834
69.31604 310.968158856601
69.33615 304.985356966541
69.35627 312.006675346184
69.37638 309.973076842551
69.39649 341.008405325996
69.41661 285.984431149055
69.43672 299.016169377058
69.45683 303.025734961047
69.47695 337.071906210295
69.49706 340.04366312519
69.51718 312.01613243841
69.53729 317.989692021285
69.5574 339
69.57752 336.979187976852
69.59763 307.964647285999
69.61774 299.003512344019
69.63786 305.978971755088
69.65797 314.994201764703
69.67809 318.993565638099
69.6982 325
69.71831 294.007295508369
69.73843 343.031405163782
69.75854 320.963744478889
69.77865 325.005287205844
69.79877 302.04489197708
69.81888 291.976681216699
69.839 329
69.85911 318.994513417272
69.87922 318.997020361027
69.89934 310.997987413795
69.91945 321.032740772889
69.93956 334.959905631998
69.95968 354.992021967356
69.97979 335.025935025464
69.9999 299
70.02002 365.011566024411
70.04013 312.944003690773
70.06025 320.009278976447
70.08036 300.032402855271
70.10047 299.002235359909
70.12059 296.993386475648
70.1407 321
70.16081 319.999278198158
70.18093 333.041143801062
70.20104 353.986432890068
70.22116 320.077510037497
70.24127 310.949422679167
70.26138 350.006835648968
70.2815 311
70.30161 347.011121019507
70.32172 317.937849781633
70.34184 276.029011154932
70.36195 321.960321592529
70.38207 301.005278263498
70.40218 328.981053075736
70.42229 320.00773538357
70.44241 310.994609580499
70.46252 292.977968459432
70.48263 292.063417910237
70.50275 353.080558540985
70.52286 335.085647981178
70.54297 306.001813070168
70.56309 325.989722347214
70.5832 322
70.60332 290.005159265602
70.62343 332.064085699348
70.64354 338.940006809507
70.66366 299.041823912141
70.68377 308.963294265938
70.70388 329.98450873181
70.724 331
70.74411 301.991940311241
70.76423 295.971116882818
70.78434 272.007009580657
70.80445 298.964912250278
70.82457 295.982169269861
70.84468 315.013908195789
70.86479 280.001918637569
70.88491 306.00113040641
70.90502 298.048453480468
70.92513 374.010674580802
70.94525 304.858422062403
70.96536 300.002151540791
70.98548 278.019236414633
71.00559 284.983391948798
71.0257 317
71.04582 292.979839019449
71.06593 302.049980769955
71.08604 333.012679672474
71.10616 313.051372416487
71.12627 302.989520881394
71.14639 317.993731929656
71.1665 326
71.18661 341.005011856365
71.20673 323.913455137418
71.22684 264.987551495389
71.24695 314.861669325067
71.26707 328.040946605424
71.28718 293.011528351469
71.3073 306
71.32741 296.996550188815
71.34752 305.017076625175
71.36764 318.002530525278
71.38775 312.003120877824
71.40786 322.962769310596
71.42798 330.019507372585
71.44809 299.00604686361
71.4682 309
71.48832 304.006468830178
71.50843 317.993875454261
71.52855 302.00948491151
71.54866 322.992375551848
71.56877 310.988436573652
71.58889 341.989069242912
71.609 338
71.62911 321.988342344586
71.64923 302.000578432838
71.66934 319.025967037321
71.68946 312.044722372298
71.70957 299.970370248426
71.72968 329.006121674931
71.7498 293
71.76991 317.017037728725
71.79002 325.978057044926
71.81014 291.957977469658
71.83025 303.899611054446
71.85037 345.967861093637
71.87048 332.04206187593
71.89059 296.999665939943
71.91071 319.000222787132
71.93082 295.994463035629
71.95093 306.97897182862
71.97105 280.034365195461
71.99116 329.945045630509
72.01127 315.02924253828
72.03139 317.992678701676
72.0515 321
72.07162 299.013576235492
72.09173 330.995372624866
72.11184 293.967064731338
72.13196 327.880830449413
72.15207 355.05998590198
72.17218 292.006618037525
72.1923 337
72.21241 301.993498432172
72.23253 325.005874912943
72.25264 301.994149665828
72.27275 322.995635967344
72.29287 294.041785937473
72.31298 294.973959937843
72.33309 323.993433537586
72.35321 310.98461581083
72.37332 292.01447063031
72.39344 325.029564138531
72.41355 314.986912813127
72.43366 322.999625542924
72.45378 314.995495181916
72.47389 322.01061844993
72.494 290
72.51412 325.006535837975
72.53423 294.973950626691
72.55434 308.024802293368
72.57446 299.040329541411
72.59457 289.978179119964
72.61469 320.986276528493
72.6348 336
72.65491 341.991674577256
72.67503 307.95501737285
72.69514 303.040732880225
72.71525 325.002068332683
72.73537 306.012305209101
72.75548 314.99630149849
72.7756 309
72.79571 320.000788702037
72.81582 312.00020124202
72.83594 323.01324716862
72.85605 320.999660457464
72.87616 322.020356683307
72.89628 311.986182163166
72.91639 341.992755197314
72.9365 328
72.95662 305.973937231065
72.97673 296.04913936106
72.99685 346.036533211369
73.01696 318.051097517381
73.03707 320.980461027273
73.05719 325.002848840521
73.0773 326
73.09741 365.013096837879
73.11753 361.966809785839
73.13764 335.951372965125
73.15776 325.975970839125
73.17787 342.00853514411
73.19798 325.98909459109
73.2181 371
73.23821 391.996112180332
73.25832 382.015480135302
73.27844 408.993309826855
73.29855 389.945845983961
73.31867 450.937231383043
73.33878 456.988872776713
73.35889 483.993946933828
73.37901 498.031464106261
73.39912 584.034778702752
73.41923 545.911259305272
73.43935 517.004989624315
73.45946 517.070111182312
73.47957 457.061036850542
73.49969 445.008661914065
73.5198 416
73.53992 413.974415065914
73.56003 375.992861737401
73.58014 413.083964440071
73.60026 437.956925676414
73.62037 459.982397786267
73.64048 456.014637454971
73.6606 436
73.68071 402.977760128683
73.70083 361.972742663246
73.72094 365.007869144094
73.74105 353.060571561939
73.76117 333.003607770263
73.78128 343.993156244672
73.80139 340.00201988587
73.82151 341.000178564528
73.84162 332.981685596829
73.86174 323.038431622147
73.88185 357.033346680921
73.90196 339.049508160141
73.92208 331.988890883752
73.94219 345.999440314635
73.9623 337
73.98242 347.004350064816
74.00253 331.95228401261
74.02264 300.971069022072
74.04276 303.987717624378
74.06287 306.988234466562
74.08299 327.982967768016
74.1031 348
74.12321 301.987693383896
74.14333 313.023741916545
74.16344 309.970102654106
74.18355 300.979610822601
74.20367 315.004060364162
74.22378 295.015101748353
74.2439 297
74.26401 303.000807854263
74.28412 305.008084531542
74.30424 316.009733236935
74.32435 312.016594773226
74.34446 305.022245602579
74.36458 295.996599493049
74.38469 307.996794066218
74.40481 298.989960177336
74.42492 293.02918242541
74.44503 336.020866751626
74.46515 314.951422856463
74.48526 315.991590685449
74.50537 309.02275471504
74.52549 303.989653645776
74.5456 325
74.56571 283.999645487994
74.58583 331.061159113321
74.60594 331.961191846692
74.62606 308.063055274034
74.64617 295.942524573955
74.66628 345.011623780603
74.6864 283
74.70651 312.017064169734
74.72662 313.986154355011
74.74674 310.03063760764
74.76685 327.021646915727
74.78697 300.015815898475
74.80708 313.98811594299
74.82719 306.009521504166
74.84731 296.005302805001
74.86742 317.009488329947
74.88753 320.034554958012
74.90765 354.02226803136
74.92776 331.051543082942
74.94787 324.988429627416
74.96799 330.004076531616
74.9881 310
75.00822 297.992010576987
