3.00117 21790
3.02128 21223
3.0414 20467
3.06151 19694
3.08162 19070
3.10174 18551
3.12185 18362
3.14197 17970
3.16208 17054
3.18219 17145
3.20231 16117
3.22242 15878
3.24253 15505
3.26265 14877
3.28276 14628
3.30288 13853
3.32299 13477
3.3431 13152
3.36322 12389
3.38333 12633
3.40344 11686
3.42356 11616
3.44367 11166
3.46379 10840
3.4839 10598
3.50401 9905
3.52413 9729
3.54424 9323
3.56435 9259
3.58447 8718
3.60458 8303
3.62469 8180
3.64481 7552
3.66492 7422
3.68504 7261
3.70515 6909
3.72526 6660
3.74538 6287
3.76549 6038
3.7856 6046
3.80572 5488
3.82583 5584
3.84595 5132
3.86606 5021
3.88617 4956
3.90629 4507
3.9264 4374
3.94651 4237
3.96663 4189
3.98674 4037
4.00686 3627
4.02697 3722
4.04708 3428
4.0672 3304
4.08731 3224
4.10742 2946
4.12754 2906
4.14765 2943
4.16776 2739
4.18788 2646
4.20799 2374
4.22811 2440
4.24822 2437
4.26833 2233
4.28845 2293
4.30856 2105
4.32867 2022
4.34879 2161
4.3689 1963
4.38902 1984
4.40913 1874
4.42924 1770
4.44936 1823
4.46947 1816
4.48958 1819
4.5097 1653
4.52981 1652
4.54992 1685
4.57004 1554
4.59015 1640
4.61027 1487
4.63038 1510
4.65049 1522
4.67061 1380
4.69072 1447
4.71083 1379
4.73095 1327
4.75106 1425
4.77118 1336
4.79129 1338
4.8114 1204
4.83152 1211
4.85163 1177
4.87174 1165
4.89186 1169
4.91197 1124
4.93209 1061
4.9522 1172
4.97231 1134
4.99243 1101
5.01254 1115
5.03265 978
5.05277 1023
5.07288 1052
5.09299 999
5.11311 979
5.13322 955
5.15334 944
5.17345 920
5.19356 845
5.21368 886
5.23379 885
5.2539 830
5.27402 896
5.29413 875
5.31425 874
5.33436 872
5.35447 847
5.37459 790
5.3947 794
5.41481 838
5.43493 783
5.45504 834
5.47516 769
5.49527 747
5.51538 762
5.5355 688
5.55561 749
5.57572 711
5.59584 685
5.61595 671
5.63606 665
5.65618 702
5.67629 698
5.69641 676
5.71652 715
5.73663 715
5.75675 694
5.77686 660
5.79697 631
5.81709 690
5.8372 716
5.85732 632
5.87743 664
5.89754 685
5.91766 672
5.93777 689
5.95788 719
5.978 680
5.99811 707
6.01823 632
6.03834 707
6.05845 643
6.07857 654
6.09868 637
6.11879 622
6.13891 678
6.15902 675
6.17913 658
6.19925 604
6.21936 583
6.23948 634
6.25959 593
6.2797 602
6.29982 607
6.31993 593
6.34004 577
6.36016 608
6.38027 556
6.40039 554
6.4205 521
6.44061 550
6.46073 538
6.48084 528
6.50095 568
6.52107 554
6.54118 556
6.56129 515
6.58141 509
6.60152 526
6.62164 490
6.64175 501
6.66186 527
6.68198 499
6.70209 520
6.7222 479
6.74232 521
6.76243 478
6.78255 539
6.80266 519
6.82277 486
6.84289 531
6.863 493
6.88311 458
6.90323 454
6.92334 468
6.94346 507
6.96357 515
6.98368 436
7.0038 497
7.02391 478
7.04402 487
7.06414 476
7.08425 505
7.10436 488
7.12448 520
7.14459 471
7.16471 501
7.18482 482
7.20493 441
7.22505 476
7.24516 473
7.26527 461
7.28539 480
7.3055 461
7.32562 464
7.34573 437
7.36584 487
7.38596 461
7.40607 462
7.42618 446
7.4463 488
7.46641 442
7.48653 473
7.50664 424
7.52675 412
7.54687 385
7.56698 452
7.58709 456
7.60721 429
7.62732 453
7.64743 405
7.66755 433
7.68766 448
7.70778 464
7.72789 478
7.748 486
7.76812 418
7.78823 450
7.80834 461
7.82846 429
7.84857 414
7.86869 436
7.8888 428
7.90891 409
7.92903 484
7.94914 451
7.96925 411
7.98937 464
8.00948 450
8.0296 419
8.04971 465
8.06982 389
8.08994 427
8.11005 491
8.13016 434
8.15028 426
8.17039 449
8.1905 468
8.21062 408
8.23073 447
8.25085 380
8.27096 447
8.29107 412
8.31119 444
8.3313 424
8.35141 460
8.37153 422
8.39164 437
8.41176 473
8.43187 422
8.45198 437
8.4721 459
8.49221 440
8.51232 422
8.53244 410
8.55255 438
8.57266 480
8.59278 481
8.61289 470
8.63301 435
8.65312 458
8.67323 496
8.69335 481
8.71346 471
8.73357 544
8.75369 501
8.7738 500
8.79392 503
8.81403 505
8.83414 493
8.85426 479
8.87437 488
8.89448 464
8.9146 486
8.93471 507
8.95483 474
8.97494 462
8.99505 489
9.01517 427
9.03528 431
9.05539 458
9.07551 412
9.09562 413
9.11573 440
9.13585 405
9.15596 429
9.17608 455
9.19619 463
9.2163 456
9.23642 470
9.25653 389
9.27664 422
9.29676 405
9.31687 414
9.33699 457
9.3571 429
9.37721 430
9.39733 455
9.41744 406
9.43755 394
9.45767 431
9.47778 409
9.4979 461
9.51801 435
9.53812 432
9.55824 429
9.57835 402
9.59846 433
9.61858 411
9.63869 469
9.6588 390
9.67892 381
9.69903 402
9.71915 455
9.73926 428
9.75937 437
9.77949 398
9.7996 463
9.81971 394
9.83983 468
9.85994 402
9.88006 426
9.90017 431
9.92028 426
9.9404 394
9.96051 408
9.98062 396
10.00074 427
10.02085 451
10.04097 408
10.06108 420
10.08119 434
10.10131 415
10.12142 400
10.14153 396
10.16165 408
10.18176 403
10.20187 440
10.22199 407
10.2421 426
10.26222 450
10.28233 414
10.30244 423
10.32256 434
10.34267 417
10.36278 415
10.3829 445
10.40301 397
10.42313 415
10.44324 393
10.46335 396
10.48347 433
10.50358 446
10.52369 394
10.54381 395
10.56392 398
10.58403 378
10.60415 397
10.62426 417
10.64438 408
10.66449 419
10.6846 412
10.70472 432
10.72483 453
10.74494 448
10.76506 438
10.78517 434
10.80529 422
10.8254 438
10.84551 422
10.86563 416
10.88574 429
10.90585 425
10.92597 403
10.94608 395
10.9662 407
10.98631 440
11.00642 422
11.02654 437
11.04665 421
11.06676 449
11.08688 469
11.10699 432
11.1271 410
11.14722 411
11.16733 441
11.18745 450
11.20756 447
11.22767 439
11.24779 459
11.2679 439
11.28801 448
11.30813 419
11.32824 434
11.34836 430
11.36847 434
11.38858 421
11.4087 482
11.42881 466
11.44892 462
11.46904 455
11.48915 458
11.50927 465
11.52938 491
11.54949 461
11.56961 429
11.58972 421
11.60983 453
11.62995 419
11.65006 450
11.67017 430
11.69029 462
11.7104 468
11.73052 522
11.75063 477
11.77074 496
11.79086 481
11.81097 480
11.83108 499
11.8512 477
11.87131 534
11.89143 485
11.91154 522
11.93165 470
11.95177 513
11.97188 476
11.99199 507
12.01211 512
12.03222 514
12.05234 496
12.07245 485
12.09256 588
12.11268 488
12.13279 525
12.1529 534
12.17302 472
12.19313 498
12.21324 481
12.23336 565
12.25347 461
12.27359 520
12.2937 495
12.31381 503
12.33393 446
12.35404 504
12.37415 495
12.39427 465
12.41438 449
12.4345 511
12.45461 449
12.47472 493
12.49484 462
12.51495 460
12.53506 427
12.55518 426
12.57529 443
12.5954 407
12.61552 481
12.63563 406
12.65575 395
12.67586 429
12.69597 420
12.71609 430
12.7362 408
12.75631 453
12.77643 405
12.79654 429
12.81666 364
12.83677 412
12.85688 399
12.877 460
12.89711 403
12.91722 444
12.93734 406
12.95745 397
12.97757 356
12.99768 380
13.01779 421
13.03791 417
13.05802 416
13.07813 382
13.09825 415
13.11836 382
13.13847 393
13.15859 380
13.1787 372
13.19882 386
13.21893 368
13.23904 365
13.25916 328
13.27927 363
13.29938 390
13.3195 401
13.33961 404
13.35973 392
13.37984 410
13.39995 384
13.42007 364
13.44018 379
13.46029 401
13.48041 342
13.50052 337
13.52064 383
13.54075 387
13.56086 387
13.58098 356
13.60109 355
13.6212 359
13.64132 403
13.66143 394
13.68154 391
13.70166 366
13.72177 386
13.74189 392
13.762 409
13.78211 392
13.80223 474
13.82234 431
13.84245 438
13.86257 447
13.88268 453
13.9028 402
13.92291 422
13.94302 350
13.96314 398
13.98325 389
14.00336 375
14.02348 363
14.04359 343
14.06371 384
14.08382 359
14.10393 355
14.12405 355
14.14416 372
14.16427 358
14.18439 370
14.2045 381
14.22461 372
14.24473 365
14.26484 376
14.28496 358
14.30507 375
14.32518 379
14.3453 359
14.36541 339
14.38552 368
14.40564 336
14.42575 348
14.44587 375
14.46598 352
14.48609 353
14.50621 345
14.52632 349
14.54643 339
14.56655 347
14.58666 349
14.60677 394
14.62689 358
14.647 314
14.66712 333
14.68723 375
14.70734 362
14.72746 395
14.74757 362
14.76768 323
14.7878 357
14.80791 377
14.82803 351
14.84814 364
14.86825 332
14.88837 394
14.90848 373
14.92859 369
14.94871 339
14.96882 400
14.98894 375
15.00905 340
15.02916 366
15.04928 403
15.06939 357
15.0895 357
15.10962 330
15.12973 326
15.14984 346
15.16996 314
15.19007 371
15.21019 347
15.2303 304
15.25041 355
15.27053 338
15.29064 346
15.31075 351
15.33087 340
15.35098 382
15.3711 324
15.39121 323
15.41132 321
15.43144 331
15.45155 335
15.47166 346
15.49178 349
15.51189 350
15.53201 331
15.55212 318
15.57223 357
15.59235 341
15.61246 361
15.63257 372
15.65269 393
15.6728 349
15.69291 352
15.71303 334
15.73314 323
15.75326 363
15.77337 358
15.79348 354
15.8136 348
15.83371 375
15.85382 347
15.87394 330
15.89405 383
15.91417 394
15.93428 341
15.95439 391
15.97451 345
15.99462 320
16.01473 353
16.03485 331
16.05496 379
16.07508 334
16.09519 349
16.1153 338
16.13542 311
16.15553 327
16.17564 366
16.19576 358
16.21587 314
16.23598 317
16.2561 364
16.27621 335
16.29633 352
16.31644 378
16.33655 373
16.35667 368
16.37678 340
16.39689 338
16.41701 340
16.43712 354
16.45724 319
16.47735 372
16.49746 335
16.51758 359
16.53769 335
16.5578 309
16.57792 349
16.59803 348
16.61814 323
16.63826 336
16.65837 351
16.67849 366
16.6986 335
16.71871 364
16.73883 379
16.75894 338
16.77905 363
16.79917 344
16.81928 332
16.8394 362
16.85951 357
16.87962 389
16.89974 327
16.91985 360
16.93996 326
16.96008 367
16.98019 355
17.00031 343
17.02042 347
17.04053 336
17.06065 334
17.08076 336
17.10087 341
17.12099 357
17.1411 358
17.16121 373
17.18133 347
17.20144 346
17.22156 322
17.24167 358
17.26178 339
17.2819 373
17.30201 385
17.32212 357
17.34224 348
17.36235 346
17.38247 327
17.40258 376
17.42269 375
17.44281 319
17.46292 391
17.48303 371
17.50315 384
17.52326 360
17.54338 391
17.56349 380
17.5836 382
17.60372 389
17.62383 348
17.64394 419
17.66406 362
17.68417 397
17.70428 384
17.7244 383
17.74451 401
17.76463 420
17.78474 434
17.80485 405
17.82497 423
17.84508 346
17.86519 375
17.88531 396
17.90542 390
17.92554 410
17.94565 392
17.96576 390
17.98588 369
18.00599 380
18.0261 353
18.04622 336
18.06633 352
18.08645 384
18.10656 357
18.12667 353
18.14679 366
18.1669 326
18.18701 389
18.20713 384
18.22724 378
18.24735 350
18.26747 385
18.28758 372
18.3077 370
18.32781 405
18.34792 387
18.36804 429
18.38815 385
18.40826 384
18.42838 380
18.44849 383
18.46861 392
18.48872 345
18.50883 368
18.52895 386
18.54906 358
18.56917 382
18.58929 345
18.6094 359
18.62951 391
18.64963 350
18.66974 382
18.68986 395
18.70997 372
18.73008 367
18.7502 342
18.77031 374
18.79042 393
18.81054 378
18.83065 393
18.85077 392
18.87088 406
18.89099 351
18.91111 351
18.93122 345
18.95133 359
18.97145 382
18.99156 372
19.01168 387
19.03179 352
19.0519 379
19.07202 408
19.09213 389
19.11224 401
19.13236 430
19.15247 414
19.17258 395
19.1927 403
19.21281 412
19.23293 392
19.25304 444
19.27315 452
19.29327 429
19.31338 399
19.33349 451
19.35361 452
19.37372 438
19.39384 450
19.41395 469
19.43406 456
19.45418 487
19.47429 501
19.4944 487
19.51452 520
19.53463 532
19.55475 556
19.57486 535
19.59497 601
19.61509 602
19.6352 625
19.65531 678
19.67543 725
19.69554 704
19.71565 756
19.73577 831
19.75588 839
19.776 813
19.79611 845
19.81622 873
19.83634 913
19.85645 850
19.87656 848
19.89668 886
19.91679 853
19.93691 868
19.95702 855
19.97713 807
19.99725 761
20.01736 804
20.03747 789
20.05759 750
20.0777 749
20.09782 764
20.11793 713
20.13804 749
20.15816 762
20.17827 719
20.19838 755
20.2185 738
20.23861 683
20.25872 738
20.27884 692
20.29895 729
20.31907 674
20.33918 706
20.35929 667
20.37941 700
20.39952 724
20.41963 693
20.43975 722
20.45986 700
20.47998 673
20.50009 701
20.5202 743
20.54032 675
20.56043 748
20.58054 756
20.60066 857
20.62077 889
20.64088 952
20.661 1133
20.68111 1281
20.70123 1607
20.72134 2014
20.74145 2386
20.76157 2824
20.78168 3302
20.80179 3482
20.82191 3276
20.84202 3062
20.86214 2452
20.88225 2086
20.90236 1587
20.92248 1216
20.94259 985
20.9627 827
20.98282 740
21.00293 754
21.02305 763
21.04316 760
21.06327 681
21.08339 690
21.1035 757
21.12361 688
21.14373 723
21.16384 696
21.18395 737
21.20407 711
21.22418 746
21.2443 689
21.26441 706
21.28452 729
21.30464 732
21.32475 710
21.34486 683
21.36498 726
21.38509 704
21.40521 655
21.42532 685
21.44543 666
21.46555 670
21.48566 634
21.50577 685
21.52589 638
21.546 621
21.56612 632
21.58623 611
21.60634 650
21.62646 665
21.64657 634
21.66668 596
21.6868 596
21.70691 649
21.72702 603
21.74714 545
21.76725 594
21.78737 591
21.80748 568
21.82759 587
21.84771 589
21.86782 618
21.88793 689
21.90805 712
21.92816 762
21.94828 817
21.96839 879
21.9885 866
22.00862 804
22.02873 852
22.04884 728
22.06896 737
22.08907 712
22.10919 575
22.1293 604
22.14941 559
22.16953 538
22.18964 574
22.20975 526
22.22987 507
22.24998 545
22.27009 504
22.29021 514
22.31032 550
22.33044 545
22.35055 511
22.37066 518
22.39078 478
22.41089 513
22.431 525
22.45112 542
22.47123 509
22.49135 492
22.51146 510
22.53157 509
22.55169 460
22.5718 458
22.59191 483
22.61203 530
22.63214 503
22.65225 488
22.67237 469
22.69248 490
22.7126 460
22.73271 480
22.75282 511
22.77294 511
22.79305 500
22.81316 535
22.83328 537
22.85339 572
22.87351 557
22.89362 562
22.91373 517
22.93385 579
22.95396 545
22.97407 573
22.99419 575
23.0143 561
23.03442 526
23.05453 503
23.07464 509
23.09476 493
23.11487 470
23.13498 507
23.1551 506
23.17521 457
23.19532 499
23.21544 452
23.23555 537
23.25567 507
23.27578 501
23.29589 501
23.31601 544
23.33612 490
23.35623 542
23.37635 507
23.39646 544
23.41658 571
23.43669 620
23.4568 599
23.47692 671
23.49703 638
23.51714 617
23.53726 617
23.55737 602
23.57749 636
23.5976 566
23.61771 564
23.63783 576
23.65794 517
23.67805 553
23.69817 512
23.71828 512
23.73839 563
23.75851 525
23.77862 503
23.79874 520
23.81885 546
23.83896 571
23.85908 555
23.87919 518
23.8993 600
23.91942 552
23.93953 604
23.95965 580
23.97976 550
23.99987 569
24.01999 614
24.0401 610
24.06021 642
24.08033 668
24.10044 621
24.12056 677
24.14067 721
24.16078 720
24.1809 754
24.20101 748
24.22112 736
24.24124 682
24.26135 727
24.28146 705
24.30158 623
24.32169 579
24.34181 575
24.36192 582
24.38203 564
24.40215 500
24.42226 532
24.44237 489
24.46249 504
24.4826 535
24.50272 527
24.52283 505
24.54294 546
24.56306 537
24.58317 512
24.60328 543
24.6234 555
24.64351 600
24.66362 547
24.68374 529
24.70385 618
24.72397 591
24.74408 597
24.76419 609
24.78431 565
24.80442 580
24.82453 571
24.84465 590
24.86476 560
24.88488 573
24.90499 569
24.9251 582
24.94522 582
24.96533 577
24.98544 599
25.00556 639
25.02567 600
25.04579 618
25.0659 587
25.08601 613
25.10613 619
25.12624 654
25.14635 601
25.16647 633
25.18658 648
25.20669 645
25.22681 660
25.24692 658
25.26704 651
25.28715 735
25.30726 669
25.32738 665
25.34749 650
25.3676 643
25.38772 620
25.40783 688
25.42795 599
25.44806 628
25.46817 641
25.48829 638
25.5084 603
25.52851 643
25.54863 641
25.56874 558
25.58886 604
25.60897 581
25.62908 601
25.6492 572
25.66931 668
25.68942 617
25.70954 597
25.72965 589
25.74976 610
25.76988 596
25.78999 599
25.81011 632
25.83022 614
25.85033 593
25.87045 624
25.89056 580
25.91067 578
25.93079 641
25.9509 609
25.97102 601
25.99113 661
26.01124 667
26.03136 641
26.05147 701
26.07158 664
26.0917 664
26.11181 751
26.13193 720
26.15204 761
26.17215 820
26.19227 823
26.21238 865
26.23249 921
26.25261 946
26.27272 937
26.29283 1040
26.31295 1115
26.33306 1199
26.35318 1439
26.37329 1638
26.3934 1880
26.41352 2361
26.43363 3149
26.45374 4074
26.47386 5432
26.49397 7130
26.51409 9100
26.5342 11231
26.55431 13026
26.57443 13889
26.59454 13914
26.61465 12655
26.63477 10786
26.65488 8497
26.67499 6263
26.69511 4466
26.71522 3172
26.73534 2192
26.75545 1522
26.77556 1289
26.79568 1115
26.81579 1073
26.8359 986
26.85602 916
26.87613 850
26.89625 809
26.91636 771
26.93647 740
26.95659 683
26.9767 682
26.99681 651
27.01693 637
27.03704 642
27.05716 627
27.07727 623
27.09738 554
27.1175 593
27.13761 565
27.15772 582
27.17784 596
27.19795 541
27.21806 584
27.23818 551
27.25829 578
27.27841 549
27.29852 574
27.31863 572
27.33875 601
27.35886 600
27.37897 582
27.39909 647
27.4192 609
27.43932 603
27.45943 605
27.47954 604
27.49966 566
27.51977 618
27.53988 621
27.56 616
27.58011 673
27.60023 690
27.62034 697
27.64045 784
27.66057 808
27.68068 781
27.70079 815
27.72091 916
27.74102 871
27.76113 872
27.78125 866
27.80136 996
27.82148 1046
27.84159 1045
27.8617 1131
27.88182 1174
27.90193 1077
27.92204 948
27.94216 975
27.96227 850
27.98239 799
28.0025 740
28.02261 690
28.04273 681
28.06284 682
28.08295 684
28.10307 643
28.12318 685
28.1433 619
28.16341 687
28.18352 618
28.20364 610
28.22375 601
28.24386 511
28.26398 547
28.28409 524
28.3042 544
28.32432 503
28.34443 486
28.36455 473
28.38466 481
28.40477 440
28.42489 461
28.445 447
28.46511 453
28.48523 451
28.50534 428
28.52546 449
28.54557 451
28.56568 486
28.5858 452
28.60591 459
28.62602 434
28.64614 372
28.66625 408
28.68636 485
28.70648 430
28.72659 402
28.74671 423
28.76682 389
28.78693 448
28.80705 425
28.82716 442
28.84727 432
28.86739 408
28.8875 446
28.90762 444
28.92773 468
28.94784 432
28.96796 420
28.98807 431
29.00818 446
29.0283 420
29.04841 410
29.06853 396
29.08864 436
29.10875 462
29.12887 444
29.14898 465
29.16909 427
29.18921 442
29.20932 405
29.22943 425
29.24955 419
29.26966 446
29.28978 415
29.30989 430
29.33 413
29.35012 425
29.37023 397
29.39034 434
29.41046 415
29.43057 417
29.45069 429
29.4708 454
29.49091 444
29.51103 417
29.53114 448
29.55125 404
29.57137 428
29.59148 444
29.6116 419
29.63171 417
29.65182 449
29.67194 440
29.69205 476
29.71216 498
29.73228 482
29.75239 458
29.7725 452
29.79262 497
29.81273 470
29.83285 481
29.85296 470
29.87307 440
29.89319 493
29.9133 460
29.93341 520
29.95353 512
29.97364 494
29.99376 492
30.01387 511
30.03398 533
30.0541 510
30.07421 532
30.09432 487
30.11444 526
30.13455 483
30.15467 486
30.17478 519
30.19489 464
30.21501 542
30.23512 440
30.25523 495
30.27535 486
30.29546 508
30.31557 538
30.33569 455
30.3558 500
30.37592 507
30.39603 549
30.41614 535
30.43626 508
30.45637 531
30.47648 506
30.4966 477
30.51671 494
30.53683 434
30.55694 456
30.57705 519
30.59717 449
30.61728 454
30.63739 432
30.65751 429
30.67762 444
30.69773 457
30.71785 443
30.73796 463
30.75808 461
30.77819 446
30.7983 466
30.81842 474
30.83853 431
30.85864 449
30.87876 444
30.89887 417
30.91899 465
30.9391 437
30.95921 431
30.97933 422
30.99944 415
31.01955 418
31.03967 401
31.05978 405
31.0799 476
31.10001 440
31.12012 441
31.14024 481
31.16035 475
31.18046 488
31.20058 495
31.22069 475
31.2408 495
31.26092 501
31.28103 433
31.30115 419
31.32126 445
31.34137 456
31.36149 438
31.3816 445
31.40171 419
31.42183 418
31.44194 412
31.46206 425
31.48217 415
31.50228 397
31.5224 441
31.54251 397
31.56262 424
31.58274 415
31.60285 415
31.62297 386
31.64308 383
31.66319 448
31.68331 412
31.70342 431
31.72353 423
31.74365 427
31.76376 407
31.78387 412
31.80399 408
31.8241 417
31.84422 396
31.86433 423
31.88444 401
31.90456 432
31.92467 429
31.94478 435
31.9649 411
31.98501 409
32.00513 413
32.02524 399
32.04535 418
32.06547 384
32.08558 391
32.10569 404
32.12581 384
32.14592 422
32.16604 428
32.18615 430
32.20626 380
32.22638 389
32.24649 400
32.2666 420
32.28672 374
32.30683 415
32.32694 442
32.34706 376
32.36717 395
32.38729 430
32.4074 406
32.42751 386
32.44763 413
32.46774 413
32.48785 387
32.50797 410
32.52808 416
32.5482 377
32.56831 404
32.58842 411
32.60854 428
32.62865 403
32.64876 402
32.66888 420
32.68899 378
32.7091 392
32.72922 393
32.74933 390
32.76945 442
32.78956 411
32.80967 402
32.82979 411
32.8499 413
32.87001 406
32.89013 412
32.91024 438
32.93036 419
32.95047 407
32.97058 431
32.9907 462
33.01081 441
33.03092 447
33.05104 411
33.07115 428
33.09127 405
33.11138 452
33.13149 450
33.15161 431
33.17172 472
33.19183 455
33.21195 462
33.23206 431
33.25217 450
33.27229 432
33.2924 448
33.31252 452
33.33263 429
33.35274 450
33.37286 432
33.39297 454
33.41308 463
33.4332 470
33.45331 438
33.47343 460
33.49354 477
33.51365 449
33.53377 454
33.55388 421
33.57399 475
33.59411 403
33.61422 473
33.63434 410
33.65445 445
33.67456 454
33.69468 423
33.71479 455
33.7349 430
33.75502 456
33.77513 410
33.79524 452
33.81536 411
33.83547 445
33.85559 491
33.8757 426
33.89581 459
33.91593 459
33.93604 472
33.95615 411
33.97627 405
33.99638 425
34.0165 412
34.03661 391
34.05672 406
34.07684 401
34.09695 375
34.11706 421
34.13718 435
34.15729 436
34.17741 417
34.19752 423
34.21763 395
34.23775 450
34.25786 423
34.27797 418
34.29809 416
34.3182 442
34.33831 445
34.35843 411
34.37854 454
34.39866 458
34.41877 518
34.43888 495
34.459 519
34.47911 547
34.49922 537
34.51934 510
34.53945 558
34.55957 468
34.57968 571
34.59979 539
34.61991 582
34.64002 574
34.66013 603
34.68025 590
34.70036 578
34.72047 629
34.74059 582
34.7607 657
34.78082 646
34.80093 692
34.82104 690
34.84116 701
34.86127 709
34.88138 711
34.9015 741
34.92161 761
34.94173 779
34.96184 758
34.98195 778
35.00207 787
35.02218 787
35.04229 766
35.06241 690
35.08252 707
35.10264 668
35.12275 672
35.14286 675
35.16298 621
35.18309 685
35.2032 610
35.22332 632
35.24343 645
35.26354 598
35.28366 572
35.30377 601
35.32389 611
35.344 579
35.36411 592
35.38423 568
35.40434 583
35.42445 615
35.44457 573
35.46468 565
35.4848 548
35.50491 568
35.52502 584
35.54514 609
35.56525 592
35.58536 561
35.60548 527
35.62559 576
35.64571 561
35.66582 548
35.68593 602
35.70605 567
35.72616 566
35.74627 587
35.76639 574
35.7865 558
35.80661 599
35.82673 594
35.84684 525
35.86696 552
35.88707 563
35.90718 542
35.9273 591
35.94741 556
35.96752 595
35.98764 543
36.00775 566
36.02787 546
36.04798 528
36.06809 544
36.08821 525
36.10832 528
36.12843 549
36.14855 544
36.16866 576
36.18878 545
36.20889 536
36.229 592
36.24912 618
36.26923 606
36.28934 639
36.30946 682
36.32957 714
36.34968 780
36.3698 935
36.38991 1043
36.41003 1148
36.43014 1273
36.45025 1351
36.47037 1372
36.49048 1443
36.51059 1394
36.53071 1225
36.55082 1167
36.57094 1069
36.59105 994
36.61116 860
36.63128 834
36.65139 676
36.6715 673
36.69162 640
36.71173 567
36.73184 617
36.75196 562
36.77207 636
36.79219 621
36.8123 617
36.83241 646
36.85253 641
36.87264 604
36.89275 616
36.91287 599
36.93298 628
36.9531 575
36.97321 599
36.99332 602
37.01344 544
37.03355 577
37.05366 546
37.07378 511
37.09389 542
37.11401 508
37.13412 572
37.15423 531
37.17435 543
37.19446 533
37.21457 484
37.23469 531
37.2548 523
37.27491 556
37.29503 514
37.31514 536
37.33526 528
37.35537 539
37.37548 546
37.3956 547
37.41571 509
37.43582 519
37.45594 556
37.47605 482
37.49617 508
37.51628 511
37.53639 553
37.55651 531
37.57662 526
37.59673 539
37.61685 540
37.63696 519
37.65708 547
37.67719 531
37.6973 512
37.71742 527
37.73753 530
37.75764 497
37.77776 575
37.79787 555
37.81798 519
37.8381 528
37.85821 498
37.87833 484
37.89844 467
37.91855 505
37.93867 504
37.95878 531
37.97889 528
37.99901 473
38.01912 480
38.03924 526
38.05935 513
38.07946 438
38.09958 518
38.11969 493
38.1398 445
38.15992 500
38.18003 466
38.20015 478
38.22026 488
38.24037 516
38.26049 504
38.2806 501
38.30071 504
38.32083 494
38.34094 489
38.36105 504
38.38117 478
38.40128 501
38.4214 485
38.44151 457
38.46162 543
38.48174 523
38.50185 479
38.52196 490
38.54208 495
38.56219 489
38.58231 464
38.60242 534
38.62253 452
38.64265 475
38.66276 459
38.68287 469
38.70299 512
38.7231 472
38.74321 504
38.76333 483
38.78344 474
38.80356 464
38.82367 463
38.84378 487
38.8639 476
38.88401 504
38.90412 480
38.92424 471
38.94435 443
38.96447 457
38.98458 457
39.00469 469
39.02481 473
39.04492 484
39.06503 499
39.08515 457
39.10526 487
39.12538 495
39.14549 526
39.1656 481
39.18572 517
39.20583 557
39.22594 568
39.24606 610
39.26617 686
39.28628 720
39.3064 825
39.32651 965
39.34663 1101
39.36674 1165
39.38685 1237
39.40697 1221
39.42708 1137
39.44719 1041
39.46731 994
39.48742 911
39.50754 841
39.52765 752
39.54776 670
39.56788 566
39.58799 540
39.6081 478
39.62822 446
39.64833 477
39.66845 482
39.68856 435
39.70867 422
39.72879 462
39.7489 438
39.76901 493
39.78913 424
39.80924 423
39.82935 443
39.84947 453
39.86958 413
39.8897 477
39.90981 459
39.92992 452
39.95004 479
39.97015 455
39.99026 461
40.01038 495
40.03049 485
40.05061 517
40.07072 564
40.09083 576
40.11095 605
40.13106 655
40.15117 682
40.17129 733
40.1914 773
40.21152 770
40.23163 795
40.25174 765
40.27186 758
40.29197 713
40.31208 695
40.3322 635
40.35231 606
40.37242 564
40.39254 524
40.41265 516
40.43277 454
40.45288 478
40.47299 450
40.49311 450
40.51322 430
40.53333 438
40.55345 441
40.57356 413
40.59368 402
40.61379 426
40.6339 414
40.65402 418
40.67413 416
40.69424 462
40.71436 429
40.73447 421
40.75458 396
40.7747 392
40.79481 426
40.81493 397
40.83504 433
40.85515 446
40.87527 420
40.89538 417
40.91549 428
40.93561 441
40.95572 471
40.97584 449
40.99595 465
41.01606 436
41.03618 442
41.05629 467
41.0764 440
41.09652 438
41.11663 435
41.13675 441
41.15686 450
41.17697 392
41.19709 434
41.2172 449
41.23731 462
41.25743 447
41.27754 481
41.29765 449
41.31777 454
41.33788 425
41.358 426
41.37811 387
41.39822 430
41.41834 409
41.43845 404
41.45856 397
41.47868 432
41.49879 395
41.51891 433
41.53902 389
41.55913 393
41.57925 409
41.59936 433
41.61947 419
41.63959 406
41.6597 441
41.67982 395
41.69993 413
41.72004 405
41.74016 410
41.76027 379
41.78038 386
41.8005 418
41.82061 409
41.84072 417
41.86084 457
41.88095 401
41.90107 402
41.92118 424
41.94129 397
41.96141 404
41.98152 404
42.00163 444
42.02175 423
42.04186 392
42.06198 429
42.08209 413
42.1022 437
42.12232 425
42.14243 476
42.16254 466
42.18266 493
42.20277 516
42.22289 508
42.243 615
42.26311 624
42.28323 687
42.30334 733
42.32345 855
42.34357 916
42.36368 1002
42.38379 1022
42.40391 955
42.42402 852
42.44414 865
42.46425 791
42.48436 723
42.50448 753
42.52459 633
42.5447 606
42.56482 504
42.58493 480
42.60505 436
42.62516 406
42.64527 431
42.66539 395
42.6855 442
42.70561 430
42.72573 418
42.74584 420
42.76595 396
42.78607 379
42.80618 391
42.8263 381
42.84641 393
42.86652 409
42.88664 397
42.90675 382
42.92686 390
42.94698 381
42.96709 390
42.98721 394
43.00732 361
43.02743 367
43.04755 380
43.06766 366
43.08777 365
43.10789 372
43.128 397
43.14812 384
43.16823 380
43.18834 363
43.20846 375
43.22857 369
43.24868 421
43.2688 391
43.28891 391
43.30902 356
43.32914 400
43.34925 386
43.36937 407
43.38948 407
43.40959 378
43.42971 384
43.44982 385
43.46993 371
43.49005 395
43.51016 353
43.53028 384
43.55039 366
43.5705 380
43.59062 393
43.61073 385
43.63084 423
43.65096 388
43.67107 365
43.69119 368
43.7113 375
43.73141 390
43.75153 369
43.77164 379
43.79175 380
43.81187 363
43.83198 394
43.85209 348
43.87221 354
43.89232 337
43.91244 367
43.93255 329
43.95266 361
43.97278 351
43.99289 391
44.013 367
44.03312 344
44.05323 356
44.07335 394
44.09346 391
44.11357 395
44.13369 362
44.1538 387
44.17391 367
44.19403 384
44.21414 374
44.23426 387
44.25437 372
44.27448 395
44.2946 391
44.31471 376
44.33482 370
44.35494 376
44.37505 389
44.39516 390
44.41528 385
44.43539 384
44.45551 406
44.47562 395
44.49573 357
44.51585 371
44.53596 384
44.55607 364
44.57619 364
44.5963 375
44.61642 427
44.63653 365
44.65664 367
44.67676 371
44.69687 377
44.71698 381
44.7371 397
44.75721 371
44.77732 384
44.79744 373
44.81755 357
44.83767 393
44.85778 368
44.87789 412
44.89801 391
44.91812 408
44.93823 431
44.95835 357
44.97846 375
44.99858 416
45.01869 399
45.0388 398
45.05892 384
45.07903 392
45.09914 402
45.11926 391
45.13937 400
45.15949 404
45.1796 422
45.19971 418
45.21983 449
45.23994 423
45.26005 438
45.28017 449
45.30028 452
45.32039 435
45.34051 423
45.36062 450
45.38074 408
45.40085 410
45.42096 428
45.44108 429
45.46119 445
45.4813 441
45.50142 420
45.52153 456
45.54165 471
45.56176 475
45.58187 528
45.60199 558
45.6221 607
45.64221 620
45.66233 637
45.68244 695
45.70256 710
45.72267 810
45.74278 740
45.7629 700
45.78301 640
45.80312 623
45.82324 618
45.84335 576
45.86346 516
45.88358 535
45.90369 488
45.92381 456
45.94392 446
45.96403 389
45.98415 388
46.00426 410
46.02437 376
46.04449 381
46.0646 387
46.08472 389
46.10483 373
46.12494 397
46.14506 373
46.16517 384
46.18528 373
46.2054 373
46.22551 417
46.24563 382
46.26574 395
46.28585 362
46.30597 398
46.32608 382
46.34619 375
46.36631 355
46.38642 395
46.40653 398
46.42665 384
46.44676 382
46.46688 410
46.48699 391
46.5071 413
46.52722 377
46.54733 407
46.56744 376
46.58756 396
46.60767 404
46.62779 386
46.6479 370
46.66801 407
46.68813 356
46.70824 385
46.72835 351
46.74847 365
46.76858 413
46.78869 357
46.80881 380
46.82892 392
46.84904 342
46.86915 421
46.88926 406
46.90938 388
46.92949 356
46.9496 348
46.96972 367
46.98983 347
47.00995 383
47.03006 381
47.05017 382
47.07029 388
47.0904 362
47.11051 371
47.13063 367
47.15074 373
47.17086 380
47.19097 383
47.21108 390
47.2312 368
47.25131 376
47.27142 364
47.29154 333
47.31165 353
47.33176 377
47.35188 402
47.37199 371
47.39211 360
47.41222 368
47.43233 393
47.45245 356
47.47256 379
47.49267 390
47.51279 371
47.5329 398
47.55302 389
47.57313 406
47.59324 392
47.61336 359
47.63347 355
47.65358 378
47.6737 349
47.69381 379
47.71393 377
47.73404 376
47.75415 402
47.77427 400
47.79438 411
47.81449 391
47.83461 403
47.85472 392
47.87483 366
47.89495 401
47.91506 413
47.93518 417
47.95529 380
47.9754 413
47.99552 391
48.01563 395
48.03574 385
48.05586 393
48.07597 380
48.09609 402
48.1162 387
48.13631 383
48.15643 404
48.17654 383
48.19665 391
48.21677 413
48.23688 345
48.257 394
48.27711 401
48.29722 380
48.31734 383
48.33745 358
48.35756 387
48.37768 369
48.39779 372
48.4179 389
48.43802 405
48.45813 371
48.47825 363
48.49836 359
48.51847 349
48.53859 355
48.5587 368
48.57881 356
48.59893 375
48.61904 376
48.63916 365
48.65927 387
48.67938 388
48.6995 367
48.71961 385
48.73972 399
48.75984 368
48.77995 344
48.80006 387
48.82018 368
48.84029 336
48.86041 393
48.88052 382
48.90063 398
48.92075 403
48.94086 365
48.96097 376
48.98109 369
49.0012 385
49.02132 393
49.04143 372
49.06154 372
49.08166 401
49.10177 372
49.12188 395
49.142 383
49.16211 377
49.18223 378
49.20234 348
49.22245 369
49.24257 442
49.26268 403
49.28279 361
49.30291 383
49.32302 413
49.34313 389
49.36325 364
49.38336 357
49.40348 397
49.42359 402
49.4437 406
49.46382 358
49.48393 412
49.50404 393
49.52416 403
49.54427 379
49.56439 387
49.5845 390
49.60461 385
49.62473 440
49.64484 421
49.66495 450
49.68507 442
49.70518 411
49.7253 427
49.74541 500
49.76552 542
49.78564 516
49.80575 573
49.82586 552
49.84598 583
49.86609 652
49.8862 745
49.90632 744
49.92643 861
49.94655 943
49.96666 1179
49.98677 1299
50.00689 1425
50.027 1575
50.04711 1606
50.06723 1727
50.08734 1617
50.10746 1491
50.12757 1410
50.14768 1279
50.1678 1176
50.18791 1034
50.20802 933
50.22814 910
50.24825 761
50.26837 649
50.28848 572
50.30859 467
50.32871 495
50.34882 419
50.36893 446
50.38905 414
50.40916 423
50.42927 425
50.44939 409
50.4695 409
50.48962 398
50.50973 412
50.52984 432
50.54996 460
50.57007 432
50.59018 392
50.6103 430
50.63041 439
50.65053 445
50.67064 419
50.69075 423
50.71087 420
50.73098 359
50.75109 420
50.77121 401
50.79132 394
50.81143 377
50.83155 354
50.85166 379
50.87178 388
50.89189 388
50.912 404
50.93212 398
50.95223 388
50.97234 377
50.99246 371
51.01257 384
51.03269 361
51.0528 417
51.07291 452
51.09303 446
51.11314 371
51.13325 443
51.15337 378
51.17348 400
51.1936 366
51.21371 356
51.23382 405
51.25394 409
51.27405 349
51.29416 409
51.31428 345
51.33439 375
51.3545 375
51.37462 379
51.39473 340
51.41485 330
51.43496 347
51.45507 363
51.47519 339
51.4953 341
51.51541 316
51.53553 341
51.55564 347
51.57576 332
51.59587 349
51.61598 371
51.6361 375
51.65621 345
51.67632 354
51.69644 361
51.71655 349
51.73667 342
51.75678 339
51.77689 321
51.79701 346
51.81712 331
51.83723 352
51.85735 321
51.87746 364
51.89757 340
51.91769 332
51.9378 317
51.95792 372
51.97803 358
51.99814 361
52.01826 347
52.03837 373
52.05848 336
52.0786 393
52.09871 376
52.11883 383
52.13894 397
52.15905 325
52.17917 354
52.19928 359
52.21939 403
52.23951 368
52.25962 350
52.27974 354
52.29985 410
52.31996 348
52.34008 378
52.36019 387
52.3803 373
52.40042 358
52.42053 319
52.44064 395
52.46076 381
52.48087 399
52.50099 367
52.5211 352
52.54121 393
52.56133 366
52.58144 352
52.60155 368
52.62167 363
52.64178 351
52.6619 361
52.68201 361
52.70212 369
52.72224 406
52.74235 355
52.76246 386
52.78258 321
52.80269 388
52.8228 355
52.84292 380
52.86303 357
52.88315 368
52.90326 347
52.92337 388
52.94349 379
52.9636 388
52.98371 383
53.00383 399
53.02394 428
53.04406 416
53.06417 408
53.08428 387
53.1044 445
53.12451 399
53.14462 416
53.16474 388
53.18485 431
53.20497 409
53.22508 400
53.24519 429
53.26531 423
53.28542 398
53.30553 393
53.32565 413
53.34576 432
53.36587 407
53.38599 415
53.4061 430
53.42622 428
53.44633 449
53.46644 413
53.48656 421
53.50667 428
53.52678 445
53.5469 450
53.56701 445
53.58713 447
53.60724 426
53.62735 448
53.64747 434
53.66758 442
53.68769 406
53.70781 417
53.72792 447
53.74804 410
53.76815 445
53.78826 410
53.80838 437
53.82849 464
53.8486 436
53.86872 447
53.88883 470
53.90894 432
53.92906 396
53.94917 450
53.96929 402
53.9894 460
54.00951 444
54.02963 423
54.04974 482
54.06985 440
54.08997 450
54.11008 436
54.1302 457
54.15031 461
54.17042 473
54.19054 482
54.21065 468
54.23076 445
54.25088 469
54.27099 457
54.29111 481
54.31122 428
54.33133 495
54.35145 482
54.37156 460
54.39167 447
54.41179 495
54.4319 446
54.45201 409
54.47213 448
54.49224 472
54.51236 477
54.53247 496
54.55258 454
54.5727 450
54.59281 543
54.61292 554
54.63304 587
54.65315 545
54.67327 586
54.69338 680
54.71349 686
54.73361 747
54.75372 758
54.77383 800
54.79395 839
54.81406 748
54.83417 794
54.85429 775
54.8744 716
54.89452 631
54.91463 652
54.93474 692
54.95486 641
54.97497 622
54.99508 583
55.0152 551
55.03531 497
55.05543 497
55.07554 498
55.09565 510
55.11577 490
55.13588 522
55.15599 527
55.17611 522
55.19622 572
55.21634 600
55.23645 564
55.25656 629
55.27668 612
55.29679 552
55.3169 548
55.33702 486
55.35713 567
55.37724 527
55.39736 503
55.41747 455
55.43759 463
55.4577 440
55.47781 436
55.49793 416
55.51804 425
55.53815 463
55.55827 429
55.57838 409
55.5985 401
55.61861 423
55.63872 399
55.65884 378
55.67895 399
55.69906 431
55.71918 401
55.73929 376
55.75941 417
55.77952 434
55.79963 408
55.81975 427
55.83986 416
55.85997 433
55.88009 439
55.9002 374
55.92031 421
55.94043 414
55.96054 442
55.98066 387
56.00077 413
56.02088 405
56.041 393
56.06111 392
56.08122 406
56.10134 398
56.12145 382
56.14157 405
56.16168 362
56.18179 377
56.20191 440
56.22202 417
56.24213 391
56.26225 399
56.28236 371
56.30248 400
56.32259 380
56.3427 388
56.36282 379
56.38293 386
56.40304 395
56.42316 450
56.44327 395
56.46338 397
56.4835 427
56.50361 370
56.52373 398
56.54384 362
56.56395 389
56.58407 407
56.60418 372
56.62429 359
56.64441 391
56.66452 403
56.68464 407
56.70475 393
56.72486 369
56.74498 399
56.76509 396
56.7852 377
56.80532 369
56.82543 377
56.84554 390
56.86566 372
56.88577 391
56.90589 366
56.926 366
56.94611 375
56.96623 392
56.98634 408
57.00645 358
57.02657 391
57.04668 392
57.0668 403
57.08691 377
57.10702 414
57.12714 400
57.14725 385
57.16736 390
57.18748 400
57.20759 400
57.22771 377
57.24782 381
57.26793 378
57.28805 387
57.30816 372
57.32827 381
57.34839 383
57.3685 383
57.38861 369
57.40873 409
57.42884 373
57.44896 392
57.46907 393
57.48918 391
57.5093 371
57.52941 379
57.54952 350
57.56964 372
57.58975 386
57.60987 410
57.62998 375
57.65009 391
57.67021 406
57.69032 408
57.71043 372
57.73055 388
57.75066 383
57.77078 403
57.79089 378
57.811 372
57.83112 355
57.85123 384
57.87134 380
57.89146 373
57.91157 411
57.93168 370
57.9518 361
57.97191 364
57.99203 365
58.01214 377
58.03225 403
58.05237 393
58.07248 380
58.09259 410
58.11271 415
58.13282 379
58.15294 373
58.17305 375
58.19316 384
58.21328 378
58.23339 383
58.2535 379
58.27362 389
58.29373 355
58.31385 365
58.33396 398
58.35407 392
58.37419 355
58.3943 414
58.41441 334
58.43453 370
58.45464 349
58.47475 358
58.49487 374
58.51498 378
58.5351 359
58.55521 366
58.57532 372
58.59544 354
58.61555 372
58.63566 404
58.65578 356
58.67589 385
58.69601 411
58.71612 346
58.73623 358
58.75635 328
58.77646 399
58.79657 380
58.81669 358
58.8368 353
58.85691 338
58.87703 352
58.89714 384
58.91726 366
58.93737 356
58.95748 357
58.9776 357
58.99771 402
59.01782 389
59.03794 384
59.05805 359
59.07817 386
59.09828 346
59.11839 414
59.13851 403
59.15862 432
59.17873 386
59.19885 436
59.21896 398
59.23908 394
59.25919 419
59.2793 368
59.29942 441
59.31953 394
59.33964 390
59.35976 425
59.37987 412
59.39998 440
59.4201 418
59.44021 409
59.46033 389
59.48044 417
59.50055 445
59.52067 467
59.54078 441
59.56089 461
59.58101 437
59.60112 516
59.62124 470
59.64135 538
59.66146 567
59.68158 563
59.70169 611
59.7218 587
59.74192 742
59.76203 814
59.78215 875
59.80226 968
59.82237 1137
59.84249 1185
59.8626 1203
59.88271 1202
59.90283 1172
59.92294 1045
59.94305 1009
59.96317 928
59.98328 901
60.0034 817
60.02351 818
60.04362 757
60.06374 737
60.08385 691
60.10396 638
60.12408 546
60.14419 540
60.16431 453
60.18442 442
60.20453 443
60.22465 428
60.24476 432
60.26487 391
60.28499 404
60.3051 384
60.32522 371
60.34533 462
60.36544 408
60.38556 384
60.40567 407
60.42578 415
60.4459 405
60.46601 412
60.48612 416
60.50624 381
60.52635 385
60.54647 388
60.56658 404
60.58669 393
60.60681 367
60.62692 360
60.64703 412
60.66715 328
60.68726 365
60.70738 374
60.72749 382
60.7476 348
60.76772 389
60.78783 383
60.80794 389
60.82806 366
60.84817 384
60.86828 376
60.8884 373
60.90851 365
60.92863 362
60.94874 390
60.96885 420
60.98897 341
61.00908 403
61.02919 390
61.04931 381
61.06942 387
61.08954 416
61.10965 405
61.12976 387
61.14988 401
61.16999 375
61.1901 399
61.21022 403
61.23033 395
61.25045 383
61.27056 421
61.29067 381
61.31079 414
61.3309 415
61.35101 403
61.37113 390
61.39124 425
61.41135 415
61.43147 401
61.45158 411
61.4717 455
61.49181 455
61.51192 444
61.53204 437
61.55215 428
61.57226 477
61.59238 482
61.61249 471
61.63261 458
61.65272 463
61.67283 468
61.69295 500
61.71306 508
61.73317 484
61.75329 481
61.7734 540
61.79352 472
61.81363 498
61.83374 550
61.85386 504
61.87397 495
61.89408 542
61.9142 514
61.93431 505
61.95442 485
61.97454 507
61.99465 549
62.01477 513
62.03488 519
62.05499 517
62.07511 513
62.09522 463
62.11533 488
62.13545 516
62.15556 486
62.17568 520
62.19579 494
62.2159 491
62.23602 464
62.25613 493
62.27624 475
62.29636 496
62.31647 462
62.33659 488
62.3567 436
62.37681 413
62.39693 446
62.41704 444
62.43715 424
62.45727 414
62.47738 421
62.49749 436
62.51761 422
62.53772 428
62.55784 444
62.57795 390
62.59806 410
62.61818 420
62.63829 408
62.6584 394
62.67852 380
62.69863 404
62.71875 397
62.73886 399
62.75897 391
62.77909 397
62.7992 406
62.81931 376
62.83943 393
62.85954 379
62.87965 385
62.89977 401
62.91988 385
62.94 381
62.96011 360
62.98022 369
63.00034 385
63.02045 368
63.04056 386
63.06068 382
63.08079 383
63.10091 388
63.12102 395
63.14113 417
63.16125 334
63.18136 369
63.20147 396
63.22159 392
63.2417 406
63.26182 395
63.28193 364
63.30204 420
63.32216 410
63.34227 411
63.36238 416
63.3825 384
63.40261 393
63.42272 405
63.44284 406
63.46295 400
63.48307 395
63.50318 392
63.52329 412
63.54341 396
63.56352 421
63.58363 415
63.60375 405
63.62386 416
63.64398 388
63.66409 422
63.6842 419
63.70432 437
63.72443 437
63.74454 432
63.76466 412
63.78477 462
63.80489 483
63.825 468
63.84511 426
63.86523 425
63.88534 525
63.90545 509
63.92557 520
63.94568 517
63.96579 508
63.98591 513
64.00602 493
64.02614 452
64.04625 460
64.06636 501
64.08648 445
64.10659 431
64.1267 487
64.14682 464
64.16693 450
64.18705 436
64.20716 417
64.22727 416
64.24739 380
64.2675 365
64.28761 362
64.30773 398
64.32784 399
64.34796 358
64.36807 367
64.38818 368
64.4083 354
64.42841 383
64.44852 394
64.46864 361
64.48875 360
64.50886 378
64.52898 368
64.54909 357
64.56921 349
64.58932 383
64.60943 371
64.62955 368
64.64966 335
64.66977 363
64.68989 355
64.71 357
64.73012 358
64.75023 391
64.77034 407
64.79046 399
64.81057 337
64.83068 350
64.8508 353
64.87091 371
64.89102 335
64.91114 383
64.93125 350
64.95137 375
64.97148 333
64.99159 392
65.01171 337
65.03182 383
65.05193 344
65.07205 348
65.09216 384
65.11228 386
65.13239 372
65.1525 386
65.17262 412
65.19273 371
65.21284 363
65.23296 370
65.25307 367
65.27319 374
65.2933 384
65.31341 358
65.33353 367
65.35364 361
65.37375 349
65.39387 356
65.41398 356
65.43409 380
65.45421 356
65.47432 330
65.49444 349
65.51455 354
65.53466 367
65.55478 378
65.57489 389
65.595 394
65.61512 423
65.63523 380
65.65535 381
65.67546 373
65.69557 377
65.71569 365
65.7358 393
65.75591 394
65.77603 387
65.79614 350
65.81626 387
65.83637 376
65.85648 358
65.8766 370
65.89671 377
65.91682 358
65.93694 357
65.95705 376
65.97716 373
65.99728 350
66.01739 329
66.03751 324
66.05762 375
66.07773 355
66.09785 405
66.11796 362
66.13807 324
66.15819 371
66.1783 340
66.19842 356
66.21853 377
66.23864 356
66.25876 368
66.27887 307
66.29898 361
66.3191 346
66.33921 364
66.35933 352
66.37944 330
66.39955 344
66.41967 360
66.43978 346
66.45989 376
66.48001 347
66.50012 352
66.52023 317
66.54035 352
66.56046 371
66.58058 330
66.60069 338
66.6208 365
66.64092 342
66.66103 366
66.68114 394
66.70126 339
66.72137 378
66.74149 332
66.7616 343
66.78171 373
66.80183 325
66.82194 344
66.84205 407
66.86217 374
66.88228 382
66.90239 340
66.92251 383
66.94262 372
66.96274 401
66.98285 354
67.00296 400
67.02308 342
67.04319 359
67.0633 374
67.08342 387
67.10353 345
67.12365 360
67.14376 387
67.16387 395
67.18399 384
67.2041 382
67.22421 383
67.24433 388
67.26444 391
67.28456 380
67.30467 418
67.32478 391
67.3449 426
67.36501 404
67.38512 414
67.40524 416
67.42535 454
67.44546 457
67.46558 474
67.48569 496
67.50581 537
67.52592 568
67.54603 590
67.56615 661
67.58626 693
67.60637 765
67.62649 855
67.6466 926
67.66672 862
67.68683 828
67.70694 787
67.72706 735
67.74717 749
67.76728 709
67.7874 660
67.80751 673
67.82763 755
67.84774 750
67.86785 767
67.88797 785
67.90808 697
67.92819 768
67.94831 756
67.96842 836
67.98853 847
68.00865 943
68.02876 969
68.04888 1015
68.06899 1072
68.0891 1069
68.10922 988
68.12933 997
68.14944 951
68.16956 978
68.18967 1028
68.20979 1034
68.2299 1063
68.25001 987
68.27013 939
68.29024 871
68.31035 753
68.33047 664
68.35058 653
68.3707 593
68.39081 603
68.41092 621
68.43104 631
68.45115 536
68.47126 510
68.49138 476
68.51149 475
68.5316 446
68.55172 417
68.57183 424
68.59195 355
68.61206 404
68.63217 401
68.65229 418
68.6724 380
68.69251 367
68.71263 409
68.73274 410
68.75286 388
68.77297 417
68.79308 353
68.8132 417
68.83331 403
68.85342 360
68.87354 378
68.89365 340
68.91376 357
68.93388 343
68.95399 344
68.97411 371
68.99422 374
69.01433 390
69.03445 354
69.05456 390
69.07467 348
69.09479 370
69.1149 353
69.13502 391
69.15513 394
69.17524 347
69.19536 391
69.21547 347
69.23558 350
69.2557 366
69.27581 362
69.29593 409
69.31604 376
69.33615 357
69.35627 360
69.37638 374
69.39649 380
69.41661 389
69.43672 386
69.45683 406
69.47695 399
69.49706 384
69.51718 400
69.53729 396
69.5574 352
69.57752 352
69.59763 361
69.61774 357
69.63786 371
69.65797 361
69.67809 367
69.6982 382
69.71831 324
69.73843 371
69.75854 355
69.77865 356
69.79877 389
69.81888 370
69.839 362
69.85911 385
69.87922 353
69.89934 351
69.91945 373
69.93956 378
69.95968 379
69.97979 346
69.9999 348
70.02002 348
70.04013 335
70.06025 364
70.08036 340
70.10047 367
70.12059 345
70.1407 362
70.16081 379
70.18093 340
70.20104 320
70.22116 373
70.24127 346
70.26138 386
70.2815 350
70.30161 345
70.32172 363
70.34184 353
70.36195 335
70.38207 379
70.40218 353
70.42229 336
70.44241 360
70.46252 364
70.48263 334
70.50275 319
70.52286 336
70.54297 334
70.56309 341
70.5832 336
70.60332 351
70.62343 349
70.64354 341
70.66366 361
70.68377 379
70.70388 331
70.724 385
70.74411 322
70.76423 345
70.78434 317
70.80445 355
70.82457 315
70.84468 320
70.86479 382
70.88491 343
70.90502 363
70.92513 345
70.94525 339
70.96536 340
70.98548 337
71.00559 333
71.0257 356
71.04582 323
71.06593 381
71.08604 334
71.10616 380
71.12627 341
71.14639 356
71.1665 365
71.18661 368
71.20673 331
71.22684 343
71.24695 337
71.26707 346
71.28718 341
71.3073 366
71.32741 339
71.34752 363
71.36764 350
71.38775 324
71.40786 337
71.42798 329
71.44809 348
71.4682 362
71.48832 306
71.50843 366
71.52855 376
71.54866 371
71.56877 364
71.58889 333
71.609 320
71.62911 358
71.64923 363
71.66934 329
71.68946 385
71.70957 341
71.72968 353
71.7498 339
71.76991 363
71.79002 321
71.81014 332
71.83025 380
71.85037 330
71.87048 323
71.89059 327
71.91071 343
71.93082 364
71.95093 337
71.97105 360
71.99116 348
72.01127 334
72.03139 340
72.0515 338
72.07162 370
72.09173 368
72.11184 338
72.13196 371
72.15207 354
72.17218 349
72.1923 357
72.21241 361
72.23253 355
72.25264 331
72.27275 359
72.29287 371
72.31298 362
72.33309 336
72.35321 365
72.37332 323
72.39344 375
72.41355 332
72.43366 376
72.45378 345
72.47389 364
72.494 347
72.51412 361
72.53423 320
72.55434 310
72.57446 372
72.59457 361
72.61469 364
72.6348 353
72.65491 348
72.67503 370
72.69514 326
72.71525 352
72.73537 362
72.75548 335
72.7756 335
72.79571 345
72.81582 371
72.83594 348
72.85605 374
72.87616 342
72.89628 322
72.91639 365
72.9365 383
72.95662 368
72.97673 384
72.99685 362
73.01696 400
73.03707 413
73.05719 384
73.0773 379
73.09741 397
73.11753 389
73.13764 405
73.15776 391
73.17787 405
73.19798 405
73.2181 425
73.23821 424
73.25832 475
73.27844 432
73.29855 469
73.31867 481
73.33878 526
73.35889 572
73.37901 537
73.39912 535
73.41923 566
73.43935 514
73.45946 499
73.47957 463
73.49969 454
73.5198 446
73.53992 412
73.56003 430
73.58014 433
73.60026 440
73.62037 450
73.64048 458
73.6606 384
73.68071 410
73.70083 375
73.72094 361
73.74105 364
73.76117 370
73.78128 369
73.80139 346
73.82151 348
73.84162 380
73.86174 357
73.88185 391
73.90196 384
73.92208 354
73.94219 389
73.9623 348
73.98242 340
74.00253 365
74.02264 376
74.04276 338
74.06287 389
74.08299 379
74.1031 349
74.12321 407
74.14333 372
74.16344 318
74.18355 339
74.20367 367
74.22378 343
74.2439 357
74.26401 348
74.28412 340
74.30424 345
74.32435 328
74.34446 351
74.36458 345
74.38469 387
74.40481 322
74.42492 362
74.44503 377
74.46515 382
74.48526 375
74.50537 362
74.52549 368
74.5456 346
74.56571 347
74.58583 359
74.60594 366
74.62606 366
74.64617 366
74.66628 373
74.6864 382
74.70651 367
74.72662 394
74.74674 348
74.76685 369
74.78697 347
74.80708 330
74.82719 350
74.84731 404
74.86742 345
74.88753 363
74.90765 368
74.92776 340
74.94787 360
74.96799 351
74.9881 381
75.00822 352
