3.00117 24760.7471848661
3.02128 23951.083437164
3.0414 24204
3.06151 23281.367656998
3.08162 22219.2994613229
3.10174 21742.9543680664
3.12185 21270.0987011738
3.14197 21233.2642848881
3.16208 19886.7145462295
3.18219 19976.0261062843
3.20231 19220.4693929695
3.22242 18457.7671673541
3.24253 18383.2433051557
3.26265 17382.6094276717
3.28276 16876.3275188936
3.30288 16660.5440619332
3.32299 15954.2053168715
3.3431 15742
3.36322 14914.5280298366
3.38333 14853.691773879
3.40344 14287.8453738628
3.42356 13924.5120990714
3.44367 13497.1382782822
3.46379 12694.1888202028
3.4839 12753
3.50401 12364.5964660832
3.52413 11562.4389691958
3.54424 11461.2214576893
3.56435 10805.8135441434
3.58447 10848.2059718772
3.60458 10337.520607732
3.62469 10085.0291078248
3.64481 9863.67029953709
3.66492 9065.65356775029
3.68504 9108.5867429868
3.70515 8516.8316276697
3.72526 8412.99681153895
3.74538 8148.63946978618
3.76549 7399.23433183599
3.7856 7332
3.80572 7242.69248571831
3.82583 6872.67283216802
3.84595 6704.9436420888
3.86606 6174.34856164557
3.88617 6256.32742636072
3.90629 5710.16726322475
3.9264 5740
3.94651 5492.81141240467
3.96663 5138.54833643527
3.98674 4889.56416675523
4.00686 4724.12747295345
4.02697 4712.08436784152
4.04708 4515.33448150823
4.0672 4166
4.08731 4080.98938647034
4.10742 4004.83907100729
4.12754 3792.60986094299
4.14765 3608.60172719103
4.16776 3356.28713063194
4.18788 3307.08486277035
4.20799 3135.0882530606
4.22811 3038.99547439499
4.24822 2987.77374321395
4.26833 2660.67752092318
4.28845 2622.99496056968
4.30856 2570.09595096424
4.32867 2565.96385924138
4.34879 2519.1003563989
4.3689 2267
4.38902 2305.01513501223
4.40913 2186.71978683195
4.42924 2073.07958728291
4.44936 2141.21849238199
4.46947 1895.20114255596
4.48958 1961.88996244766
4.5097 1967
4.52981 1843.95135937343
4.54992 1794.96704752814
4.57004 1739.83710774953
4.59015 1668.04911339842
4.61027 1685.00524601231
4.63038 1666.96923166296
4.65049 1703.03303520228
4.67061 1534.91992250523
4.69072 1485.05637764526
4.71083 1543.94251861104
4.73095 1424.79277098926
4.75106 1421.98733872577
4.77118 1423.94492447934
4.79129 1490.01193544919
4.8114 1373
4.83152 1333.00157225898
4.85163 1320.92500107216
4.87174 1240.84701548406
4.89186 1219.89077752105
4.91197 1259.1316521209
4.93209 1123.99452175851
4.9522 1238
4.97231 1054.92963455303
4.99243 1069.11693244092
5.01254 1114.00980247056
5.03265 1094.05715403147
5.05277 1078.03117239632
5.07288 1061.98952904171
5.09299 1073.01807329103
5.11311 1000.97610391114
5.13322 1001.01257977743
5.15334 991.941040119504
5.17345 953.912246964384
5.19356 942.952561510437
5.21368 969.014853638605
5.23379 908.034276878768
5.2539 865
5.27402 867.031609084617
5.29413 880.913955797375
5.31425 798.986467144278
5.33436 885.813008556622
5.35447 903.087944568729
5.37459 840.996387468699
5.3947 881
5.41481 763.95368037848
5.43493 750.023772801556
5.45504 744.94485932704
5.47516 710.049215402243
5.49527 708.971646593152
5.51538 719.024227841964
5.5355 670
5.55561 665.007941440533
5.57572 670.977620416789
5.59584 646.033816021343
5.61595 688.979283527826
5.63606 658.028747102847
5.65618 663.028656962376
5.67629 606.013032805771
5.69641 608.985794074912
5.71652 567.023210570492
5.73663 643.056091039999
5.75675 614.925058034627
5.77686 613.0136481613
5.79697 571.110600370573
5.81709 521.984850463735
5.8372 594
5.85732 542.948501523735
5.87743 533.004781964005
5.89754 525.975957820681
5.91766 527.940327646984
5.93777 569.964094068601
5.95788 561.026873071711
5.978 529
5.99811 505.007371090786
6.01823 531.983093201862
6.03834 483.934586694063
6.05845 502.861840987272
6.07857 548.991699709333
6.09868 530.993515994111
6.11879 544.023256945826
6.13891 473.003351843479
6.15902 551.040868932983
6.17913 516.941161472867
6.19925 518.044367712886
6.21936 521.039488934208
6.23948 488.028313455816
6.25959 486.984270034827
6.2797 519
6.29982 480.971004353767
6.31993 495.074503455364
6.34004 529.953212827737
6.36016 453.161353233208
6.38027 433.909708852393
6.40039 506.999746598897
6.4205 434
6.44061 446.032857061559
6.46073 489.949345495324
6.48084 420.988562265284
6.50095 481.918885111445
6.52107 458.020561734202
6.54118 466.025440794491
6.56129 416.004858042089
6.58141 453.01267250626
6.60152 445.997739807435
6.62164 456.991361314677
6.64175 440.003610178555
6.66186 463.96139318395
6.68198 457.028034998886
6.70209 439.989355951574
6.7222 481
6.74232 458.97779001995
6.76243 443.946075084964
6.78255 411.056838224688
6.80266 468.961082521997
6.82277 442.012626201192
6.84289 477.979591237019
6.863 476
6.88311 415.993920150136
6.90323 446.018885633672
6.92334 416.928867424874
6.94346 413.93183175734
6.96357 458.963016661869
6.98368 458.99818428043
7.0038 467
7.02391 439.986873228548
7.04402 438.026593628859
7.06414 470.018945440848
7.08425 453.049061281791
7.10436 437.058743936324
7.12448 414.976211689295
7.14459 468.985246513379
7.16471 442.970916852826
7.18482 401.000260964734
7.20493 426.00982391322
7.22505 413.023058000928
7.24516 440.003356256474
7.26527 407.030786060201
7.28539 424.980594196051
7.3055 440
7.32562 385.990093067471
7.34573 416.006860492278
7.36584 394.030518516795
7.38596 439.98853114053
7.40607 407.995079485103
7.42618 442.013186713853
7.4463 395
7.46641 458.008509346518
7.48653 408.943852139429
7.50664 430.09916006575
7.52675 460.022056391708
7.54687 433.00837988376
7.56698 445.013758198718
7.58709 411.00245354872
7.60721 437.00469394419
7.62732 417.988127765264
7.64743 422.994594057848
7.66755 415.043270683366
7.68766 445.994146033199
7.70778 417.023205924056
7.72789 424.98641374674
7.748 438
7.76812 400.992673944902
7.78823 431.047253988145
7.80834 432.953332939701
7.82846 407.019215928587
7.84857 416.978610472347
7.86869 419.00580321847
7.8888 412
7.90891 450.017495718717
7.92903 460.983401815381
7.94914 449.012454696277
7.96925 461.034497218054
7.98937 418.065146045754
8.00948 405.976719240428
8.0296 441
8.04971 441.00305129025
8.06982 451.989672315371
8.08994 432.016600801969
8.11005 457.988293620024
8.13016 427.008903727281
8.15028 454.986375286679
8.17039 430.020504730116
8.1905 414
8.21062 452.997277241742
8.23073 410.960391397676
8.25085 420.025197523377
8.27096 416.992137903696
8.29107 425.016399698615
8.31119 418.977040568031
8.3313 492
8.35141 450.970538102206
8.37153 419.990610957945
8.39164 429.03687610685
8.41176 432.063135319514
8.43187 392.00392403175
8.45198 435.946388530591
8.4721 465
8.49221 455.990931062307
8.51232 439.991868068197
8.53244 441.011884763318
8.55255 449.964806517816
8.57266 468.957674710107
8.59278 480.009161817793
8.61289 471.987735858226
8.63301 510.000230084149
8.65312 478.994401261838
8.67323 514.051140848474
8.69335 521.993563917094
8.71346 520.011753264284
8.73357 517.978751959566
8.75369 552.976216542169
8.7738 590
8.79392 589.018182141693
8.81403 625.032156198928
8.83414 626.012701466218
8.85426 654.915405111103
8.87437 689.977243648865
8.89448 679.031143950177
8.9146 644
8.93471 609.968188231918
8.95483 532.926424257359
8.97494 514.953076704761
8.99505 480.037361598857
9.01517 485.00910116715
9.03528 459.023372204823
9.05539 452.99800167016
9.07551 444.982772198931
9.09562 415.020405299739
9.11573 462.005660795378
9.13585 410.880337386859
9.15596 417.887431013343
9.17608 469.004119292988
9.19619 418.019756852919
9.2163 425
9.23642 447.002828682703
9.25653 423.932138153735
9.27664 382.974102633521
9.29676 400.943485960338
9.31687 409.03381216462
9.33699 390.983863024568
9.3571 441
9.37721 372.979323794806
9.39733 401.086054798652
9.41744 444.047519848299
9.43755 441.082411731852
9.45767 408.994480369193
9.47778 441.979051886691
9.4979 435
9.51801 445.013541923581
9.53812 457.970033356062
9.55824 406.958465307328
9.57835 418.992580051892
9.59846 390.035844274364
9.61858 397.987880045145
9.63869 400.998875169678
9.6588 410
9.67892 425.010561554062
9.69903 417.950263817702
9.71915 381.98411606352
9.73926 406.948644988466
9.75937 402.055103208789
9.77949 376.984041489605
9.7996 432
9.81971 386.000550454786
9.83983 442.040632681888
9.85994 415.959254252975
9.88006 418.034248584418
9.90017 377.041018409094
9.92028 382.978150722025
9.9404 403
9.96051 418.006332746756
9.98062 419.98256161158
10.00074 402.018645731906
10.02085 427.990181039956
10.04097 405.02417273203
10.06108 407.999236102353
10.08119 400.999429594425
10.10131 417.010756254473
10.12142 428.996350750644
10.14153 403.931240319507
10.16165 369.019859892625
10.18176 412.918601445073
10.20187 420.028227115483
10.22199 401.000537941562
10.2421 424
10.26222 433.959419718192
10.28233 367.939927003379
10.30244 380.079935848545
10.32256 416.947880901534
10.34267 412.07362605828
10.36278 359.002583320298
10.3829 408
10.40301 409.98305547377
10.42313 380.007304869328
10.44324 411.035332986182
10.46335 407.980183028868
10.48347 431.980352160094
10.50358 427.003507306995
10.52369 423.012970460037
10.54381 395.005927312972
10.56392 438.023412603076
10.58403 434.016141710201
10.60415 451.938437855537
10.62426 403.009335201435
10.64438 444.977352380602
10.66449 423.013062247885
10.6846 412
10.70472 399.021106827215
10.72483 435.001505939774
10.74494 401.967052872476
10.76506 405.048972655737
10.78517 366.9848690009
10.80529 421.982789230198
10.8254 415
10.84551 425.997735990464
10.86563 404.98907624267
10.88574 419.025905668723
10.90585 405.110604786985
10.92597 363.999927709152
10.94608 410.938406918744
10.9662 440
10.98631 400.993512737742
11.00642 414.996955967376
11.02654 405.074168968769
11.04665 466.976072945613
11.06676 415.091486483427
11.08688 418.97014762422
11.10699 435.007048058819
11.1271 409
11.14722 420.985175936324
11.16733 384.986081570759
11.18745 412.063374684991
11.20756 408.046939118829
11.22767 391.98686734513
11.24779 416.992449176308
11.2679 412
11.28801 419.014353452816
11.30813 444.989638260102
11.32824 420.003381633553
11.34836 442.017712608649
11.36847 408.003240384519
11.38858 440.985781431169
11.4087 429
11.42881 455.999039675765
11.44892 414.957647391137
11.46904 400.008585740439
11.48915 405.011565563224
11.50927 395.001053978981
11.52938 415.959837199697
11.54949 444.006873918122
11.56961 417.008994484417
11.58972 462.998626758271
11.60983 408.944977611809
11.62995 421.05763675631
11.65006 427.99787070791
11.67017 429.005401822183
11.69029 428.991821743403
11.7104 441
11.73052 394.986412968885
11.75063 423.040401559416
11.77074 420.966571990226
11.79086 421.92650146017
11.81097 463.00741453598
11.83108 427.998704336118
11.8512 475
11.87131 457.973437384997
11.89143 437.095871998531
11.91154 520.971813953973
11.93165 422.129321722817
11.95177 465.914363800063
11.97188 484.988627901416
11.99199 500.999037386811
12.01211 483.98899402448
12.03222 474.005577751343
12.05234 476.957588967213
12.07245 466.138306374856
12.09256 548.971100138092
12.11268 492.036062854136
12.13279 522.973961165168
12.1529 556
12.17302 576.031230090821
12.19313 601.990485269451
12.21324 580.011787700078
12.23336 634.8388423358
12.25347 689.005081909208
12.27359 657.000442252339
12.2937 709
12.31381 732.980675157019
12.33393 686.029113102178
12.35404 753.042474030928
12.37415 724.97011358112
12.39427 788.942905089408
12.41438 755.074351494858
12.4345 678
12.45461 627.99125846511
12.47472 625.986564586158
12.49484 601.987142499181
12.51495 599.102769448059
12.53506 536.051629298699
12.55518 546.014319772007
12.57529 501.010638501192
12.5954 504
12.61552 441.949238689787
12.63563 439.052953311759
12.65575 466.960524583238
12.67586 433.974290645093
12.69597 478.003958739752
12.71609 423.017327636604
12.7362 436
12.75631 427.992993091766
12.77643 428.024505651861
12.79654 438.963023948971
12.81666 400.051226784974
12.83677 398.001621426923
12.85688 401.964113135918
12.877 442
12.89711 393.9927622788
12.91722 433.042520091866
12.93734 432.921220369623
12.95745 389.039885956823
12.97757 405.965612864858
12.99768 406.024995357108
13.01779 384.992762037381
13.03791 418.001383954321
13.05802 385.977300944677
13.07813 396.033774854432
13.09825 399.935826218078
13.11836 357.071787434504
13.13847 343.996230888263
13.15859 355.988628314413
13.1787 370
13.19882 344.00514334518
13.21893 384.056032659363
13.23904 400.02492999353
13.25916 404.054961122917
13.27927 369.988146383897
13.29938 404.004455759457
13.3195 371
13.33961 422.002753729222
13.35973 375.969420065232
13.37984 402.03350639275
13.39995 379.093491907279
13.42007 361.979703414222
13.44018 393.972192908279
13.46029 400.005637960502
13.48041 383.993751517457
13.50052 376.992629914112
13.52064 372.012352766459
13.54075 390.054027714173
13.56086 393.059735225184
13.58098 358.994675077033
13.60109 397.988354386132
13.6212 385
13.64132 383.015306317514
13.66143 399.0021235018
13.68154 370.885984172523
13.70166 334.928535005765
13.72177 418.913564420785
13.74189 399.03740618865
13.762 340
13.78211 389.010427656298
13.80223 354.932784077221
13.82234 334.99471636373
13.84245 356.847584280527
13.86257 417.99081025511
13.88268 373.037260018913
13.9028 374
13.92291 367.988188361974
13.94302 348.005421364868
13.96314 376.05188743967
13.98325 384.004698697509
14.00336 379.019241531244
14.02348 365.016300066546
14.04359 350.00586723682
14.06371 340.995792900113
14.08382 336.003608000191
14.10393 350.031360375356
14.12405 369.028185333065
14.14416 377.965305328134
14.16427 390.027177273872
14.18439 354.008127880322
14.2045 374
14.22461 391.99412215194
14.24473 373.013047578549
14.26484 404.026037019024
14.28496 381.073294245531
14.30507 359.996427273471
14.32518 378.979038588666
14.3453 393
14.36541 386.976884007771
14.38552 339.011446097778
14.40564 394.043142431796
14.42575 366.042754969265
14.44587 378.997023940827
14.46598 372.969884443293
14.48609 420.998630608397
14.50621 364.967601629768
14.52632 346.032758163597
14.54643 388.003807674537
14.56655 352.944185287653
14.58666 368.93997893316
14.60677 385.003319720102
14.62689 366.014978912622
14.647 355
14.66712 386.962364778122
14.68723 306.961593142853
14.70734 362.132135260089
14.72746 387.994393647685
14.74757 380.03599916525
14.76768 355.005214355914
14.7878 374
14.80791 394.007158608059
14.82803 395.972300396314
14.84814 365.951678727642
14.86825 353.032508096018
14.88837 338.010709894813
14.90848 334.015203678474
14.92859 323.986896969356
14.94871 365.001381854444
14.96882 338.004408192279
14.98894 374.013224406809
15.00905 338.929105655181
15.02916 338.995041608386
15.04928 337.984376011896
15.06939 351.014606548955
15.0895 303
15.10962 358.062600582302
15.12973 374.951099824663
15.14984 343.045760834333
15.16996 394.998971848279
15.19007 353.988706966662
15.21019 410.991683721048
15.2303 367
15.25041 360.987475675889
15.27053 327.024031076412
15.29064 376.012239491351
15.31075 336.033689221665
15.33087 362.986558730196
15.35098 340.010273994823
15.3711 361
15.39121 367.994792737335
15.41132 356.000676632615
15.43144 372.039463223182
15.45155 380.020064625266
15.47166 355.076775400711
15.49178 342.948838852539
15.51189 399.017599005467
15.53201 318.007696773535
15.55212 411.009768081293
15.57223 313.899491016443
15.59235 342.132295680411
15.61246 368.961770027481
15.63257 388.984389680068
15.65269 384.007933461862
15.6728 371
15.69291 371.991271382675
15.71303 344.989261802506
15.73314 350.967124586326
15.75326 319.008934487474
15.77337 360.903535615428
15.79348 399.014020546913
15.8136 356
15.83371 359.994512815013
15.85382 332.998036818254
15.87394 364.061870807556
15.89405 377.969308363784
15.91417 381.04432964243
15.93428 336.019204481931
15.95439 354.985706196299
15.97451 368.000171418386
15.99462 361.99092700187
16.01473 346.959847644467
16.03485 316.954442232919
16.05496 318.967726272115
16.07508 341.971690008834
16.09519 360.003500789501
16.1153 347
16.13542 386.025798965388
16.15553 375.952697810097
16.17564 346.967747770861
16.19576 342.010598225941
16.21587 341.966261647638
16.23598 381.965452882887
16.2561 389
16.27621 361.993559941538
16.29633 362.991401026514
16.31644 336.922052830742
16.33655 314.953867552818
16.35667 358.953637415803
16.37678 351.034462418381
16.39689 332.985288340178
16.41701 383.006051332517
16.43712 353.9846913139
16.45724 372.032894727433
16.47735 354.880537575529
16.49746 322.943042460558
16.51758 379.991286873325
16.53769 343.00169923201
16.5578 383
16.57792 351.975320606476
16.59803 355.002370034402
16.61814 347.006745436289
16.63826 361.988575306008
16.65837 353.012606535034
16.67849 356.993528898552
16.6986 365
16.71871 344.990777109624
16.73883 351.059496515793
16.75894 393.006355373494
16.77905 358.078112957872
16.79917 362.951458620762
16.81928 387.011791737891
16.8394 356
16.85951 377.002721402616
16.87962 351.972064883866
16.89974 351.057635845142
16.91985 379.017158468034
16.93996 351.99708577934
16.96008 386.97547199898
16.98019 367.027359296837
17.00031 336.021136147616
17.02042 414.026046146652
17.04053 358.882641542466
17.06065 328.076108079408
17.08076 373.003549177646
17.10087 335.004153696433
17.12099 381.980336189344
17.1411 375
17.16121 347.99995478381
17.18133 360.990629508622
17.20144 344.025989267771
17.22156 386.93703851325
17.24167 377.06108215677
17.26178 350.97591824213
17.2819 401
17.30201 368.983338419662
17.32212 359.995249845947
17.34224 360.051016994402
17.36235 401.930752397844
17.38247 393.057113828559
17.40258 357.009534871694
17.42269 373.990329132953
17.44281 389.013848995385
17.46292 413.989271636647
17.48303 371.94641527734
17.50315 355.951524819573
17.52326 343.940678204092
17.54338 397.973915305448
17.56349 385.005733503154
17.5836 395
17.60372 385.9711167218
17.62383 363.01379088094
17.64394 392.020462634182
17.66406 392.921668307117
17.68417 465.919412838218
17.70428 468.029916949954
17.7244 444
17.74451 462.005148377507
17.76463 463.02264059327
17.78474 483.990185873722
17.80485 445.121921699189
17.82497 414.012925982834
17.84508 426.970697080753
17.86519 439.017007456951
17.88531 384.990782856774
17.90542 404.003423141567
17.92554 376.961449613287
17.94565 381.01315614416
17.96576 383.96200800574
17.98588 411.988864974256
18.00599 404.001874104248
18.0261 409
18.04622 382.961483609189
18.06633 358.010490045747
18.08645 390.079173673078
18.10656 401.011004564651
18.12667 397.979024122227
18.14679 406.017815871478
18.1669 355
18.18701 399.006763631904
18.20713 365.967484303322
18.22724 378.021561016743
18.24735 380.942093789177
18.26747 411.007745256927
18.28758 364.052945341694
18.3077 348
18.32781 394.013453290705
18.34792 380.96187843775
18.36804 342.946631216712
18.38815 351.854854361152
18.40826 415.975644982614
18.42838 374.040442620781
18.44849 365.999830637127
18.46861 366.007598833818
18.48872 388.004570141307
18.50883 369.967503276863
18.52895 371.078711077115
18.54906 396.053257928979
18.56917 339.030948859241
18.58929 377.972489184448
18.6094 403
18.62951 377.989518608962
18.64963 373.004282240145
18.66974 369.971278653461
18.68986 343.069218860635
18.70997 326.962916870408
18.73008 362.007835417251
18.7502 334
18.77031 397.0005618802
18.79042 339.985441090244
18.81054 382.025188849664
18.83065 344.059276645858
18.85077 358.979601235171
18.87088 358.985900105775
18.89099 380.0036927874
18.91111 348.992852127989
18.93122 365.019914215316
18.95133 367.986928149041
18.97145 364.029914227671
18.99156 378.018568404222
19.01168 353.007710640754
19.03179 376.981479228888
19.0519 405
19.07202 392.951760326511
19.09213 340.980685135422
19.11224 373.080855162934
19.13236 393.981778107257
19.15247 393.026234519318
19.17258 382.971911972741
19.1927 419
19.21281 353.977638523781
19.23293 363.044056301021
19.25304 376.991643322823
19.27315 371.964738120135
19.29327 395.993417707949
19.31338 383.995690774582
19.33349 404.997428514343
19.35361 399.009986694204
19.37372 421.965742465248
19.39384 347.92922710034
19.41395 372.068053663392
19.43406 385.920866324474
19.45418 446.962072225812
19.47429 432.026907870949
19.4944 389
19.51452 435.04547381231
19.53463 443.96664227118
19.55475 423.019003964014
19.57486 445.010272496176
19.59497 412.029935596863
19.61509 433.97403201895
19.6352 485
19.65531 492.000582623038
19.67543 508.051064489579
19.69554 545.041873580662
19.71565 571.818570341685
19.73577 663.935082854777
19.75588 667.958754157089
19.776 732
19.79611 701.03974914988
19.81622 873.108733141005
19.83634 876.014893897951
19.85645 925.95167630896
19.87656 904.002698099491
19.89668 946.951613956888
19.91679 947.031915283707
19.93691 866.984188176561
19.95702 873.972569536578
19.97713 792.880240627508
19.99725 748.93467923325
20.01736 718.077937210802
20.03747 677.048687881206
20.05759 664.994752444409
20.0777 664
20.09782 605.004139355808
20.11793 656.012465246313
20.13804 606.936245129583
20.15816 617.988432262227
20.17827 608.977808045039
20.19838 630.029301700887
20.2185 578
20.23861 641.010676122038
20.25872 608.996763325357
20.27884 647.019366753357
20.29895 606.110332718433
20.31907 597.968880110503
20.33918 619.99725851901
20.35929 603.00833601882
20.37941 619.030494716118
20.39952 689.029446655107
20.41963 670.964263420558
20.43975 660.955798870194
20.45986 632.043171184132
20.47998 632.979295527703
20.50009 650.003798074364
20.5202 628
20.54032 652.034268749332
20.56043 684.052863127949
20.58054 715.025613018355
20.60066 712.999978065021
20.62077 719.996983415967
20.64088 743.915553509864
20.661 846
20.68111 831.015709841294
20.70123 949.219111988005
20.72134 1088.30282749032
20.74145 1275.44604940504
20.76157 1557.45669397265
20.78168 2014.46520777934
20.80179 2568.74192286181
20.82191 3094.31084326905
20.84202 3689.3403380035
20.86214 3744.9172770646
20.88225 3599.90365038044
20.90236 2866.64581568832
20.92248 2162.55615050003
20.94259 1654.28409194499
20.9627 1071
20.98282 864.923653901393
21.00293 811.940049846582
21.02305 772.904078088747
21.04316 739.04798749731
21.06327 723.021666262189
21.08339 709.003893146539
21.1035 701
21.12361 680.000814265001
21.14373 686.957657198778
21.16384 638.977306038592
21.18395 662.995056795644
21.20407 640.985752899245
21.22418 671.016298178497
21.2443 623
21.26441 685.024514644394
21.28452 680.974576374227
21.30464 685.105597041667
21.32475 738.039633697247
21.34486 658.140233813916
21.36498 647.972668312988
21.38509 696.96151591614
21.40521 752.989038801708
21.42532 677.953830069216
21.44543 690.028267850954
21.46555 666.844266087783
21.48566 622.939051714153
21.50577 684.012647005684
21.52589 613.012962803726
21.546 655
21.56612 632.983542726294
21.58623 640.998033032867
21.60634 605.881755540573
21.62646 574.918185214347
21.64657 645.977211235971
21.66668 580.086179503556
21.6868 553
21.70691 616.994322221984
21.72702 540.95744354305
21.74714 569.077276837185
21.76725 576.019113555036
21.78737 572.994513908887
21.80748 578.998076731664
21.82759 566.016102841671
21.84771 538.002299521576
21.86782 558.992974525251
21.88793 526.985771168964
21.90805 542.993488657952
21.92816 515.03161177855
21.94828 518.008643682384
21.96839 511.979275385643
21.9885 567
22.00862 504.981851085715
22.02873 539.000614704632
22.04884 498.996518470166
22.06896 543.957665379614
22.08907 515.05306918722
22.10919 502.002527008931
22.1293 499
22.14941 506.994396694848
22.16953 498.051145476057
22.18964 550.006859769627
22.20975 494.148178758848
22.22987 476.975915147355
22.24998 505.969394385156
22.27009 521.003560107233
22.29021 496.985539360839
22.31032 495.04528789674
22.33044 542.97020337754
22.35055 485.967033829719
22.37066 526.960297658553
22.39078 506.006588471838
22.41089 524.999761165267
22.431 492
22.45112 473.995554820019
22.47123 483.042061352516
22.49135 502.947051406883
22.51146 455.053320214938
22.53157 460.995757689817
22.55169 464.97737304796
22.5718 530
22.59191 502.990040193959
22.61203 516.023924893017
22.63214 513.977652751876
22.65225 506.002637610333
22.67237 510.99023742281
22.69248 513.004083858529
22.7126 502
22.73271 491.00322464461
22.75282 511.018112487873
22.77294 507.943470727763
22.79305 483.963947353913
22.81316 527.939333587617
22.83328 529.001181511745
22.85339 551.97698183467
22.87351 582.989058129965
22.89362 528.972735651974
22.91373 554.066970609021
22.93385 587.054484305864
22.95396 597.007302035123
22.97407 570.087007981713
22.99419 510.011900770172
23.0143 525
23.03442 517.97244878
23.05453 501.029699899443
23.07464 524.938762146278
23.09476 462.026622753965
23.11487 496.998835949788
23.13498 450.02526827959
23.1551 472
23.17521 482.009391460934
23.19532 499.982964318678
23.21544 473.044902831289
23.23555 516.062512869619
23.25567 437.044652566052
23.27578 487.939958360854
23.29589 502.008170496478
23.31601 477.987782554722
23.33612 465.00367433989
23.35623 472.99228427892
23.37635 460.004770993895
23.39646 476.981203046096
23.41658 462.033588842564
23.43669 440.991213169786
23.4568 477
23.47692 444.962541331417
23.49703 439.042923784182
23.51714 481.061279621165
23.53726 483.039762198721
23.55737 468.980594342946
23.57749 495.99664515728
23.5976 478
23.61771 488.010465615836
23.63783 507.023561648541
23.65794 519.017486788925
23.67805 524.992612726865
23.69817 525.999619501824
23.71828 530.986067205582
23.73839 559.977277353558
23.75851 600.005090007588
23.77862 592.009293696802
23.79874 607.953078305852
23.81885 573.068864903766
23.83896 635.012405659392
23.85908 558.047714246359
23.87919 573.992585180673
23.8993 564
23.91942 580.980778218652
23.93953 529.95329203614
23.95965 534.009321567881
23.97976 538.914405642444
23.99987 582.047692097862
24.01999 495.023142660361
24.0401 514
24.06021 488.986352688
24.08033 485.013165929379
24.10044 501.056140390276
24.12056 524.009653893496
24.14067 493.049249826219
24.16078 489.965409918828
24.1809 519
24.20101 467.004647659819
24.22112 522.000038497525
24.24124 456.920770385534
24.26135 477.932315758476
24.28146 473.041528418294
24.30158 467.973797325452
24.32169 502.997323460576
24.34181 474.986693158299
24.36192 472.008668541278
24.38203 489.050677274745
24.40215 519.998697232893
24.42226 491.051255531562
24.44237 488.983994348583
24.46249 492.007067373583
24.4826 483
24.50272 520.988574310512
24.52283 472.98135968003
24.54294 508.04542997365
24.56306 497.013530402655
24.58317 515.957800325342
24.60328 530.007272468059
24.6234 528
24.64351 587.014903584152
24.66362 573.981056305652
24.68374 583.068308801869
24.70385 617.966609146511
24.72397 614.988558127029
24.74408 624.026003514603
24.76419 591.986052592568
24.78431 673.030234138144
24.80442 674.97775625943
24.82453 667.015936071154
24.84465 686.031695064615
24.86476 685.015318805009
24.88488 679.002977836374
24.90499 686.987244497091
24.9251 702
24.94522 643.968044479957
24.96533 649.000478251373
24.98544 629.977520736399
25.00556 630.023946035184
25.02567 601.040937948484
25.04579 596.988715336352
25.0659 609
25.08601 553.001457407373
25.10613 600.001099138636
25.12624 547.9574228569
25.14635 571.99788636241
25.16647 535.031022455804
25.18658 542.007804963129
25.20669 509.012803413322
25.22681 524.02825022955
25.24692 578.005547312817
25.26704 540.943648836785
25.28715 559.12716925959
25.30726 599.998855653678
25.32738 567.029664795967
25.34749 558.003648313202
25.3676 554
25.38772 591.025612139946
25.40783 596.004129082034
25.42795 609.042904056472
25.44806 620.993819746377
25.46817 618.99974571973
25.48829 623.997421209312
25.5084 618
25.52851 598.00621168426
25.54863 628.005947767511
25.56874 585.871028757192
25.58886 548.963122903314
25.60897 588.004261180458
25.62908 552.994790898522
25.6492 599
25.66931 558.977207508444
25.68942 531.967846850837
25.70954 493.960310241511
25.72965 513.856220992873
25.74976 572.949272001198
25.76988 557.030169534256
25.78999 547.989623396714
25.81011 572.99739863623
25.83022 554.017908099527
25.85033 584.954256450876
25.87045 518.998213720299
25.89056 597.856420609313
25.91067 607.036355907165
25.93079 584.008215914754
25.9509 574
25.97102 564.993956727461
25.99113 570.031272835365
26.01124 605.084365637244
26.03136 628.033269521084
26.05147 593.017583803465
26.07158 622.951662520582
26.0917 653
26.11181 621.979545317338
26.13193 620.101845867288
26.15204 713.082627755484
26.17215 686.090223227326
26.19227 692.935200987271
26.21238 745.957872909029
26.23249 762.002825470032
26.25261 769.024616757753
26.27272 835.026684954246
26.29283 825.016452692029
26.31295 873.107834074243
26.33306 920.795927334484
26.35318 1054.90901487014
26.37329 1100.96422905446
26.3934 1200
26.41352 1256.16889689916
26.43363 1532.390825051
26.45374 1793.7836818927
26.47386 2332.88219392914
26.49397 2935.83027513826
26.51409 3955.41906017042
26.5342 5255
26.55431 7123.16162330762
26.57443 9854.39973223477
26.59454 12668.973987516
26.61465 14747.6996616775
26.63477 15836.8864724209
26.65488 14697.1832736956
26.67499 12027.3566570544
26.69511 9553.84672164516
26.71522 7268.74543510066
26.73534 5073.92219033582
26.75545 3290.35288209491
26.77556 2145.73024774185
26.79568 1534.31747747122
26.81579 1384.06764177543
26.8359 1194
26.85602 1099.91296383075
26.87613 1003.90587222615
26.89625 960.808229677478
26.91636 843.219402457522
26.93647 784.01731878033
26.95659 770.031173649265
26.9767 683
26.99681 704.013546620647
27.01693 684.906811630602
27.03704 634.024834011832
27.05716 667.08229428912
27.07727 562.094099566792
27.09738 579.968112273593
27.1175 579
27.13761 579.01076023413
27.15772 583.942875859917
27.17784 511.007824223516
27.19795 581.912026135451
27.21806 553.038995953443
27.23818 569.993279650963
27.25829 530.037982971756
27.27841 490.029262570371
27.29852 586.009153122846
27.31863 510.95056681371
27.33875 558.099101959446
27.35886 564.929820876486
27.37897 609.042200786385
27.39909 521.026613384051
27.4192 536
27.43932 537.008546315194
27.45943 566.04858680308
27.47954 569.920474450854
27.49966 512.068000174779
27.51977 511.995173124542
27.53988 509.984845361937
27.56 538
27.58011 527.991953088705
27.60023 520.999999173016
27.62034 523.002395413479
27.64045 522.997081006438
27.66057 528.981989782685
27.68068 542.989536906008
27.70079 542.00751029177
27.72091 535.012904544264
27.74102 579.022293987962
27.76113 577.015370784723
27.78125 612.088491001987
27.80136 627.005630303237
27.82148 608.036293302686
27.84159 579.996118742722
27.8617 617
27.88182 620.986577508216
27.90193 606.987741530455
27.92204 607.008773234884
27.94216 590.119443300859
27.96227 513.06865485074
27.98239 513.992198438331
28.0025 521
28.02261 518.98534346426
28.04273 465.918787219595
28.06284 451.086295907225
28.08295 503.02048676993
28.10307 454.002395553623
28.12318 507.970875195291
28.1433 471
28.16341 448.023844923367
28.18352 502.968725541753
28.20364 409.927316360547
28.22375 458.108203789874
28.24386 444.070462177329
28.26398 425.997969243805
28.28409 443.986506058305
28.3042 456
28.32432 418.980262862927
28.34443 420.992613565787
28.36455 406.00142062629
28.38466 433.917612073894
28.40477 461.997649109544
28.42489 448.002726289192
28.445 466
28.46511 474.978641671756
28.48523 417.993133169312
28.50534 442.931754679345
28.52546 379.944219406026
28.54557 476.963416536224
28.56568 411.03220914695
28.5858 460
28.60591 468.995806545193
28.62602 460.983139209627
28.64614 431.930631020539
28.66625 409.991064431943
28.68636 434.940990651346
28.70648 435.046900689957
28.72659 384.995467673959
28.74671 440.012669943228
28.76682 412.972941971472
28.78693 411.999139993335
28.80705 407.028585582826
28.82716 427.99495042598
28.84727 409.023529512857
28.86739 404.005742108858
28.8875 387
28.90762 404.027667681629
28.92773 413.960835479097
28.94784 380.009950942187
28.96796 420.946408838391
28.98807 407.047724730554
29.00818 391.986040437125
29.0283 422
29.04841 415.987649687287
29.06853 402.027863745982
29.08864 443.062458888274
29.10875 446.030579441486
29.12887 423.063117228014
29.14898 385.00144213691
29.16909 412.991105366394
29.18921 404.995013736908
29.20932 407.004250710241
29.22943 412.02080770649
29.24955 430.022396423328
29.26966 420.051471264743
29.28978 395.01039013512
29.30989 418.967899294471
29.33 472
29.35012 406.966805409936
29.37023 430.036678019747
29.39034 422.96592949231
29.41046 417.984260079347
29.43057 418.043857356169
29.45069 384.994596952965
29.4708 433
29.49091 432.003365690781
29.51103 448.985224624751
29.53114 408.927461474727
29.55125 399.978032055491
29.57137 405.015918279962
29.59148 387.005033541886
29.6116 400
29.63171 422.023289230492
29.65182 469.00392662436
29.67194 441.994507387525
29.69205 472.041019463146
29.71216 471.947215662137
29.73228 516.987918229725
29.75239 497.998474450791
29.7725 543
29.79262 582.034623441142
29.81273 592.936099917694
29.83285 543.048069965874
29.85296 621.896193922152
29.87307 607.054460260637
29.89319 590.001061623266
29.9133 576
29.93341 532.010109630479
29.95353 580.972770056205
29.97364 492.870600404899
29.99376 504.899977265477
30.01387 528.046044091521
30.03398 476.013411547679
30.0541 499
30.07421 457.98479434389
30.09432 468.031722560792
30.11444 485.974100253149
30.13455 456.038879022003
30.15467 460.998953943264
30.17478 455.987217744314
30.19489 469.014012815437
30.21501 425.003481780967
30.23512 464.98837012611
30.25523 403.964859028252
30.27535 443.100302226605
30.29546 442.047423531966
30.31557 420.021107294369
30.33569 414.00182836306
30.3558 409
30.37592 399.978451866279
30.39603 384.023582580821
30.41614 417.019208409133
30.43626 397.030433673388
30.45637 411.945440259829
30.47648 438.007984462854
30.4966 410
30.51671 417.994549514947
30.53683 390.995602091026
30.55694 413.015901800821
30.57705 415.88643498234
30.59717 468.038745016458
30.61728 385.034055145286
30.63739 419.990776676343
30.65751 399.001075543625
30.67762 424.987995842775
30.69773 390.028261402619
30.71785 443.984122218057
30.73796 380.046374991562
30.75808 421.966337083727
30.77819 410.010937797015
30.7983 412
30.81842 424.97049254568
30.83853 395.064785196211
30.85864 468.976980370322
30.87876 384.058940917879
30.89887 437.943984755435
30.91899 416.012039551417
30.9391 420
30.95921 407.989474301713
30.97933 400.028887135571
30.99944 437.061545518825
31.01955 445.020356908589
31.03967 438.98859989368
31.05978 449.010400658389
31.0799 427
31.10001 449.008581947098
31.12012 448.998648985108
31.14024 455.012355925388
31.16035 453.028427054605
31.18046 445.975120774546
31.20058 483.94610529163
31.22069 537.976740262092
31.2408 549
31.26092 482.973089976554
31.28103 504.029315816363
31.30115 483.878678328076
31.32126 453.949166958167
31.34137 504.985245066804
31.36149 467.012767324483
31.3816 480
31.40171 461.969891245194
31.42183 398.972137266727
31.44194 423.037019603218
31.46206 411.03903863257
31.48217 403.000170389248
31.50228 408.98606142723
31.5224 420
31.54251 396.984996239423
31.56262 373.987677901226
31.58274 373.01544729482
31.60285 382.979521747937
31.62297 383.016089204839
31.64308 374.9891087527
31.66319 407.979164599298
31.68331 426.98879666129
31.70342 387.988207490782
31.72353 412.037501130776
31.74365 415.988127928028
31.76376 418.970435356311
31.78387 436.987614629025
31.80399 431.005943900822
31.8241 418
31.84422 405.003876860891
31.86433 426.038807537547
31.88444 437.982151041887
31.90456 428.962576232343
31.92467 456.018224059372
31.94478 416.008604763548
31.9649 454
31.98501 473.00859935029
32.00513 486.983967252974
32.02524 462.991086588916
32.04535 481.966300515824
32.06547 459.09202634084
32.08558 407.98875678309
32.10569 473.969602404364
32.12581 485.989208713279
32.14592 448.950894651311
32.16604 409.982381268136
32.18615 421.002617782884
32.20626 410.984869428926
32.22638 430.004471643945
32.24649 406.002246567906
32.2666 432
32.28672 438.98953277229
32.30683 431.015787842624
32.32694 441.954758573976
32.34706 401.018595938165
32.36717 433.945674774608
32.38729 448.99611944656
32.4074 457
32.42751 456.003701574026
32.44763 478.04752809776
32.46774 503.012265515789
32.48785 491.043335905251
32.50797 488.967828535384
32.52808 510.011881659685
32.5482 484
32.56831 516.9936623541
32.58842 457.961586365343
32.60854 479.106390879296
32.62865 499.129753126701
32.64876 415.073248503369
32.66888 448.951541582453
32.68899 457.015951860688
32.7091 414
32.72922 425.037225741829
32.74933 457.006974410325
32.76945 433.927008246622
32.78956 417.014055338635
32.80967 424.95400559735
32.82979 453.004161632481
32.8499 415
32.87001 419.007686018444
32.89013 436.042511879437
32.91024 463.005271336495
32.93036 445.02384833865
32.95047 445.012825242144
32.97058 434.983670627718
32.9907 467
33.01081 459.010182140729
33.03092 511.041247188652
33.05104 513.957267766007
33.07115 496.993725323208
33.09127 502.036512905263
33.11138 459.018361751362
33.13149 472.994467945697
33.15161 456.984070675412
33.17172 436.00597432129
33.19183 449.980712522655
33.21195 429.061210391938
33.23206 479.991296175156
33.25217 443.996170732461
33.27229 492.98808610781
33.2924 461
33.31252 439.003456328838
33.33263 453.014201498064
33.35274 461.048644526764
33.37286 488.004969256392
33.39297 457.039793854939
33.41308 454.990004920752
33.4332 464
33.45331 461.990661882184
33.47343 438.989037542379
33.49354 452.036475978523
33.51365 453.059408886339
33.53377 420.027953829517
33.55388 430.967521593783
33.57399 456.001950073455
33.59411 441.006546089247
33.61422 480.023274919389
33.63434 462.918545840196
33.65445 424.938494409067
33.67456 420.972212165154
33.69468 434.004002489385
33.71479 404.024261621185
33.7349 382
33.75502 452.019978139748
33.77513 415.96741583059
33.79524 430.002992894562
33.81536 410.998162254279
33.83547 423.038932551092
33.85559 372.00658328326
33.8757 416
33.89581 436.988247105278
33.91593 402.996348747899
33.93604 420.971444846253
33.95615 382.999958440274
33.97627 423.965225166414
33.99638 406.023913899759
34.0165 400
34.03661 392.990878952679
34.05672 369.982573813885
34.07684 375.068683790926
34.09695 413.97225994998
34.11706 409.949210455846
34.13718 449.008530560087
34.15729 397.014919291523
34.17741 402.9952363918
34.19752 371.993213598938
34.21763 407.07325317509
34.23775 438.020951327431
34.25786 426.051206202862
34.27797 412.970811337605
34.29809 444.997890476519
34.3182 413
34.33831 408.015250738209
34.35843 438.987770596426
34.37854 402.973767056466
34.39866 423.968558810102
34.41877 427.962879215256
34.43888 469.977570918903
34.459 459
34.47911 463.021946484828
34.49922 519.025351806623
34.51934 526.085352150784
34.53945 582.020702943078
34.55957 511.08163269669
34.57968 526.938447947005
34.59979 583.98703653085
34.61991 585.00399289071
34.64002 588.957071680935
34.66013 528.994627088531
34.68025 586.121976879446
34.70036 581.07290118937
34.72047 561.962235001744
34.74059 601.002454358001
34.7607 561
34.78082 603.04461072134
34.80093 624.026846509469
34.82104 647.030325437172
34.84116 650.002047288494
34.86127 661.949652108335
34.88138 708.957286549532
34.9015 751
34.92161 823.02620705485
34.94173 844.009856279348
34.96184 865.093485119181
34.98195 901.058856072599
35.00207 839.04539103179
35.02218 868.951251053611
35.04229 892.003286051124
35.06241 859.975378493629
35.08252 824.000615579825
35.10264 839.97433217342
35.12275 773.752284654666
35.14286 703.992400954034
35.16298 754.972082555452
35.18309 721.032293180577
35.2032 681
35.22332 708.990175520215
35.24343 667.985953659932
35.26354 696.01758325255
35.28366 672.027392714051
35.30377 676.020370906203
35.32389 641.012164593895
35.344 640
35.36411 621.976928127157
35.38423 575.985205752888
35.40434 610.100319459807
35.42445 640.992604668851
35.44457 619.053136787344
35.46468 592.007455467477
35.4848 599
35.50491 601.006296099743
35.52502 619.003920845248
35.54514 603.961158466761
35.56525 594.994448521336
35.58536 598.014471077237
35.60548 584.005996811502
35.62559 582.008284696288
35.64571 556.99587078367
35.66582 576.031790293764
35.68593 589.969315990782
35.70605 556.982931433684
35.72616 581.952349944587
35.74627 584.011983111611
35.76639 566.019779359653
35.7865 532
35.80661 577.014061887253
35.82673 566.971222517152
35.84684 568.04375340915
35.86696 580.058911847029
35.88707 539.981586767442
35.90718 599.960397156508
35.9273 596
35.94741 596.982435977422
35.96752 554.018461282118
35.98764 605.97662004399
36.00775 537.055361070518
36.02787 571.006076927524
36.04798 527.988248109661
36.06809 577.012672782393
36.08821 491.991242583603
36.10832 557.036041128877
36.12843 520.939329115574
36.14855 519.031315646532
36.16866 521.019232129898
36.18878 498.036749620717
36.20889 481.979883027075
36.229 542
36.24912 494.970656853897
36.26923 517.054110977876
36.28934 541.044660189575
36.30946 561.982676667916
36.32957 577.920281124456
36.34968 647.964800553817
36.3698 650
36.38991 713.037010564146
36.41003 788.141983816512
36.43014 902.223431470871
36.45025 1002.75312662458
36.47037 1122.7729881993
36.49048 1311.78203101596
36.51059 1520.91763824871
36.53071 1587.97353829749
36.55082 1447.82883973078
36.57094 1305.79176322857
36.59105 1207.67855106018
36.61116 1072.15709499099
36.63128 1033.07801350831
36.65139 875.098611494011
36.6715 709
36.69162 656.946983933819
36.71173 577.881490328964
36.73184 543.058011887373
36.75196 583.044264993962
36.77207 518.023010660673
36.79219 563.986874506918
36.8123 542
36.83241 556.011022182021
36.85253 553.948377503397
36.87264 512.974260701477
36.89275 530.957063416438
36.91287 533.989737924178
36.93298 547.993822254596
36.9531 534
36.97321 512.006195823113
36.99332 541.002873245862
37.01344 515.975837827632
37.03355 522.027834671944
37.05366 499.982025637
37.07378 528.007263745717
37.09389 486.010775180911
37.11401 494.997434032117
37.13412 475.009160806415
37.15423 504.997713394003
37.17435 465.924454407085
37.19446 465.987678731143
37.21457 467.982451547904
37.23469 485.996672943848
37.2548 473
37.27491 455.998645700035
37.29503 452.961717146658
37.31514 424.018351469605
37.33526 472.903908734984
37.35537 474.078692416123
37.37548 409.028888259135
37.3956 439
37.41571 490.008698216736
37.43582 477.983451395605
37.45594 467.966277930105
37.47605 449.006051310818
37.49617 467.960070627389
37.51628 486.990665277804
37.53639 491.996133660149
37.55651 495.99328828201
37.57662 478.004151658976
37.59673 493.986398603242
37.61685 478.080134614334
37.63696 532.011637819962
37.65708 484.988166862007
37.67719 551.991043548417
37.6973 498
37.71742 509.031923327323
37.73753 533.031901712144
37.75764 538.944917256364
37.77776 515.923780059237
37.79787 575.025933148735
37.81798 477.084679419034
37.8381 460
37.85821 464.999255794185
37.87833 464.008012509674
37.89844 472.002108937265
37.91855 469.979271950398
37.93867 475.037948087795
37.95878 437.005397297217
37.97889 468.985611685319
37.99901 464.986938174717
38.01912 451.022044541058
38.03924 491.03131605439
38.05935 475.973960406621
38.07946 478.02536404724
38.09958 462.977545779966
38.11969 503.99984853606
38.1398 456
38.15992 446.004368147048
38.18003 444.991153363248
38.20015 458.13793479702
38.22026 521.970731470898
38.24037 492.019206854656
38.26049 518.986305304481
38.2806 528
38.30071 553.015722531337
38.32083 569.983289577257
38.34094 528.88242815477
38.36105 502.884219343682
38.38117 571.001549022243
38.40128 499.053555974684
38.4214 512
38.44151 536.00404540429
38.46162 528.979388429772
38.48174 503.957598735218
38.50185 491.019521693482
38.52196 480.037948839731
38.54208 452.032612182495
38.56219 447.973057119614
38.58231 518.006923983472
38.60242 476.977082881598
38.62253 492.000607282567
38.64265 461.940796527363
38.66276 463.978327272586
38.68287 468.997999917181
38.70299 455.021494835672
38.7231 408
38.74321 437.017386254956
38.76333 453.009838228201
38.78344 459.009293012078
38.80356 461.002584042639
38.82367 442.075269304539
38.84378 395.991846007537
38.8639 445
38.88401 423.985322083924
38.90412 411.992793927101
38.92424 413.050816287565
38.94435 448.960684309007
38.96447 447.97617064407
38.98458 471.01369646565
39.00469 438.993887504657
39.02481 490.010666448589
39.04492 465.982852476742
39.06503 478.017365063117
39.08515 480.03147135763
39.10526 498.998665819243
39.12538 478.021325586082
39.14549 474.99350544626
39.1656 502
39.18572 526.978298462264
39.20583 481.978941984629
39.22594 510.054904060407
39.24606 520.959172147391
39.26617 563.92239082827
39.28628 618.934896762602
39.3064 671
39.32651 648.997858955015
39.34663 718.225754835223
39.36674 897.285890068753
39.38685 1021.54291242777
39.40697 1227.8329545049
39.42708 1251.94097041285
39.44719 1358.97833284542
39.46731 1281.92868404716
39.48742 1117.80781540437
39.50754 938.775134931108
39.52765 894.942670222632
39.54776 848.133312498025
39.56788 782.047115738647
39.58799 713.073954303797
39.6081 534
39.62822 525.994927307563
39.64833 471.904333997943
39.66845 435.979189162847
39.68856 439.996594869951
39.70867 437.988737962166
39.72879 448.003968562788
39.7489 428
39.76901 435.997193740675
39.78913 406.947901887649
39.80924 393.032619095298
39.82935 432.883318972521
39.84947 457.018520603247
39.86958 423.026849842269
39.8897 426
39.90981 445.993435999373
39.92992 418.001444822403
39.95004 454.062811352748
39.97015 461.989843320304
39.99026 469.006233221946
40.01038 453.018325307261
40.03049 455.98119884866
40.05061 499.002543060957
40.07072 484.025551571644
40.09083 545.045358488697
40.11095 540.050994679947
40.13106 599.896296122015
40.15117 616.997710159328
40.17129 643.963282458991
40.1914 725
40.21152 713.024692270625
40.23163 811.197107462015
40.25174 906.05137626362
40.27186 890.991187328604
40.29197 907.06053452178
40.31208 801.111107059567
40.3322 728
40.35231 691.991991064445
40.37242 683.982324490557
40.39254 654.952436011159
40.41265 616.223385503847
40.43277 511.071692331176
40.45288 520.006498316937
40.47299 469.025724798601
40.49311 445.995701604995
40.51322 444.011208314874
40.53333 450.968034502106
40.55345 422.020680671036
40.57356 458.975928529113
40.59368 438.008824096124
40.61379 450.001825813581
40.6339 427
40.65402 437.002271445655
40.67413 436.040633910379
40.69424 467.964042147137
40.71436 419.011296234202
40.73447 460.970025809322
40.75458 432.03520098206
40.7747 432
40.79481 470.00579239996
40.81493 461.008917760874
40.83504 479.989269930667
40.85515 443.094622990266
40.87527 425.010707473078
40.89538 436.951643546004
40.91549 481.009639837905
40.93561 429.002571328989
40.95572 484.007872965612
40.97584 424.902199301943
40.99595 432.082591657689
41.01606 461.946171356984
41.03618 478.003798453319
41.05629 465.999839298432
41.0764 468
41.09652 432.007762869266
41.11663 464.981363116487
41.13675 429.08196150697
41.15686 507.981075648918
41.17697 433.08863479357
41.19709 441.985213441915
41.2172 453
41.23731 448.994905280385
41.25743 433.975471824392
41.27754 432.049874249777
41.29765 464.977723784548
41.31777 448.019504418618
41.33788 452.992769185788
41.358 445
41.37811 418.995397923924
41.39822 426.005020697143
41.41834 423.002061597236
41.43845 426.02273944871
41.45856 415.971050640638
41.47868 443.99534358472
41.49879 420.010519102005
41.51891 418.000935150172
41.53902 417.004576197341
41.55913 420.983178699513
41.57925 394.936209395787
41.59936 390.952498151788
41.61947 421.983236868138
41.63959 414.998309964308
41.6597 436
41.67982 433.984960055937
41.69993 412.961573537291
41.72004 393.996267107428
41.74016 412.934272118315
41.76027 437.99765532637
41.78038 425.003113016799
41.8005 430
41.82061 397.987388373456
41.84072 401.027479778093
41.86084 432.033665552165
41.88095 428.035570288695
41.90107 420.989188190477
41.92118 436.98784846658
41.94129 430.014451456755
41.96141 413.015963204227
41.98152 470.020686716755
42.00163 441.957433870307
42.02175 441.016028954434
42.04186 439.012372496525
42.06198 434.999585270704
42.08209 446.985814475579
42.1022 463
42.12232 407.976750708794
42.14243 432.046685642676
42.16254 447.030193998553
42.18266 470.950867822123
42.20277 483.009246214469
42.22289 468.004359973323
42.243 470
42.26311 483.022293476146
42.28323 554.105347697487
42.30334 611.112934531577
42.32345 664.913675790537
42.34357 703.876544946516
42.36368 823.889469527361
42.38379 907.957695005606
42.40391 1010.05312333038
42.42402 1089.03060494346
42.44414 1066.88233083328
42.46425 988.764885620068
42.48436 880.243330818283
42.50448 773.062524662103
42.52459 756.997829899367
42.5447 737
42.56482 640.898853072485
42.58493 552.876663953128
42.60505 484.911247056676
42.62516 461.099351781496
42.64527 400.028501039688
42.66539 433.9776702765
42.6855 445
42.70561 399.977712624734
42.72573 387.046011918868
42.74584 428.011278271007
42.76595 386.139496995419
42.78607 380.883818177713
42.80618 471.000825834705
42.8263 387
42.84641 413.025220615862
42.86652 433.994088808227
42.88664 420.994051900646
42.90675 424.029856776845
42.92686 395.053444709449
42.94698 381.009601278987
42.96709 377.992829267446
42.98721 403.008921540403
43.00732 396.970917577908
43.02743 372.008900392578
43.04755 400.036255242251
43.06766 384.056103978279
43.08777 361.02792836672
43.10789 358.986076425738
43.128 391
43.14812 358.985427015004
43.16823 380.043478963685
43.18834 385.958225634617
43.20846 365.974359564905
43.22857 394.009516890963
43.24868 355.019976443866
43.2688 373
43.28891 373.991489209952
43.30902 363.014844190041
43.32914 386.992996457029
43.34925 352.083459483649
43.36937 342.991136610164
43.38948 359.966509639635
43.40959 391.996836768078
43.42971 368.984075635497
43.44982 350.998746586838
43.46993 363.028553807685
43.49005 367.939428914295
43.51016 336.005188089041
43.53028 366.968181362525
43.55039 374.00562374755
43.5705 362
43.59062 368.000122291888
43.61073 354.970355866147
43.63084 344.014638451728
43.65096 362.971583647438
43.67107 364.006926405889
43.69119 367.990396830906
43.7113 391
43.73141 377.988631510413
43.75153 359.985131553007
43.77164 351.969618040824
43.79175 351.883574815568
43.81187 405.019641178423
43.83198 343.020559726463
43.85209 374.997240904726
43.87221 335.988854298233
43.89232 362.045037522774
43.91244 383.970650338771
43.93255 361.026141565874
43.95266 390.018423123487
43.97278 349.009487915403
43.99289 385.98246988583
44.013 393
44.03312 386.965517068648
44.05323 343.986470030279
44.07335 371.057738313405
44.09346 376.97022873626
44.11357 401.985511316804
44.13369 384.016227090051
44.1538 361
44.17391 372.002644873304
44.19403 369.007313542565
44.21414 372.956445731088
44.23426 343.984477136213
44.25437 392.924131552136
44.27448 399.045775927997
44.2946 340
44.31471 361.016983117004
44.33482 380.008886661466
44.35494 378.968298984396
44.37505 364.975574965361
44.39516 384.016470125457
44.41528 352.015299322469
44.43539 373.980258252532
44.45551 392.989836073376
44.47562 352.979084109419
44.49573 359.003971380816
44.51585 363.100523163745
44.53596 405.052437449523
44.55607 327.064520940879
44.57619 349.983164926527
44.5963 366
44.61642 395.00198566381
44.63653 371.97770920901
44.65664 380.025681121064
44.67676 375.054793874658
44.69687 347.002565885809
44.71698 371.974951448719
44.7371 376
44.75721 368.005308996843
44.77732 383.993315566902
44.79744 351.936449418877
44.81755 356.867518522649
44.83767 411.006329722636
44.85778 355.041613141405
44.87789 359.990849623679
44.89801 362.996123975579
44.91812 372.048588051611
44.93823 429.015765619392
44.95835 392.929181435139
44.97846 398.973297416217
44.99858 392.027919911891
45.01869 367.997055728382
45.0388 386
45.05892 354.006922320505
45.07903 400.042007035014
45.09914 388.970501690017
45.11926 394.968076283244
45.13937 410.975179480113
45.15949 429.988840447896
45.1796 442
45.19971 412.990068447721
45.21983 420.040746828702
45.23994 447.025478496213
45.26005 442.03111419763
45.28017 438.980299294254
45.30028 459.986478959088
45.32039 465.99328831846
45.34051 484.002194677794
45.36062 475.998821892929
45.38074 494.060544359928
45.40085 512.976236716175
45.42096 479.073547832227
45.44108 468.97444984168
45.46119 491.014884156499
45.4813 449
45.50142 533.019110167534
45.52153 470.932073148568
45.54165 491.092694836272
45.56176 497.050850952592
45.58187 469.001803576518
45.60199 481.008880326646
45.6221 453
45.64221 528.029938236601
45.66233 540.997757041323
45.68244 578.191167473261
45.70256 698.821110738177
45.72267 742.943380001852
45.74278 788.971762541059
45.7629 801
45.78301 816.982551302078
45.80312 740.937803980111
45.82324 700.874999490557
45.84335 622.105528752583
45.86346 611.073098142548
45.88358 558.999333098586
45.90369 596.005571259688
45.92381 518.96233866137
45.94392 498.020124123815
45.96403 507.943009114445
45.98415 436.873649829221
46.00426 424.020205682267
46.02437 412.970472173276
46.04449 444.00459913219
46.0646 409
46.08472 446.997060576662
46.10483 389.924145938841
46.12494 382.02291988155
46.14506 388.002449590941
46.16517 379.023366712804
46.18528 369.990175504813
46.2054 387
46.22551 370.996482434108
46.24563 388.046730884415
46.26574 406.979669440204
46.28585 380.035518292964
46.30597 392.962037632271
46.32608 399.030346096604
46.34619 360.001128007561
46.36631 392.009167546886
46.38642 384.000438275323
46.40653 401.010295787467
46.42665 387.959762596757
46.44676 384.980425821329
46.46688 393.00805696763
46.48699 373.006648411789
46.5071 380
46.52722 385.962345895392
46.54733 328.963704818199
46.56744 352.066654026151
46.58756 367.985765788756
46.60767 390.91860481482
46.62779 434.013686628124
46.6479 360
46.66801 379.005854825068
46.68813 366.012229312125
46.70824 395.00732337443
46.72835 376.975003012291
46.74847 405.020869257066
46.76858 354.022682965629
46.78869 376.989565611042
46.80881 372.997971320258
46.82892 379.0013854243
46.84904 377.020895898183
46.86915 399.041687098427
46.88926 398.028960049436
46.90938 377.024437491099
46.92949 365.991646020459
46.9496 393
46.96972 381.00696493016
46.98983 406.008695522002
47.00995 388.983891285431
47.03006 392.043219330376
47.05017 351.030603037854
47.07029 367.984330702067
47.0904 381
47.11051 352.992900521389
47.13063 351.978582119267
47.15074 331.01108550103
47.17086 362.950664217025
47.19097 359.031289667022
47.21108 350.976987392455
47.2312 392
47.25131 384.984954281773
47.27142 363.006693921004
47.29154 389.03072944914
47.31165 377.065629176143
47.33176 363.96993004211
47.35188 392.986419715827
47.37199 382.00777048931
47.39211 383.009378002756
47.41222 398.991247180764
47.43233 366.952530733489
47.45245 359.040221621398
47.47256 385.952405493814
47.49267 392.019544219988
47.51279 372.006663226594
47.5329 363
47.55302 357.049602230965
47.57313 421.997173874734
47.59324 361.944630834578
47.61336 391.954180719546
47.63347 375.037759314946
47.65358 362.011757691352
47.6737 352
47.69381 372.013705708488
47.71393 382.968901653682
47.73404 357.021233497066
47.75415 390.002357133729
47.77427 358.005818591906
47.79438 391.977806010996
47.81449 383.005085654118
47.83461 387.001780998606
47.85472 375.974970230677
47.87483 362.032938271627
47.89495 399.015022750465
47.91506 359.109356830271
47.93518 326.004884283825
47.95529 346.980888358469
47.9754 370
47.99552 343.016797940362
48.01563 400.059030376548
48.03574 390.937461853236
48.05586 368.019190154686
48.07597 365.01146679045
48.09609 353.002276407924
48.1162 348
48.13631 323.007324462326
48.15643 376.074974764112
48.17654 389.970311073686
48.19665 363.072895841727
48.21677 343.012779056321
48.23688 340.005508876296
48.257 339
48.27711 371.011748072047
48.29722 377.000759473892
48.31734 375.976732213382
48.33745 369.054697942905
48.35756 402.990852010931
48.37768 378.013524275201
48.39779 393.988701331078
48.4179 401
48.43802 372.9476078957
48.45813 339.049163699522
48.47825 404.035374692208
48.49836 360.053414748692
48.51847 381.959329857814
48.53859 380.01099726478
48.5587 356
48.57881 368.026440099261
48.59893 429.034560774304
48.61904 406.941936846078
48.63916 395.016484193399
48.65927 380.027493718584
48.67938 374.978162364896
48.6995 405
48.71961 383.991612253498
48.73972 389.013960589704
48.75984 388.951584844613
48.77995 365.964333528636
48.80006 411.928377928663
48.82018 406.037857472989
48.84029 368.007778087646
48.86041 375.003733857476
48.88052 376.009524430653
48.90063 392.007833330929
48.92075 375.923561314867
48.94086 353.992386964314
48.96097 385.93192950743
48.98109 401.022531948194
49.0012 343
49.02132 400.015204848219
49.04143 358.969792856689
49.06154 385.041815831495
49.08166 376.02536027883
49.10177 382.964334387178
49.12188 391.037705211256
49.142 344
49.16211 401.011976315215
49.18223 375.983046716028
49.20234 396.013226000004
49.22245 382.985654405731
49.24257 411.972913497122
49.26268 400.027096751627
49.28279 381.999584380195
49.30291 393.001403601232
49.32302 387.002824992292
49.34313 396.996817291644
49.36325 376.939184343626
49.38336 365.985988598993
49.40348 375.009509735444
49.42359 352.00533310175
49.4437 375
49.46382 421.007996780585
49.48393 385.92267508935
49.50404 358.020469733749
49.52416 391.94348731977
49.54427 406.965996658094
49.56439 425.010246201509
49.5845 378
49.60461 385.004887625097
49.62473 386.017901864873
49.64484 411.040444939334
49.66495 413.030630660826
49.68507 403.988265731259
49.70518 424.983352357167
49.7253 428
49.74541 417.986694833724
49.76552 389.99573583001
49.78564 427.141530091619
49.80575 477.959672656963
49.82586 435.959121347504
49.84598 514.955159409329
49.86609 490.019213243639
49.8862 509
49.90632 611.03547685885
49.92643 580.972382394778
49.94655 636.283223625669
49.96666 737.93400717965
49.98677 761.805773543811
50.00689 986.904320872051
50.027 1115
50.04711 1335.10614194829
50.06723 1520.301446557
50.08734 1728.31423120327
50.10746 1826.82952083131
50.12757 1874.09562860327
50.14768 1664.31570349454
50.1678 1353
50.18791 1206.93200216039
50.20802 1089.98707726931
50.22814 1149.02989790711
50.24825 1085.15336071182
50.26837 1033.17312249119
50.28848 854.166021292789
50.30859 719.078957417686
50.32871 542.93472289855
50.34882 475.954988575227
50.36893 428.955488741961
50.38905 419.991785162168
50.40916 414.003768055945
50.42927 412.019488812993
50.44939 405.984974639449
50.4695 441
50.48962 381.981351849089
50.50973 422.058493067264
50.52984 422.969650593347
50.54996 414.004262078853
50.57007 415.000076906457
50.59018 404.027475874476
50.6103 385
50.63041 421.99959446427
50.65053 387.98746556828
50.67064 417.039309254769
50.69075 403.063365124909
50.71087 386.016154328314
50.73098 380.997306573223
50.75109 396.983611218791
50.77121 424.998730749283
50.79132 387.950398187773
50.81143 351.974616957427
50.83155 357.062371762931
50.85166 389.93955563009
50.87178 403.008903187667
50.89189 390.995757859236
50.912 404
50.93212 359.98747964856
50.95223 387.03255783186
50.97234 378.964446615249
50.99246 376.96103485102
51.01257 398.005090446297
51.03269 371.011794242102
51.0528 367
51.07291 362.989389581644
51.09303 351.047945025051
51.11314 395.984190149542
51.13325 343.059819721962
51.15337 367.969752604877
51.17348 361.002941809943
51.1936 363
51.21371 334.00793093151
51.23382 383.019728573554
51.25394 357.953292164077
51.27405 366.935398859429
51.29416 378.040515669995
51.31428 345.010162787874
51.33439 357.000944233988
51.3545 343
51.37462 374.005438673382
51.39473 343.953822401262
51.41485 342.055895390748
51.43496 362.009941571061
51.45507 338.02186684829
51.47519 339.002745278351
51.4953 337
51.51541 386.005767710892
51.53553 358.978836611718
51.55564 376.030634896227
51.57576 371.022575925094
51.59587 356.044766925361
51.61598 324.009536953226
51.6361 340
51.65621 352.006369128106
51.67632 360.99163747782
51.69644 355.059371827631
51.71655 399.98556184954
51.73667 362.048064262093
51.75678 353.017959874844
51.77689 325.003255105677
51.79701 346.011514951453
51.81712 359.015826800932
51.83723 377.009320806099
51.85735 367.965151137423
51.87746 357.020008224
51.89757 347.012833027008
51.91769 342.000283508002
51.9378 341
51.95792 346.040970377742
51.97803 385.96640432416
51.99814 325.977016176888
52.01826 375.923689006939
52.03837 366.032980856233
52.05848 357.006890085785
52.0786 358
52.09871 384.993887475972
52.11883 339.954152755491
52.13894 347.0427151168
52.15905 363.958550790323
52.17917 376.997576538532
52.19928 371.999076351323
52.21939 379.998195975838
52.23951 379.002780746099
52.25962 379.974140223646
52.27974 345.99866206758
52.29985 369.997602633327
52.31996 353.943605228467
52.34008 407.001504446091
52.36019 349.01841457188
52.3803 365
52.40042 357.97008907792
52.42053 331.996630161136
52.44064 352.042378981079
52.46076 357.015867184762
52.48087 347.006726405789
52.50099 353.99157359089
52.5211 363
52.54121 336.996614065089
52.56133 356.032190350795
52.58144 366.01482539207
52.60155 377.964073470106
52.62167 380.034821373632
52.64178 348.010889805476
52.6619 371
52.68201 390.990056966202
52.70212 362.012888193019
52.72224 406.026529357835
52.74235 375.067479520274
52.76246 380.959789241674
52.78258 389.011703306846
52.80269 378.989587304232
52.8228 420
52.84292 404.973380615128
52.86303 394.012151482406
52.88315 405.993159752058
52.90326 391.012159724329
52.92337 399.986173163176
52.94349 396.00791686462
52.9636 384
52.98371 412.019002969089
53.00383 429.968203814082
53.02394 400.021590248503
53.04406 442.966930538187
53.06417 422.017330355607
53.08428 440.976437381135
53.1044 442
53.12451 403.978997238269
53.14462 386.023924985791
53.16474 415.964330885409
53.18485 360.074583733348
53.20497 378.959567947112
53.22508 401.952692182777
53.24519 446.008145104525
53.26531 378.974708378322
53.28542 389.04871273936
53.30553 432.020958841149
53.32565 415.939340137547
53.34576 402.012565514476
53.36587 399.001689478598
53.38599 393.008040981035
53.4061 391
53.42622 448.01375422044
53.44633 412.953099589133
53.46644 417.037994779207
53.48656 428.000029275816
53.50667 421.010710944446
53.52678 419.995320718784
53.5469 426
53.56701 425.999977260202
53.58713 432.02219669572
53.60724 438.959276529418
53.62735 407.019433496748
53.64747 428.967396712119
53.66758 424.028371155301
53.68769 413.976474871437
53.70781 484.009521426253
53.72792 444.969095228394
53.74804 451.01245554195
53.76815 435.947336777051
53.78826 425.993009077824
53.80838 431.007691812941
53.82849 423.989325221445
53.8486 460
53.86872 443.000294067357
53.88883 466.012178560168
53.90894 444.945965139001
53.92906 437.967216288279
53.94917 452.026259561541
53.96929 424.992455133848
53.9894 461
54.00951 409.000750966114
54.02963 455.992816292557
54.04974 396.962574277281
54.06985 435.950559573815
54.08997 420.983077951548
54.11008 467.969594598537
54.1302 451
54.15031 430.01455282874
54.17042 479.01042758507
54.19054 433.881665854269
54.21065 403.993252675877
54.23076 436.884783955421
54.25088 471.033264667363
54.27099 397.021800622728
54.29111 414.018710480917
54.31122 441.02517918924
54.33133 450.958359039511
54.35145 402.930570674931
54.37156 419.907522971804
54.39167 464.958305891749
54.41179 474.99654163094
54.4319 470
54.45201 419.99549656428
54.47213 465.092647939494
54.49224 484.911462394664
54.51236 420.037131103364
54.53247 450.973587132656
54.55258 441.986038707264
54.5727 490
54.59281 496.989489458739
54.61292 474.99651636391
54.63304 484.99841032971
54.65315 477.961178606252
54.67327 519.9355384583
54.69338 542.993368620239
54.71349 563.969052551674
54.73361 641.019079187094
54.75372 641.015174622968
54.77383 703.12967321012
54.79395 785.17228898684
54.81406 836.925908043832
54.83417 868.950723698462
54.85429 892.002134337337
54.8744 843
54.89452 737.91788706779
54.91463 681.912008816532
54.93474 637.030675336183
54.95486 697.910820305582
54.97497 687.067330568205
54.99508 652.9992003595
55.0152 678
55.03531 650.96735808657
55.05543 569.886156191036
55.07554 506.878254357937
55.09565 467.961795167554
55.11577 512.973131677342
55.13588 497.997162598732
55.15599 535.980368487154
55.17611 561.014088171742
55.19622 578.976375153538
55.21634 543.025057682369
55.23645 596.062020979868
55.25656 576.026667442171
55.27668 600.956660951482
55.29679 632.994983662447
55.3169 619
55.33702 583.962407435177
55.35713 542.929744815199
55.37724 518.056075678168
55.39736 561.023477164938
55.41747 492.088368108994
55.43759 493.97641920257
55.4577 534
55.47781 502.998933336473
55.49793 517.947949206527
55.51804 439.904859418555
55.53815 442.996690500141
55.55827 420.025578492918
55.57838 425.983937646219
55.5985 439
55.61861 453.013320024674
55.63872 465.964519018887
55.65884 408.96764760341
55.67895 450.862282529147
55.69906 464.08025930512
55.71918 421.980670398652
55.73929 487.982928995462
55.75941 461.981809481656
55.77952 454.010028867748
55.79963 450.945097554772
55.81975 409.004909379066
55.83986 451.936803318833
55.85997 446.027222829376
55.88009 441.994408220824
55.9002 453
55.92031 434.995447669492
55.94043 437.99611360869
55.96054 434.032887028448
55.98066 459.995386780131
56.00077 432.04770981373
56.02088 424.979608640449
56.041 451
56.06111 432.988122649598
56.08122 418.992720593997
56.10134 400.914586212417
56.12145 369.920241525984
56.14157 437.961691492614
56.16168 401.041140618234
56.18179 391.000651168313
56.20191 386.000778198538
56.22202 388.98911778375
56.24213 372.000200511094
56.26225 395.071097289978
56.28236 407.019070475428
56.30248 397.981524922322
56.32259 426.003886263102
56.3427 394
56.36282 430.016555145495
56.38293 420.015627198036
56.40304 431.895625103727
56.42316 357.972643108454
56.44327 447.931397758009
56.46338 411.037900616381
56.4835 422
56.50361 437.001352881515
56.52373 433.99520461788
56.54384 423.942481206473
56.56395 395.987570162949
56.58407 430.955210836336
56.60418 426.034755810466
56.62429 387.011020035753
56.64441 397.018154579927
56.66452 430.005132609546
56.68464 411.97561790965
56.70475 406.937700372841
56.72486 374.002757754587
56.74498 396.999185733559
56.76509 378.993430437054
56.7852 422
56.80532 409.994750939834
56.82543 419.990965754613
56.84554 397.986754007156
56.86566 410.988815185227
56.88577 405.987879233753
56.90589 421.004094275198
56.926 396
56.94611 413.002408138943
56.96623 399.996651663231
56.98634 418.038426411112
57.00645 423.015031930071
57.02657 411.024187002821
57.04668 398.004096110803
57.0668 400
57.08691 391.993846874492
57.10702 390.019785803446
57.12714 416.009681644582
57.14725 404.986102973312
57.16736 426.988635317913
57.18748 405.028036193661
57.20759 389.003468384329
57.22771 395.012959562184
57.24782 420.998779629609
57.26793 389.945795752696
57.28805 376.028919149403
57.30816 389.026071758256
57.32827 362.997441810091
57.34839 394.988076540751
57.3685 392
57.38861 393.006177418818
57.40873 401.986411464723
57.42884 384.99978873666
57.44896 395.022765453623
57.46907 369.99871844466
57.48918 400.974367543115
57.5093 396
57.52941 382.010277023997
57.54952 415.000245557984
57.56964 381.956588449061
57.58975 384.014510575832
57.60987 368.990527609328
57.62998 393.98976754704
57.65009 385.99820283251
57.67021 401.999606765893
57.69032 382.990521624181
57.71043 384.982028801513
57.73055 360.979095992647
57.75066 376.957020546568
57.77078 385.00603269007
57.79089 382.98969272879
57.811 410
57.83112 378.974929436109
57.85123 378.010161254619
57.87134 377.989943121724
57.89146 379.961593321894
57.91157 399.01369900407
57.93168 372.006332852786
57.9518 397
57.97191 394.980768385971
57.99203 350.982321880106
58.01214 362.980681827226
58.03225 330.03008169243
58.05237 353.953512291717
58.07248 367.998525173759
58.09259 361.007963621272
58.11271 346.99979339319
58.13282 361.017627660535
58.15294 364.967129770907
58.17305 340.970669700076
58.19316 352.945092126587
58.21328 378.98475224273
58.23339 379.005383207545
58.2535 363
58.27362 353.012837547896
58.29373 376.011171077635
58.31385 361.960183752355
58.33396 367.935492263453
58.35407 392.035316661634
58.37419 352.99122990089
58.3943 404
58.41441 325.972769125255
58.43453 347.088265628205
58.45464 384.990275199027
58.47475 342.134779452722
58.49487 312.991073976043
58.51498 337.982103058374
58.5351 349
58.55521 387.004209118086
58.57532 363.981021373312
58.59544 358.967929886324
58.61555 337.985985205171
58.63566 368.953011248951
58.65578 361.030738147826
58.67589 335.000959881889
58.69601 356.011705735323
58.71612 363.994773487533
58.73623 357.000678253984
58.75635 364.008680520081
58.77646 361.99889821408
58.79657 371.972761383492
58.81669 389.994830401985
58.8368 383
58.85691 360.003393672656
58.87703 375.967902858617
58.89714 331.989900461261
58.91726 369.953123277507
58.93737 360.008005718606
58.95748 376.981288318505
58.9776 373
58.99771 346.005788963367
59.01782 376.996379249397
59.03794 347.011538734125
59.05805 397.892931431951
59.07817 394.055520242822
59.09828 362.999042368014
59.11839 386.993944609618
59.13851 381.002192522304
59.15862 400.009221510143
59.17873 395.000662786971
59.19885 396.950147128967
59.21896 361.043821509481
59.23908 382.933960248253
59.25919 436.009283511164
59.2793 372
59.29942 394.993716515799
59.31953 353.993306074541
59.33964 409.132773835809
59.35976 433.050911421708
59.37987 391.027973330595
59.39998 403.986748332794
59.4201 394
59.44021 385.015793602516
59.46033 432.018691523142
59.48044 411.997675806895
59.50055 437.97514514838
59.52067 419.026567427502
59.54078 423.980932328874
59.56089 435.005424418577
59.58101 428.018187095711
59.60112 490.029624502631
59.62124 460.886653861803
59.64135 429.037708791003
59.66146 464.983512726487
59.68158 448.988571983774
59.70169 510.958401215785
59.7218 576
59.74192 579.983477988178
59.76203 583.078358165919
59.78215 672.206334199107
59.80226 715.972181701757
59.82237 736.917412766313
59.84249 848.918738133827
59.8626 1019
59.88271 1128.06224978873
59.90283 1258.11841280279
59.92294 1291.09168844576
59.94305 1325.15579432627
59.96317 1158.28969284061
59.98328 984.182887779477
60.0034 823
60.02351 812.986689371405
60.04362 763.002548474786
60.06374 821.08117793314
60.08385 825.943086172297
60.10396 861.025280411417
60.12408 783.099907656615
60.14419 677.06841077078
60.16431 535.955012898133
60.18442 499.968550364273
60.20453 446.925018373656
60.22465 416.959428715013
60.24476 412.973003137375
60.26487 421.038584887202
60.28499 379.005905502141
60.3051 397
60.32522 378.003786423589
60.34533 412.04284528858
60.36544 405.930639214121
60.38556 374.006075535326
60.40567 381.041117495867
60.42578 336.000491225656
60.4459 380
60.46601 373.003256932703
60.48612 394.992679275382
60.50624 360.973638630841
60.52635 385.917525055993
60.54647 400.999232523731
60.56658 397.002090653919
60.58669 404.990116094513
60.60681 411.983863823175
60.62692 364.989868502648
60.64703 397.042397454627
60.66715 393.958608830892
60.68726 385.989687750709
60.70738 399.986072417343
60.72749 406.000580883099
60.7476 395
60.76772 378.014376111695
60.78783 407.003931466779
60.80794 378.955729293102
60.82806 374.024848469445
60.84817 352.012848783283
60.86828 369.965411290697
60.8884 395
60.90851 378.999170451918
60.92863 388.985371635103
60.94874 356.949568819751
60.96885 362.917782658541
60.98897 389.016262790733
61.00908 362.989266673686
61.02919 398.002712885212
61.04931 344.978696129074
61.06942 340.002886864076
61.08954 339.026320121042
61.10965 361.018247245209
61.12976 357.971614420454
61.14988 378.013434092199
61.16999 344.001044896526
61.1901 374
61.21022 360.010849543418
61.23033 404.054924499704
61.25045 398.897045373831
61.27056 364.976383967983
61.29067 415.93257574945
61.31079 417.018115784823
61.3309 371
61.35101 366.010440319985
61.37113 398.046974875597
61.39124 408.964153792763
61.41135 390.951417763585
61.43147 428.004686571637
61.45158 384.027507926644
61.4717 404
61.49181 425.993655067331
61.51192 389.967530961717
61.53204 392.082509128047
61.55215 438.966592424388
61.57226 426.98123177291
61.59238 462.979563598562
61.61249 451.009702188464
61.63261 462.027123108948
61.65272 512.987475126793
61.67283 450.944054041356
61.69295 472.099340599579
61.71306 496.969304798447
61.73317 499.031335483603
61.75329 471.004609371256
61.7734 490
61.79352 502.981233660545
61.81363 478.012467567821
61.83374 513.031255343182
61.85386 494.045835434708
61.87397 487.997760266246
61.89408 499.965220144161
61.9142 533
61.93431 490.982014841638
61.95442 484.004120993566
61.97454 490.033071222006
61.99465 512.959842261943
62.01477 512.022954522978
62.03488 497.002518129028
62.05499 503.000779193531
62.07511 484.98647616472
62.09522 475.026229696428
62.11533 509.99527251974
62.13545 476.98023933138
62.15556 506.948542832774
62.17568 497.035403881096
62.19579 469.997218462606
62.2159 490
62.23602 462.001970554334
62.25613 504.063010900729
62.27624 515.982030861786
62.29636 499.041672722778
62.31647 482.013428023149
62.33659 470.014988919037
62.3567 442
62.37681 492.028810323015
62.39693 503.91735549021
62.41704 428.948800938279
62.43715 463.905185434011
62.45727 464.032452614718
62.47738 436.034793208892
62.49749 416.989741602844
62.51761 458.009123726816
62.53772 439.975010744348
62.55784 418.930567704005
62.57795 394.066352779604
62.59806 453.934578436977
62.61818 436.032432129427
62.63829 430.985786054403
62.6584 452
62.67852 380.95686202054
62.69863 396.059036011629
62.71875 410.937901799644
62.73886 375.999257621504
62.75897 398.022748051573
62.77909 359.993560144766
62.7992 422
62.81931 397.979883474244
62.83943 383.014125522839
62.85954 391.969422813945
62.87965 370.960192626742
62.89977 408.99654277958
62.91988 372.021867474493
62.94 388
62.96011 386.988597069479
62.98022 366.003214780585
63.00034 389.03204888883
63.02045 378.07836940508
63.04056 358.96029940235
63.06068 397.988762885627
63.08079 384.993529813439
63.10091 420.001276378671
63.12102 383.973711107557
63.14113 390.019814028869
63.16125 397.030625094483
63.18136 412.987375282818
63.20147 406.016154361946
63.22159 410.984605305619
63.2417 440
63.26182 395.968374629336
63.28193 394.000529455894
63.30204 382.982694021646
63.32216 382.003039474923
63.34227 372.02703005734
63.36238 360.989059597796
63.3825 389
63.40261 395.997008291751
63.42272 376.963204193713
63.44284 354.055744686386
63.46295 406.963594446124
63.48307 368.066755011528
63.50318 365.95897990587
63.52329 407.001675702866
63.54341 379.005687256299
63.56352 417.990815046438
63.58363 365.979445420955
63.60375 408.086392008066
63.62386 406.010642028209
63.64398 412.001539171915
63.66409 390.01811714082
63.6842 368
63.70432 404.017268846305
63.72443 392.985287693979
63.74454 399.014272498278
63.76466 399.00166368983
63.78477 399.005758760928
63.80489 398.99189287171
63.825 433
63.84511 460.002061634268
63.86523 451.999655603873
63.88534 466.029658077437
63.90545 464.057921397901
63.92557 458.914614448615
63.94568 540.975106161088
63.96579 506.007928668808
63.98591 554.038641226821
64.00602 595.975229765386
64.02614 527.887855531309
64.04625 515.019225979217
64.06636 503.097819942934
64.08648 447.014789410659
64.10659 469.995326217754
64.1267 451
64.14682 469.030175751009
64.16693 491.013918372663
64.18705 480.920912725318
64.20716 440.069116572775
64.22727 423.99972692462
64.24739 414.021938253913
64.2675 363
64.28761 397.009904520266
64.30773 382.98057989948
64.32784 385.998548388639
64.34796 364.081050379126
64.36807 345.934598474923
64.38818 406.008921212149
64.4083 348
64.42841 405.005978857353
64.44852 348.956437593405
64.46864 361.062414000783
64.48875 377.98721616757
64.50886 377.008279139668
64.52898 372.006439473439
64.54909 366.999974396904
64.56921 365.994149535935
64.58932 353.00495347059
64.60943 375.02828294212
64.62955 372.947962574284
64.64966 352.008249882143
64.66977 371.948262685345
64.68989 388.013221604294
64.71 352
64.73012 396.003429991982
64.75023 352.965863216029
64.77034 378.068428696145
64.79046 380.066827237165
64.81057 344.003193742905
64.83068 371.982241038812
64.8508 363
64.87091 353.988461900117
64.89102 329.002901790995
64.91114 358.047097928827
64.93125 359.019063171979
64.95137 358.985291921842
64.97148 368.004789250661
64.99159 362.989323112429
65.01171 392.99694120172
65.03182 347.958198706778
65.05193 339.018420505719
65.07205 356.041622600043
65.09216 369.973122594451
65.11228 386.978098507747
65.13239 393.01619374208
65.1525 348
65.17262 373.00726761618
65.19273 359.018385261002
65.21284 396.025173272221
65.23296 378.011672961084
65.25307 387.024075507911
65.27319 347.011124960675
65.2933 363
65.31341 373.984617716596
65.33353 326.973294603419
65.35364 355.091303922261
65.37375 377.039173332072
65.39387 344.023967386556
65.41398 355.983262835694
65.43409 355.009064776216
65.45421 333.995086463299
65.47432 348.036621499723
65.49444 384.02520500262
65.51455 366.923374840915
65.53466 345.01243789723
65.55478 352.985998960414
65.57489 359.004010144177
65.595 351
65.61512 375.007139576021
65.63523 363.996954887125
65.65535 384.070002565058
65.67546 388.076494029408
65.69557 345.98275625088
65.71569 396.990678727637
65.7358 373
65.75591 410.020955146129
65.77603 416.953507999888
65.79614 369.924947721353
65.81626 358.983708364189
65.83637 367.005671549251
65.85648 350.019778073138
65.8766 348
65.89671 388.014228050818
65.91682 383.967359074767
65.93694 350.983280925028
65.95705 361.998835612528
65.97716 346.016714932059
65.99728 361.967196274624
66.01739 388.997290808852
66.03751 367.981747402897
66.05762 350.024258352286
66.07773 389.003429792819
66.09785 348.908184913186
66.11796 340.996838932219
66.13807 345.967493594743
66.15819 370.999423292252
66.1783 352
66.19842 357.993299347673
66.21853 328.949488199803
66.23864 316.032270343351
66.25876 354.907373510276
66.27887 382.00718313423
66.29898 354.029885392767
66.3191 337
66.33921 319.984197195672
66.35933 299.034601491073
66.37944 350.058389872658
66.39955 351.954778056941
66.41967 385.991667012989
66.43978 355.031106787503
66.45989 346.00028155898
66.48001 348.006223917937
66.50012 357.986587896339
66.52023 323.954148679115
66.54035 322.071039894618
66.56046 366.9103456357
66.58058 384.02313691767
66.60069 344.010362087319
66.6208 355
66.64092 365.005746727353
66.66103 370.003565997329
66.68114 359.939474468701
66.70126 328.012840193595
66.72137 343.987250517562
66.74149 331.00925495325
66.7616 324
66.78171 343.015418434163
66.80183 370.012095823625
66.82194 351.927113404069
66.84205 327.968850581328
66.86217 357.993022222331
66.88228 341.989093907588
66.90239 380.989890702169
66.92251 360.982498218974
66.94262 344.009434241207
66.96274 360.994632798801
66.98285 344.002722510008
67.00296 360.009254534471
67.02308 341.98856786705
67.04319 378.992263286247
67.0633 355
67.08342 345.020929115413
67.10353 369.993355791971
67.12365 350.028932453887
67.14376 391.95277142903
67.16387 368.078771059782
67.18399 340.982827165427
67.2041 398
67.22421 344.979782046391
67.24433 349.016630412048
67.26444 356.05775967643
67.28456 396.967422854078
67.30467 380.034133394493
67.32478 372.996920247713
67.3449 383
67.36501 398.998570382467
67.38512 378.980103208285
67.40524 380.051675519853
67.42535 407.992676875386
67.44546 385.045564306813
67.46558 385.977569882684
67.48569 420.979801503814
67.50581 445.997523913184
67.52592 433.015209317463
67.54603 479.064201997704
67.56615 507.085991625881
67.58626 560.872656025
67.60637 621.919774608158
67.62649 672.971609714476
67.6466 734
67.66672 801.110535194864
67.68683 926.11612970275
67.70694 928.922580703072
67.72706 883.100880614682
67.74717 831.077097385385
67.76728 761.108093336121
67.7874 655
67.80751 656.981563463048
67.82763 587.983261160506
67.84774 651.128544749141
67.86785 676.951746806246
67.88797 720.899810090041
67.90808 769.011940859663
67.92819 721.009354449339
67.94831 732.989589584766
67.96842 681.985438146545
67.98853 722.069795015522
68.00865 743.026001775163
68.02876 768.896657045757
68.04888 852.889232077084
68.06899 950.975789862798
68.0891 975
68.10922 1069.06426243068
68.12933 1075.976326501
68.14944 1048.87806258523
68.16956 949.236242580908
68.18967 868.008471554828
68.20979 927.961315981574
68.2299 980
68.25001 1003.01247623129
68.27013 1040.07341143768
68.29024 1075.99429218347
68.31035 1017.26346868348
68.33047 897.163561906978
68.35058 791.133127704611
68.3707 648
68.39081 596.980131413718
68.41092 557.991843533152
68.43104 583.061510293157
68.45115 590.958673875611
68.47126 572.988969197545
68.49138 594.993485404273
68.51149 554.044087250996
68.5316 462
68.55172 454.995397233846
68.57183 424.937752174471
68.59195 384.90404449555
68.61206 364.967756748919
68.63217 400.967198249935
68.65229 390.01439316077
68.6724 372
68.69251 386.996328814242
68.71263 370.024932153838
68.73274 404.989646046858
68.75286 364.027146949973
68.77297 383.008899959265
68.79308 350.004255590954
68.8132 381
68.83331 362.987947347672
68.85342 359.014036083404
68.87354 366.95975250685
68.89365 339.975473212704
68.91376 376.978414215313
68.93388 349.025728081659
68.95399 347.997227493687
68.97411 353.007739782425
68.99422 374.010170638397
69.01433 366.978304233715
69.03445 359.007331508387
69.05456 364.012337777075
69.07467 348.016628621369
69.09479 351.992689876639
69.1149 367
69.13502 372.007969270176
69.15513 378.992004721774
69.17524 369.008663899133
69.19536 389.958750464075
69.21547 388.045387474697
69.23558 349.021785220402
69.2557 358
69.27581 376.997196007254
69.29593 374.063774588125
69.31604 427.976008077342
69.33615 358.104576543176
69.35627 376.958992041867
69.37638 381.995921455414
69.39649 394.994965386696
69.41661 388.988269622472
69.43672 365.997215564403
69.45683 376.998303753388
69.47695 369.040533288063
69.49706 396.014067519795
69.51718 364.00311553782
69.53729 397.98733953075
69.5574 391
69.57752 380.994143037767
69.59763 367.958428669651
69.61774 350.048381815105
69.63786 393.983443452155
69.65797 352.077421193992
69.67809 338.983015093743
69.6982 384
69.71831 357.989166488057
69.73843 363.019430410651
69.75854 359.951457737447
69.77865 338.968630798719
69.79877 373.976142708961
69.81888 353.034184625803
69.839 333
69.85911 352.018608881584
69.87922 375.9809524516
69.89934 337.994153991687
69.91945 372.048164470178
69.93956 365.981461477616
69.95968 388.008748444286
69.97979 349.012433605311
69.9999 357
70.02002 371.027986511025
70.04013 397.992242644361
70.06025 369.973779851625
70.08036 385.97734535475
70.10047 372.043249503443
70.12059 349.003179183952
70.1407 355
70.16081 352.000707505009
70.18093 367.040099500111
70.20104 382.96830685549
70.22116 354.003994361866
70.24127 384.955024448122
70.26138 385.025305645648
70.2815 357
70.30161 363.00424253896
70.32172 367.008106212573
70.34184 378.007753266133
70.36195 362.095692745305
70.38207 338.950503871217
70.40218 396.989630029384
70.42229 359.007245871542
70.44241 385.005836106028
70.46252 359.970631654259
70.48263 355.024527182348
70.50275 356.887364761647
70.52286 293.041671725656
70.54297 332.914147857358
70.56309 363.998101020704
70.5832 354
70.60332 353.001963679255
70.62343 356.011645771218
70.64354 356.957790118363
70.66366 316.084543431764
70.68377 301.960373026928
70.70388 346.971158674525
70.724 349
70.74411 346.988320484227
70.76423 319.007903119835
70.78434 350.023023696686
70.80445 331.038481470107
70.82457 333.996556939995
70.84468 329.996769541615
70.86479 338.001658154075
70.88491 322.994591398329
70.90502 327.013807061303
70.92513 338.000550402969
70.94525 329.984012004435
70.96536 332.979473173809
70.98548 345.986926320735
71.00559 347.010376135611
71.0257 331
71.04582 366.979450056343
71.06593 305.973069094604
71.08604 348.072267488245
71.10616 348.0025980296
71.12627 350.037683850599
71.14639 310.005701091917
71.1665 337
71.18661 339.986713742073
71.20673 316.017664555217
71.22684 351.025123937899
71.24695 329.057677466256
71.26707 324.996770051401
71.28718 327.988582128758
71.3073 346
71.32741 347.994514614512
71.34752 333.99324536049
71.36764 339.022374419439
71.38775 339.057408648761
71.40786 307.029535200397
71.42798 327.951078776623
71.44809 368.997988734905
71.4682 341
71.48832 338.007853457905
71.50843 341.996472038813
71.52855 342.03375493083
71.54866 352.043451961508
71.56877 314.015293832984
71.58889 338.988292453816
71.609 332
71.62911 315.01202652566
71.64923 362.034706145509
71.66934 349.975120883517
71.68946 348.030141270422
71.70957 318.03395630834
71.72968 317.984042120465
71.7498 331
71.76991 329.013386043296
71.79002 382.047696784101
71.81014 383.892750616842
71.83025 318.05933337917
71.85037 339.973496036812
71.87048 329.014044594916
71.89059 339.98075721276
71.91071 378.003128856779
71.93082 357.990121741856
71.95093 357.960419671594
71.97105 311.944877316279
71.99116 332.920214103442
72.01127 352.027256563051
72.03139 324.995400924786
72.0515 366
72.07162 341.949147998857
72.09173 308.010882026994
72.11184 340.032265245366
72.13196 332.994417749205
72.15207 352.982861824941
72.17218 345.012563497217
72.1923 338
72.21241 333.000242955243
72.23253 344.032911268273
72.25264 366.020571443393
72.27275 361.030791382338
72.29287 346.031023364896
72.31298 334.982561305511
72.33309 361.002218087597
72.35321 332.997230106338
72.37332 362.02971749813
72.39344 364.964132544236
72.41355 344.977947750061
72.43366 349.98305942532
72.45378 346.022045625574
72.47389 316.010842197744
72.494 321
72.51412 356.004486708118
72.53423 333.979821937265
72.55434 340.003403014672
72.57446 334.980769548364
72.59457 363.952881596712
72.61469 375.007915987679
72.6348 340
72.65491 327.015576123963
72.67503 378.042734722018
72.69514 359.906043824316
72.71525 326.981554470271
72.73537 358.977941583601
72.75548 336.039153147154
72.7756 314
72.79571 337.005764265493
72.81582 338.017849689368
72.83594 370.03129019671
72.85605 366.985008101358
72.87616 382.007894949024
72.89628 361.007879163712
72.91639 375.99125774657
72.9365 374
72.95662 360.027878780143
72.97673 400.988711371186
72.99685 354.967443656501
73.01696 389.946521134163
73.03707 378.038050557937
73.05719 361.005891323973
73.0773 357
73.09741 373.004216164359
73.11753 369.992884773142
73.13764 370.003239934408
73.15776 372.985664376531
73.17787 380.000730191453
73.19798 380.981299943275
73.2181 403
73.23821 381.002189936341
73.25832 415.024159307952
73.27844 417.012694175901
73.29855 435.967596246057
73.31867 442.971089461488
73.33878 466.000576357719
73.35889 470.966644653332
73.37901 559.005537376433
73.39912 498.972302198173
73.41923 533.033642033817
73.43935 517.986181814288
73.45946 537.970930809308
73.47957 515.092334043481
73.49969 454.009393552562
73.5198 465
73.53992 420.970916497568
73.56003 424.010206508207
73.58014 417.985692094663
73.60026 426.938851434302
73.62037 465.958012664037
73.64048 463.034920809779
73.6606 431
73.68071 455.992224618532
73.70083 398.938805726924
73.72094 383.92812224612
73.74105 338.985630298064
73.76117 380.99378092072
73.78128 338.025006462146
73.80139 349.998396218212
73.82151 334.00014383664
73.84162 352.001691619345
73.86174 337.003654393498
73.88185 363.060286784803
73.90196 370.993923772912
73.92208 362.039409304499
73.94219 319.998751442888
73.9623 361
73.98242 347.975842535499
74.00253 333.98468788742
74.02264 332.034577484389
74.04276 358.969139040794
74.06287 358.998026090157
74.08299 364.002900101738
74.1031 353
74.12321 363.994898795509
74.14333 329.952147467724
74.16344 324.03718254041
74.18355 347.972253386847
74.20367 348.982843809829
74.22378 360.021073364208
74.2439 316
74.26401 326.010708127721
74.28412 341.014387032737
74.30424 351.997241658035
74.32435 334.073850432126
74.34446 312.993397393604
74.36458 338.969027399139
74.38469 348.011361948214
74.40481 320.001667354149
74.42492 350.015455039853
74.44503 333.964711224067
74.46515 338.107484613488
74.48526 378.034410677039
74.50537 328.006518398331
74.52549 366.999353411797
74.5456 326
74.56571 351.990457192166
74.58583 294.985756834865
74.60594 345.073455063988
74.62606 330.065607921452
74.64617 323.952398058252
74.66628 360.00481964377
74.6864 325
74.70651 352.008906037585
74.72662 342.991606805921
74.74674 342.97783679208
74.76685 324.009681175311
74.78697 336.986902020202
74.80708 329.016073848178
74.82719 325.988627815701
74.84731 358.005781017088
74.86742 343.984643576659
74.88753 342.003240317151
74.90765 333.942017029373
74.92776 315.973906198559
74.94787 348.976135402295
74.96799 335.009885130579
74.9881 334
75.00822 366.038541567958
