3.00117 20797
3.02128 19943
3.0414 19396
3.06151 19050
3.08162 18370
3.10174 18001
3.12185 17684
3.14197 17138
3.16208 16222
3.18219 16197
3.20231 15881
3.22242 15282
3.24253 14960
3.26265 14384
3.28276 13779
3.30288 13452
3.32299 12904
3.3431 13026
3.36322 12193
3.38333 11824
3.40344 11626
3.42356 11039
3.44367 10967
3.46379 10255
3.4839 10017
3.50401 9956
3.52413 9518
3.54424 9125
3.56435 8467
3.58447 8502
3.60458 8361
3.62469 7785
3.64481 7577
3.66492 7384
3.68504 6994
3.70515 6917
3.72526 6438
3.74538 6297
3.76549 5877
3.7856 5861
3.80572 5759
3.82583 5469
3.84595 5258
3.86606 4912
3.88617 4771
3.90629 4666
3.9264 4531
3.94651 4348
3.96663 3966
3.98674 3903
4.00686 3746
4.02697 3444
4.04708 3659
4.0672 3451
4.08731 3286
4.10742 3165
4.12754 3024
4.14765 2858
4.16776 2724
4.18788 2731
4.20799 2650
4.22811 2585
4.24822 2533
4.26833 2290
4.28845 2422
4.30856 2346
4.32867 2225
4.34879 2208
4.3689 2015
4.38902 2056
4.40913 2128
4.42924 2081
4.44936 1965
4.46947 1926
4.48958 1896
4.5097 1913
4.52981 1805
4.54992 1769
4.57004 1791
4.59015 1665
4.61027 1743
4.63038 1677
4.65049 1616
4.67061 1621
4.69072 1550
4.71083 1589
4.73095 1594
4.75106 1494
4.77118 1501
4.79129 1473
4.8114 1507
4.83152 1478
4.85163 1377
4.87174 1423
4.89186 1370
4.91197 1394
4.93209 1366
4.9522 1308
4.97231 1259
4.99243 1235
5.01254 1235
5.03265 1252
5.05277 1218
5.07288 1215
5.09299 1204
5.11311 1203
5.13322 1229
5.15334 1116
5.17345 1138
5.19356 1206
5.21368 1097
5.23379 1131
5.2539 1101
5.27402 1100
5.29413 1063
5.31425 1081
5.33436 1086
5.35447 985
5.37459 1039
5.3947 1071
5.41481 1068
5.43493 1053
5.45504 938
5.47516 1017
5.49527 1000
5.51538 967
5.5355 974
5.55561 915
5.57572 917
5.59584 914
5.61595 892
5.63606 916
5.65618 890
5.67629 826
5.69641 876
5.71652 868
5.73663 867
5.75675 891
5.77686 808
5.79697 963
5.81709 853
5.8372 789
5.85732 833
5.87743 806
5.89754 805
5.91766 773
5.93777 824
5.95788 777
5.978 800
5.99811 833
6.01823 824
6.03834 805
6.05845 787
6.07857 786
6.09868 830
6.11879 792
6.13891 751
6.15902 807
6.17913 744
6.19925 729
6.21936 739
6.23948 780
6.25959 728
6.2797 723
6.29982 728
6.31993 751
6.34004 692
6.36016 691
6.38027 660
6.40039 683
6.4205 727
6.44061 690
6.46073 714
6.48084 672
6.50095 706
6.52107 617
6.54118 650
6.56129 664
6.58141 657
6.60152 691
6.62164 658
6.64175 582
6.66186 640
6.68198 603
6.70209 589
6.7222 598
6.74232 563
6.76243 617
6.78255 569
6.80266 554
6.82277 569
6.84289 541
6.863 592
6.88311 578
6.90323 556
6.92334 640
6.94346 608
6.96357 573
6.98368 570
7.0038 586
7.02391 558
7.04402 585
7.06414 564
7.08425 572
7.10436 544
7.12448 516
7.14459 545
7.16471 525
7.18482 508
7.20493 509
7.22505 526
7.24516 542
7.26527 503
7.28539 537
7.3055 558
7.32562 516
7.34573 456
7.36584 502
7.38596 525
7.40607 508
7.42618 522
7.4463 493
7.46641 487
7.48653 506
7.50664 489
7.52675 489
7.54687 496
7.56698 484
7.58709 498
7.60721 509
7.62732 502
7.64743 490
7.66755 502
7.68766 474
7.70778 456
7.72789 532
7.748 502
7.76812 473
7.78823 425
7.80834 483
7.82846 500
7.84857 486
7.86869 418
7.8888 445
7.90891 507
7.92903 456
7.94914 456
7.96925 494
7.98937 504
8.00948 507
8.0296 474
8.04971 459
8.06982 465
8.08994 475
8.11005 421
8.13016 456
8.15028 492
8.17039 481
8.1905 488
8.21062 495
8.23073 489
8.25085 495
8.27096 492
8.29107 462
8.31119 503
8.3313 498
8.35141 513
8.37153 477
8.39164 504
8.41176 511
8.43187 497
8.45198 476
8.4721 552
8.49221 495
8.51232 503
8.53244 529
8.55255 495
8.57266 530
8.59278 519
8.61289 481
8.63301 522
8.65312 479
8.67323 454
8.69335 463
8.71346 452
8.73357 475
8.75369 463
8.7738 474
8.79392 468
8.81403 422
8.83414 452
8.85426 443
8.87437 436
8.89448 408
8.9146 435
8.93471 436
8.95483 395
8.97494 393
8.99505 406
9.01517 408
9.03528 392
9.05539 358
9.07551 377
9.09562 389
9.11573 396
9.13585 380
9.15596 346
9.17608 386
9.19619 376
9.2163 384
9.23642 335
9.25653 369
9.27664 367
9.29676 336
9.31687 357
9.33699 357
9.3571 366
9.37721 352
9.39733 339
9.41744 345
9.43755 373
9.45767 368
9.47778 359
9.4979 335
9.51801 373
9.53812 346
9.55824 346
9.57835 321
9.59846 338
9.61858 390
9.63869 329
9.6588 335
9.67892 338
9.69903 397
9.71915 309
9.73926 366
9.75937 349
9.77949 319
9.7996 329
9.81971 349
9.83983 334
9.85994 284
9.88006 327
9.90017 336
9.92028 308
9.9404 296
9.96051 312
9.98062 318
10.00074 292
10.02085 319
10.04097 294
10.06108 290
10.08119 337
10.10131 298
10.12142 321
10.14153 343
10.16165 310
10.18176 312
10.20187 358
10.22199 288
10.2421 305
10.26222 339
10.28233 331
10.30244 319
10.32256 348
10.34267 346
10.36278 297
10.3829 335
10.40301 344
10.42313 396
10.44324 378
10.46335 392
10.48347 420
10.50358 374
10.52369 439
10.54381 354
10.56392 368
10.58403 349
10.60415 341
10.62426 313
10.64438 333
10.66449 324
10.6846 341
10.70472 306
10.72483 307
10.74494 339
10.76506 322
10.78517 314
10.80529 298
10.8254 286
10.84551 283
10.86563 295
10.88574 318
10.90585 305
10.92597 319
10.94608 306
10.9662 314
10.98631 309
11.00642 330
11.02654 319
11.04665 328
11.06676 300
11.08688 290
11.10699 331
11.1271 332
11.14722 304
11.16733 303
11.18745 297
11.20756 360
11.22767 307
11.24779 300
11.2679 286
11.28801 304
11.30813 307
11.32824 290
11.34836 332
11.36847 281
11.38858 286
11.4087 280
11.42881 303
11.44892 296
11.46904 295
11.48915 279
11.50927 278
11.52938 293
11.54949 318
11.56961 307
11.58972 321
11.60983 305
11.62995 297
11.65006 290
11.67017 287
11.69029 284
11.7104 327
11.73052 324
11.75063 304
11.77074 302
11.79086 315
11.81097 300
11.83108 277
11.8512 297
11.87131 299
11.89143 284
11.91154 303
11.93165 321
11.95177 290
11.97188 320
11.99199 273
12.01211 270
12.03222 321
12.05234 302
12.07245 318
12.09256 309
12.11268 314
12.13279 314
12.1529 350
12.17302 284
12.19313 314
12.21324 338
12.23336 305
12.25347 313
12.27359 354
12.2937 343
12.31381 374
12.33393 350
12.35404 336
12.37415 338
12.39427 311
12.41438 326
12.4345 320
12.45461 326
12.47472 313
12.49484 256
12.51495 323
12.53506 292
12.55518 318
12.57529 331
12.5954 295
12.61552 285
12.63563 283
12.65575 296
12.67586 263
12.69597 279
12.71609 280
12.7362 284
12.75631 311
12.77643 309
12.79654 280
12.81666 323
12.83677 295
12.85688 266
12.877 269
12.89711 273
12.91722 337
12.93734 303
12.95745 284
12.97757 300
12.99768 294
13.01779 273
13.03791 296
13.05802 280
13.07813 298
13.09825 334
13.11836 300
13.13847 284
13.15859 285
13.1787 287
13.19882 285
13.21893 293
13.23904 283
13.25916 303
13.27927 306
13.29938 301
13.3195 290
13.33961 291
13.35973 280
13.37984 300
13.39995 305
13.42007 304
13.44018 279
13.46029 319
13.48041 326
13.50052 310
13.52064 272
13.54075 334
13.56086 299
13.58098 322
13.60109 286
13.6212 291
13.64132 327
13.66143 345
13.68154 305
13.70166 348
13.72177 336
13.74189 317
13.762 368
13.78211 297
13.80223 326
13.82234 379
13.84245 345
13.86257 350
13.88268 332
13.9028 304
13.92291 320
13.94302 320
13.96314 298
13.98325 311
14.00336 331
14.02348 329
14.04359 313
14.06371 293
14.08382 317
14.10393 295
14.12405 279
14.14416 337
14.16427 301
14.18439 274
14.2045 291
14.22461 285
14.24473 280
14.26484 283
14.28496 290
14.30507 324
14.32518 296
14.3453 316
14.36541 268
14.38552 263
14.40564 285
14.42575 315
14.44587 301
14.46598 315
14.48609 320
14.50621 287
14.52632 307
14.54643 306
14.56655 272
14.58666 252
14.60677 291
14.62689 300
14.647 290
14.66712 268
14.68723 305
14.70734 288
14.72746 271
14.74757 303
14.76768 307
14.7878 265
14.80791 259
14.82803 308
14.84814 283
14.86825 312
14.88837 324
14.90848 335
14.92859 322
14.94871 314
14.96882 337
14.98894 297
15.00905 294
15.02916 347
15.04928 281
15.06939 317
15.0895 303
15.10962 301
15.12973 264
15.14984 294
15.16996 276
15.19007 301
15.21019 305
15.2303 282
15.25041 281
15.27053 297
15.29064 278
15.31075 310
15.33087 295
15.35098 331
15.3711 311
15.39121 286
15.41132 288
15.43144 266
15.45155 286
15.47166 257
15.49178 278
15.51189 288
15.53201 251
15.55212 299
15.57223 282
15.59235 290
15.61246 274
15.63257 282
15.65269 274
15.6728 324
15.69291 314
15.71303 297
15.73314 292
15.75326 311
15.77337 310
15.79348 318
15.8136 288
15.83371 284
15.85382 291
15.87394 293
15.89405 303
15.91417 267
15.93428 294
15.95439 300
15.97451 263
15.99462 285
16.01473 284
16.03485 279
16.05496 274
16.07508 288
16.09519 295
16.1153 304
16.13542 265
16.15553 311
16.17564 295
16.19576 317
16.21587 320
16.23598 289
16.2561 296
16.27621 320
16.29633 311
16.31644 283
16.33655 300
16.35667 320
16.37678 304
16.39689 327
16.41701 326
16.43712 292
16.45724 293
16.47735 304
16.49746 302
16.51758 293
16.53769 283
16.5578 307
16.57792 308
16.59803 286
16.61814 286
16.63826 290
16.65837 287
16.67849 312
16.6986 310
16.71871 306
16.73883 342
16.75894 296
16.77905 317
16.79917 289
16.81928 281
16.8394 281
16.85951 292
16.87962 289
16.89974 259
16.91985 292
16.93996 295
16.96008 302
16.98019 322
17.00031 310
17.02042 283
17.04053 268
17.06065 309
17.08076 308
17.10087 312
17.12099 315
17.1411 261
17.16121 279
17.18133 328
17.20144 304
17.22156 306
17.24167 290
17.26178 299
17.2819 312
17.30201 298
17.32212 295
17.34224 309
17.36235 300
17.38247 346
17.40258 306
17.42269 308
17.44281 278
17.46292 288
17.48303 301
17.50315 316
17.52326 306
17.54338 298
17.56349 328
17.5836 342
17.60372 301
17.62383 300
17.64394 302
17.66406 310
17.68417 318
17.70428 302
17.7244 321
17.74451 310
17.76463 286
17.78474 277
17.80485 279
17.82497 298
17.84508 316
17.86519 329
17.88531 333
17.90542 315
17.92554 337
17.94565 327
17.96576 288
17.98588 287
18.00599 326
18.0261 291
18.04622 305
18.06633 316
18.08645 337
18.10656 284
18.12667 283
18.14679 303
18.1669 297
18.18701 323
18.20713 319
18.22724 288
18.24735 340
18.26747 292
18.28758 306
18.3077 309
18.32781 300
18.34792 304
18.36804 317
18.38815 308
18.40826 318
18.42838 279
18.44849 326
18.46861 304
18.48872 331
18.50883 271
18.52895 301
18.54906 290
18.56917 292
18.58929 300
18.6094 325
18.62951 335
18.64963 323
18.66974 321
18.68986 286
18.70997 318
18.73008 327
18.7502 286
18.77031 298
18.79042 326
18.81054 339
18.83065 310
18.85077 328
18.87088 263
18.89099 300
18.91111 327
18.93122 319
18.95133 340
18.97145 369
18.99156 300
19.01168 309
19.03179 332
19.0519 314
19.07202 321
19.09213 306
19.11224 341
19.13236 350
19.15247 340
19.17258 331
19.1927 342
19.21281 362
19.23293 401
19.25304 371
19.27315 387
19.29327 420
19.31338 435
19.33349 408
19.35361 415
19.37372 453
19.39384 460
19.41395 472
19.43406 450
19.45418 489
19.47429 483
19.4944 510
19.51452 504
19.53463 556
19.55475 574
19.57486 649
19.59497 604
19.61509 698
19.6352 700
19.65531 716
19.67543 714
19.69554 744
19.71565 773
19.73577 803
19.75588 807
19.776 793
19.79611 837
19.81622 766
19.83634 716
19.85645 684
19.87656 736
19.89668 733
19.91679 663
19.93691 665
19.95702 645
19.97713 630
19.99725 663
20.01736 616
20.03747 614
20.05759 608
20.0777 594
20.09782 587
20.11793 594
20.13804 582
20.15816 589
20.17827 563
20.19838 522
20.2185 523
20.23861 576
20.25872 518
20.27884 513
20.29895 493
20.31907 543
20.33918 512
20.35929 529
20.37941 524
20.39952 490
20.41963 543
20.43975 519
20.45986 506
20.47998 519
20.50009 490
20.5202 493
20.54032 453
20.56043 559
20.58054 517
20.60066 526
20.62077 555
20.64088 576
20.661 626
20.68111 713
20.70123 744
20.72134 952
20.74145 1096
20.76157 1338
20.78168 1613
20.80179 1909
20.82191 1940
20.84202 1979
20.86214 1902
20.88225 1500
20.90236 1283
20.92248 1036
20.94259 870
20.9627 794
20.98282 690
21.00293 695
21.02305 719
21.04316 695
21.06327 576
21.08339 567
21.1035 512
21.12361 510
21.14373 466
21.16384 463
21.18395 461
21.20407 443
21.22418 410
21.2443 433
21.26441 443
21.28452 469
21.30464 453
21.32475 437
21.34486 451
21.36498 451
21.38509 472
21.40521 430
21.42532 407
21.44543 427
21.46555 448
21.48566 481
21.50577 432
21.52589 392
21.546 404
21.56612 480
21.58623 447
21.60634 422
21.62646 435
21.64657 403
21.66668 449
21.6868 418
21.70691 403
21.72702 443
21.74714 415
21.76725 447
21.78737 459
21.80748 418
21.82759 450
21.84771 462
21.86782 569
21.88793 618
21.90805 658
21.92816 732
21.94828 771
21.96839 771
21.9885 782
22.00862 709
22.02873 658
22.04884 596
22.06896 531
22.08907 484
22.10919 444
22.1293 450
22.14941 418
22.16953 430
22.18964 434
22.20975 415
22.22987 419
22.24998 430
22.27009 439
22.29021 410
22.31032 424
22.33044 435
22.35055 416
22.37066 423
22.39078 432
22.41089 455
22.431 442
22.45112 403
22.47123 397
22.49135 416
22.51146 407
22.53157 408
22.55169 414
22.5718 423
22.59191 389
22.61203 404
22.63214 413
22.65225 400
22.67237 398
22.69248 447
22.7126 429
22.73271 423
22.75282 451
22.77294 405
22.79305 451
22.81316 406
22.83328 457
22.85339 485
22.87351 452
22.89362 451
22.91373 479
22.93385 471
22.95396 496
22.97407 483
22.99419 532
23.0143 542
23.03442 542
23.05453 535
23.07464 531
23.09476 521
23.11487 497
23.13498 487
23.1551 451
23.17521 474
23.19532 511
23.21544 432
23.23555 436
23.25567 458
23.27578 467
23.29589 444
23.31601 428
23.33612 479
23.35623 473
23.37635 456
23.39646 426
23.41658 474
23.43669 477
23.4568 480
23.47692 591
23.49703 518
23.51714 584
23.53726 566
23.55737 634
23.57749 593
23.5976 570
23.61771 553
23.63783 575
23.65794 472
23.67805 503
23.69817 491
23.71828 508
23.73839 527
23.75851 499
23.77862 506
23.79874 520
23.81885 535
23.83896 546
23.85908 532
23.87919 563
23.8993 521
23.91942 638
23.93953 530
23.95965 513
23.97976 561
23.99987 570
24.01999 519
24.0401 560
24.06021 521
24.08033 476
24.10044 533
24.12056 521
24.14067 453
24.16078 529
24.1809 547
24.20101 559
24.22112 562
24.24124 628
24.26135 617
24.28146 575
24.30158 561
24.32169 569
24.34181 542
24.36192 566
24.38203 527
24.40215 497
24.42226 455
24.44237 449
24.46249 443
24.4826 421
24.50272 448
24.52283 418
24.54294 436
24.56306 413
24.58317 418
24.60328 432
24.6234 403
24.64351 446
24.66362 423
24.68374 446
24.70385 427
24.72397 389
24.74408 468
24.76419 435
24.78431 439
24.80442 455
24.82453 391
24.84465 444
24.86476 428
24.88488 442
24.90499 428
24.9251 454
24.94522 459
24.96533 459
24.98544 369
25.00556 389
25.02567 425
25.04579 422
25.0659 427
25.08601 409
25.10613 413
25.12624 434
25.14635 445
25.16647 463
25.18658 429
25.20669 427
25.22681 516
25.24692 472
25.26704 426
25.28715 421
25.30726 438
25.32738 471
25.34749 461
25.3676 476
25.38772 480
25.40783 504
25.42795 544
25.44806 556
25.46817 571
25.48829 539
25.5084 556
25.52851 623
25.54863 573
25.56874 578
25.58886 576
25.60897 601
25.62908 590
25.6492 533
25.66931 549
25.68942 563
25.70954 498
25.72965 466
25.74976 509
25.76988 461
25.78999 431
25.81011 442
25.83022 456
25.85033 459
25.87045 471
25.89056 499
25.91067 433
25.93079 489
25.9509 462
25.97102 496
25.99113 503
26.01124 450
26.03136 497
26.05147 551
26.07158 502
26.0917 519
26.11181 521
26.13193 520
26.15204 567
26.17215 549
26.19227 575
26.21238 623
26.23249 690
26.25261 661
26.27272 682
26.29283 745
26.31295 805
26.33306 852
26.35318 913
26.37329 1006
26.3934 1143
26.41352 1311
26.43363 1516
26.45374 1836
26.47386 2312
26.49397 3039
26.51409 3761
26.5342 4974
26.55431 5990
26.57443 7212
26.59454 8060
26.61465 7847
26.63477 6910
26.65488 5966
26.67499 4472
26.69511 3421
26.71522 2382
26.73534 1627
26.75545 1215
26.77556 938
26.79568 873
26.81579 837
26.8359 788
26.85602 778
26.87613 724
26.89625 713
26.91636 664
26.93647 719
26.95659 750
26.9767 747
26.99681 739
27.01693 784
27.03704 726
27.05716 759
27.07727 700
27.09738 696
27.1175 651
27.13761 637
27.15772 575
27.17784 609
27.19795 559
27.21806 628
27.23818 610
27.25829 644
27.27841 600
27.29852 660
27.31863 668
27.33875 671
27.35886 728
27.37897 746
27.39909 872
27.4192 902
27.43932 871
27.45943 854
27.47954 893
27.49966 880
27.51977 740
27.53988 734
27.56 684
27.58011 712
27.60023 710
27.62034 758
27.64045 788
27.66057 893
27.68068 907
27.70079 1016
27.72091 1029
27.74102 1047
27.76113 1048
27.78125 1136
27.80136 1083
27.82148 1086
27.84159 1118
27.8617 1039
27.88182 1098
27.90193 1123
27.92204 1127
27.94216 1041
27.96227 1008
27.98239 899
28.0025 898
28.02261 767
28.04273 743
28.06284 652
28.08295 671
28.10307 582
28.12318 616
28.1433 564
28.16341 572
28.18352 598
28.20364 603
28.22375 554
28.24386 604
28.26398 589
28.28409 610
28.3042 585
28.32432 537
28.34443 501
28.36455 549
28.38466 546
28.40477 523
28.42489 470
28.445 472
28.46511 496
28.48523 499
28.50534 469
28.52546 479
28.54557 472
28.56568 466
28.5858 429
28.60591 433
28.62602 445
28.64614 472
28.66625 423
28.68636 411
28.70648 456
28.72659 466
28.74671 411
28.76682 417
28.78693 411
28.80705 425
28.82716 417
28.84727 443
28.86739 455
28.8875 430
28.90762 429
28.92773 448
28.94784 428
28.96796 420
28.98807 452
29.00818 451
29.0283 470
29.04841 466
29.06853 446
29.08864 439
29.10875 481
29.12887 499
29.14898 491
29.16909 552
29.18921 543
29.20932 559
29.22943 613
29.24955 700
29.26966 736
29.28978 883
29.30989 906
29.33 1151
29.35012 1299
29.37023 1357
29.39034 1477
29.41046 1377
29.43057 1373
29.45069 1386
29.4708 1158
29.49091 1073
29.51103 957
29.53114 828
29.55125 696
29.57137 677
29.59148 602
29.6116 588
29.63171 544
29.65182 591
29.67194 616
29.69205 544
29.71216 550
29.73228 499
29.75239 558
29.7725 571
29.79262 548
29.81273 529
29.83285 521
29.85296 481
29.87307 502
29.89319 444
29.9133 467
29.93341 431
29.95353 455
29.97364 473
29.99376 436
30.01387 478
30.03398 437
30.0541 472
30.07421 500
30.09432 474
30.11444 490
30.13455 512
30.15467 465
30.17478 489
30.19489 551
30.21501 490
30.23512 519
30.25523 548
30.27535 523
30.29546 532
30.31557 546
30.33569 614
30.3558 536
30.37592 559
30.39603 537
30.41614 532
30.43626 563
30.45637 544
30.47648 504
30.4966 449
30.51671 451
30.53683 458
30.55694 455
30.57705 424
30.59717 468
30.61728 420
30.63739 431
30.65751 418
30.67762 405
30.69773 456
30.71785 449
30.73796 467
30.75808 470
30.77819 470
30.7983 445
30.81842 466
30.83853 417
30.85864 406
30.87876 417
30.89887 426
30.91899 364
30.9391 368
30.95921 394
30.97933 425
30.99944 368
31.01955 384
31.03967 367
31.05978 379
31.0799 384
31.10001 352
31.12012 372
31.14024 380
31.16035 386
31.18046 390
31.20058 405
31.22069 373
31.2408 394
31.26092 434
31.28103 428
31.30115 444
31.32126 402
31.34137 447
31.36149 418
31.3816 414
31.40171 459
31.42183 430
31.44194 414
31.46206 400
31.48217 392
31.50228 411
31.5224 379
31.54251 369
31.56262 386
31.58274 363
31.60285 380
31.62297 382
31.64308 378
31.66319 383
31.68331 345
31.70342 359
31.72353 386
31.74365 342
31.76376 339
31.78387 365
31.80399 379
31.8241 363
31.84422 376
31.86433 383
31.88444 378
31.90456 340
31.92467 357
31.94478 373
31.9649 369
31.98501 328
32.00513 370
32.02524 367
32.04535 375
32.06547 414
32.08558 373
32.10569 371
32.12581 347
32.14592 399
32.16604 390
32.18615 378
32.20626 404
32.22638 345
32.24649 349
32.2666 374
32.28672 374
32.30683 416
32.32694 429
32.34706 376
32.36717 390
32.38729 388
32.4074 421
32.42751 388
32.44763 411
32.46774 362
32.48785 422
32.50797 421
32.52808 429
32.5482 427
32.56831 393
32.58842 375
32.60854 405
32.62865 388
32.64876 405
32.66888 386
32.68899 393
32.7091 412
32.72922 364
32.74933 378
32.76945 353
32.78956 372
32.80967 396
32.82979 341
32.8499 366
32.87001 405
32.89013 439
32.91024 414
32.93036 414
32.95047 445
32.97058 439
32.9907 456
33.01081 411
33.03092 454
33.05104 428
33.07115 457
33.09127 435
33.11138 411
33.13149 400
33.15161 390
33.17172 388
33.19183 375
33.21195 344
33.23206 377
33.25217 381
33.27229 382
33.2924 376
33.31252 397
33.33263 354
33.35274 369
33.37286 362
33.39297 357
33.41308 363
33.4332 332
33.45331 364
33.47343 350
33.49354 338
33.51365 339
33.53377 344
33.55388 321
33.57399 372
33.59411 355
33.61422 362
33.63434 341
33.65445 384
33.67456 355
33.69468 350
33.71479 354
33.7349 380
33.75502 399
33.77513 397
33.79524 385
33.81536 380
33.83547 384
33.85559 360
33.8757 386
33.89581 397
33.91593 399
33.93604 377
33.95615 352
33.97627 419
33.99638 390
34.0165 415
34.03661 415
34.05672 401
34.07684 425
34.09695 388
34.11706 443
34.13718 420
34.15729 433
34.17741 427
34.19752 468
34.21763 483
34.23775 521
34.25786 485
34.27797 519
34.29809 488
34.3182 494
34.33831 553
34.35843 502
34.37854 555
34.39866 508
34.41877 510
34.43888 561
34.459 576
34.47911 623
34.49922 536
34.51934 590
34.53945 539
34.55957 617
34.57968 579
34.59979 602
34.61991 611
34.64002 600
34.66013 573
34.68025 615
34.70036 599
34.72047 585
34.74059 618
34.7607 572
34.78082 600
34.80093 612
34.82104 624
34.84116 559
34.86127 630
34.88138 606
34.9015 591
34.92161 574
34.94173 651
34.96184 607
34.98195 635
35.00207 605
35.02218 630
35.04229 659
35.06241 659
35.08252 621
35.10264 615
35.12275 584
35.14286 607
35.16298 637
35.18309 625
35.2032 632
35.22332 602
35.24343 634
35.26354 620
35.28366 646
35.30377 582
35.32389 585
35.344 640
35.36411 570
35.38423 600
35.40434 570
35.42445 570
35.44457 583
35.46468 567
35.4848 577
35.50491 590
35.52502 564
35.54514 566
35.56525 569
35.58536 534
35.60548 560
35.62559 554
35.64571 556
35.66582 500
35.68593 556
35.70605 516
35.72616 497
35.74627 503
35.76639 484
35.7865 462
35.80661 515
35.82673 509
35.84684 468
35.86696 495
35.88707 566
35.90718 521
35.9273 518
35.94741 564
35.96752 549
35.98764 605
36.00775 600
36.02787 581
36.04798 517
36.06809 600
36.08821 578
36.10832 508
36.12843 498
36.14855 501
36.16866 517
36.18878 417
36.20889 495
36.229 500
36.24912 482
36.26923 451
36.28934 510
36.30946 507
36.32957 482
36.34968 518
36.3698 546
36.38991 601
36.41003 694
36.43014 734
36.45025 849
36.47037 873
36.49048 877
36.51059 878
36.53071 808
36.55082 756
36.57094 746
36.59105 664
36.61116 645
36.63128 545
36.65139 515
36.6715 479
36.69162 424
36.71173 434
36.73184 492
36.75196 445
36.77207 475
36.79219 440
36.8123 488
36.83241 495
36.85253 474
36.87264 465
36.89275 427
36.91287 447
36.93298 443
36.9531 497
36.97321 477
36.99332 440
37.01344 504
37.03355 442
37.05366 456
37.07378 440
37.09389 414
37.11401 443
37.13412 433
37.15423 440
37.17435 417
37.19446 406
37.21457 412
37.23469 433
37.2548 424
37.27491 425
37.29503 410
37.31514 441
37.33526 419
37.35537 459
37.37548 400
37.3956 418
37.41571 407
37.43582 413
37.45594 451
37.47605 426
37.49617 440
37.51628 442
37.53639 409
37.55651 479
37.57662 441
37.59673 444
37.61685 451
37.63696 436
37.65708 415
37.67719 407
37.6973 406
37.71742 415
37.73753 398
37.75764 397
37.77776 434
37.79787 415
37.81798 373
37.8381 381
37.85821 364
37.87833 403
37.89844 388
37.91855 365
37.93867 379
37.95878 396
37.97889 396
37.99901 393
38.01912 394
38.03924 391
38.05935 405
38.07946 354
38.09958 395
38.11969 374
38.1398 400
38.15992 371
38.18003 354
38.20015 371
38.22026 357
38.24037 383
38.26049 379
38.2806 382
38.30071 385
38.32083 361
38.34094 411
38.36105 414
38.38117 378
38.40128 389
38.4214 384
38.44151 375
38.46162 405
38.48174 371
38.50185 382
38.52196 380
38.54208 406
38.56219 375
38.58231 328
38.60242 364
38.62253 360
38.64265 368
38.66276 320
38.68287 388
38.70299 371
38.7231 374
38.74321 343
38.76333 348
38.78344 379
38.80356 353
38.82367 344
38.84378 342
38.8639 401
38.88401 336
38.90412 389
38.92424 337
38.94435 386
38.96447 376
38.98458 344
39.00469 350
39.02481 372
39.04492 376
39.06503 351
39.08515 386
39.10526 414
39.12538 391
39.14549 407
39.1656 395
39.18572 424
39.20583 455
39.22594 467
39.24606 529
39.26617 512
39.28628 588
39.3064 661
39.32651 704
39.34663 763
39.36674 842
39.38685 882
39.40697 955
39.42708 930
39.44719 939
39.46731 868
39.48742 795
39.50754 734
39.52765 661
39.54776 613
39.56788 545
39.58799 493
39.6081 487
39.62822 416
39.64833 395
39.66845 381
39.68856 405
39.70867 395
39.72879 374
39.7489 423
39.76901 395
39.78913 390
39.80924 385
39.82935 388
39.84947 383
39.86958 355
39.8897 373
39.90981 377
39.92992 371
39.95004 392
39.97015 357
39.99026 384
40.01038 407
40.03049 424
40.05061 425
40.07072 413
40.09083 383
40.11095 442
40.13106 431
40.15117 456
40.17129 545
40.1914 517
40.21152 553
40.23163 579
40.25174 570
40.27186 576
40.29197 546
40.31208 456
40.3322 498
40.35231 491
40.37242 479
40.39254 427
40.41265 404
40.43277 383
40.45288 347
40.47299 388
40.49311 411
40.51322 371
40.53333 364
40.55345 370
40.57356 384
40.59368 358
40.61379 361
40.6339 378
40.65402 345
40.67413 349
40.69424 368
40.71436 409
40.73447 356
40.75458 402
40.7747 366
40.79481 385
40.81493 377
40.83504 373
40.85515 365
40.87527 381
40.89538 391
40.91549 341
40.93561 364
40.95572 356
40.97584 373
40.99595 407
41.01606 356
41.03618 404
41.05629 383
41.0764 356
41.09652 366
41.11663 368
41.13675 338
41.15686 359
41.17697 361
41.19709 347
41.2172 340
41.23731 394
41.25743 375
41.27754 387
41.29765 384
41.31777 353
41.33788 391
41.358 330
41.37811 342
41.39822 345
41.41834 353
41.43845 336
41.45856 329
41.47868 352
41.49879 384
41.51891 349
41.53902 377
41.55913 386
41.57925 384
41.59936 379
41.61947 408
41.63959 395
41.6597 412
41.67982 413
41.69993 407
41.72004 408
41.74016 442
41.76027 428
41.78038 399
41.8005 427
41.82061 399
41.84072 406
41.86084 364
41.88095 377
41.90107 329
41.92118 385
41.94129 353
41.96141 334
41.98152 345
42.00163 386
42.02175 357
42.04186 355
42.06198 326
42.08209 369
42.1022 392
42.12232 336
42.14243 352
42.16254 385
42.18266 376
42.20277 374
42.22289 413
42.243 426
42.26311 436
42.28323 472
42.30334 503
42.32345 560
42.34357 615
42.36368 642
42.38379 684
42.40391 669
42.42402 658
42.44414 598
42.46425 520
42.48436 527
42.50448 484
42.52459 486
42.5447 464
42.56482 432
42.58493 383
42.60505 379
42.62516 430
42.64527 388
42.66539 372
42.6855 387
42.70561 367
42.72573 398
42.74584 379
42.76595 405
42.78607 394
42.80618 377
42.8263 377
42.84641 444
42.86652 385
42.88664 371
42.90675 402
42.92686 369
42.94698 367
42.96709 346
42.98721 376
43.00732 365
43.02743 387
43.04755 386
43.06766 399
43.08777 447
43.10789 447
43.128 449
43.14812 436
43.16823 453
43.18834 499
43.20846 440
43.22857 459
43.24868 414
43.2688 412
43.28891 414
43.30902 403
43.32914 415
43.34925 407
43.36937 375
43.38948 348
43.40959 343
43.42971 351
43.44982 347
43.46993 346
43.49005 334
43.51016 332
43.53028 325
43.55039 310
43.5705 334
43.59062 337
43.61073 325
43.63084 322
43.65096 327
43.67107 344
43.69119 340
43.7113 334
43.73141 327
43.75153 330
43.77164 342
43.79175 315
43.81187 318
43.83198 329
43.85209 311
43.87221 324
43.89232 353
43.91244 334
43.93255 312
43.95266 306
43.97278 324
43.99289 332
44.013 337
44.03312 321
44.05323 328
44.07335 329
44.09346 329
44.11357 320
44.13369 329
44.1538 316
44.17391 332
44.19403 326
44.21414 331
44.23426 293
44.25437 324
44.27448 348
44.2946 329
44.31471 335
44.33482 343
44.35494 305
44.37505 322
44.39516 308
44.41528 306
44.43539 291
44.45551 299
44.47562 320
44.49573 344
44.51585 326
44.53596 313
44.55607 331
44.57619 314
44.5963 316
44.61642 312
44.63653 327
44.65664 323
44.67676 347
44.69687 308
44.71698 345
44.7371 324
44.75721 330
44.77732 334
44.79744 362
44.81755 339
44.83767 327
44.85778 309
44.87789 320
44.89801 324
44.91812 331
44.93823 341
44.95835 334
44.97846 336
44.99858 315
45.01869 331
45.0388 324
45.05892 348
45.07903 336
45.09914 334
45.11926 315
45.13937 322
45.15949 333
45.1796 328
45.19971 353
45.21983 313
45.23994 292
45.26005 327
45.28017 287
45.30028 314
45.32039 353
45.34051 321
45.36062 319
45.38074 338
45.40085 319
45.42096 347
45.44108 339
45.46119 369
45.4813 350
45.50142 340
45.52153 337
45.54165 401
45.56176 370
45.58187 398
45.60199 373
45.6221 439
45.64221 430
45.66233 461
45.68244 478
45.70256 514
45.72267 529
45.74278 556
45.7629 528
45.78301 433
45.80312 480
45.82324 462
45.84335 438
45.86346 383
45.88358 426
45.90369 415
45.92381 336
45.94392 372
45.96403 314
45.98415 335
46.00426 349
46.02437 339
46.04449 325
46.0646 302
46.08472 330
46.10483 327
46.12494 339
46.14506 375
46.16517 319
46.18528 323
46.2054 304
46.22551 349
46.24563 297
46.26574 285
46.28585 316
46.30597 328
46.32608 294
46.34619 297
46.36631 283
46.38642 296
46.40653 321
46.42665 271
46.44676 300
46.46688 303
46.48699 291
46.5071 294
46.52722 264
46.54733 303
46.56744 295
46.58756 271
46.60767 311
46.62779 330
46.6479 306
46.66801 318
46.68813 270
46.70824 296
46.72835 326
46.74847 305
46.76858 297
46.78869 278
46.80881 341
46.82892 323
46.84904 288
46.86915 324
46.88926 301
46.90938 317
46.92949 295
46.9496 321
46.96972 327
46.98983 329
47.00995 326
47.03006 316
47.05017 330
47.07029 363
47.0904 343
47.11051 375
47.13063 350
47.15074 327
47.17086 342
47.19097 352
47.21108 352
47.2312 357
47.25131 342
47.27142 351
47.29154 335
47.31165 397
47.33176 389
47.35188 385
47.37199 372
47.39211 424
47.41222 445
47.43233 418
47.45245 433
47.47256 431
47.49267 455
47.51279 411
47.5329 474
47.55302 487
47.57313 381
47.59324 396
47.61336 377
47.63347 378
47.65358 373
47.6737 346
47.69381 357
47.71393 346
47.73404 353
47.75415 366
47.77427 340
47.79438 319
47.81449 328
47.83461 361
47.85472 338
47.87483 301
47.89495 291
47.91506 289
47.93518 329
47.95529 294
47.9754 299
47.99552 310
48.01563 297
48.03574 336
48.05586 301
48.07597 322
48.09609 295
48.1162 318
48.13631 326
48.15643 342
48.17654 338
48.19665 304
48.21677 346
48.23688 381
48.257 345
48.27711 342
48.29722 365
48.31734 369
48.33745 350
48.35756 384
48.37768 384
48.39779 396
48.4179 380
48.43802 462
48.45813 424
48.47825 434
48.49836 480
48.51847 452
48.53859 425
48.5587 437
48.57881 430
48.59893 420
48.61904 389
48.63916 420
48.65927 404
48.67938 362
48.6995 381
48.71961 374
48.73972 393
48.75984 378
48.77995 329
48.80006 358
48.82018 366
48.84029 343
48.86041 351
48.88052 325
48.90063 328
48.92075 330
48.94086 352
48.96097 312
48.98109 365
49.0012 355
49.02132 345
49.04143 340
49.06154 342
49.08166 330
49.10177 343
49.12188 377
49.142 359
49.16211 352
49.18223 381
49.20234 365
49.22245 354
49.24257 343
49.26268 348
49.28279 362
49.30291 300
49.32302 322
49.34313 342
49.36325 310
49.38336 311
49.40348 323
49.42359 300
49.4437 328
49.46382 324
49.48393 329
49.50404 304
49.52416 337
49.54427 286
49.56439 348
49.5845 329
49.60461 316
49.62473 303
49.64484 335
49.66495 333
49.68507 346
49.70518 353
49.7253 366
49.74541 329
49.76552 374
49.78564 402
49.80575 431
49.82586 411
49.84598 400
49.86609 422
49.8862 459
49.90632 477
49.92643 520
49.94655 580
49.96666 612
49.98677 665
50.00689 799
50.027 912
50.04711 969
50.06723 1001
50.08734 1020
50.10746 1001
50.12757 920
50.14768 805
50.1678 715
50.18791 662
50.20802 714
50.22814 636
50.24825 557
50.26837 516
50.28848 440
50.30859 378
50.32871 408
50.34882 349
50.36893 331
50.38905 378
50.40916 327
50.42927 367
50.44939 378
50.4695 386
50.48962 376
50.50973 360
50.52984 365
50.54996 377
50.57007 382
50.59018 385
50.6103 397
50.63041 381
50.65053 371
50.67064 361
50.69075 350
50.71087 405
50.73098 314
50.75109 347
50.77121 309
50.79132 324
50.81143 343
50.83155 319
50.85166 312
50.87178 310
50.89189 301
50.912 316
50.93212 308
50.95223 296
50.97234 288
50.99246 292
51.01257 291
51.03269 285
51.0528 340
51.07291 321
51.09303 304
51.11314 330
51.13325 287
51.15337 323
51.17348 328
51.1936 319
51.21371 307
51.23382 319
51.25394 347
51.27405 299
51.29416 327
51.31428 301
51.33439 313
51.3545 314
51.37462 287
51.39473 305
51.41485 287
51.43496 262
51.45507 293
51.47519 278
51.4953 290
51.51541 336
51.53553 282
51.55564 271
51.57576 266
51.59587 257
51.61598 277
51.6361 282
51.65621 273
51.67632 230
51.69644 291
51.71655 300
51.73667 272
51.75678 271
51.77689 258
51.79701 273
51.81712 274
51.83723 270
51.85735 260
51.87746 281
51.89757 259
51.91769 313
51.9378 281
51.95792 281
51.97803 294
51.99814 260
52.01826 312
52.03837 264
52.05848 290
52.0786 294
52.09871 280
52.11883 262
52.13894 283
52.15905 289
52.17917 298
52.19928 283
52.21939 306
52.23951 287
52.25962 283
52.27974 296
52.29985 311
52.31996 291
52.34008 289
52.36019 294
52.3803 287
52.40042 315
52.42053 289
52.44064 276
52.46076 301
52.48087 297
52.50099 302
52.5211 309
52.54121 315
52.56133 295
52.58144 325
52.60155 265
52.62167 325
52.64178 291
52.6619 305
52.68201 310
52.70212 304
52.72224 303
52.74235 311
52.76246 339
52.78258 295
52.80269 303
52.8228 321
52.84292 298
52.86303 308
52.88315 309
52.90326 307
52.92337 305
52.94349 325
52.9636 321
52.98371 308
53.00383 321
53.02394 339
53.04406 332
53.06417 384
53.08428 326
53.1044 306
53.12451 317
53.14462 315
53.16474 310
53.18485 325
53.20497 328
53.22508 342
53.24519 381
53.26531 357
53.28542 336
53.30553 317
53.32565 335
53.34576 333
53.36587 335
53.38599 326
53.4061 353
53.42622 353
53.44633 338
53.46644 318
53.48656 299
53.50667 324
53.52678 323
53.5469 357
53.56701 335
53.58713 371
53.60724 357
53.62735 332
53.64747 312
53.66758 344
53.68769 349
53.70781 352
53.72792 368
53.74804 351
53.76815 357
53.78826 309
53.80838 382
53.82849 377
53.8486 394
53.86872 371
53.88883 345
53.90894 377
53.92906 366
53.94917 360
53.96929 375
53.9894 391
54.00951 366
54.02963 356
54.04974 385
54.06985 380
54.08997 349
54.11008 345
54.1302 350
54.15031 372
54.17042 383
54.19054 366
54.21065 332
54.23076 361
54.25088 354
54.27099 351
54.29111 361
54.31122 378
54.33133 346
54.35145 338
54.37156 423
54.39167 352
54.41179 340
54.4319 356
54.45201 383
54.47213 359
54.49224 389
54.51236 348
54.53247 348
54.55258 334
54.5727 350
54.59281 347
54.61292 369
54.63304 374
54.65315 359
54.67327 400
54.69338 412
54.71349 395
54.73361 453
54.75372 498
54.77383 493
54.79395 513
54.81406 550
54.83417 527
54.85429 515
54.8744 456
54.89452 436
54.91463 464
54.93474 451
54.95486 456
54.97497 445
54.99508 394
55.0152 400
55.03531 396
55.05543 376
55.07554 389
55.09565 347
55.11577 329
55.13588 343
55.15599 361
55.17611 387
55.19622 381
55.21634 343
55.23645 423
55.25656 397
55.27668 405
55.29679 413
55.3169 431
55.33702 398
55.35713 394
55.37724 384
55.39736 411
55.41747 379
55.43759 378
55.4577 327
55.47781 360
55.49793 354
55.51804 356
55.53815 313
55.55827 358
55.57838 314
55.5985 357
55.61861 345
55.63872 319
55.65884 325
55.67895 315
55.69906 324
55.71918 316
55.73929 340
55.75941 308
55.77952 312
55.79963 325
55.81975 329
55.83986 324
55.85997 276
55.88009 314
55.9002 282
55.92031 324
55.94043 350
55.96054 316
55.98066 303
56.00077 325
56.02088 294
56.041 334
56.06111 322
56.08122 312
56.10134 300
56.12145 315
56.14157 324
56.16168 296
56.18179 276
56.20191 286
56.22202 297
56.24213 344
56.26225 320
56.28236 328
56.30248 309
56.32259 289
56.3427 320
56.36282 320
56.38293 319
56.40304 298
56.42316 337
56.44327 325
56.46338 289
56.4835 300
56.50361 327
56.52373 295
56.54384 336
56.56395 350
56.58407 331
56.60418 336
56.62429 329
56.64441 321
56.66452 335
56.68464 293
56.70475 311
56.72486 333
56.74498 298
56.76509 360
56.7852 311
56.80532 313
56.82543 298
56.84554 319
56.86566 290
56.88577 276
56.90589 320
56.926 305
56.94611 307
56.96623 302
56.98634 324
57.00645 318
57.02657 320
57.04668 299
57.0668 313
57.08691 321
57.10702 312
57.12714 331
57.14725 328
57.16736 319
57.18748 302
57.20759 320
57.22771 313
57.24782 353
57.26793 344
57.28805 359
57.30816 361
57.32827 346
57.34839 355
57.3685 367
57.38861 407
57.40873 351
57.42884 373
57.44896 357
57.46907 355
57.48918 371
57.5093 351
57.52941 351
57.54952 351
57.56964 342
57.58975 321
57.60987 337
57.62998 303
57.65009 321
57.67021 284
57.69032 302
57.71043 333
57.73055 322
57.75066 324
57.77078 325
57.79089 312
57.811 325
57.83112 269
57.85123 299
57.87134 314
57.89146 281
57.91157 324
57.93168 305
57.9518 297
57.97191 303
57.99203 320
58.01214 304
58.03225 298
58.05237 321
58.07248 302
58.09259 312
58.11271 295
58.13282 294
58.15294 296
58.17305 296
58.19316 294
58.21328 316
58.23339 287
58.2535 309
58.27362 274
58.29373 321
58.31385 291
58.33396 284
58.35407 306
58.37419 311
58.3943 311
58.41441 297
58.43453 310
58.45464 270
58.47475 280
58.49487 293
58.51498 286
58.5351 291
58.55521 326
58.57532 308
58.59544 319
58.61555 315
58.63566 279
58.65578 299
58.67589 299
58.69601 278
58.71612 293
58.73623 301
58.75635 315
58.77646 304
58.79657 281
58.81669 302
58.8368 295
58.85691 286
58.87703 287
58.89714 282
58.91726 274
58.93737 288
58.95748 312
58.9776 261
58.99771 316
59.01782 288
59.03794 310
59.05805 324
59.07817 307
59.09828 302
59.11839 256
59.13851 249
59.15862 306
59.17873 301
59.19885 260
59.21896 291
59.23908 316
59.25919 282
59.2793 300
59.29942 310
59.31953 326
59.33964 294
59.35976 281
59.37987 311
59.39998 294
59.4201 300
59.44021 310
59.46033 294
59.48044 329
59.50055 327
59.52067 316
59.54078 322
59.56089 334
59.58101 322
59.60112 342
59.62124 388
59.64135 365
59.66146 370
59.68158 369
59.70169 390
59.7218 436
59.74192 422
59.76203 473
59.78215 498
59.80226 506
59.82237 568
59.84249 642
59.8626 724
59.88271 731
59.90283 749
59.92294 702
59.94305 661
59.96317 577
59.98328 516
60.0034 515
60.02351 545
60.04362 535
60.06374 548
60.08385 506
60.10396 479
60.12408 449
60.14419 391
60.16431 391
60.18442 352
60.20453 338
60.22465 320
60.24476 338
60.26487 328
60.28499 345
60.3051 323
60.32522 302
60.34533 333
60.36544 305
60.38556 316
60.40567 287
60.42578 329
60.4459 292
60.46601 339
60.48612 328
60.50624 322
60.52635 286
60.54647 362
60.56658 329
60.58669 333
60.60681 326
60.62692 351
60.64703 386
60.66715 368
60.68726 327
60.70738 312
60.72749 337
60.7476 372
60.76772 380
60.78783 323
60.80794 356
60.82806 359
60.84817 329
60.86828 364
60.8884 357
60.90851 338
60.92863 346
60.94874 303
60.96885 369
60.98897 373
61.00908 333
61.02919 339
61.04931 335
61.06942 353
61.08954 358
61.10965 338
61.12976 407
61.14988 394
61.16999 341
61.1901 368
61.21022 395
61.23033 368
61.25045 391
61.27056 399
61.29067 412
61.31079 436
61.3309 429
61.35101 409
61.37113 412
61.39124 401
61.41135 394
61.43147 411
61.45158 381
61.4717 437
61.49181 406
61.51192 427
61.53204 470
61.55215 438
61.57226 433
61.59238 418
61.61249 450
61.63261 433
61.65272 430
61.67283 405
61.69295 410
61.71306 441
61.73317 418
61.75329 424
61.7734 412
61.79352 382
61.81363 402
61.83374 401
61.85386 376
61.87397 390
61.89408 369
61.9142 363
61.93431 350
61.95442 365
61.97454 392
61.99465 372
62.01477 339
62.03488 363
62.05499 354
62.07511 377
62.09522 338
62.11533 372
62.13545 343
62.15556 312
62.17568 343
62.19579 349
62.2159 332
62.23602 400
62.25613 332
62.27624 338
62.29636 342
62.31647 287
62.33659 311
62.3567 337
62.37681 328
62.39693 335
62.41704 331
62.43715 337
62.45727 341
62.47738 299
62.49749 323
62.51761 310
62.53772 331
62.55784 292
62.57795 294
62.59806 314
62.61818 312
62.63829 325
62.6584 305
62.67852 297
62.69863 321
62.71875 317
62.73886 313
62.75897 298
62.77909 329
62.7992 348
62.81931 328
62.83943 315
62.85954 326
62.87965 305
62.89977 304
62.91988 298
62.94 303
62.96011 280
62.98022 295
63.00034 291
63.02045 279
63.04056 314
63.06068 301
63.08079 293
63.10091 337
63.12102 291
63.14113 330
63.16125 319
63.18136 354
63.20147 297
63.22159 330
63.2417 321
63.26182 293
63.28193 314
63.30204 304
63.32216 293
63.34227 309
63.36238 319
63.3825 314
63.40261 295
63.42272 295
63.44284 320
63.46295 322
63.48307 275
63.50318 309
63.52329 317
63.54341 302
63.56352 299
63.58363 306
63.60375 318
63.62386 314
63.64398 343
63.66409 308
63.6842 345
63.70432 330
63.72443 304
63.74454 301
63.76466 364
63.78477 353
63.80489 346
63.825 374
63.84511 365
63.86523 348
63.88534 399
63.90545 377
63.92557 364
63.94568 382
63.96579 392
63.98591 389
64.00602 398
64.02614 342
64.04625 327
64.06636 364
64.08648 333
64.10659 357
64.1267 323
64.14682 305
64.16693 323
64.18705 289
64.20716 310
64.22727 273
64.24739 292
64.2675 291
64.28761 297
64.30773 310
64.32784 280
64.34796 249
64.36807 281
64.38818 250
64.4083 323
64.42841 280
64.44852 269
64.46864 284
64.48875 278
64.50886 291
64.52898 287
64.54909 254
64.56921 283
64.58932 283
64.60943 308
64.62955 286
64.64966 309
64.66977 321
64.68989 305
64.71 336
64.73012 300
64.75023 296
64.77034 310
64.79046 311
64.81057 306
64.83068 302
64.8508 317
64.87091 306
64.89102 310
64.91114 308
64.93125 328
64.95137 302
64.97148 284
64.99159 295
65.01171 319
65.03182 308
65.05193 268
65.07205 295
65.09216 333
65.11228 287
65.13239 287
65.1525 298
65.17262 302
65.19273 313
65.21284 294
65.23296 292
65.25307 282
65.27319 299
65.2933 300
65.31341 278
65.33353 295
65.35364 299
65.37375 303
65.39387 296
65.41398 295
65.43409 309
65.45421 288
65.47432 288
65.49444 305
65.51455 278
65.53466 311
65.55478 317
65.57489 323
65.595 288
65.61512 301
65.63523 310
65.65535 274
65.67546 289
65.69557 298
65.71569 327
65.7358 314
65.75591 282
65.77603 260
65.79614 287
65.81626 296
65.83637 279
65.85648 305
65.8766 264
65.89671 283
65.91682 289
65.93694 269
65.95705 268
65.97716 274
65.99728 270
66.01739 273
66.03751 269
66.05762 274
66.07773 262
66.09785 271
66.11796 267
66.13807 256
66.15819 254
66.1783 281
66.19842 268
66.21853 279
66.23864 266
66.25876 260
66.27887 262
66.29898 251
66.3191 282
66.33921 254
66.35933 298
66.37944 262
66.39955 262
66.41967 274
66.43978 274
66.45989 270
66.48001 231
66.50012 267
66.52023 271
66.54035 274
66.56046 275
66.58058 262
66.60069 262
66.6208 284
66.64092 276
66.66103 234
66.68114 274
66.70126 268
66.72137 276
66.74149 269
66.7616 264
66.78171 266
66.80183 272
66.82194 264
66.84205 255
66.86217 229
66.88228 266
66.90239 236
66.92251 247
66.94262 264
66.96274 275
66.98285 268
67.00296 287
67.02308 235
67.04319 281
67.0633 279
67.08342 244
67.10353 262
67.12365 279
67.14376 271
67.16387 290
67.18399 276
67.2041 287
67.22421 273
67.24433 261
67.26444 288
67.28456 270
67.30467 268
67.32478 268
67.3449 335
67.36501 288
67.38512 308
67.40524 293
67.42535 317
67.44546 289
67.46558 317
67.48569 312
67.50581 351
67.52592 361
67.54603 384
67.56615 370
67.58626 432
67.60637 434
67.62649 465
67.6466 512
67.66672 528
67.68683 533
67.70694 507
67.72706 459
67.74717 462
67.76728 413
67.7874 434
67.80751 401
67.82763 443
67.84774 448
67.86785 431
67.88797 474
67.90808 433
67.92819 504
67.94831 467
67.96842 487
67.98853 475
68.00865 548
68.02876 550
68.04888 609
68.06899 643
68.0891 602
68.10922 611
68.12933 586
68.14944 554
68.16956 527
68.18967 556
68.20979 569
68.2299 626
68.25001 576
68.27013 590
68.29024 523
68.31035 491
68.33047 478
68.35058 404
68.3707 365
68.39081 396
68.41092 411
68.43104 346
68.45115 396
68.47126 358
68.49138 324
68.51149 328
68.5316 311
68.55172 319
68.57183 285
68.59195 312
68.61206 288
68.63217 264
68.65229 283
68.6724 294
68.69251 247
68.71263 266
68.73274 277
68.75286 283
68.77297 271
68.79308 309
68.8132 276
68.83331 302
68.85342 270
68.87354 263
68.89365 277
68.91376 269
68.93388 284
68.95399 285
68.97411 262
68.99422 277
69.01433 295
69.03445 257
69.05456 291
69.07467 281
69.09479 264
69.1149 302
69.13502 276
69.15513 280
69.17524 267
69.19536 292
69.21547 292
69.23558 274
69.2557 284
69.27581 293
69.29593 294
69.31604 280
69.33615 260
69.35627 290
69.37638 261
69.39649 294
69.41661 307
69.43672 278
69.45683 275
69.47695 270
69.49706 309
69.51718 264
69.53729 287
69.5574 288
69.57752 270
69.59763 264
69.61774 264
69.63786 251
69.65797 251
69.67809 279
69.6982 252
69.71831 286
69.73843 307
69.75854 273
69.77865 296
69.79877 263
69.81888 297
69.839 260
69.85911 255
69.87922 260
69.89934 289
69.91945 269
69.93956 279
69.95968 256
69.97979 270
69.9999 266
70.02002 293
70.04013 287
70.06025 289
70.08036 286
70.10047 278
70.12059 286
70.1407 271
70.16081 287
70.18093 227
70.20104 285
70.22116 286
70.24127 264
70.26138 276
70.2815 249
70.30161 273
70.32172 269
70.34184 248
70.36195 295
70.38207 262
70.40218 247
70.42229 246
70.44241 269
70.46252 270
70.48263 267
70.50275 250
70.52286 254
70.54297 256
70.56309 260
70.5832 225
70.60332 288
70.62343 239
70.64354 269
70.66366 234
70.68377 248
70.70388 310
70.724 265
70.74411 257
70.76423 255
70.78434 263
70.80445 289
70.82457 287
70.84468 271
70.86479 270
70.88491 276
70.90502 236
70.92513 270
70.94525 257
70.96536 260
70.98548 260
71.00559 258
71.0257 269
71.04582 281
71.06593 249
71.08604 281
71.10616 259
71.12627 284
71.14639 248
71.1665 248
71.18661 242
71.20673 246
71.22684 270
71.24695 270
71.26707 263
71.28718 300
71.3073 272
71.32741 272
71.34752 275
71.36764 254
71.38775 295
71.40786 281
71.42798 262
71.44809 245
71.4682 320
71.48832 285
71.50843 263
71.52855 283
71.54866 284
71.56877 255
71.58889 259
71.609 291
71.62911 250
71.64923 269
71.66934 285
71.68946 262
71.70957 278
71.72968 271
71.7498 300
71.76991 298
71.79002 262
71.81014 278
71.83025 266
71.85037 264
71.87048 277
71.89059 277
71.91071 274
71.93082 283
71.95093 257
71.97105 235
71.99116 268
72.01127 280
72.03139 263
72.0515 296
72.07162 279
72.09173 261
72.11184 277
72.13196 244
72.15207 294
72.17218 281
72.1923 289
72.21241 277
72.23253 288
72.25264 305
72.27275 316
72.29287 272
72.31298 286
72.33309 260
72.35321 286
72.37332 285
72.39344 281
72.41355 253
72.43366 271
72.45378 315
72.47389 275
72.494 307
72.51412 300
72.53423 297
72.55434 257
72.57446 291
72.59457 319
72.61469 300
72.6348 278
72.65491 291
72.67503 278
72.69514 305
72.71525 301
72.73537 313
72.75548 302
72.7756 305
72.79571 269
72.81582 320
72.83594 301
72.85605 295
72.87616 301
72.89628 321
72.91639 277
72.9365 298
72.95662 297
72.97673 329
72.99685 306
73.01696 309
73.03707 321
73.05719 325
73.0773 323
73.09741 299
73.11753 290
73.13764 322
73.15776 331
73.17787 284
73.19798 313
73.2181 331
73.23821 309
73.25832 308
73.27844 312
73.29855 350
73.31867 326
73.33878 359
73.35889 363
73.37901 395
73.39912 358
73.41923 357
73.43935 347
73.45946 346
73.47957 323
73.49969 341
73.5198 314
73.53992 313
73.56003 327
73.58014 318
73.60026 336
73.62037 313
73.64048 320
73.6606 315
73.68071 290
73.70083 303
73.72094 301
73.74105 278
73.76117 283
73.78128 294
73.80139 298
73.82151 266
73.84162 285
73.86174 303
73.88185 295
73.90196 294
73.92208 277
73.94219 257
73.9623 293
73.98242 263
74.00253 280
74.02264 285
74.04276 269
74.06287 278
74.08299 257
74.1031 259
74.12321 267
74.14333 255
74.16344 288
74.18355 260
74.20367 301
74.22378 274
74.2439 290
74.26401 269
74.28412 278
74.30424 278
74.32435 273
74.34446 237
74.36458 262
74.38469 276
74.40481 292
74.42492 258
74.44503 272
74.46515 265
74.48526 273
74.50537 249
74.52549 280
74.5456 270
74.56571 246
74.58583 278
74.60594 255
74.62606 275
74.64617 230
74.66628 275
74.6864 281
74.70651 237
74.72662 252
74.74674 276
74.76685 278
74.78697 285
74.80708 268
74.82719 285
74.84731 254
74.86742 245
74.88753 277
74.90765 257
74.92776 233
74.94787 235
74.96799 265
74.9881 255
75.00822 274
