3.00117 20329
3.02128 19911
3.0414 19469
3.06151 19182
3.08162 18347
3.10174 18209
3.12185 17652
3.14197 16998
3.16208 16582
3.18219 15937
3.20231 15897
3.22242 15225
3.24253 14635
3.26265 14345
3.28276 13725
3.30288 13361
3.32299 13018
3.3431 12430
3.36322 12404
3.38333 11742
3.40344 11910
3.42356 11223
3.44367 10795
3.46379 10415
3.4839 10038
3.50401 9875
3.52413 9450
3.54424 8970
3.56435 8806
3.58447 8477
3.60458 8249
3.62469 7702
3.64481 7485
3.66492 7338
3.68504 7016
3.70515 6968
3.72526 6404
3.74538 6344
3.76549 6232
3.7856 5930
3.80572 5610
3.82583 5282
3.84595 5122
3.86606 4921
3.88617 4883
3.90629 4590
3.9264 4373
3.94651 4146
3.96663 4151
3.98674 3861
4.00686 3728
4.02697 3440
4.04708 3424
4.0672 3287
4.08731 3145
4.10742 3042
4.12754 2821
4.14765 2727
4.16776 2739
4.18788 2654
4.20799 2624
4.22811 2291
4.24822 2350
4.26833 2344
4.28845 2244
4.30856 2128
4.32867 2118
4.34879 1972
4.3689 2032
4.38902 2009
4.40913 1945
4.42924 1889
4.44936 1848
4.46947 1832
4.48958 1797
4.5097 1667
4.52981 1654
4.54992 1585
4.57004 1605
4.59015 1583
4.61027 1562
4.63038 1513
4.65049 1459
4.67061 1521
4.69072 1381
4.71083 1384
4.73095 1374
4.75106 1315
4.77118 1411
4.79129 1363
4.8114 1276
4.83152 1221
4.85163 1192
4.87174 1219
4.89186 1226
4.91197 1208
4.93209 1138
4.9522 1048
4.97231 1133
4.99243 1154
5.01254 1052
5.03265 1075
5.05277 1005
5.07288 1035
5.09299 974
5.11311 991
5.13322 1001
5.15334 968
5.17345 1006
5.19356 958
5.21368 876
5.23379 838
5.2539 893
5.27402 842
5.29413 945
5.31425 797
5.33436 839
5.35447 782
5.37459 792
5.3947 783
5.41481 793
5.43493 785
5.45504 759
5.47516 780
5.49527 722
5.51538 713
5.5355 740
5.55561 726
5.57572 731
5.59584 653
5.61595 709
5.63606 643
5.65618 664
5.67629 681
5.69641 692
5.71652 661
5.73663 641
5.75675 661
5.77686 621
5.79697 646
5.81709 612
5.8372 598
5.85732 600
5.87743 630
5.89754 589
5.91766 588
5.93777 564
5.95788 547
5.978 541
5.99811 591
6.01823 592
6.03834 567
6.05845 570
6.07857 551
6.09868 519
6.11879 540
6.13891 503
6.15902 536
6.17913 531
6.19925 477
6.21936 533
6.23948 495
6.25959 576
6.2797 581
6.29982 529
6.31993 501
6.34004 477
6.36016 478
6.38027 480
6.40039 519
6.4205 504
6.44061 509
6.46073 474
6.48084 524
6.50095 514
6.52107 490
6.54118 509
6.56129 456
6.58141 441
6.60152 479
6.62164 510
6.64175 483
6.66186 476
6.68198 440
6.70209 504
6.7222 467
6.74232 416
6.76243 463
6.78255 469
6.80266 481
6.82277 424
6.84289 481
6.863 486
6.88311 495
6.90323 463
6.92334 459
6.94346 396
6.96357 422
6.98368 426
7.0038 435
7.02391 452
7.04402 464
7.06414 487
7.08425 405
7.10436 431
7.12448 473
7.14459 425
7.16471 457
7.18482 438
7.20493 476
7.22505 433
7.24516 440
7.26527 477
7.28539 437
7.3055 447
7.32562 446
7.34573 410
7.36584 425
7.38596 463
7.40607 458
7.42618 425
7.4463 395
7.46641 419
7.48653 442
7.50664 376
7.52675 425
7.54687 431
7.56698 410
7.58709 438
7.60721 444
7.62732 413
7.64743 405
7.66755 394
7.68766 431
7.70778 396
7.72789 405
7.748 419
7.76812 429
7.78823 432
7.80834 416
7.82846 397
7.84857 417
7.86869 402
7.8888 410
7.90891 451
7.92903 470
7.94914 432
7.96925 433
7.98937 395
8.00948 421
8.0296 409
8.04971 444
8.06982 433
8.08994 397
8.11005 425
8.13016 397
8.15028 417
8.17039 427
8.1905 469
8.21062 421
8.23073 449
8.25085 435
8.27096 444
8.29107 441
8.31119 431
8.3313 405
8.35141 430
8.37153 459
8.39164 446
8.41176 406
8.43187 431
8.45198 461
8.4721 442
8.49221 467
8.51232 413
8.53244 442
8.55255 459
8.57266 476
8.59278 434
8.61289 456
8.63301 418
8.65312 403
8.67323 464
8.69335 461
8.71346 411
8.73357 440
8.75369 426
8.7738 395
8.79392 429
8.81403 446
8.83414 402
8.85426 405
8.87437 455
8.89448 439
8.9146 398
8.93471 403
8.95483 409
8.97494 426
8.99505 432
9.01517 387
9.03528 441
9.05539 412
9.07551 384
9.09562 346
9.11573 402
9.13585 384
9.15596 374
9.17608 370
9.19619 368
9.2163 396
9.23642 393
9.25653 383
9.27664 355
9.29676 394
9.31687 375
9.33699 321
9.3571 348
9.37721 328
9.39733 399
9.41744 352
9.43755 381
9.45767 338
9.47778 319
9.4979 379
9.51801 342
9.53812 370
9.55824 347
9.57835 356
9.59846 367
9.61858 345
9.63869 339
9.6588 328
9.67892 336
9.69903 376
9.71915 350
9.73926 357
9.75937 337
9.77949 289
9.7996 334
9.81971 348
9.83983 346
9.85994 331
9.88006 332
9.90017 345
9.92028 344
9.9404 307
9.96051 313
9.98062 325
10.00074 334
10.02085 331
10.04097 337
10.06108 327
10.08119 320
10.10131 310
10.12142 302
10.14153 318
10.16165 349
10.18176 339
10.20187 332
10.22199 341
10.2421 318
10.26222 287
10.28233 293
10.30244 329
10.32256 325
10.34267 324
10.36278 307
10.3829 342
10.40301 297
10.42313 329
10.44324 306
10.46335 314
10.48347 315
10.50358 305
10.52369 316
10.54381 283
10.56392 326
10.58403 288
10.60415 343
10.62426 272
10.64438 310
10.66449 321
10.6846 349
10.70472 283
10.72483 314
10.74494 282
10.76506 318
10.78517 354
10.80529 308
10.8254 320
10.84551 302
10.86563 325
10.88574 343
10.90585 311
10.92597 288
10.94608 319
10.9662 328
10.98631 303
11.00642 308
11.02654 292
11.04665 293
11.06676 296
11.08688 287
11.10699 306
11.1271 305
11.14722 315
11.16733 302
11.18745 334
11.20756 326
11.22767 278
11.24779 341
11.2679 291
11.28801 276
11.30813 316
11.32824 314
11.34836 316
11.36847 295
11.38858 300
11.4087 301
11.42881 301
11.44892 327
11.46904 304
11.48915 296
11.50927 324
11.52938 323
11.54949 281
11.56961 268
11.58972 316
11.60983 324
11.62995 294
11.65006 267
11.67017 315
11.69029 281
11.7104 292
11.73052 320
11.75063 308
11.77074 242
11.79086 314
11.81097 349
11.83108 292
11.8512 268
11.87131 292
11.89143 278
11.91154 298
11.93165 265
11.95177 284
11.97188 288
11.99199 286
12.01211 293
12.03222 276
12.05234 283
12.07245 289
12.09256 312
12.11268 296
12.13279 269
12.1529 310
12.17302 339
12.19313 292
12.21324 289
12.23336 286
12.25347 319
12.27359 327
12.2937 287
12.31381 266
12.33393 292
12.35404 319
12.37415 283
12.39427 278
12.41438 309
12.4345 284
12.45461 260
12.47472 290
12.49484 283
12.51495 309
12.53506 306
12.55518 283
12.57529 323
12.5954 260
12.61552 305
12.63563 279
12.65575 284
12.67586 293
12.69597 288
12.71609 261
12.7362 273
12.75631 267
12.77643 302
12.79654 249
12.81666 268
12.83677 305
12.85688 281
12.877 270
12.89711 250
12.91722 275
12.93734 291
12.95745 309
12.97757 276
12.99768 268
13.01779 249
13.03791 229
13.05802 297
13.07813 280
13.09825 296
13.11836 297
13.13847 281
13.15859 272
13.1787 286
13.19882 279
13.21893 258
13.23904 285
13.25916 307
13.27927 276
13.29938 282
13.3195 278
13.33961 293
13.35973 279
13.37984 295
13.39995 283
13.42007 272
13.44018 273
13.46029 247
13.48041 305
13.50052 284
13.52064 274
13.54075 281
13.56086 268
13.58098 294
13.60109 284
13.6212 295
13.64132 302
13.66143 317
13.68154 298
13.70166 307
13.72177 292
13.74189 259
13.762 275
13.78211 280
13.80223 287
13.82234 289
13.84245 302
13.86257 259
13.88268 317
13.9028 279
13.92291 250
13.94302 302
13.96314 256
13.98325 251
14.00336 272
14.02348 262
14.04359 281
14.06371 235
14.08382 268
14.10393 261
14.12405 293
14.14416 244
14.16427 258
14.18439 282
14.2045 275
14.22461 256
14.24473 240
14.26484 288
14.28496 251
14.30507 229
14.32518 281
14.3453 233
14.36541 251
14.38552 271
14.40564 249
14.42575 261
14.44587 258
14.46598 273
14.48609 243
14.50621 245
14.52632 267
14.54643 262
14.56655 281
14.58666 252
14.60677 255
14.62689 264
14.647 261
14.66712 272
14.68723 211
14.70734 262
14.72746 244
14.74757 243
14.76768 266
14.7878 275
14.80791 248
14.82803 268
14.84814 288
14.86825 243
14.88837 269
14.90848 281
14.92859 268
14.94871 265
14.96882 247
14.98894 301
15.00905 294
15.02916 267
15.04928 326
15.06939 303
15.0895 291
15.10962 282
15.12973 270
15.14984 286
15.16996 257
15.19007 281
15.21019 252
15.2303 250
15.25041 269
15.27053 273
15.29064 266
15.31075 295
15.33087 224
15.35098 255
15.3711 241
15.39121 250
15.41132 265
15.43144 269
15.45155 246
15.47166 248
15.49178 252
15.51189 273
15.53201 234
15.55212 244
15.57223 228
15.59235 267
15.61246 243
15.63257 268
15.65269 276
15.6728 266
15.69291 273
15.71303 250
15.73314 264
15.75326 249
15.77337 289
15.79348 256
15.8136 214
15.83371 275
15.85382 241
15.87394 310
15.89405 246
15.91417 258
15.93428 256
15.95439 281
15.97451 247
15.99462 242
16.01473 256
16.03485 228
16.05496 267
16.07508 277
16.09519 281
16.1153 273
16.13542 290
16.15553 271
16.17564 287
16.19576 229
16.21587 249
16.23598 272
16.2561 247
16.27621 292
16.29633 254
16.31644 240
16.33655 263
16.35667 237
16.37678 281
16.39689 261
16.41701 255
16.43712 249
16.45724 260
16.47735 274
16.49746 255
16.51758 263
16.53769 226
16.5578 254
16.57792 262
16.59803 265
16.61814 275
16.63826 233
16.65837 244
16.67849 255
16.6986 277
16.71871 268
16.73883 249
16.75894 256
16.77905 233
16.79917 259
16.81928 230
16.8394 272
16.85951 274
16.87962 261
16.89974 250
16.91985 269
16.93996 241
16.96008 265
16.98019 271
17.00031 250
17.02042 256
17.04053 257
17.06065 272
17.08076 220
17.10087 224
17.12099 256
17.1411 239
17.16121 246
17.18133 274
17.20144 253
17.22156 276
17.24167 255
17.26178 267
17.2819 249
17.30201 263
17.32212 275
17.34224 290
17.36235 260
17.38247 269
17.40258 237
17.42269 272
17.44281 246
17.46292 260
17.48303 276
17.50315 274
17.52326 277
17.54338 261
17.56349 261
17.5836 266
17.60372 268
17.62383 267
17.64394 259
17.66406 257
17.68417 261
17.70428 306
17.7244 272
17.74451 241
17.76463 285
17.78474 253
17.80485 271
17.82497 252
17.84508 267
17.86519 252
17.88531 242
17.90542 259
17.92554 256
17.94565 273
17.96576 259
17.98588 264
18.00599 263
18.0261 258
18.04622 226
18.06633 296
18.08645 266
18.10656 281
18.12667 230
18.14679 261
18.1669 262
18.18701 256
18.20713 289
18.22724 242
18.24735 284
18.26747 290
18.28758 273
18.3077 252
18.32781 255
18.34792 247
18.36804 277
18.38815 229
18.40826 261
18.42838 248
18.44849 254
18.46861 244
18.48872 256
18.50883 264
18.52895 263
18.54906 262
18.56917 257
18.58929 263
18.6094 266
18.62951 267
18.64963 256
18.66974 259
18.68986 253
18.70997 286
18.73008 264
18.7502 279
18.77031 278
18.79042 309
18.81054 264
18.83065 290
18.85077 283
18.87088 292
18.89099 282
18.91111 264
18.93122 282
18.95133 241
18.97145 287
18.99156 261
19.01168 294
19.03179 282
19.0519 288
19.07202 264
19.09213 307
19.11224 293
19.13236 305
19.15247 291
19.17258 311
19.1927 288
19.21281 318
19.23293 330
19.25304 323
19.27315 339
19.29327 350
19.31338 349
19.33349 362
19.35361 390
19.37372 375
19.39384 391
19.41395 398
19.43406 404
19.45418 416
19.47429 446
19.4944 413
19.51452 482
19.53463 493
19.55475 479
19.57486 567
19.59497 577
19.61509 557
19.6352 648
19.65531 605
19.67543 596
19.69554 642
19.71565 635
19.73577 669
19.75588 735
19.776 741
19.79611 715
19.81622 656
19.83634 680
19.85645 749
19.87656 728
19.89668 734
19.91679 703
19.93691 692
19.95702 618
19.97713 675
19.99725 645
20.01736 587
20.03747 682
20.05759 589
20.0777 640
20.09782 605
20.11793 639
20.13804 583
20.15816 593
20.17827 572
20.19838 579
20.2185 574
20.23861 591
20.25872 561
20.27884 555
20.29895 577
20.31907 515
20.33918 516
20.35929 541
20.37941 538
20.39952 522
20.41963 544
20.43975 509
20.45986 522
20.47998 605
20.50009 549
20.5202 533
20.54032 540
20.56043 575
20.58054 558
20.60066 617
20.62077 649
20.64088 739
20.661 855
20.68111 999
20.70123 1267
20.72134 1670
20.74145 1992
20.76157 2495
20.78168 3048
20.80179 3317
20.82191 3508
20.84202 3517
20.86214 3310
20.88225 2773
20.90236 2044
20.92248 1694
20.94259 1245
20.9627 1021
20.98282 906
21.00293 788
21.02305 710
21.04316 670
21.06327 647
21.08339 604
21.1035 515
21.12361 513
21.14373 463
21.16384 452
21.18395 428
21.20407 439
21.22418 400
21.2443 431
21.26441 393
21.28452 426
21.30464 358
21.32475 397
21.34486 400
21.36498 405
21.38509 386
21.40521 385
21.42532 392
21.44543 409
21.46555 429
21.48566 393
21.50577 406
21.52589 360
21.546 399
21.56612 375
21.58623 379
21.60634 371
21.62646 363
21.64657 384
21.66668 348
21.6868 357
21.70691 345
21.72702 376
21.74714 370
21.76725 402
21.78737 444
21.80748 398
21.82759 417
21.84771 423
21.86782 447
21.88793 452
21.90805 489
21.92816 482
21.94828 510
21.96839 516
21.9885 550
22.00862 526
22.02873 468
22.04884 443
22.06896 390
22.08907 409
22.10919 382
22.1293 407
22.14941 403
22.16953 418
22.18964 369
22.20975 393
22.22987 375
22.24998 415
22.27009 373
22.29021 361
22.31032 378
22.33044 373
22.35055 395
22.37066 405
22.39078 410
22.41089 403
22.431 407
22.45112 395
22.47123 408
22.49135 395
22.51146 411
22.53157 424
22.55169 396
22.5718 393
22.59191 359
22.61203 367
22.63214 371
22.65225 412
22.67237 385
22.69248 366
22.7126 375
22.73271 416
22.75282 378
22.77294 385
22.79305 400
22.81316 371
22.83328 393
22.85339 384
22.87351 347
22.89362 384
22.91373 382
22.93385 426
22.95396 397
22.97407 408
22.99419 360
23.0143 392
23.03442 386
23.05453 400
23.07464 391
23.09476 368
23.11487 370
23.13498 425
23.1551 397
23.17521 377
23.19532 378
23.21544 389
23.23555 378
23.25567 366
23.27578 396
23.29589 424
23.31601 408
23.33612 421
23.35623 406
23.37635 437
23.39646 480
23.41658 421
23.43669 455
23.4568 479
23.47692 479
23.49703 512
23.51714 561
23.53726 549
23.55737 517
23.57749 567
23.5976 464
23.61771 497
23.63783 441
23.65794 476
23.67805 441
23.69817 496
23.71828 438
23.73839 420
23.75851 443
23.77862 455
23.79874 429
23.81885 421
23.83896 474
23.85908 533
23.87919 467
23.8993 481
23.91942 478
23.93953 473
23.95965 487
23.97976 456
23.99987 490
24.01999 450
24.0401 430
24.06021 370
24.08033 391
24.10044 383
24.12056 419
24.14067 393
24.16078 427
24.1809 390
24.20101 377
24.22112 421
24.24124 443
24.26135 453
24.28146 426
24.30158 444
24.32169 463
24.34181 444
24.36192 423
24.38203 418
24.40215 402
24.42226 415
24.44237 380
24.46249 404
24.4826 403
24.50272 417
24.52283 438
24.54294 413
24.56306 404
24.58317 405
24.60328 416
24.6234 377
24.64351 416
24.66362 354
24.68374 392
24.70385 372
24.72397 438
24.74408 376
24.76419 357
24.78431 377
24.80442 358
24.82453 364
24.84465 399
24.86476 400
24.88488 402
24.90499 392
24.9251 418
24.94522 399
24.96533 389
24.98544 408
25.00556 432
25.02567 391
25.04579 397
25.0659 400
25.08601 429
25.10613 412
25.12624 428
25.14635 450
25.16647 448
25.18658 447
25.20669 414
25.22681 469
25.24692 443
25.26704 461
25.28715 395
25.30726 453
25.32738 392
25.34749 432
25.3676 417
25.38772 423
25.40783 493
25.42795 415
25.44806 471
25.46817 496
25.48829 529
25.5084 534
25.52851 568
25.54863 509
25.56874 593
25.58886 547
25.60897 626
25.62908 644
25.6492 590
25.66931 634
25.68942 593
25.70954 569
25.72965 543
25.74976 536
25.76988 503
25.78999 497
25.81011 509
25.83022 502
25.85033 535
25.87045 463
25.89056 519
25.91067 529
25.93079 471
25.9509 518
25.97102 540
25.99113 561
26.01124 583
26.03136 528
26.05147 579
26.07158 552
26.0917 615
26.11181 622
26.13193 637
26.15204 665
26.17215 685
26.19227 733
26.21238 753
26.23249 812
26.25261 880
26.27272 974
26.29283 982
26.31295 1121
26.33306 1237
26.35318 1410
26.37329 1614
26.3934 1828
26.41352 2336
26.43363 2939
26.45374 3752
26.47386 4901
26.49397 6374
26.51409 8297
26.5342 9983
26.55431 11962
26.57443 13853
26.59454 15049
26.61465 14771
26.63477 13844
26.65488 11732
26.67499 9290
26.69511 7268
26.71522 5324
26.73534 3660
26.75545 2449
26.77556 1809
26.79568 1446
26.81579 1212
26.8359 1186
26.85602 1157
26.87613 1019
26.89625 1036
26.91636 1044
26.93647 942
26.95659 875
26.9767 879
26.99681 832
27.01693 827
27.03704 912
27.05716 826
27.07727 799
27.09738 713
27.1175 729
27.13761 683
27.15772 621
27.17784 599
27.19795 589
27.21806 593
27.23818 566
27.25829 593
27.27841 557
27.29852 592
27.31863 568
27.33875 582
27.35886 640
27.37897 673
27.39909 691
27.4192 746
27.43932 787
27.45943 851
27.47954 871
27.49966 920
27.51977 795
27.53988 790
27.56 735
27.58011 637
27.60023 683
27.62034 644
27.64045 638
27.66057 641
27.68068 676
27.70079 697
27.72091 735
27.74102 726
27.76113 678
27.78125 693
27.80136 715
27.82148 681
27.84159 606
27.8617 640
27.88182 624
27.90193 697
27.92204 694
27.94216 660
27.96227 620
27.98239 608
28.0025 582
28.02261 583
28.04273 553
28.06284 539
28.08295 514
28.10307 495
28.12318 419
28.1433 496
28.16341 439
28.18352 461
28.20364 465
28.22375 416
28.24386 452
28.26398 442
28.28409 420
28.3042 450
28.32432 407
28.34443 444
28.36455 424
28.38466 394
28.40477 369
28.42489 413
28.445 366
28.46511 429
28.48523 382
28.50534 368
28.52546 338
28.54557 364
28.56568 392
28.5858 367
28.60591 340
28.62602 369
28.64614 364
28.66625 358
28.68636 367
28.70648 356
28.72659 370
28.74671 361
28.76682 378
28.78693 356
28.80705 378
28.82716 357
28.84727 376
28.86739 366
28.8875 377
28.90762 385
28.92773 356
28.94784 323
28.96796 365
28.98807 410
29.00818 340
29.0283 381
29.04841 342
29.06853 386
29.08864 362
29.10875 358
29.12887 369
29.14898 371
29.16909 376
29.18921 350
29.20932 371
29.22943 342
29.24955 350
29.26966 372
29.28978 355
29.30989 377
29.33 388
29.35012 414
29.37023 389
29.39034 381
29.41046 397
29.43057 418
29.45069 413
29.4708 399
29.49091 395
29.51103 419
29.53114 404
29.55125 430
29.57137 380
29.59148 371
29.6116 411
29.63171 429
29.65182 420
29.67194 423
29.69205 460
29.71216 479
29.73228 473
29.75239 472
29.7725 449
29.79262 456
29.81273 484
29.83285 480
29.85296 451
29.87307 490
29.89319 412
29.9133 438
29.93341 447
29.95353 422
29.97364 456
29.99376 396
30.01387 411
30.03398 387
30.0541 416
30.07421 401
30.09432 406
30.11444 411
30.13455 359
30.15467 428
30.17478 385
30.19489 401
30.21501 376
30.23512 383
30.25523 407
30.27535 391
30.29546 390
30.31557 426
30.33569 455
30.3558 360
30.37592 418
30.39603 378
30.41614 392
30.43626 417
30.45637 407
30.47648 410
30.4966 378
30.51671 411
30.53683 361
30.55694 420
30.57705 369
30.59717 351
30.61728 318
30.63739 403
30.65751 402
30.67762 413
30.69773 411
30.71785 428
30.73796 412
30.75808 428
30.77819 411
30.7983 434
30.81842 407
30.83853 404
30.85864 392
30.87876 401
30.89887 369
30.91899 361
30.9391 323
30.95921 341
30.97933 327
30.99944 332
31.01955 319
31.03967 327
31.05978 330
31.0799 285
31.10001 310
31.12012 335
31.14024 311
31.16035 300
31.18046 290
31.20058 327
31.22069 326
31.2408 349
31.26092 337
31.28103 337
31.30115 318
31.32126 310
31.34137 371
31.36149 361
31.3816 348
31.40171 332
31.42183 327
31.44194 339
31.46206 296
31.48217 305
31.50228 308
31.5224 316
31.54251 314
31.56262 337
31.58274 309
31.60285 313
31.62297 325
31.64308 328
31.66319 299
31.68331 313
31.70342 301
31.72353 339
31.74365 326
31.76376 310
31.78387 335
31.80399 303
31.8241 307
31.84422 320
31.86433 293
31.88444 313
31.90456 305
31.92467 293
31.94478 308
31.9649 308
31.98501 289
32.00513 307
32.02524 292
32.04535 309
32.06547 315
32.08558 325
32.10569 329
32.12581 314
32.14592 340
32.16604 351
32.18615 314
32.20626 336
32.22638 341
32.24649 388
32.2666 339
32.28672 376
32.30683 326
32.32694 383
32.34706 325
32.36717 341
32.38729 346
32.4074 312
32.42751 377
32.44763 350
32.46774 326
32.48785 339
32.50797 345
32.52808 358
32.5482 318
32.56831 319
32.58842 297
32.60854 287
32.62865 323
32.64876 333
32.66888 306
32.68899 300
32.7091 341
32.72922 324
32.74933 325
32.76945 339
32.78956 287
32.80967 314
32.82979 319
32.8499 334
32.87001 307
32.89013 311
32.91024 306
32.93036 317
32.95047 301
32.97058 283
32.9907 319
33.01081 317
33.03092 305
33.05104 295
33.07115 321
33.09127 307
33.11138 307
33.13149 333
33.15161 366
33.17172 322
33.19183 315
33.21195 296
33.23206 346
33.25217 292
33.27229 305
33.2924 301
33.31252 297
33.33263 288
33.35274 268
33.37286 288
33.39297 327
33.41308 335
33.4332 287
33.45331 306
33.47343 275
33.49354 305
33.51365 257
33.53377 277
33.55388 296
33.57399 261
33.59411 277
33.61422 288
33.63434 289
33.65445 309
33.67456 324
33.69468 329
33.71479 304
33.7349 308
33.75502 302
33.77513 322
33.79524 319
33.81536 333
33.83547 280
33.85559 307
33.8757 295
33.89581 310
33.91593 313
33.93604 295
33.95615 293
33.97627 322
33.99638 290
34.0165 315
34.03661 314
34.05672 314
34.07684 316
34.09695 334
34.11706 340
34.13718 343
34.15729 356
34.17741 337
34.19752 383
34.21763 394
34.23775 359
34.25786 400
34.27797 377
34.29809 425
34.3182 405
34.33831 405
34.35843 430
34.37854 446
34.39866 458
34.41877 456
34.43888 470
34.459 491
34.47911 519
34.49922 461
34.51934 509
34.53945 509
34.55957 527
34.57968 482
34.59979 554
34.61991 532
34.64002 513
34.66013 588
34.68025 528
34.70036 566
34.72047 551
34.74059 546
34.7607 584
34.78082 538
34.80093 565
34.82104 588
34.84116 557
34.86127 603
34.88138 583
34.9015 496
34.92161 525
34.94173 514
34.96184 504
34.98195 509
35.00207 544
35.02218 513
35.04229 530
35.06241 444
35.08252 554
35.10264 518
35.12275 477
35.14286 492
35.16298 445
35.18309 533
35.2032 487
35.22332 493
35.24343 472
35.26354 500
35.28366 494
35.30377 469
35.32389 443
35.344 463
35.36411 436
35.38423 459
35.40434 459
35.42445 482
35.44457 465
35.46468 453
35.4848 447
35.50491 481
35.52502 442
35.54514 443
35.56525 479
35.58536 484
35.60548 456
35.62559 426
35.64571 432
35.66582 451
35.68593 441
35.70605 429
35.72616 374
35.74627 438
35.76639 361
35.7865 363
35.80661 364
35.82673 350
35.84684 383
35.86696 403
35.88707 380
35.90718 356
35.9273 366
35.94741 351
35.96752 412
35.98764 378
36.00775 392
36.02787 419
36.04798 384
36.06809 366
36.08821 388
36.10832 409
36.12843 380
36.14855 410
36.16866 402
36.18878 425
36.20889 382
36.229 479
36.24912 405
36.26923 490
36.28934 513
36.30946 541
36.32957 588
36.34968 634
36.3698 717
36.38991 874
36.41003 969
36.43014 1017
36.45025 1189
36.47037 1300
36.49048 1336
36.51059 1321
36.53071 1298
36.55082 1110
36.57094 1056
36.59105 942
36.61116 811
36.63128 698
36.65139 649
36.6715 517
36.69162 484
36.71173 435
36.73184 413
36.75196 409
36.77207 398
36.79219 386
36.8123 427
36.83241 413
36.85253 398
36.87264 385
36.89275 383
36.91287 358
36.93298 378
36.9531 429
36.97321 428
36.99332 402
37.01344 407
37.03355 391
37.05366 398
37.07378 396
37.09389 425
37.11401 444
37.13412 392
37.15423 342
37.17435 389
37.19446 368
37.21457 402
37.23469 408
37.2548 395
37.27491 400
37.29503 386
37.31514 363
37.33526 358
37.35537 362
37.37548 393
37.3956 366
37.41571 383
37.43582 397
37.45594 373
37.47605 405
37.49617 363
37.51628 333
37.53639 364
37.55651 366
37.57662 364
37.59673 348
37.61685 353
37.63696 356
37.65708 401
37.67719 385
37.6973 355
37.71742 389
37.73753 372
37.75764 362
37.77776 348
37.79787 371
37.81798 354
37.8381 367
37.85821 360
37.87833 323
37.89844 397
37.91855 369
37.93867 322
37.95878 344
37.97889 355
37.99901 402
38.01912 351
38.03924 335
38.05935 355
38.07946 335
38.09958 350
38.11969 356
38.1398 340
38.15992 347
38.18003 370
38.20015 311
38.22026 311
38.24037 303
38.26049 323
38.2806 301
38.30071 329
38.32083 299
38.34094 308
38.36105 307
38.38117 324
38.40128 334
38.4214 370
38.44151 352
38.46162 315
38.48174 358
38.50185 339
38.52196 331
38.54208 376
38.56219 316
38.58231 329
38.60242 356
38.62253 338
38.64265 314
38.66276 332
38.68287 314
38.70299 317
38.7231 327
38.74321 356
38.76333 300
38.78344 311
38.80356 318
38.82367 299
38.84378 279
38.8639 274
38.88401 346
38.90412 314
38.92424 324
38.94435 306
38.96447 324
38.98458 327
39.00469 324
39.02481 289
39.04492 328
39.06503 361
39.08515 342
39.10526 353
39.12538 371
39.14549 373
39.1656 400
39.18572 435
39.20583 411
39.22594 457
39.24606 511
39.26617 526
39.28628 581
39.3064 704
39.32651 810
39.34663 928
39.36674 1039
39.38685 1118
39.40697 1174
39.42708 1253
39.44719 1144
39.46731 1065
39.48742 916
39.50754 834
39.52765 758
39.54776 673
39.56788 592
39.58799 516
39.6081 452
39.62822 435
39.64833 353
39.66845 353
39.68856 377
39.70867 362
39.72879 344
39.7489 323
39.76901 331
39.78913 313
39.80924 339
39.82935 311
39.84947 347
39.86958 349
39.8897 337
39.90981 325
39.92992 347
39.95004 320
39.97015 312
39.99026 332
40.01038 347
40.03049 380
40.05061 399
40.07072 414
40.09083 456
40.11095 471
40.13106 538
40.15117 556
40.17129 655
40.1914 648
40.21152 698
40.23163 729
40.25174 742
40.27186 669
40.29197 659
40.31208 625
40.3322 515
40.35231 512
40.37242 522
40.39254 445
40.41265 383
40.43277 347
40.45288 365
40.47299 311
40.49311 340
40.51322 349
40.53333 339
40.55345 349
40.57356 312
40.59368 316
40.61379 304
40.6339 328
40.65402 308
40.67413 328
40.69424 309
40.71436 339
40.73447 332
40.75458 326
40.7747 342
40.79481 314
40.81493 341
40.83504 323
40.85515 306
40.87527 291
40.89538 321
40.91549 302
40.93561 345
40.95572 316
40.97584 339
40.99595 296
41.01606 276
41.03618 302
41.05629 304
41.0764 308
41.09652 318
41.11663 287
41.13675 334
41.15686 287
41.17697 321
41.19709 295
41.2172 303
41.23731 276
41.25743 330
41.27754 340
41.29765 285
41.31777 305
41.33788 291
41.358 287
41.37811 294
41.39822 298
41.41834 310
41.43845 327
41.45856 295
41.47868 327
41.49879 294
41.51891 314
41.53902 312
41.55913 331
41.57925 318
41.59936 339
41.61947 354
41.63959 331
41.6597 335
41.67982 368
41.69993 384
41.72004 359
41.74016 347
41.76027 356
41.78038 352
41.8005 328
41.82061 343
41.84072 374
41.86084 319
41.88095 347
41.90107 344
41.92118 284
41.94129 303
41.96141 330
41.98152 292
42.00163 319
42.02175 333
42.04186 296
42.06198 312
42.08209 318
42.1022 367
42.12232 329
42.14243 351
42.16254 328
42.18266 388
42.20277 417
42.22289 440
42.243 477
42.26311 542
42.28323 587
42.30334 665
42.32345 694
42.34357 811
42.36368 887
42.38379 909
42.40391 1000
42.42402 913
42.44414 845
42.46425 797
42.48436 709
42.50448 670
42.52459 606
42.5447 553
42.56482 495
42.58493 413
42.60505 345
42.62516 357
42.64527 331
42.66539 350
42.6855 334
42.70561 343
42.72573 322
42.74584 321
42.76595 352
42.78607 323
42.80618 313
42.8263 298
42.84641 316
42.86652 310
42.88664 321
42.90675 291
42.92686 285
42.94698 301
42.96709 268
42.98721 299
43.00732 249
43.02743 278
43.04755 314
43.06766 293
43.08777 284
43.10789 265
43.128 307
43.14812 264
43.16823 277
43.18834 264
43.20846 307
43.22857 248
43.24868 278
43.2688 292
43.28891 326
43.30902 244
43.32914 251
43.34925 264
43.36937 282
43.38948 272
43.40959 291
43.42971 256
43.44982 264
43.46993 262
43.49005 284
43.51016 290
43.53028 294
43.55039 269
43.5705 299
43.59062 250
43.61073 266
43.63084 267
43.65096 269
43.67107 295
43.69119 304
43.7113 268
43.73141 278
43.75153 285
43.77164 269
43.79175 294
43.81187 273
43.83198 281
43.85209 297
43.87221 250
43.89232 268
43.91244 276
43.93255 282
43.95266 275
43.97278 256
43.99289 277
44.013 249
44.03312 281
44.05323 283
44.07335 299
44.09346 265
44.11357 245
44.13369 284
44.1538 254
44.17391 283
44.19403 279
44.21414 273
44.23426 271
44.25437 256
44.27448 250
44.2946 248
44.31471 256
44.33482 249
44.35494 257
44.37505 283
44.39516 234
44.41528 293
44.43539 256
44.45551 277
44.47562 275
44.49573 231
44.51585 255
44.53596 255
44.55607 275
44.57619 266
44.5963 261
44.61642 264
44.63653 274
44.65664 266
44.67676 255
44.69687 250
44.71698 283
44.7371 254
44.75721 265
44.77732 268
44.79744 273
44.81755 257
44.83767 298
44.85778 277
44.87789 303
44.89801 267
44.91812 292
44.93823 317
44.95835 291
44.97846 283
44.99858 272
45.01869 268
45.0388 298
45.05892 339
45.07903 317
45.09914 283
45.11926 294
45.13937 313
45.15949 302
45.1796 300
45.19971 290
45.21983 305
45.23994 270
45.26005 292
45.28017 279
45.30028 276
45.32039 307
45.34051 285
45.36062 305
45.38074 271
45.40085 313
45.42096 285
45.44108 259
45.46119 339
45.4813 361
45.50142 322
45.52153 318
45.54165 346
45.56176 372
45.58187 410
45.60199 439
45.6221 468
45.64221 510
45.66233 551
45.68244 615
45.70256 594
45.72267 680
45.74278 657
45.7629 691
45.78301 591
45.80312 552
45.82324 506
45.84335 509
45.86346 458
45.88358 458
45.90369 383
45.92381 394
45.94392 340
45.96403 311
45.98415 290
46.00426 286
46.02437 294
46.04449 284
46.0646 275
46.08472 290
46.10483 263
46.12494 265
46.14506 301
46.16517 278
46.18528 253
46.2054 264
46.22551 232
46.24563 279
46.26574 248
46.28585 236
46.30597 250
46.32608 269
46.34619 261
46.36631 242
46.38642 256
46.40653 270
46.42665 275
46.44676 263
46.46688 264
46.48699 268
46.5071 230
46.52722 247
46.54733 254
46.56744 246
46.58756 256
46.60767 236
46.62779 249
46.6479 244
46.66801 259
46.68813 260
46.70824 241
46.72835 265
46.74847 247
46.76858 251
46.78869 242
46.80881 261
46.82892 275
46.84904 226
46.86915 241
46.88926 230
46.90938 249
46.92949 252
46.9496 285
46.96972 246
46.98983 260
47.00995 283
47.03006 294
47.05017 285
47.07029 293
47.0904 270
47.11051 281
47.13063 268
47.15074 253
47.17086 244
47.19097 269
47.21108 274
47.2312 270
47.25131 281
47.27142 257
47.29154 249
47.31165 282
47.33176 262
47.35188 253
47.37199 266
47.39211 248
47.41222 271
47.43233 269
47.45245 263
47.47256 264
47.49267 265
47.51279 266
47.5329 256
47.55302 258
47.57313 282
47.59324 247
47.61336 241
47.63347 262
47.65358 228
47.6737 248
47.69381 245
47.71393 255
47.73404 241
47.75415 241
47.77427 234
47.79438 245
47.81449 247
47.83461 248
47.85472 247
47.87483 240
47.89495 253
47.91506 244
47.93518 215
47.95529 248
47.9754 225
47.99552 225
48.01563 253
48.03574 293
48.05586 238
48.07597 272
48.09609 244
48.1162 253
48.13631 248
48.15643 238
48.17654 248
48.19665 277
48.21677 299
48.23688 248
48.257 213
48.27711 264
48.29722 249
48.31734 276
48.33745 264
48.35756 227
48.37768 256
48.39779 279
48.4179 263
48.43802 234
48.45813 232
48.47825 253
48.49836 266
48.51847 242
48.53859 254
48.5587 260
48.57881 253
48.59893 257
48.61904 252
48.63916 248
48.65927 244
48.67938 285
48.6995 282
48.71961 239
48.73972 246
48.75984 234
48.77995 260
48.80006 262
48.82018 285
48.84029 265
48.86041 256
48.88052 268
48.90063 260
48.92075 290
48.94086 316
48.96097 270
48.98109 261
49.0012 279
49.02132 292
49.04143 275
49.06154 258
49.08166 302
49.10177 267
49.12188 229
49.142 282
49.16211 284
49.18223 270
49.20234 270
49.22245 255
49.24257 275
49.26268 276
49.28279 265
49.30291 271
49.32302 237
49.34313 299
49.36325 291
49.38336 286
49.40348 304
49.42359 307
49.4437 285
49.46382 292
49.48393 268
49.50404 276
49.52416 316
49.54427 290
49.56439 283
49.5845 286
49.60461 305
49.62473 312
49.64484 295
49.66495 320
49.68507 327
49.70518 341
49.7253 327
49.74541 374
49.76552 365
49.78564 442
49.80575 413
49.82586 440
49.84598 509
49.86609 534
49.8862 607
49.90632 664
49.92643 770
49.94655 779
49.96666 1033
49.98677 1144
50.00689 1322
50.027 1573
50.04711 1708
50.06723 1717
50.08734 1764
50.10746 1625
50.12757 1495
50.14768 1369
50.1678 1289
50.18791 1128
50.20802 1071
50.22814 983
50.24825 800
50.26837 677
50.28848 548
50.30859 464
50.32871 399
50.34882 366
50.36893 342
50.38905 337
50.40916 319
50.42927 390
50.44939 318
50.4695 310
50.48962 337
50.50973 363
50.52984 366
50.54996 363
50.57007 354
50.59018 363
50.6103 338
50.63041 332
50.65053 344
50.67064 336
50.69075 341
50.71087 323
50.73098 331
50.75109 320
50.77121 297
50.79132 308
50.81143 290
50.83155 252
50.85166 254
50.87178 264
50.89189 251
50.912 237
50.93212 248
50.95223 266
50.97234 242
50.99246 275
51.01257 242
51.03269 228
51.0528 219
51.07291 249
51.09303 242
51.11314 245
51.13325 244
51.15337 240
51.17348 236
51.1936 268
51.21371 231
51.23382 262
51.25394 232
51.27405 263
51.29416 269
51.31428 257
51.33439 249
51.3545 265
51.37462 286
51.39473 271
51.41485 237
51.43496 253
51.45507 279
51.47519 258
51.4953 221
51.51541 221
51.53553 235
51.55564 221
51.57576 229
51.59587 218
51.61598 233
51.6361 260
51.65621 224
51.67632 236
51.69644 238
51.71655 244
51.73667 217
51.75678 213
51.77689 205
51.79701 193
51.81712 233
51.83723 216
51.85735 241
51.87746 229
51.89757 220
51.91769 258
51.9378 221
51.95792 214
51.97803 243
51.99814 250
52.01826 227
52.03837 228
52.05848 204
52.0786 240
52.09871 243
52.11883 232
52.13894 243
52.15905 224
52.17917 251
52.19928 228
52.21939 239
52.23951 232
52.25962 241
52.27974 239
52.29985 245
52.31996 230
52.34008 226
52.36019 256
52.3803 261
52.40042 242
52.42053 230
52.44064 245
52.46076 229
52.48087 250
52.50099 251
52.5211 256
52.54121 248
52.56133 234
52.58144 239
52.60155 235
52.62167 211
52.64178 257
52.6619 242
52.68201 264
52.70212 251
52.72224 226
52.74235 253
52.76246 246
52.78258 257
52.80269 262
52.8228 243
52.84292 274
52.86303 251
52.88315 264
52.90326 254
52.92337 248
52.94349 281
52.9636 268
52.98371 246
53.00383 231
53.02394 265
53.04406 262
53.06417 277
53.08428 278
53.1044 243
53.12451 240
53.14462 252
53.16474 278
53.18485 265
53.20497 265
53.22508 284
53.24519 265
53.26531 286
53.28542 281
53.30553 272
53.32565 298
53.34576 285
53.36587 254
53.38599 299
53.4061 257
53.42622 245
53.44633 305
53.46644 259
53.48656 254
53.50667 273
53.52678 255
53.5469 288
53.56701 255
53.58713 266
53.60724 295
53.62735 301
53.64747 282
53.66758 303
53.68769 313
53.70781 283
53.72792 292
53.74804 316
53.76815 282
53.78826 285
53.80838 323
53.82849 272
53.8486 305
53.86872 306
53.88883 320
53.90894 309
53.92906 285
53.94917 294
53.96929 323
53.9894 273
54.00951 278
54.02963 298
54.04974 276
54.06985 313
54.08997 285
54.11008 293
54.1302 322
54.15031 295
54.17042 307
54.19054 297
54.21065 301
54.23076 308
54.25088 309
54.27099 305
54.29111 313
54.31122 314
54.33133 286
54.35145 293
54.37156 325
54.39167 316
54.41179 300
54.4319 329
54.45201 279
54.47213 320
54.49224 315
54.51236 316
54.53247 271
54.55258 341
54.5727 360
54.59281 343
54.61292 383
54.63304 373
54.65315 408
54.67327 465
54.69338 456
54.71349 507
54.73361 576
54.75372 602
54.77383 615
54.79395 677
54.81406 676
54.83417 671
54.85429 640
54.8744 605
54.89452 570
54.91463 511
54.93474 515
54.95486 483
54.97497 485
54.99508 471
55.0152 398
55.03531 406
55.05543 370
55.07554 375
55.09565 367
55.11577 356
55.13588 359
55.15599 370
55.17611 385
55.19622 401
55.21634 424
55.23645 465
55.25656 438
55.27668 439
55.29679 447
55.3169 427
55.33702 409
55.35713 373
55.37724 410
55.39736 389
55.41747 322
55.43759 369
55.4577 324
55.47781 313
55.49793 305
55.51804 302
55.53815 287
55.55827 278
55.57838 297
55.5985 284
55.61861 282
55.63872 267
55.65884 284
55.67895 258
55.69906 254
55.71918 283
55.73929 248
55.75941 288
55.77952 277
55.79963 246
55.81975 258
55.83986 297
55.85997 251
55.88009 239
55.9002 256
55.92031 271
55.94043 241
55.96054 255
55.98066 249
56.00077 271
56.02088 284
56.041 227
56.06111 267
56.08122 276
56.10134 290
56.12145 294
56.14157 252
56.16168 252
56.18179 274
56.20191 250
56.22202 247
56.24213 249
56.26225 261
56.28236 286
56.30248 241
56.32259 266
56.3427 254
56.36282 243
56.38293 288
56.40304 259
56.42316 258
56.44327 272
56.46338 265
56.4835 261
56.50361 268
56.52373 282
56.54384 274
56.56395 261
56.58407 235
56.60418 260
56.62429 266
56.64441 230
56.66452 266
56.68464 252
56.70475 288
56.72486 280
56.74498 244
56.76509 249
56.7852 263
56.80532 234
56.82543 282
56.84554 262
56.86566 243
56.88577 248
56.90589 267
56.926 272
56.94611 282
56.96623 266
56.98634 251
57.00645 261
57.02657 231
57.04668 249
57.0668 273
57.08691 266
57.10702 276
57.12714 264
57.14725 272
57.16736 280
57.18748 247
57.20759 281
57.22771 262
57.24782 282
57.26793 272
57.28805 272
57.30816 286
57.32827 264
57.34839 312
57.3685 264
57.38861 258
57.40873 242
57.42884 241
57.44896 235
57.46907 263
57.48918 276
57.5093 232
57.52941 244
57.54952 257
57.56964 260
57.58975 271
57.60987 239
57.62998 231
57.65009 261
57.67021 258
57.69032 232
57.71043 244
57.73055 245
57.75066 277
57.77078 259
57.79089 275
57.811 252
57.83112 234
57.85123 242
57.87134 238
57.89146 242
57.91157 230
57.93168 231
57.9518 236
57.97191 258
57.99203 260
58.01214 238
58.03225 248
58.05237 258
58.07248 238
58.09259 264
58.11271 270
58.13282 221
58.15294 208
58.17305 223
58.19316 250
58.21328 222
58.23339 240
58.2535 237
58.27362 261
58.29373 231
58.31385 267
58.33396 234
58.35407 238
58.37419 240
58.3943 250
58.41441 284
58.43453 255
58.45464 249
58.47475 253
58.49487 277
58.51498 260
58.5351 229
58.55521 262
58.57532 261
58.59544 264
58.61555 255
58.63566 248
58.65578 221
58.67589 215
58.69601 230
58.71612 226
58.73623 248
58.75635 277
58.77646 247
58.79657 264
58.81669 249
58.8368 241
58.85691 259
58.87703 231
58.89714 250
58.91726 239
58.93737 234
58.95748 234
58.9776 226
58.99771 245
59.01782 235
59.03794 235
59.05805 240
59.07817 240
59.09828 249
59.11839 230
59.13851 241
59.15862 226
59.17873 244
59.19885 264
59.21896 269
59.23908 255
59.25919 247
59.2793 237
59.29942 242
59.31953 268
59.33964 254
59.35976 242
59.37987 266
59.39998 281
59.4201 249
59.44021 289
59.46033 280
59.48044 276
59.50055 291
59.52067 280
59.54078 292
59.56089 327
59.58101 342
59.60112 342
59.62124 356
59.64135 353
59.66146 379
59.68158 441
59.70169 509
59.7218 501
59.74192 609
59.76203 652
59.78215 778
59.80226 823
59.82237 904
59.84249 966
59.8626 1104
59.88271 1136
59.90283 1095
59.92294 1123
59.94305 989
59.96317 860
59.98328 778
60.0034 728
60.02351 702
60.04362 733
60.06374 651
60.08385 588
60.10396 536
60.12408 495
60.14419 411
60.16431 360
60.18442 306
60.20453 303
60.22465 299
60.24476 284
60.26487 280
60.28499 253
60.3051 303
60.32522 255
60.34533 302
60.36544 261
60.38556 274
60.40567 244
60.42578 251
60.4459 262
60.46601 266
60.48612 253
60.50624 253
60.52635 268
60.54647 259
60.56658 262
60.58669 259
60.60681 260
60.62692 279
60.64703 227
60.66715 261
60.68726 270
60.70738 284
60.72749 249
60.7476 258
60.76772 243
60.78783 253
60.80794 265
60.82806 245
60.84817 257
60.86828 248
60.8884 265
60.90851 252
60.92863 273
60.94874 261
60.96885 255
60.98897 248
61.00908 244
61.02919 266
61.04931 280
61.06942 277
61.08954 250
61.10965 276
61.12976 308
61.14988 279
61.16999 271
61.1901 287
61.21022 299
61.23033 268
61.25045 291
61.27056 275
61.29067 260
61.31079 268
61.3309 312
61.35101 283
61.37113 323
61.39124 330
61.41135 312
61.43147 346
61.45158 321
61.4717 336
61.49181 334
61.51192 340
61.53204 317
61.55215 369
61.57226 331
61.59238 309
61.61249 354
61.63261 324
61.65272 360
61.67283 342
61.69295 360
61.71306 366
61.73317 327
61.75329 361
61.7734 325
61.79352 365
61.81363 354
61.83374 368
61.85386 375
61.87397 327
61.89408 353
61.9142 313
61.93431 320
61.95442 359
61.97454 348
61.99465 328
62.01477 341
62.03488 341
62.05499 358
62.07511 305
62.09522 314
62.11533 318
62.13545 286
62.15556 305
62.17568 328
62.19579 310
62.2159 315
62.23602 344
62.25613 334
62.27624 321
62.29636 316
62.31647 295
62.33659 307
62.3567 295
62.37681 288
62.39693 315
62.41704 263
62.43715 321
62.45727 264
62.47738 278
62.49749 281
62.51761 284
62.53772 260
62.55784 275
62.57795 253
62.59806 247
62.61818 273
62.63829 273
62.6584 275
62.67852 254
62.69863 235
62.71875 249
62.73886 236
62.75897 256
62.77909 315
62.7992 254
62.81931 277
62.83943 259
62.85954 255
62.87965 246
62.89977 243
62.91988 250
62.94 254
62.96011 255
62.98022 247
63.00034 248
63.02045 260
63.04056 219
63.06068 247
63.08079 263
63.10091 273
63.12102 217
63.14113 223
63.16125 235
63.18136 232
63.20147 210
63.22159 260
63.2417 235
63.26182 232
63.28193 233
63.30204 221
63.32216 232
63.34227 248
63.36238 254
63.3825 243
63.40261 247
63.42272 262
63.44284 246
63.46295 241
63.48307 206
63.50318 259
63.52329 238
63.54341 232
63.56352 240
63.58363 286
63.60375 278
63.62386 245
63.64398 261
63.66409 287
63.6842 280
63.70432 266
63.72443 274
63.74454 259
63.76466 285
63.78477 301
63.80489 286
63.825 332
63.84511 304
63.86523 354
63.88534 349
63.90545 346
63.92557 382
63.94568 409
63.96579 404
63.98591 408
64.00602 407
64.02614 342
64.04625 362
64.06636 314
64.08648 322
64.10659 296
64.1267 308
64.14682 324
64.16693 297
64.18705 303
64.20716 282
64.22727 274
64.24739 247
64.2675 223
64.28761 265
64.30773 254
64.32784 208
64.34796 246
64.36807 240
64.38818 214
64.4083 219
64.42841 221
64.44852 246
64.46864 227
64.48875 233
64.50886 227
64.52898 238
64.54909 235
64.56921 237
64.58932 243
64.60943 224
64.62955 231
64.64966 212
64.66977 232
64.68989 211
64.71 229
64.73012 216
64.75023 227
64.77034 227
64.79046 218
64.81057 210
64.83068 233
64.8508 221
64.87091 245
64.89102 211
64.91114 223
64.93125 243
64.95137 218
64.97148 259
64.99159 246
65.01171 211
65.03182 229
65.05193 222
65.07205 217
65.09216 201
65.11228 245
65.13239 192
65.1525 223
65.17262 237
65.19273 220
65.21284 230
65.23296 255
65.25307 223
65.27319 204
65.2933 237
65.31341 219
65.33353 247
65.35364 256
65.37375 233
65.39387 241
65.41398 205
65.43409 207
65.45421 228
65.47432 207
65.49444 230
65.51455 243
65.53466 221
65.55478 232
65.57489 231
65.595 233
65.61512 230
65.63523 256
65.65535 260
65.67546 242
65.69557 259
65.71569 251
65.7358 279
65.75591 250
65.77603 243
65.79614 256
65.81626 237
65.83637 234
65.85648 231
65.8766 231
65.89671 244
65.91682 214
65.93694 254
65.95705 208
65.97716 233
65.99728 216
66.01739 207
66.03751 227
66.05762 245
66.07773 220
66.09785 218
66.11796 226
66.13807 213
66.15819 206
66.1783 216
66.19842 239
66.21853 254
66.23864 218
66.25876 235
66.27887 223
66.29898 230
66.3191 240
66.33921 217
66.35933 207
66.37944 227
66.39955 229
66.41967 215
66.43978 236
66.45989 220
66.48001 204
66.50012 218
66.52023 214
66.54035 246
66.56046 231
66.58058 211
66.60069 217
66.6208 203
66.64092 208
66.66103 254
66.68114 241
66.70126 236
66.72137 226
66.74149 209
66.7616 223
66.78171 235
66.80183 209
66.82194 218
66.84205 222
66.86217 221
66.88228 262
66.90239 218
66.92251 249
66.94262 208
66.96274 222
66.98285 224
67.00296 234
67.02308 220
67.04319 241
67.0633 244
67.08342 252
67.10353 238
67.12365 249
67.14376 239
67.16387 273
67.18399 248
67.2041 232
67.22421 247
67.24433 263
67.26444 266
67.28456 269
67.30467 290
67.32478 295
67.3449 268
67.36501 290
67.38512 282
67.40524 334
67.42535 330
67.44546 340
67.46558 342
67.48569 401
67.50581 418
67.52592 470
67.54603 532
67.56615 543
67.58626 597
67.60637 641
67.62649 684
67.6466 719
67.66672 746
67.68683 735
67.70694 710
67.72706 667
67.74717 609
67.76728 608
67.7874 547
67.80751 577
67.82763 567
67.84774 598
67.86785 614
67.88797 593
67.90808 618
67.92819 671
67.94831 648
67.96842 718
67.98853 748
68.00865 755
68.02876 836
68.04888 905
68.06899 969
68.0891 949
68.10922 904
68.12933 930
68.14944 908
68.16956 879
68.18967 832
68.20979 844
68.2299 869
68.25001 835
68.27013 851
68.29024 800
68.31035 693
68.33047 606
68.35058 560
68.3707 509
68.39081 480
68.41092 420
68.43104 453
68.45115 446
68.47126 409
68.49138 384
68.51149 299
68.5316 270
68.55172 264
68.57183 260
68.59195 263
68.61206 256
68.63217 270
68.65229 248
68.6724 252
68.69251 238
68.71263 216
68.73274 246
68.75286 253
68.77297 241
68.79308 232
68.8132 226
68.83331 228
68.85342 231
68.87354 245
68.89365 214
68.91376 228
68.93388 211
68.95399 236
68.97411 265
68.99422 216
69.01433 226
69.03445 224
69.05456 238
69.07467 212
69.09479 234
69.1149 225
69.13502 209
69.15513 225
69.17524 227
69.19536 236
69.21547 185
69.23558 219
69.2557 209
69.27581 243
69.29593 250
69.31604 233
69.33615 213
69.35627 209
69.37638 225
69.39649 224
69.41661 224
69.43672 230
69.45683 243
69.47695 234
69.49706 231
69.51718 215
69.53729 229
69.5574 220
69.57752 221
69.59763 208
69.61774 239
69.63786 216
69.65797 195
69.67809 223
69.6982 218
69.71831 225
69.73843 207
69.75854 225
69.77865 224
69.79877 236
69.81888 224
69.839 225
69.85911 208
69.87922 231
69.89934 210
69.91945 214
69.93956 190
69.95968 223
69.97979 230
69.9999 220
70.02002 212
70.04013 241
70.06025 229
70.08036 216
70.10047 229
70.12059 206
70.1407 227
70.16081 230
70.18093 197
70.20104 246
70.22116 202
70.24127 206
70.26138 219
70.2815 210
70.30161 205
70.32172 210
70.34184 216
70.36195 225
70.38207 217
70.40218 206
70.42229 218
70.44241 215
70.46252 212
70.48263 216
70.50275 216
70.52286 189
70.54297 236
70.56309 236
70.5832 206
70.60332 210
70.62343 202
70.64354 200
70.66366 196
70.68377 195
70.70388 211
70.724 220
70.74411 210
70.76423 203
70.78434 212
70.80445 197
70.82457 218
70.84468 216
70.86479 215
70.88491 207
70.90502 221
70.92513 193
70.94525 218
70.96536 196
70.98548 186
71.00559 213
71.0257 205
71.04582 200
71.06593 213
71.08604 215
71.10616 218
71.12627 219
71.14639 223
71.1665 202
71.18661 239
71.20673 184
71.22684 201
71.24695 210
71.26707 205
71.28718 215
71.3073 243
71.32741 223
71.34752 197
71.36764 206
71.38775 215
71.40786 213
71.42798 219
71.44809 229
71.4682 202
71.48832 230
71.50843 192
71.52855 241
71.54866 196
71.56877 217
71.58889 211
71.609 204
71.62911 210
71.64923 211
71.66934 215
71.68946 187
71.70957 218
71.72968 209
71.7498 235
71.76991 228
71.79002 226
71.81014 204
71.83025 198
71.85037 214
71.87048 232
71.89059 223
71.91071 227
71.93082 217
71.95093 230
71.97105 250
71.99116 232
72.01127 233
72.03139 190
72.0515 242
72.07162 214
72.09173 230
72.11184 220
72.13196 224
72.15207 205
72.17218 245
72.1923 202
72.21241 214
72.23253 216
72.25264 226
72.27275 220
72.29287 236
72.31298 229
72.33309 223
72.35321 235
72.37332 237
72.39344 212
72.41355 243
72.43366 235
72.45378 214
72.47389 255
72.494 203
72.51412 256
72.53423 231
72.55434 216
72.57446 263
72.59457 244
72.61469 247
72.6348 252
72.65491 234
72.67503 278
72.69514 252
72.71525 266
72.73537 245
72.75548 237
72.7756 231
72.79571 225
72.81582 237
72.83594 244
72.85605 227
72.87616 252
72.89628 246
72.91639 255
72.9365 256
72.95662 219
72.97673 231
72.99685 240
73.01696 254
73.03707 254
73.05719 262
73.0773 275
73.09741 233
73.11753 263
73.13764 254
73.15776 282
73.17787 280
73.19798 304
73.2181 282
73.23821 332
73.25832 338
73.27844 324
73.29855 322
73.31867 349
73.33878 382
73.35889 360
73.37901 425
73.39912 397
73.41923 419
73.43935 375
73.45946 377
73.47957 309
73.49969 314
73.5198 318
73.53992 328
73.56003 317
73.58014 317
73.60026 319
73.62037 337
73.64048 339
73.6606 285
73.68071 262
73.70083 291
73.72094 269
73.74105 235
73.76117 244
73.78128 229
73.80139 253
73.82151 216
73.84162 229
73.86174 227
73.88185 213
73.90196 253
73.92208 215
73.94219 267
73.9623 245
73.98242 237
74.00253 219
74.02264 216
74.04276 215
74.06287 204
74.08299 249
74.1031 246
74.12321 232
74.14333 217
74.16344 214
74.18355 234
74.20367 217
74.22378 269
74.2439 243
74.26401 250
74.28412 221
74.30424 224
74.32435 236
74.34446 215
74.36458 202
74.38469 221
74.40481 208
74.42492 213
74.44503 235
74.46515 208
74.48526 195
74.50537 219
74.52549 239
74.5456 237
74.56571 225
74.58583 196
74.60594 217
74.62606 223
74.64617 230
74.66628 236
74.6864 214
74.70651 212
74.72662 235
74.74674 232
74.76685 207
74.78697 228
74.80708 233
74.82719 199
74.84731 237
74.86742 226
74.88753 219
74.90765 205
74.92776 235
74.94787 202
74.96799 223
74.9881 215
75.00822 234
