3.00117 19035
3.02128 18306
3.0414 18069
3.06151 17392
3.08162 17047
3.10174 16675
3.12185 15947
3.14197 15562
3.16208 15272
3.18219 15002
3.20231 14578
3.22242 13879
3.24253 13702
3.26265 12910
3.28276 12513
3.30288 12320
3.32299 11666
3.3431 11600
3.36322 10633
3.38333 10733
3.40344 10433
3.42356 9907
3.44367 9650
3.46379 9235
3.4839 9213
3.50401 8825
3.52413 8626
3.54424 8203
3.56435 7704
3.58447 7694
3.60458 7401
3.62469 6902
3.64481 6863
3.66492 6401
3.68504 6446
3.70515 6092
3.72526 5687
3.74538 5545
3.76549 5233
3.7856 5111
3.80572 4886
3.82583 4626
3.84595 4548
3.86606 4070
3.88617 4129
3.90629 3996
3.9264 3683
3.94651 3629
3.96663 3412
3.98674 3312
4.00686 3157
4.02697 2948
4.04708 2870
4.0672 2671
4.08731 2554
4.10742 2511
4.12754 2305
4.14765 2254
4.16776 2068
4.18788 2168
4.20799 2103
4.22811 1850
4.24822 1721
4.26833 1788
4.28845 1783
4.30856 1771
4.32867 1546
4.34879 1551
4.3689 1535
4.38902 1563
4.40913 1489
4.42924 1333
4.44936 1383
4.46947 1313
4.48958 1220
4.5097 1265
4.52981 1149
4.54992 1217
4.57004 1153
4.59015 1137
4.61027 1125
4.63038 1063
4.65049 980
4.67061 972
4.69072 954
4.71083 990
4.73095 878
4.75106 947
4.77118 896
4.79129 872
4.8114 815
4.83152 802
4.85163 811
4.87174 788
4.89186 723
4.91197 792
4.93209 745
4.9522 696
4.97231 691
4.99243 664
5.01254 646
5.03265 613
5.05277 639
5.07288 640
5.09299 610
5.11311 585
5.13322 523
5.15334 570
5.17345 515
5.19356 532
5.21368 573
5.23379 484
5.2539 509
5.27402 495
5.29413 456
5.31425 474
5.33436 459
5.35447 413
5.37459 434
5.3947 405
5.41481 401
5.43493 412
5.45504 408
5.47516 375
5.49527 360
5.51538 344
5.5355 384
5.55561 357
5.57572 353
5.59584 342
5.61595 318
5.63606 325
5.65618 322
5.67629 301
5.69641 324
5.71652 279
5.73663 297
5.75675 251
5.77686 283
5.79697 272
5.81709 272
5.8372 285
5.85732 246
5.87743 281
5.89754 247
5.91766 247
5.93777 275
5.95788 240
5.978 252
5.99811 249
6.01823 241
6.03834 206
6.05845 208
6.07857 223
6.09868 235
6.11879 224
6.13891 232
6.15902 213
6.17913 241
6.19925 212
6.21936 210
6.23948 242
6.25959 227
6.2797 210
6.29982 223
6.31993 239
6.34004 242
6.36016 216
6.38027 231
6.40039 204
6.4205 212
6.44061 210
6.46073 215
6.48084 208
6.50095 202
6.52107 197
6.54118 196
6.56129 173
6.58141 203
6.60152 213
6.62164 181
6.64175 207
6.66186 217
6.68198 210
6.70209 200
6.7222 209
6.74232 181
6.76243 207
6.78255 193
6.80266 184
6.82277 187
6.84289 195
6.863 208
6.88311 176
6.90323 198
6.92334 196
6.94346 214
6.96357 188
6.98368 179
7.0038 214
7.02391 189
7.04402 198
7.06414 226
7.08425 186
7.10436 182
7.12448 218
7.14459 190
7.16471 186
7.18482 195
7.20493 181
7.22505 224
7.24516 174
7.26527 192
7.28539 177
7.3055 190
7.32562 197
7.34573 206
7.36584 222
7.38596 201
7.40607 243
7.42618 210
7.4463 204
7.46641 200
7.48653 191
7.50664 181
7.52675 206
7.54687 188
7.56698 201
7.58709 233
7.60721 221
7.62732 232
7.64743 212
7.66755 214
7.68766 213
7.70778 191
7.72789 230
7.748 209
7.76812 208
7.78823 215
7.80834 231
7.82846 238
7.84857 203
7.86869 206
7.8888 175
7.90891 208
7.92903 204
7.94914 202
7.96925 181
7.98937 215
8.00948 216
8.0296 222
8.04971 218
8.06982 226
8.08994 204
8.11005 218
8.13016 207
8.15028 236
8.17039 224
8.1905 218
8.21062 233
8.23073 223
8.25085 204
8.27096 201
8.29107 196
8.31119 225
8.3313 221
8.35141 235
8.37153 219
8.39164 239
8.41176 214
8.43187 211
8.45198 242
8.4721 190
8.49221 243
8.51232 213
8.53244 211
8.55255 213
8.57266 200
8.59278 231
8.61289 246
8.63301 240
8.65312 251
8.67323 206
8.69335 241
8.71346 258
8.73357 253
8.75369 249
8.7738 250
8.79392 215
8.81403 221
8.83414 235
8.85426 259
8.87437 256
8.89448 237
8.9146 236
8.93471 237
8.95483 241
8.97494 219
8.99505 206
9.01517 235
9.03528 206
9.05539 239
9.07551 232
9.09562 235
9.11573 250
9.13585 244
9.15596 231
9.17608 220
9.19619 223
9.2163 206
9.23642 227
9.25653 227
9.27664 218
9.29676 243
9.31687 215
9.33699 234
9.3571 219
9.37721 220
9.39733 202
9.41744 215
9.43755 217
9.45767 234
9.47778 225
9.4979 231
9.51801 250
9.53812 231
9.55824 235
9.57835 221
9.59846 226
9.61858 201
9.63869 230
9.6588 229
9.67892 217
9.69903 195
9.71915 224
9.73926 210
9.75937 249
9.77949 232
9.7996 224
9.81971 218
9.83983 253
9.85994 243
9.88006 219
9.90017 223
9.92028 211
9.9404 236
9.96051 183
9.98062 249
10.00074 206
10.02085 217
10.04097 223
10.06108 243
10.08119 227
10.10131 239
10.12142 247
10.14153 233
10.16165 229
10.18176 234
10.20187 249
10.22199 225
10.2421 235
10.26222 220
10.28233 248
10.30244 211
10.32256 172
10.34267 210
10.36278 232
10.3829 228
10.40301 246
10.42313 261
10.44324 230
10.46335 231
10.48347 215
10.50358 187
10.52369 194
10.54381 240
10.56392 200
10.58403 232
10.60415 210
10.62426 240
10.64438 231
10.66449 214
10.6846 222
10.70472 225
10.72483 233
10.74494 231
10.76506 216
10.78517 199
10.80529 252
10.8254 233
10.84551 241
10.86563 246
10.88574 215
10.90585 237
10.92597 213
10.94608 215
10.9662 237
10.98631 247
11.00642 198
11.02654 208
11.04665 263
11.06676 223
11.08688 255
11.10699 231
11.1271 235
11.14722 230
11.16733 232
11.18745 234
11.20756 236
11.22767 240
11.24779 235
11.2679 236
11.28801 260
11.30813 218
11.32824 229
11.34836 212
11.36847 220
11.38858 247
11.4087 242
11.42881 241
11.44892 198
11.46904 232
11.48915 251
11.50927 245
11.52938 264
11.54949 200
11.56961 232
11.58972 207
11.60983 222
11.62995 241
11.65006 227
11.67017 232
11.69029 240
11.7104 233
11.73052 246
11.75063 231
11.77074 235
11.79086 235
11.81097 243
11.83108 258
11.8512 268
11.87131 257
11.89143 230
11.91154 253
11.93165 259
11.95177 240
11.97188 237
11.99199 272
12.01211 276
12.03222 277
12.05234 299
12.07245 265
12.09256 350
12.11268 330
12.13279 340
12.1529 313
12.17302 328
12.19313 340
12.21324 406
12.23336 409
12.25347 424
12.27359 432
12.2937 463
12.31381 515
12.33393 476
12.35404 503
12.37415 462
12.39427 473
12.41438 410
12.4345 387
12.45461 361
12.47472 319
12.49484 341
12.51495 252
12.53506 287
12.55518 277
12.57529 248
12.5954 261
12.61552 253
12.63563 227
12.65575 272
12.67586 237
12.69597 252
12.71609 231
12.7362 226
12.75631 210
12.77643 209
12.79654 223
12.81666 241
12.83677 226
12.85688 208
12.877 227
12.89711 219
12.91722 236
12.93734 218
12.95745 226
12.97757 199
12.99768 208
13.01779 218
13.03791 203
13.05802 207
13.07813 210
13.09825 184
13.11836 201
13.13847 204
13.15859 208
13.1787 216
13.19882 199
13.21893 209
13.23904 210
13.25916 220
13.27927 184
13.29938 190
13.3195 226
13.33961 234
13.35973 242
13.37984 206
13.39995 208
13.42007 213
13.44018 207
13.46029 196
13.48041 212
13.50052 209
13.52064 199
13.54075 212
13.56086 191
13.58098 215
13.60109 227
13.6212 194
13.64132 194
13.66143 210
13.68154 189
13.70166 208
13.72177 205
13.74189 212
13.762 189
13.78211 241
13.80223 204
13.82234 203
13.84245 199
13.86257 182
13.88268 197
13.9028 225
13.92291 223
13.94302 209
13.96314 188
13.98325 208
14.00336 219
14.02348 205
14.04359 197
14.06371 167
14.08382 164
14.10393 172
14.12405 204
14.14416 171
14.16427 188
14.18439 193
14.2045 164
14.22461 189
14.24473 193
14.26484 193
14.28496 162
14.30507 188
14.32518 185
14.3453 172
14.36541 210
14.38552 205
14.40564 202
14.42575 214
14.44587 195
14.46598 182
14.48609 177
14.50621 193
14.52632 179
14.54643 198
14.56655 190
14.58666 194
14.60677 190
14.62689 187
14.647 164
14.66712 176
14.68723 174
14.70734 154
14.72746 178
14.74757 178
14.76768 193
14.7878 191
14.80791 195
14.82803 174
14.84814 192
14.86825 212
14.88837 174
14.90848 171
14.92859 194
14.94871 200
14.96882 185
14.98894 180
15.00905 207
15.02916 203
15.04928 204
15.06939 182
15.0895 175
15.10962 176
15.12973 183
15.14984 175
15.16996 178
15.19007 194
15.21019 189
15.2303 186
15.25041 200
15.27053 193
15.29064 183
15.31075 154
15.33087 188
15.35098 172
15.3711 174
15.39121 197
15.41132 193
15.43144 211
15.45155 181
15.47166 216
15.49178 186
15.51189 201
15.53201 158
15.55212 151
15.57223 166
15.59235 193
15.61246 193
15.63257 176
15.65269 181
15.6728 199
15.69291 189
15.71303 167
15.73314 143
15.75326 162
15.77337 182
15.79348 197
15.8136 174
15.83371 198
15.85382 194
15.87394 183
15.89405 174
15.91417 151
15.93428 202
15.95439 163
15.97451 186
15.99462 173
16.01473 189
16.03485 178
16.05496 171
16.07508 188
16.09519 187
16.1153 168
16.13542 182
16.15553 171
16.17564 176
16.19576 187
16.21587 176
16.23598 195
16.2561 159
16.27621 181
16.29633 204
16.31644 163
16.33655 150
16.35667 173
16.37678 188
16.39689 184
16.41701 185
16.43712 159
16.45724 158
16.47735 208
16.49746 168
16.51758 180
16.53769 180
16.5578 187
16.57792 156
16.59803 193
16.61814 170
16.63826 197
16.65837 197
16.67849 170
16.6986 193
16.71871 182
16.73883 164
16.75894 152
16.77905 163
16.79917 176
16.81928 147
16.8394 189
16.85951 152
16.87962 186
16.89974 189
16.91985 160
16.93996 178
16.96008 178
16.98019 180
17.00031 166
17.02042 174
17.04053 189
17.06065 155
17.08076 157
17.10087 176
17.12099 193
17.1411 161
17.16121 179
17.18133 190
17.20144 175
17.22156 182
17.24167 164
17.26178 156
17.2819 160
17.30201 175
17.32212 158
17.34224 185
17.36235 148
17.38247 190
17.40258 156
17.42269 187
17.44281 164
17.46292 167
17.48303 161
17.50315 174
17.52326 194
17.54338 192
17.56349 169
17.5836 176
17.60372 175
17.62383 164
17.64394 176
17.66406 161
17.68417 185
17.70428 200
17.7244 176
17.74451 188
17.76463 195
17.78474 177
17.80485 189
17.82497 184
17.84508 173
17.86519 167
17.88531 170
17.90542 158
17.92554 169
17.94565 195
17.96576 196
17.98588 168
18.00599 176
18.0261 192
18.04622 144
18.06633 176
18.08645 174
18.10656 172
18.12667 172
18.14679 186
18.1669 164
18.18701 190
18.20713 167
18.22724 178
18.24735 184
18.26747 177
18.28758 180
18.3077 194
18.32781 170
18.34792 186
18.36804 171
18.38815 164
18.40826 178
18.42838 160
18.44849 173
18.46861 180
18.48872 169
18.50883 181
18.52895 166
18.54906 164
18.56917 204
18.58929 179
18.6094 172
18.62951 149
18.64963 161
18.66974 173
18.68986 166
18.70997 194
18.73008 172
18.7502 193
18.77031 176
18.79042 174
18.81054 181
18.83065 175
18.85077 203
18.87088 212
18.89099 175
18.91111 184
18.93122 164
18.95133 163
18.97145 168
18.99156 151
19.01168 144
19.03179 150
19.0519 180
19.07202 168
19.09213 207
19.11224 173
19.13236 178
19.15247 181
19.17258 190
19.1927 162
19.21281 166
19.23293 183
19.25304 198
19.27315 181
19.29327 182
19.31338 187
19.33349 189
19.35361 179
19.37372 194
19.39384 193
19.41395 217
19.43406 211
19.45418 189
19.47429 181
19.4944 167
19.51452 186
19.53463 191
19.55475 201
19.57486 198
19.59497 203
19.61509 216
19.6352 203
19.65531 220
19.67543 267
19.69554 263
19.71565 277
19.73577 280
19.75588 283
19.776 313
19.79611 304
19.81622 376
19.83634 310
19.85645 348
19.87656 352
19.89668 372
19.91679 372
19.93691 397
19.95702 399
19.97713 358
19.99725 365
20.01736 350
20.03747 312
20.05759 328
20.0777 324
20.09782 308
20.11793 362
20.13804 318
20.15816 371
20.17827 341
20.19838 373
20.2185 354
20.23861 394
20.25872 357
20.27884 402
20.29895 365
20.31907 364
20.33918 365
20.35929 390
20.37941 397
20.39952 388
20.41963 387
20.43975 401
20.45986 425
20.47998 465
20.50009 440
20.5202 464
20.54032 495
20.56043 489
20.58054 538
20.60066 562
20.62077 603
20.64088 754
20.661 942
20.68111 1246
20.70123 1721
20.72134 2420
20.74145 3459
20.76157 4647
20.78168 5720
20.80179 6850
20.82191 7333
20.84202 7189
20.86214 6333
20.88225 4946
20.90236 3554
20.92248 2394
20.94259 1466
20.9627 901
20.98282 682
21.00293 584
21.02305 509
21.04316 474
21.06327 481
21.08339 478
21.1035 414
21.12361 421
21.14373 426
21.16384 385
21.18395 344
21.20407 352
21.22418 395
21.2443 359
21.26441 356
21.28452 312
21.30464 331
21.32475 305
21.34486 338
21.36498 296
21.38509 322
21.40521 301
21.42532 288
21.44543 298
21.46555 322
21.48566 281
21.50577 287
21.52589 270
21.546 300
21.56612 315
21.58623 260
21.60634 253
21.62646 281
21.64657 286
21.66668 299
21.6868 282
21.70691 255
21.72702 277
21.74714 268
21.76725 272
21.78737 252
21.80748 243
21.82759 267
21.84771 252
21.86782 278
21.88793 257
21.90805 263
21.92816 269
21.94828 248
21.96839 270
21.9885 271
22.00862 234
22.02873 285
22.04884 252
22.06896 283
22.08907 246
22.10919 230
22.1293 289
22.14941 245
22.16953 264
22.18964 264
22.20975 262
22.22987 249
22.24998 270
22.27009 267
22.29021 245
22.31032 256
22.33044 218
22.35055 226
22.37066 217
22.39078 220
22.41089 232
22.431 215
22.45112 268
22.47123 196
22.49135 270
22.51146 229
22.53157 273
22.55169 254
22.5718 238
22.59191 247
22.61203 247
22.63214 249
22.65225 249
22.67237 217
22.69248 250
22.7126 254
22.73271 218
22.75282 255
22.77294 226
22.79305 222
22.81316 263
22.83328 268
22.85339 244
22.87351 219
22.89362 238
22.91373 235
22.93385 230
22.95396 215
22.97407 265
22.99419 241
23.0143 253
23.03442 218
23.05453 250
23.07464 221
23.09476 199
23.11487 226
23.13498 227
23.1551 253
23.17521 224
23.19532 220
23.21544 224
23.23555 213
23.25567 261
23.27578 261
23.29589 240
23.31601 227
23.33612 213
23.35623 210
23.37635 242
23.39646 240
23.41658 228
23.43669 225
23.4568 214
23.47692 219
23.49703 237
23.51714 217
23.53726 250
23.55737 185
23.57749 245
23.5976 206
23.61771 242
23.63783 208
23.65794 243
23.67805 249
23.69817 242
23.71828 228
23.73839 228
23.75851 240
23.77862 244
23.79874 218
23.81885 254
23.83896 237
23.85908 256
23.87919 266
23.8993 283
23.91942 298
23.93953 286
23.95965 293
23.97976 290
23.99987 318
24.01999 307
24.0401 239
24.06021 229
24.08033 232
24.10044 248
24.12056 235
24.14067 229
24.16078 250
24.1809 261
24.20101 213
24.22112 247
24.24124 232
24.26135 230
24.28146 233
24.30158 231
24.32169 224
24.34181 237
24.36192 285
24.38203 220
24.40215 259
24.42226 224
24.44237 233
24.46249 233
24.4826 272
24.50272 246
24.52283 279
24.54294 253
24.56306 279
24.58317 273
24.60328 275
24.6234 261
24.64351 284
24.66362 308
24.68374 311
24.70385 328
24.72397 314
24.74408 378
24.76419 365
24.78431 353
24.80442 397
24.82453 404
24.84465 429
24.86476 443
24.88488 428
24.90499 381
24.9251 358
24.94522 358
24.96533 358
24.98544 339
25.00556 283
25.02567 303
25.04579 310
25.0659 302
25.08601 297
25.10613 293
25.12624 309
25.14635 299
25.16647 315
25.18658 333
25.20669 328
25.22681 334
25.24692 332
25.26704 360
25.28715 312
25.30726 297
25.32738 319
25.34749 326
25.3676 325
25.38772 268
25.40783 235
25.42795 259
25.44806 267
25.46817 244
25.48829 292
25.5084 290
25.52851 234
25.54863 276
25.56874 292
25.58886 284
25.60897 276
25.62908 322
25.6492 358
25.66931 343
25.68942 398
25.70954 443
25.72965 440
25.74976 440
25.76988 443
25.78999 464
25.81011 398
25.83022 411
25.85033 427
25.87045 442
25.89056 445
25.91067 419
25.93079 467
25.9509 466
25.97102 460
25.99113 502
26.01124 498
26.03136 526
26.05147 517
26.07158 519
26.0917 603
26.11181 610
26.13193 643
26.15204 683
26.17215 710
26.19227 794
26.21238 870
26.23249 868
26.25261 959
26.27272 1050
26.29283 1123
26.31295 1233
26.33306 1396
26.35318 1674
26.37329 1945
26.3934 2552
26.41352 3233
26.43363 4436
26.45374 5906
26.47386 8176
26.49397 11717
26.51409 15882
26.5342 21345
26.55431 26290
26.57443 30764
26.59454 33380
26.61465 32213
26.63477 29632
26.65488 24366
26.67499 17978
26.69511 13055
26.71522 8765
26.73534 5346
26.75545 3096
26.77556 2093
26.79568 1622
26.81579 1486
26.8359 1299
26.85602 1124
26.87613 1031
26.89625 985
26.91636 843
26.93647 812
26.95659 770
26.9767 688
26.99681 650
27.01693 561
27.03704 535
27.05716 549
27.07727 503
27.09738 468
27.1175 474
27.13761 471
27.15772 431
27.17784 456
27.19795 421
27.21806 407
27.23818 421
27.25829 399
27.27841 424
27.29852 437
27.31863 428
27.33875 412
27.35886 414
27.37897 418
27.39909 403
27.4192 420
27.43932 431
27.45943 393
27.47954 375
27.49966 403
27.51977 333
27.53988 373
27.56 329
27.58011 345
27.60023 321
27.62034 332
27.64045 351
27.66057 333
27.68068 315
27.70079 321
27.72091 326
27.74102 293
27.76113 287
27.78125 279
27.80136 301
27.82148 317
27.84159 289
27.8617 271
27.88182 285
27.90193 291
27.92204 298
27.94216 288
27.96227 350
27.98239 295
28.0025 293
28.02261 257
28.04273 293
28.06284 275
28.08295 309
28.10307 256
28.12318 267
28.1433 266
28.16341 270
28.18352 254
28.20364 230
28.22375 266
28.24386 252
28.26398 273
28.28409 283
28.3042 245
28.32432 253
28.34443 265
28.36455 260
28.38466 219
28.40477 255
28.42489 253
28.445 246
28.46511 242
28.48523 235
28.50534 221
28.52546 221
28.54557 233
28.56568 245
28.5858 236
28.60591 225
28.62602 231
28.64614 246
28.66625 270
28.68636 227
28.70648 264
28.72659 242
28.74671 227
28.76682 254
28.78693 235
28.80705 263
28.82716 253
28.84727 228
28.86739 212
28.8875 214
28.90762 220
28.92773 227
28.94784 242
28.96796 238
28.98807 247
29.00818 227
29.0283 206
29.04841 234
29.06853 227
29.08864 233
29.10875 270
29.12887 250
29.14898 220
29.16909 234
29.18921 227
29.20932 213
29.22943 207
29.24955 249
29.26966 213
29.28978 220
29.30989 211
29.33 226
29.35012 225
29.37023 230
29.39034 257
29.41046 221
29.43057 224
29.45069 230
29.4708 236
29.49091 221
29.51103 210
29.53114 215
29.55125 217
29.57137 232
29.59148 222
29.6116 192
29.63171 234
29.65182 228
29.67194 224
29.69205 258
29.71216 228
29.73228 206
29.75239 213
29.7725 203
29.79262 210
29.81273 225
29.83285 210
29.85296 223
29.87307 197
29.89319 211
29.9133 206
29.93341 207
29.95353 214
29.97364 207
29.99376 220
30.01387 235
30.03398 213
30.0541 190
30.07421 237
30.09432 217
30.11444 179
30.13455 217
30.15467 204
30.17478 231
30.19489 200
30.21501 202
30.23512 223
30.25523 222
30.27535 205
30.29546 195
30.31557 226
30.33569 213
30.3558 223
30.37592 193
30.39603 228
30.41614 230
30.43626 210
30.45637 209
30.47648 203
30.4966 196
30.51671 182
30.53683 231
30.55694 201
30.57705 196
30.59717 194
30.61728 195
30.63739 204
30.65751 208
30.67762 209
30.69773 225
30.71785 192
30.73796 196
30.75808 216
30.77819 211
30.7983 204
30.81842 201
30.83853 192
30.85864 202
30.87876 177
30.89887 199
30.91899 207
30.9391 195
30.95921 173
30.97933 182
30.99944 211
31.01955 198
31.03967 172
31.05978 167
31.0799 181
31.10001 186
31.12012 197
31.14024 192
31.16035 188
31.18046 195
31.20058 181
31.22069 179
31.2408 195
31.26092 192
31.28103 180
31.30115 204
31.32126 191
31.34137 177
31.36149 167
31.3816 189
31.40171 219
31.42183 165
31.44194 189
31.46206 175
31.48217 165
31.50228 193
31.5224 188
31.54251 183
31.56262 195
31.58274 156
31.60285 180
31.62297 190
31.64308 156
31.66319 185
31.68331 198
31.70342 175
31.72353 176
31.74365 192
31.76376 164
31.78387 198
31.80399 192
31.8241 158
31.84422 183
31.86433 197
31.88444 216
31.90456 181
31.92467 171
31.94478 168
31.9649 211
31.98501 208
32.00513 169
32.02524 191
32.04535 166
32.06547 187
32.08558 168
32.10569 153
32.12581 181
32.14592 159
32.16604 195
32.18615 165
32.20626 157
32.22638 152
32.24649 193
32.2666 162
32.28672 165
32.30683 166
32.32694 216
32.34706 159
32.36717 192
32.38729 188
32.4074 168
32.42751 160
32.44763 168
32.46774 185
32.48785 192
32.50797 193
32.52808 188
32.5482 177
32.56831 181
32.58842 195
32.60854 177
32.62865 183
32.64876 189
32.66888 196
32.68899 182
32.7091 175
32.72922 178
32.74933 182
32.76945 182
32.78956 159
32.80967 171
32.82979 186
32.8499 186
32.87001 188
32.89013 193
32.91024 162
32.93036 176
32.95047 186
32.97058 193
32.9907 185
33.01081 187
33.03092 204
33.05104 201
33.07115 204
33.09127 206
33.11138 177
33.13149 166
33.15161 196
33.17172 187
33.19183 188
33.21195 184
33.23206 191
33.25217 189
33.27229 204
33.2924 184
33.31252 185
33.33263 188
33.35274 166
33.37286 193
33.39297 187
33.41308 170
33.4332 204
33.45331 149
33.47343 168
33.49354 192
33.51365 201
33.53377 160
33.55388 160
33.57399 170
33.59411 176
33.61422 152
33.63434 174
33.65445 148
33.67456 149
33.69468 188
33.71479 168
33.7349 187
33.75502 150
33.77513 164
33.79524 155
33.81536 158
33.83547 162
33.85559 198
33.8757 153
33.89581 155
33.91593 155
33.93604 165
33.95615 155
33.97627 152
33.99638 155
34.0165 167
34.03661 159
34.05672 152
34.07684 161
34.09695 141
34.11706 170
34.13718 180
34.15729 182
34.17741 164
34.19752 158
34.21763 150
34.23775 158
34.25786 165
34.27797 162
34.29809 161
34.3182 172
34.33831 172
34.35843 174
34.37854 181
34.39866 155
34.41877 173
34.43888 157
34.459 156
34.47911 157
34.49922 183
34.51934 174
34.53945 187
34.55957 203
34.57968 166
34.59979 152
34.61991 190
34.64002 186
34.66013 196
34.68025 209
34.70036 207
34.72047 193
34.74059 219
34.7607 243
34.78082 221
34.80093 242
34.82104 253
34.84116 245
34.86127 247
34.88138 250
34.9015 249
34.92161 237
34.94173 253
34.96184 247
34.98195 228
35.00207 238
35.02218 220
35.04229 225
35.06241 245
35.08252 212
35.10264 210
35.12275 204
35.14286 223
35.16298 226
35.18309 188
35.2032 206
35.22332 213
35.24343 213
35.26354 221
35.28366 214
35.30377 225
35.32389 218
35.344 218
35.36411 240
35.38423 270
35.40434 266
35.42445 252
35.44457 250
35.46468 257
35.4848 293
35.50491 264
35.52502 232
35.54514 274
35.56525 266
35.58536 238
35.60548 232
35.62559 232
35.64571 217
35.66582 249
35.68593 218
35.70605 249
35.72616 229
35.74627 248
35.76639 257
35.7865 207
35.80661 266
35.82673 248
35.84684 287
35.86696 277
35.88707 297
35.90718 259
35.9273 266
35.94741 290
35.96752 281
35.98764 301
36.00775 284
36.02787 269
36.04798 275
36.06809 280
36.08821 285
36.10832 272
36.12843 286
36.14855 284
36.16866 270
36.18878 284
36.20889 283
36.229 351
36.24912 309
36.26923 372
36.28934 419
36.30946 468
36.32957 620
36.34968 708
36.3698 849
36.38991 1167
36.41003 1430
36.43014 1630
36.45025 1954
36.47037 2193
36.49048 2312
36.51059 2327
36.53071 2162
36.55082 1760
36.57094 1543
36.59105 1329
36.61116 1063
36.63128 885
36.65139 574
36.6715 423
36.69162 377
36.71173 297
36.73184 274
36.75196 243
36.77207 237
36.79219 242
36.8123 233
36.83241 259
36.85253 202
36.87264 240
36.89275 199
36.91287 195
36.93298 213
36.9531 196
36.97321 203
36.99332 196
37.01344 211
37.03355 194
37.05366 196
37.07378 206
37.09389 185
37.11401 186
37.13412 195
37.15423 204
37.17435 194
37.19446 176
37.21457 193
37.23469 188
37.2548 186
37.27491 183
37.29503 201
37.31514 205
37.33526 185
37.35537 174
37.37548 181
37.3956 171
37.41571 198
37.43582 177
37.45594 202
37.47605 207
37.49617 226
37.51628 200
37.53639 214
37.55651 206
37.57662 222
37.59673 212
37.61685 207
37.63696 184
37.65708 218
37.67719 200
37.6973 216
37.71742 202
37.73753 230
37.75764 233
37.77776 207
37.79787 233
37.81798 210
37.8381 205
37.85821 186
37.87833 199
37.89844 206
37.91855 182
37.93867 206
37.95878 200
37.97889 191
37.99901 191
38.01912 250
38.03924 198
38.05935 226
38.07946 215
38.09958 245
38.11969 228
38.1398 216
38.15992 259
38.18003 233
38.20015 242
38.22026 245
38.24037 267
38.26049 253
38.2806 274
38.30071 279
38.32083 274
38.34094 249
38.36105 256
38.38117 291
38.40128 273
38.4214 295
38.44151 264
38.46162 298
38.48174 285
38.50185 244
38.52196 269
38.54208 227
38.56219 222
38.58231 229
38.60242 233
38.62253 243
38.64265 225
38.66276 239
38.68287 237
38.70299 225
38.7231 229
38.74321 204
38.76333 232
38.78344 220
38.80356 231
38.82367 232
38.84378 233
38.8639 240
38.88401 221
38.90412 218
38.92424 216
38.94435 214
38.96447 234
38.98458 235
39.00469 267
39.02481 248
39.04492 258
39.06503 285
39.08515 288
39.10526 286
39.12538 308
39.14549 324
39.1656 366
39.18572 402
39.20583 451
39.22594 499
39.24606 625
39.26617 686
39.28628 804
39.3064 1017
39.32651 1199
39.34663 1474
39.36674 1787
39.38685 2010
39.40697 2170
39.42708 2196
39.44719 1915
39.46731 1702
39.48742 1517
39.50754 1267
39.52765 1028
39.54776 892
39.56788 662
39.58799 490
39.6081 367
39.62822 321
39.64833 267
39.66845 248
39.68856 255
39.70867 256
39.72879 253
39.7489 222
39.76901 208
39.78913 230
39.80924 191
39.82935 217
39.84947 235
39.86958 199
39.8897 240
39.90981 263
39.92992 218
39.95004 245
39.97015 227
39.99026 266
40.01038 283
40.03049 308
40.05061 348
40.07072 421
40.09083 416
40.11095 525
40.13106 596
40.15117 724
40.17129 808
40.1914 1015
40.21152 1135
40.23163 1147
40.25174 1091
40.27186 1033
40.29197 914
40.31208 813
40.3322 713
40.35231 622
40.37242 502
40.39254 428
40.41265 334
40.43277 273
40.45288 231
40.47299 220
40.49311 211
40.51322 198
40.53333 190
40.55345 211
40.57356 204
40.59368 195
40.61379 198
40.6339 191
40.65402 175
40.67413 195
40.69424 182
40.71436 209
40.73447 197
40.75458 181
40.7747 184
40.79481 189
40.81493 202
40.83504 183
40.85515 202
40.87527 189
40.89538 199
40.91549 188
40.93561 198
40.95572 200
40.97584 212
40.99595 195
41.01606 206
41.03618 198
41.05629 202
41.0764 201
41.09652 205
41.11663 178
41.13675 199
41.15686 218
41.17697 201
41.19709 192
41.2172 181
41.23731 205
41.25743 206
41.27754 185
41.29765 183
41.31777 195
41.33788 185
41.358 189
41.37811 186
41.39822 198
41.41834 205
41.43845 175
41.45856 186
41.47868 185
41.49879 164
41.51891 181
41.53902 192
41.55913 160
41.57925 169
41.59936 187
41.61947 167
41.63959 166
41.6597 204
41.67982 165
41.69993 184
41.72004 183
41.74016 171
41.76027 181
41.78038 211
41.8005 174
41.82061 191
41.84072 189
41.86084 196
41.88095 195
41.90107 214
41.92118 176
41.94129 181
41.96141 196
41.98152 187
42.00163 177
42.02175 211
42.04186 178
42.06198 231
42.08209 258
42.1022 198
42.12232 270
42.14243 270
42.16254 288
42.18266 349
42.20277 328
42.22289 385
42.243 525
42.26311 599
42.28323 700
42.30334 862
42.32345 1168
42.34357 1250
42.36368 1468
42.38379 1593
42.40391 1580
42.42402 1398
42.44414 1265
42.46425 1149
42.48436 930
42.50448 890
42.52459 763
42.5447 639
42.56482 487
42.58493 384
42.60505 316
42.62516 232
42.64527 229
42.66539 207
42.6855 189
42.70561 181
42.72573 193
42.74584 180
42.76595 191
42.78607 194
42.80618 184
42.8263 205
42.84641 189
42.86652 178
42.88664 187
42.90675 184
42.92686 152
42.94698 180
42.96709 130
42.98721 147
43.00732 154
43.02743 162
43.04755 145
43.06766 162
43.08777 164
43.10789 169
43.128 166
43.14812 166
43.16823 156
43.18834 182
43.20846 131
43.22857 175
43.24868 130
43.2688 152
43.28891 148
43.30902 153
43.32914 170
43.34925 173
43.36937 167
43.38948 160
43.40959 181
43.42971 150
43.44982 156
43.46993 138
43.49005 150
43.51016 178
43.53028 155
43.55039 160
43.5705 159
43.59062 161
43.61073 164
43.63084 153
43.65096 160
43.67107 143
43.69119 179
43.7113 151
43.73141 162
43.75153 151
43.77164 184
43.79175 162
43.81187 166
43.83198 150
43.85209 166
43.87221 165
43.89232 163
43.91244 148
43.93255 163
43.95266 162
43.97278 173
43.99289 171
44.013 164
44.03312 163
44.05323 176
44.07335 161
44.09346 154
44.11357 148
44.13369 166
44.1538 154
44.17391 163
44.19403 172
44.21414 165
44.23426 157
44.25437 168
44.27448 150
44.2946 156
44.31471 149
44.33482 163
44.35494 155
44.37505 154
44.39516 165
44.41528 161
44.43539 165
44.45551 155
44.47562 154
44.49573 158
44.51585 143
44.53596 154
44.55607 154
44.57619 147
44.5963 153
44.61642 134
44.63653 165
44.65664 176
44.67676 178
44.69687 166
44.71698 161
44.7371 154
44.75721 186
44.77732 156
44.79744 148
44.81755 164
44.83767 143
44.85778 171
44.87789 147
44.89801 193
44.91812 173
44.93823 170
44.95835 159
44.97846 160
44.99858 161
45.01869 165
45.0388 181
45.05892 157
45.07903 163
45.09914 171
45.11926 182
45.13937 161
45.15949 175
45.1796 186
45.19971 165
45.21983 188
45.23994 180
45.26005 159
45.28017 191
45.30028 157
45.32039 171
45.34051 199
45.36062 194
45.38074 205
45.40085 187
45.42096 225
45.44108 204
45.46119 242
45.4813 228
45.50142 261
45.52153 300
45.54165 313
45.56176 324
45.58187 418
45.60199 458
45.6221 557
45.64221 653
45.66233 769
45.68244 893
45.70256 1002
45.72267 1082
45.74278 1074
45.7629 1007
45.78301 893
45.80312 748
45.82324 729
45.84335 626
45.86346 597
45.88358 500
45.90369 423
45.92381 354
45.94392 282
45.96403 246
45.98415 223
46.00426 230
46.02437 190
46.04449 173
46.0646 173
46.08472 208
46.10483 179
46.12494 158
46.14506 170
46.16517 186
46.18528 195
46.2054 162
46.22551 173
46.24563 164
46.26574 165
46.28585 167
46.30597 163
46.32608 164
46.34619 153
46.36631 148
46.38642 167
46.40653 159
46.42665 156
46.44676 166
46.46688 157
46.48699 185
46.5071 170
46.52722 160
46.54733 158
46.56744 190
46.58756 149
46.60767 157
46.62779 145
46.6479 159
46.66801 142
46.68813 154
46.70824 159
46.72835 167
46.74847 156
46.76858 144
46.78869 165
46.80881 180
46.82892 152
46.84904 170
46.86915 150
46.88926 170
46.90938 134
46.92949 155
46.9496 161
46.96972 172
46.98983 165
47.00995 141
47.03006 142
47.05017 158
47.07029 167
47.0904 175
47.11051 143
47.13063 127
47.15074 169
47.17086 161
47.19097 162
47.21108 162
47.2312 153
47.25131 167
47.27142 151
47.29154 147
47.31165 143
47.33176 154
47.35188 157
47.37199 137
47.39211 155
47.41222 177
47.43233 164
47.45245 166
47.47256 165
47.49267 140
47.51279 159
47.5329 164
47.55302 149
47.57313 162
47.59324 137
47.61336 151
47.63347 159
47.65358 176
47.6737 137
47.69381 162
47.71393 152
47.73404 149
47.75415 150
47.77427 165
47.79438 151
47.81449 179
47.83461 176
47.85472 155
47.87483 157
47.89495 176
47.91506 144
47.93518 182
47.95529 176
47.9754 156
47.99552 181
48.01563 167
48.03574 152
48.05586 181
48.07597 144
48.09609 155
48.1162 161
48.13631 151
48.15643 171
48.17654 138
48.19665 135
48.21677 155
48.23688 158
48.257 163
48.27711 146
48.29722 148
48.31734 154
48.33745 150
48.35756 158
48.37768 160
48.39779 165
48.4179 155
48.43802 179
48.45813 169
48.47825 177
48.49836 164
48.51847 144
48.53859 143
48.5587 150
48.57881 174
48.59893 145
48.61904 162
48.63916 171
48.65927 177
48.67938 163
48.6995 152
48.71961 186
48.73972 159
48.75984 152
48.77995 162
48.80006 160
48.82018 151
48.84029 155
48.86041 166
48.88052 164
48.90063 153
48.92075 151
48.94086 170
48.96097 163
48.98109 162
49.0012 182
49.02132 158
49.04143 174
49.06154 177
49.08166 155
49.10177 176
49.12188 185
49.142 194
49.16211 160
49.18223 175
49.20234 142
49.22245 159
49.24257 182
49.26268 175
49.28279 183
49.30291 150
49.32302 178
49.34313 186
49.36325 184
49.38336 183
49.40348 178
49.42359 195
49.4437 177
49.46382 183
49.48393 160
49.50404 175
49.52416 197
49.54427 211
49.56439 178
49.5845 220
49.60461 206
49.62473 247
49.64484 210
49.66495 242
49.68507 257
49.70518 253
49.7253 298
49.74541 306
49.76552 354
49.78564 360
49.80575 412
49.82586 473
49.84598 535
49.86609 655
49.8862 701
49.90632 849
49.92643 1056
49.94655 1236
49.96666 1520
49.98677 1899
50.00689 2314
50.027 2698
50.04711 3101
50.06723 3379
50.08734 3526
50.10746 3101
50.12757 2741
50.14768 2345
50.1678 2088
50.18791 1972
50.20802 1769
50.22814 1624
50.24825 1300
50.26837 998
50.28848 764
50.30859 528
50.32871 411
50.34882 349
50.36893 311
50.38905 293
50.40916 248
50.42927 266
50.44939 261
50.4695 238
50.48962 271
50.50973 262
50.52984 259
50.54996 274
50.57007 248
50.59018 216
50.6103 245
50.63041 237
50.65053 228
50.67064 190
50.69075 218
50.71087 198
50.73098 221
50.75109 186
50.77121 186
50.79132 166
50.81143 174
50.83155 168
50.85166 178
50.87178 165
50.89189 159
50.912 148
50.93212 174
50.95223 162
50.97234 163
50.99246 165
51.01257 151
51.03269 175
51.0528 164
51.07291 159
51.09303 159
51.11314 131
51.13325 148
51.15337 164
51.17348 144
51.1936 149
51.21371 141
51.23382 154
51.25394 149
51.27405 144
51.29416 147
51.31428 146
51.33439 143
51.3545 150
51.37462 160
51.39473 132
51.41485 139
51.43496 130
51.45507 154
51.47519 134
51.4953 134
51.51541 124
51.53553 165
51.55564 135
51.57576 148
51.59587 134
51.61598 150
51.6361 140
51.65621 151
51.67632 142
51.69644 164
51.71655 145
51.73667 157
51.75678 137
51.77689 150
51.79701 136
51.81712 143
51.83723 136
51.85735 142
51.87746 163
51.89757 137
51.91769 154
51.9378 144
51.95792 137
51.97803 178
51.99814 133
52.01826 177
52.03837 134
52.05848 160
52.0786 133
52.09871 157
52.11883 149
52.13894 142
52.15905 148
52.17917 141
52.19928 158
52.21939 126
52.23951 156
52.25962 145
52.27974 132
52.29985 158
52.31996 139
52.34008 156
52.36019 141
52.3803 124
52.40042 159
52.42053 131
52.44064 129
52.46076 142
52.48087 123
52.50099 142
52.5211 116
52.54121 157
52.56133 166
52.58144 131
52.60155 151
52.62167 158
52.64178 147
52.6619 142
52.68201 121
52.70212 140
52.72224 134
52.74235 144
52.76246 147
52.78258 162
52.80269 162
52.8228 165
52.84292 142
52.86303 148
52.88315 154
52.90326 140
52.92337 180
52.94349 140
52.9636 146
52.98371 136
53.00383 173
53.02394 157
53.04406 156
53.06417 156
53.08428 154
53.1044 178
53.12451 143
53.14462 166
53.16474 168
53.18485 149
53.20497 167
53.22508 149
53.24519 170
53.26531 162
53.28542 144
53.30553 186
53.32565 189
53.34576 175
53.36587 170
53.38599 178
53.4061 171
53.42622 192
53.44633 180
53.46644 163
53.48656 168
53.50667 175
53.52678 165
53.5469 175
53.56701 179
53.58713 171
53.60724 169
53.62735 171
53.64747 179
53.66758 164
53.68769 162
53.70781 166
53.72792 182
53.74804 172
53.76815 169
53.78826 182
53.80838 170
53.82849 186
53.8486 200
53.86872 180
53.88883 155
53.90894 188
53.92906 154
53.94917 184
53.96929 174
53.9894 192
54.00951 194
54.02963 195
54.04974 213
54.06985 213
54.08997 188
54.11008 215
54.1302 222
54.15031 192
54.17042 216
54.19054 204
54.21065 220
54.23076 192
54.25088 223
54.27099 212
54.29111 220
54.31122 227
54.33133 226
54.35145 201
54.37156 230
54.39167 232
54.41179 220
54.4319 208
54.45201 214
54.47213 236
54.49224 226
54.51236 269
54.53247 239
54.55258 272
54.5727 331
54.59281 314
54.61292 336
54.63304 357
54.65315 452
54.67327 489
54.69338 545
54.71349 703
54.73361 800
54.75372 907
54.77383 1052
54.79395 1088
54.81406 1110
54.83417 1086
54.85429 934
54.8744 897
54.89452 762
54.91463 720
54.93474 700
54.95486 667
54.97497 653
54.99508 565
55.0152 461
55.03531 429
55.05543 353
55.07554 343
55.09565 346
55.11577 374
55.13588 389
55.15599 387
55.17611 462
55.19622 514
55.21634 571
55.23645 575
55.25656 565
55.27668 597
55.29679 554
55.3169 503
55.33702 467
55.35713 438
55.37724 371
55.39736 354
55.41747 366
55.43759 359
55.4577 313
55.47781 300
55.49793 256
55.51804 243
55.53815 207
55.55827 194
55.57838 186
55.5985 192
55.61861 192
55.63872 190
55.65884 179
55.67895 177
55.69906 164
55.71918 184
55.73929 165
55.75941 182
55.77952 159
55.79963 166
55.81975 162
55.83986 171
55.85997 176
55.88009 139
55.9002 162
55.92031 151
55.94043 147
55.96054 162
55.98066 165
56.00077 160
56.02088 171
56.041 184
56.06111 156
56.08122 155
56.10134 155
56.12145 150
56.14157 155
56.16168 160
56.18179 146
56.20191 137
56.22202 148
56.24213 151
56.26225 137
56.28236 171
56.30248 156
56.32259 166
56.3427 154
56.36282 156
56.38293 187
56.40304 163
56.42316 165
56.44327 190
56.46338 159
56.4835 142
56.50361 142
56.52373 167
56.54384 169
56.56395 156
56.58407 193
56.60418 157
56.62429 189
56.64441 159
56.66452 166
56.68464 159
56.70475 169
56.72486 151
56.74498 152
56.76509 163
56.7852 133
56.80532 149
56.82543 161
56.84554 179
56.86566 140
56.88577 162
56.90589 171
56.926 150
56.94611 155
56.96623 164
56.98634 167
57.00645 180
57.02657 184
57.04668 174
57.0668 177
57.08691 171
57.10702 186
57.12714 189
57.14725 177
57.16736 208
57.18748 200
57.20759 177
57.22771 204
57.24782 175
57.26793 164
57.28805 187
57.30816 170
57.32827 149
57.34839 170
57.3685 143
57.38861 160
57.40873 160
57.42884 153
57.44896 159
57.46907 145
57.48918 150
57.5093 152
57.52941 147
57.54952 150
57.56964 152
57.58975 146
57.60987 148
57.62998 138
57.65009 139
57.67021 163
57.69032 151
57.71043 141
57.73055 134
57.75066 159
57.77078 148
57.79089 149
57.811 145
57.83112 117
57.85123 143
57.87134 146
57.89146 157
57.91157 165
57.93168 136
57.9518 137
57.97191 144
57.99203 163
58.01214 132
58.03225 131
58.05237 188
58.07248 157
58.09259 131
58.11271 167
58.13282 155
58.15294 140
58.17305 148
58.19316 163
58.21328 157
58.23339 130
58.2535 138
58.27362 136
58.29373 127
58.31385 148
58.33396 155
58.35407 139
58.37419 145
58.3943 139
58.41441 133
58.43453 134
58.45464 141
58.47475 155
58.49487 140
58.51498 153
58.5351 153
58.55521 151
58.57532 130
58.59544 148
58.61555 136
58.63566 137
58.65578 141
58.67589 162
58.69601 138
58.71612 133
58.73623 133
58.75635 133
58.77646 141
58.79657 150
58.81669 135
58.8368 167
58.85691 164
58.87703 159
58.89714 157
58.91726 166
58.93737 149
58.95748 145
58.9776 157
58.99771 159
59.01782 157
59.03794 160
59.05805 148
59.07817 146
59.09828 142
59.11839 140
59.13851 141
59.15862 134
59.17873 142
59.19885 142
59.21896 149
59.23908 175
59.25919 140
59.2793 192
59.29942 171
59.31953 188
59.33964 178
59.35976 190
59.37987 169
59.39998 192
59.4201 167
59.44021 176
59.46033 207
59.48044 217
59.50055 242
59.52067 228
59.54078 244
59.56089 274
59.58101 305
59.60112 345
59.62124 372
59.64135 426
59.66146 460
59.68158 524
59.70169 603
59.7218 696
59.74192 848
59.76203 970
59.78215 1168
59.80226 1385
59.82237 1661
59.84249 1870
59.8626 2078
59.88271 2146
59.90283 2189
59.92294 1958
59.94305 1686
59.96317 1449
59.98328 1253
60.0034 1186
60.02351 1202
60.04362 1201
60.06374 1118
60.08385 1037
60.10396 810
60.12408 649
60.14419 468
60.16431 356
60.18442 313
60.20453 276
60.22465 259
60.24476 219
60.26487 218
60.28499 194
60.3051 192
60.32522 185
60.34533 183
60.36544 178
60.38556 175
60.40567 156
60.42578 176
60.4459 158
60.46601 166
60.48612 163
60.50624 161
60.52635 140
60.54647 165
60.56658 160
60.58669 153
60.60681 152
60.62692 153
60.64703 155
60.66715 163
60.68726 164
60.70738 156
60.72749 173
60.7476 139
60.76772 142
60.78783 147
60.80794 153
60.82806 169
60.84817 150
60.86828 151
60.8884 165
60.90851 139
60.92863 149
60.94874 146
60.96885 155
60.98897 167
61.00908 132
61.02919 159
61.04931 159
61.06942 127
61.08954 141
61.10965 170
61.12976 154
61.14988 166
61.16999 136
61.1901 117
61.21022 145
61.23033 164
61.25045 154
61.27056 140
61.29067 139
61.31079 139
61.3309 144
61.35101 153
61.37113 149
61.39124 161
61.41135 144
61.43147 132
61.45158 130
61.4717 133
61.49181 159
61.51192 138
61.53204 144
61.55215 147
61.57226 148
61.59238 150
61.61249 159
61.63261 141
61.65272 141
61.67283 144
61.69295 138
61.71306 165
61.73317 173
61.75329 144
61.7734 151
61.79352 136
61.81363 170
61.83374 189
61.85386 159
61.87397 182
61.89408 177
61.9142 152
61.93431 170
61.95442 156
61.97454 181
61.99465 183
62.01477 165
62.03488 171
62.05499 159
62.07511 184
62.09522 173
62.11533 176
62.13545 204
62.15556 195
62.17568 193
62.19579 217
62.2159 203
62.23602 201
62.25613 212
62.27624 214
62.29636 184
62.31647 193
62.33659 190
62.3567 213
62.37681 173
62.39693 203
62.41704 180
62.43715 175
62.45727 188
62.47738 143
62.49749 184
62.51761 185
62.53772 162
62.55784 199
62.57795 182
62.59806 168
62.61818 171
62.63829 165
62.6584 156
62.67852 158
62.69863 144
62.71875 151
62.73886 155
62.75897 131
62.77909 160
62.7992 162
62.81931 160
62.83943 165
62.85954 176
62.87965 152
62.89977 144
62.91988 132
62.94 152
62.96011 156
62.98022 147
63.00034 142
63.02045 152
63.04056 148
63.06068 140
63.08079 149
63.10091 151
63.12102 154
63.14113 152
63.16125 165
63.18136 139
63.20147 133
63.22159 128
63.2417 146
63.26182 134
63.28193 140
63.30204 139
63.32216 150
63.34227 138
63.36238 159
63.3825 146
63.40261 155
63.42272 140
63.44284 133
63.46295 163
63.48307 159
63.50318 135
63.52329 166
63.54341 151
63.56352 153
63.58363 156
63.60375 152
63.62386 174
63.64398 166
63.66409 175
63.6842 164
63.70432 164
63.72443 194
63.74454 218
63.76466 228
63.78477 210
63.80489 257
63.825 284
63.84511 324
63.86523 332
63.88534 374
63.90545 405
63.92557 476
63.94568 510
63.96579 497
63.98591 461
64.00602 466
64.02614 413
64.04625 360
64.06636 324
64.08648 314
64.10659 304
64.1267 307
64.14682 316
64.16693 257
64.18705 289
64.20716 229
64.22727 203
64.24739 188
64.2675 183
64.28761 167
64.30773 152
64.32784 168
64.34796 174
64.36807 160
64.38818 157
64.4083 141
64.42841 149
64.44852 163
64.46864 173
64.48875 139
64.50886 141
64.52898 129
64.54909 143
64.56921 148
64.58932 137
64.60943 134
64.62955 132
64.64966 120
64.66977 143
64.68989 128
64.71 123
64.73012 139
64.75023 155
64.77034 140
64.79046 127
64.81057 126
64.83068 128
64.8508 149
64.87091 124
64.89102 119
64.91114 131
64.93125 132
64.95137 150
64.97148 129
64.99159 152
65.01171 156
65.03182 139
65.05193 138
65.07205 129
65.09216 128
65.11228 126
65.13239 132
65.1525 144
65.17262 123
65.19273 145
65.21284 136
65.23296 140
65.25307 130
65.27319 143
65.2933 147
65.31341 138
65.33353 133
65.35364 134
65.37375 129
65.39387 152
65.41398 169
65.43409 155
65.45421 166
65.47432 141
65.49444 144
65.51455 174
65.53466 161
65.55478 180
65.57489 183
65.595 184
65.61512 188
65.63523 210
65.65535 208
65.67546 225
65.69557 235
65.71569 226
65.7358 222
65.75591 238
65.77603 192
65.79614 195
65.81626 173
65.83637 171
65.85648 180
65.8766 182
65.89671 194
65.91682 199
65.93694 157
65.95705 169
65.97716 167
65.99728 140
66.01739 136
66.03751 159
66.05762 138
66.07773 139
66.09785 153
66.11796 166
66.13807 137
66.15819 159
66.1783 140
66.19842 162
66.21853 127
66.23864 138
66.25876 154
66.27887 153
66.29898 145
66.3191 136
66.33921 155
66.35933 154
66.37944 155
66.39955 112
66.41967 153
66.43978 139
66.45989 147
66.48001 142
66.50012 150
66.52023 145
66.54035 148
66.56046 139
66.58058 156
66.60069 143
66.6208 111
66.64092 140
66.66103 169
66.68114 147
66.70126 159
66.72137 156
66.74149 152
66.7616 153
66.78171 179
66.80183 131
66.82194 158
66.84205 162
66.86217 166
66.88228 149
66.90239 152
66.92251 173
66.94262 133
66.96274 164
66.98285 165
67.00296 142
67.02308 134
67.04319 193
67.0633 190
67.08342 162
67.10353 145
67.12365 168
67.14376 170
67.16387 190
67.18399 165
67.2041 173
67.22421 173
67.24433 183
67.26444 223
67.28456 210
67.30467 202
67.32478 228
67.3449 245
67.36501 256
67.38512 311
67.40524 303
67.42535 309
67.44546 380
67.46558 415
67.48569 471
67.50581 476
67.52592 526
67.54603 701
67.56615 765
67.58626 898
67.60637 1069
67.62649 1186
67.6466 1196
67.66672 1295
67.68683 1289
67.70694 1211
67.72706 1069
67.74717 984
67.76728 828
67.7874 830
67.80751 873
67.82763 934
67.84774 946
67.86785 1001
67.88797 972
67.90808 1061
67.92819 1030
67.94831 1077
67.96842 1103
67.98853 1234
68.00865 1334
68.02876 1589
68.04888 1674
68.06899 1822
68.0891 1792
68.10922 1792
68.12933 1642
68.14944 1568
68.16956 1435
68.18967 1416
68.20979 1571
68.2299 1600
68.25001 1664
68.27013 1556
68.29024 1380
68.31035 1218
68.33047 1053
68.35058 849
68.3707 756
68.39081 667
68.41092 683
68.43104 673
68.45115 604
68.47126 518
68.49138 437
68.51149 411
68.5316 319
68.55172 237
68.57183 239
68.59195 231
68.61206 203
68.63217 214
68.65229 209
68.6724 189
68.69251 191
68.71263 160
68.73274 179
68.75286 180
68.77297 147
68.79308 193
68.8132 178
68.83331 183
68.85342 175
68.87354 189
68.89365 171
68.91376 180
68.93388 188
68.95399 173
68.97411 154
68.99422 157
69.01433 133
69.03445 136
69.05456 161
69.07467 145
69.09479 137
69.1149 152
69.13502 162
69.15513 148
69.17524 173
69.19536 159
69.21547 143
69.23558 154
69.2557 141
69.27581 156
69.29593 143
69.31604 132
69.33615 154
69.35627 127
69.37638 128
69.39649 148
69.41661 140
69.43672 150
69.45683 144
69.47695 139
69.49706 155
69.51718 157
69.53729 155
69.5574 138
69.57752 126
69.59763 155
69.61774 145
69.63786 141
69.65797 136
69.67809 146
69.6982 143
69.71831 143
69.73843 138
69.75854 158
69.77865 139
69.79877 150
69.81888 135
69.839 143
69.85911 123
69.87922 116
69.89934 144
69.91945 132
69.93956 128
69.95968 138
69.97979 158
69.9999 135
70.02002 154
70.04013 138
70.06025 129
70.08036 137
70.10047 170
70.12059 160
70.1407 114
70.16081 141
70.18093 155
70.20104 138
70.22116 126
70.24127 156
70.26138 144
70.2815 146
70.30161 134
70.32172 136
70.34184 140
70.36195 110
70.38207 136
70.40218 110
70.42229 136
70.44241 141
70.46252 157
70.48263 132
70.50275 127
70.52286 127
70.54297 134
70.56309 129
70.5832 145
70.60332 149
70.62343 124
70.64354 154
70.66366 124
70.68377 121
70.70388 138
70.724 142
70.74411 157
70.76423 118
70.78434 136
70.80445 124
70.82457 141
70.84468 125
70.86479 141
70.88491 144
70.90502 143
70.92513 132
70.94525 139
70.96536 116
70.98548 127
71.00559 130
71.0257 116
71.04582 124
71.06593 121
71.08604 139
71.10616 122
71.12627 108
71.14639 136
71.1665 122
71.18661 138
71.20673 140
71.22684 129
71.24695 136
71.26707 129
71.28718 134
71.3073 142
71.32741 133
71.34752 122
71.36764 126
71.38775 129
71.40786 112
71.42798 129
71.44809 130
71.4682 128
71.48832 126
71.50843 117
71.52855 138
71.54866 141
71.56877 125
71.58889 130
71.609 117
71.62911 139
71.64923 136
71.66934 114
71.68946 130
71.70957 134
71.72968 148
71.7498 133
71.76991 117
71.79002 145
71.81014 129
71.83025 133
71.85037 129
71.87048 139
71.89059 131
71.91071 118
71.93082 152
71.95093 139
71.97105 131
71.99116 134
72.01127 110
72.03139 122
72.0515 132
72.07162 151
72.09173 141
72.11184 132
72.13196 138
72.15207 131
72.17218 119
72.1923 152
72.21241 131
72.23253 133
72.25264 138
72.27275 132
72.29287 130
72.31298 120
72.33309 122
72.35321 154
72.37332 115
72.39344 126
72.41355 125
72.43366 128
72.45378 127
72.47389 140
72.494 119
72.51412 106
72.53423 146
72.55434 126
72.57446 121
72.59457 146
72.61469 140
72.6348 113
72.65491 138
72.67503 118
72.69514 138
72.71525 146
72.73537 127
72.75548 131
72.7756 143
72.79571 123
72.81582 140
72.83594 142
72.85605 128
72.87616 141
72.89628 135
72.91639 153
72.9365 153
72.95662 142
72.97673 148
72.99685 158
73.01696 153
73.03707 157
73.05719 155
73.0773 150
73.09741 155
73.11753 179
73.13764 203
73.15776 195
73.17787 220
73.19798 237
73.2181 241
73.23821 280
73.25832 308
73.27844 316
73.29855 366
73.31867 415
73.33878 472
73.35889 471
73.37901 525
73.39912 541
73.41923 516
73.43935 491
73.45946 439
73.47957 344
73.49969 334
73.5198 315
73.53992 302
73.56003 333
73.58014 354
73.60026 317
73.62037 319
73.64048 324
73.6606 271
73.68071 234
73.70083 231
73.72094 183
73.74105 182
73.76117 172
73.78128 151
73.80139 141
73.82151 157
73.84162 135
73.86174 139
73.88185 147
73.90196 144
73.92208 112
73.94219 120
73.9623 132
73.98242 152
74.00253 156
74.02264 122
74.04276 130
74.06287 150
74.08299 144
74.1031 137
74.12321 145
74.14333 129
74.16344 129
74.18355 120
74.20367 135
74.22378 119
74.2439 123
74.26401 133
74.28412 112
74.30424 150
74.32435 116
74.34446 124
74.36458 127
74.38469 129
74.40481 129
74.42492 133
74.44503 132
74.46515 126
74.48526 124
74.50537 134
74.52549 127
74.5456 152
74.56571 138
74.58583 151
74.60594 123
74.62606 138
74.64617 130
74.66628 123
74.6864 122
74.70651 130
74.72662 139
74.74674 149
74.76685 137
74.78697 143
74.80708 125
74.82719 141
74.84731 123
74.86742 132
74.88753 118
74.90765 129
74.92776 130
74.94787 121
74.96799 126
74.9881 137
75.00822 145
