3.00117 20687
3.02128 19577
3.0414 18944
3.06151 18748
3.08162 18265
3.10174 17917
3.12185 17023
3.14197 16567
3.16208 16309
3.18219 15540
3.20231 15584
3.22242 14789
3.24253 14195
3.26265 13940
3.28276 13429
3.30288 13491
3.32299 12550
3.3431 12488
3.36322 11800
3.38333 11522
3.40344 11406
3.42356 10641
3.44367 10148
3.46379 10228
3.4839 9590
3.50401 9551
3.52413 9009
3.54424 8777
3.56435 8444
3.58447 8088
3.60458 7969
3.62469 7512
3.64481 7342
3.66492 7016
3.68504 6620
3.70515 6676
3.72526 6089
3.74538 6018
3.76549 5725
3.7856 5535
3.80572 5392
3.82583 4913
3.84595 4955
3.86606 4610
3.88617 4523
3.90629 4344
3.9264 3925
3.94651 3956
3.96663 3891
3.98674 3633
4.00686 3636
4.02697 3168
4.04708 3116
4.0672 3020
4.08731 2902
4.10742 2900
4.12754 2576
4.14765 2533
4.16776 2465
4.18788 2475
4.20799 2464
4.22811 2111
4.24822 2067
4.26833 2140
4.28845 1977
4.30856 2071
4.32867 1794
4.34879 1790
4.3689 1789
4.38902 1779
4.40913 1817
4.42924 1648
4.44936 1569
4.46947 1588
4.48958 1563
4.5097 1510
4.52981 1446
4.54992 1413
4.57004 1407
4.59015 1381
4.61027 1357
4.63038 1299
4.65049 1245
4.67061 1352
4.69072 1296
4.71083 1178
4.73095 1146
4.75106 1065
4.77118 1134
4.79129 1120
4.8114 1050
4.83152 1123
4.85163 997
4.87174 1016
4.89186 972
4.91197 985
4.93209 884
4.9522 928
4.97231 955
4.99243 892
5.01254 952
5.03265 891
5.05277 837
5.07288 860
5.09299 809
5.11311 830
5.13322 789
5.15334 790
5.17345 814
5.19356 818
5.21368 780
5.23379 658
5.2539 682
5.27402 713
5.29413 768
5.31425 701
5.33436 690
5.35447 620
5.37459 637
5.3947 686
5.41481 599
5.43493 664
5.45504 651
5.47516 612
5.49527 638
5.51538 558
5.5355 543
5.55561 572
5.57572 573
5.59584 568
5.61595 550
5.63606 522
5.65618 544
5.67629 512
5.69641 544
5.71652 520
5.73663 528
5.75675 513
5.77686 470
5.79697 495
5.81709 446
5.8372 480
5.85732 503
5.87743 497
5.89754 441
5.91766 477
5.93777 490
5.95788 452
5.978 471
5.99811 459
6.01823 446
6.03834 492
6.05845 449
6.07857 447
6.09868 456
6.11879 456
6.13891 459
6.15902 495
6.17913 455
6.19925 481
6.21936 442
6.23948 403
6.25959 490
6.2797 445
6.29982 464
6.31993 425
6.34004 441
6.36016 415
6.38027 447
6.40039 452
6.4205 464
6.44061 415
6.46073 390
6.48084 478
6.50095 411
6.52107 442
6.54118 444
6.56129 448
6.58141 475
6.60152 406
6.62164 400
6.64175 421
6.66186 410
6.68198 445
6.70209 441
6.7222 441
6.74232 400
6.76243 451
6.78255 443
6.80266 434
6.82277 446
6.84289 416
6.863 420
6.88311 396
6.90323 421
6.92334 411
6.94346 443
6.96357 452
6.98368 448
7.0038 432
7.02391 440
7.04402 444
7.06414 438
7.08425 458
7.10436 433
7.12448 429
7.14459 424
7.16471 427
7.18482 421
7.20493 454
7.22505 448
7.24516 423
7.26527 441
7.28539 450
7.3055 459
7.32562 460
7.34573 442
7.36584 473
7.38596 475
7.40607 469
7.42618 436
7.4463 506
7.46641 444
7.48653 480
7.50664 453
7.52675 467
7.54687 490
7.56698 453
7.58709 527
7.60721 486
7.62732 452
7.64743 488
7.66755 493
7.68766 527
7.70778 475
7.72789 459
7.748 507
7.76812 502
7.78823 504
7.80834 488
7.82846 542
7.84857 518
7.86869 529
7.8888 553
7.90891 550
7.92903 526
7.94914 588
7.96925 577
7.98937 547
8.00948 596
8.0296 601
8.04971 602
8.06982 595
8.08994 553
8.11005 629
8.13016 671
8.15028 613
8.17039 615
8.1905 658
8.21062 656
8.23073 676
8.25085 680
8.27096 717
8.29107 676
8.31119 772
8.3313 734
8.35141 784
8.37153 845
8.39164 779
8.41176 835
8.43187 872
8.45198 939
8.4721 922
8.49221 955
8.51232 1053
8.53244 954
8.55255 1101
8.57266 1142
8.59278 1177
8.61289 1257
8.63301 1296
8.65312 1343
8.67323 1425
8.69335 1513
8.71346 1570
8.73357 1708
8.75369 1681
8.7738 1821
8.79392 1828
8.81403 1840
8.83414 1781
8.85426 1719
8.87437 1574
8.89448 1480
8.9146 1270
8.93471 1119
8.95483 1048
8.97494 853
8.99505 825
9.01517 777
9.03528 698
9.05539 619
9.07551 661
9.09562 682
9.11573 675
9.13585 613
9.15596 542
9.17608 578
9.19619 592
9.2163 546
9.23642 533
9.25653 531
9.27664 499
9.29676 509
9.31687 506
9.33699 549
9.3571 470
9.37721 523
9.39733 476
9.41744 497
9.43755 486
9.45767 429
9.47778 441
9.4979 440
9.51801 427
9.53812 455
9.55824 462
9.57835 468
9.59846 470
9.61858 422
9.63869 417
9.6588 446
9.67892 460
9.69903 426
9.71915 439
9.73926 410
9.75937 430
9.77949 436
9.7996 419
9.81971 383
9.83983 425
9.85994 410
9.88006 398
9.90017 455
9.92028 434
9.9404 424
9.96051 397
9.98062 407
10.00074 366
10.02085 404
10.04097 411
10.06108 428
10.08119 378
10.10131 373
10.12142 407
10.14153 405
10.16165 349
10.18176 399
10.20187 408
10.22199 410
10.2421 370
10.26222 395
10.28233 411
10.30244 429
10.32256 393
10.34267 383
10.36278 383
10.3829 388
10.40301 384
10.42313 401
10.44324 365
10.46335 372
10.48347 400
10.50358 365
10.52369 365
10.54381 390
10.56392 390
10.58403 352
10.60415 441
10.62426 400
10.64438 398
10.66449 362
10.6846 364
10.70472 416
10.72483 383
10.74494 371
10.76506 359
10.78517 370
10.80529 400
10.8254 409
10.84551 406
10.86563 352
10.88574 376
10.90585 342
10.92597 401
10.94608 359
10.9662 387
10.98631 350
11.00642 349
11.02654 352
11.04665 352
11.06676 360
11.08688 398
11.10699 376
11.1271 406
11.14722 382
11.16733 386
11.18745 370
11.20756 390
11.22767 395
11.24779 370
11.2679 414
11.28801 402
11.30813 351
11.32824 385
11.34836 398
11.36847 367
11.38858 372
11.4087 381
11.42881 345
11.44892 386
11.46904 358
11.48915 349
11.50927 347
11.52938 406
11.54949 359
11.56961 376
11.58972 406
11.60983 386
11.62995 383
11.65006 366
11.67017 369
11.69029 367
11.7104 385
11.73052 369
11.75063 408
11.77074 418
11.79086 382
11.81097 405
11.83108 398
11.8512 385
11.87131 403
11.89143 392
11.91154 374
11.93165 343
11.95177 406
11.97188 432
11.99199 405
12.01211 362
12.03222 405
12.05234 410
12.07245 387
12.09256 380
12.11268 388
12.13279 389
12.1529 389
12.17302 404
12.19313 451
12.21324 417
12.23336 428
12.25347 462
12.27359 451
12.2937 450
12.31381 400
12.33393 416
12.35404 414
12.37415 444
12.39427 436
12.41438 414
12.4345 400
12.45461 415
12.47472 409
12.49484 417
12.51495 367
12.53506 424
12.55518 396
12.57529 368
12.5954 421
12.61552 390
12.63563 379
12.65575 399
12.67586 379
12.69597 389
12.71609 384
12.7362 363
12.75631 335
12.77643 392
12.79654 294
12.81666 419
12.83677 398
12.85688 344
12.877 359
12.89711 379
12.91722 354
12.93734 331
12.95745 367
12.97757 360
12.99768 413
13.01779 412
13.03791 345
13.05802 349
13.07813 375
13.09825 365
13.11836 379
13.13847 352
13.15859 360
13.1787 395
13.19882 376
13.21893 419
13.23904 332
13.25916 362
13.27927 324
13.29938 392
13.3195 354
13.33961 360
13.35973 337
13.37984 424
13.39995 350
13.42007 369
13.44018 307
13.46029 376
13.48041 365
13.50052 382
13.52064 368
13.54075 370
13.56086 324
13.58098 367
13.60109 372
13.6212 402
13.64132 378
13.66143 369
13.68154 372
13.70166 386
13.72177 378
13.74189 392
13.762 426
13.78211 411
13.80223 399
13.82234 443
13.84245 439
13.86257 473
13.88268 402
13.9028 388
13.92291 403
13.94302 398
13.96314 333
13.98325 376
14.00336 395
14.02348 376
14.04359 345
14.06371 335
14.08382 363
14.10393 384
14.12405 405
14.14416 371
14.16427 337
14.18439 391
14.2045 372
14.22461 340
14.24473 354
14.26484 331
14.28496 327
14.30507 385
14.32518 321
14.3453 325
14.36541 321
14.38552 355
14.40564 390
14.42575 325
14.44587 361
14.46598 338
14.48609 336
14.50621 339
14.52632 355
14.54643 308
14.56655 375
14.58666 380
14.60677 337
14.62689 338
14.647 355
14.66712 368
14.68723 346
14.70734 324
14.72746 319
14.74757 308
14.76768 336
14.7878 357
14.80791 329
14.82803 356
14.84814 343
14.86825 354
14.88837 341
14.90848 354
14.92859 344
14.94871 360
14.96882 308
14.98894 374
15.00905 379
15.02916 367
15.04928 381
15.06939 382
15.0895 380
15.10962 368
15.12973 386
15.14984 318
15.16996 354
15.19007 352
15.21019 383
15.2303 315
15.25041 389
15.27053 344
15.29064 327
15.31075 374
15.33087 345
15.35098 337
15.3711 365
15.39121 367
15.41132 353
15.43144 336
15.45155 356
15.47166 339
15.49178 318
15.51189 350
15.53201 366
15.55212 328
15.57223 388
15.59235 322
15.61246 348
15.63257 379
15.65269 348
15.6728 384
15.69291 383
15.71303 368
15.73314 352
15.75326 361
15.77337 373
15.79348 361
15.8136 352
15.83371 331
15.85382 349
15.87394 362
15.89405 366
15.91417 360
15.93428 368
15.95439 346
15.97451 336
15.99462 369
16.01473 357
16.03485 331
16.05496 322
16.07508 337
16.09519 333
16.1153 356
16.13542 338
16.15553 352
16.17564 321
16.19576 351
16.21587 338
16.23598 347
16.2561 333
16.27621 335
16.29633 385
16.31644 342
16.33655 402
16.35667 355
16.37678 308
16.39689 335
16.41701 343
16.43712 358
16.45724 353
16.47735 341
16.49746 336
16.51758 345
16.53769 349
16.5578 366
16.57792 352
16.59803 336
16.61814 344
16.63826 370
16.65837 335
16.67849 374
16.6986 345
16.71871 314
16.73883 322
16.75894 367
16.77905 373
16.79917 337
16.81928 340
16.8394 354
16.85951 305
16.87962 369
16.89974 369
16.91985 352
16.93996 342
16.96008 377
16.98019 350
17.00031 377
17.02042 356
17.04053 312
17.06065 354
17.08076 361
17.10087 353
17.12099 347
17.1411 320
17.16121 345
17.18133 329
17.20144 344
17.22156 318
17.24167 329
17.26178 338
17.2819 371
17.30201 323
17.32212 346
17.34224 368
17.36235 348
17.38247 345
17.40258 360
17.42269 349
17.44281 360
17.46292 365
17.48303 358
17.50315 343
17.52326 356
17.54338 364
17.56349 384
17.5836 355
17.60372 407
17.62383 365
17.64394 444
17.66406 378
17.68417 419
17.70428 425
17.7244 442
17.74451 421
17.76463 489
17.78474 479
17.80485 476
17.82497 432
17.84508 419
17.86519 401
17.88531 386
17.90542 413
17.92554 375
17.94565 380
17.96576 371
17.98588 374
18.00599 338
18.0261 323
18.04622 379
18.06633 352
18.08645 367
18.10656 354
18.12667 367
18.14679 372
18.1669 352
18.18701 348
18.20713 336
18.22724 334
18.24735 350
18.26747 350
18.28758 339
18.3077 388
18.32781 399
18.34792 346
18.36804 357
18.38815 348
18.40826 377
18.42838 350
18.44849 348
18.46861 381
18.48872 363
18.50883 374
18.52895 363
18.54906 402
18.56917 329
18.58929 350
18.6094 360
18.62951 329
18.64963 358
18.66974 327
18.68986 386
18.70997 367
18.73008 324
18.7502 361
18.77031 420
18.79042 372
18.81054 346
18.83065 368
18.85077 374
18.87088 384
18.89099 362
18.91111 381
18.93122 360
18.95133 356
18.97145 364
18.99156 379
19.01168 353
19.03179 381
19.0519 436
19.07202 407
19.09213 402
19.11224 382
19.13236 410
19.15247 450
19.17258 425
19.1927 487
19.21281 554
19.23293 550
19.25304 584
19.27315 586
19.29327 611
19.31338 590
19.33349 533
19.35361 584
19.37372 483
19.39384 547
19.41395 560
19.43406 523
19.45418 508
19.47429 527
19.4944 490
19.51452 543
19.53463 480
19.55475 449
19.57486 480
19.59497 466
19.61509 493
19.6352 465
19.65531 507
19.67543 508
19.69554 521
19.71565 550
19.73577 544
19.75588 557
19.776 561
19.79611 612
19.81622 607
19.83634 629
19.85645 662
19.87656 684
19.89668 666
19.91679 715
19.93691 603
19.95702 611
19.97713 594
19.99725 589
20.01736 497
20.03747 517
20.05759 516
20.0777 512
20.09782 510
20.11793 511
20.13804 543
20.15816 520
20.17827 526
20.19838 501
20.2185 510
20.23861 475
20.25872 517
20.27884 489
20.29895 472
20.31907 461
20.33918 512
20.35929 500
20.37941 494
20.39952 466
20.41963 482
20.43975 488
20.45986 496
20.47998 496
20.50009 510
20.5202 508
20.54032 502
20.56043 513
20.58054 544
20.60066 545
20.62077 584
20.64088 645
20.661 621
20.68111 652
20.70123 768
20.72134 894
20.74145 1054
20.76157 1352
20.78168 1554
20.80179 1869
20.82191 2191
20.84202 2241
20.86214 2123
20.88225 1807
20.90236 1330
20.92248 1022
20.94259 783
20.9627 674
20.98282 529
21.00293 506
21.02305 503
21.04316 521
21.06327 515
21.08339 484
21.1035 465
21.12361 470
21.14373 469
21.16384 502
21.18395 461
21.20407 436
21.22418 433
21.2443 434
21.26441 478
21.28452 454
21.30464 441
21.32475 456
21.34486 461
21.36498 423
21.38509 477
21.40521 450
21.42532 431
21.44543 452
21.46555 449
21.48566 443
21.50577 447
21.52589 453
21.546 447
21.56612 423
21.58623 456
21.60634 465
21.62646 490
21.64657 492
21.66668 432
21.6868 487
21.70691 470
21.72702 428
21.74714 416
21.76725 482
21.78737 485
21.80748 468
21.82759 474
21.84771 496
21.86782 496
21.88793 623
21.90805 654
21.92816 684
21.94828 775
21.96839 859
21.9885 894
22.00862 906
22.02873 808
22.04884 721
22.06896 621
22.08907 575
22.10919 493
22.1293 508
22.14941 484
22.16953 453
22.18964 454
22.20975 462
22.22987 467
22.24998 478
22.27009 495
22.29021 486
22.31032 454
22.33044 455
22.35055 457
22.37066 500
22.39078 433
22.41089 452
22.431 475
22.45112 423
22.47123 438
22.49135 466
22.51146 464
22.53157 411
22.55169 451
22.5718 432
22.59191 483
22.61203 467
22.63214 453
22.65225 459
22.67237 446
22.69248 446
22.7126 469
22.73271 453
22.75282 494
22.77294 470
22.79305 437
22.81316 513
22.83328 508
22.85339 576
22.87351 549
22.89362 606
22.91373 595
22.93385 632
22.95396 614
22.97407 561
22.99419 543
23.0143 506
23.03442 514
23.05453 460
23.07464 422
23.09476 427
23.11487 412
23.13498 440
23.1551 420
23.17521 490
23.19532 427
23.21544 439
23.23555 450
23.25567 434
23.27578 454
23.29589 427
23.31601 403
23.33612 418
23.35623 434
23.37635 416
23.39646 438
23.41658 457
23.43669 409
23.4568 490
23.47692 516
23.49703 511
23.51714 479
23.53726 546
23.55737 572
23.57749 611
23.5976 609
23.61771 629
23.63783 627
23.65794 650
23.67805 567
23.69817 583
23.71828 572
23.73839 573
23.75851 540
23.77862 583
23.79874 629
23.81885 641
23.83896 721
23.85908 734
23.87919 804
23.8993 807
23.91942 757
23.93953 750
23.95965 658
23.97976 652
23.99987 615
24.01999 578
24.0401 587
24.06021 573
24.08033 510
24.10044 537
24.12056 578
24.14067 536
24.16078 633
24.1809 594
24.20101 605
24.22112 601
24.24124 719
24.26135 675
24.28146 708
24.30158 748
24.32169 704
24.34181 712
24.36192 683
24.38203 631
24.40215 607
24.42226 561
24.44237 539
24.46249 558
24.4826 501
24.50272 499
24.52283 470
24.54294 467
24.56306 461
24.58317 478
24.60328 438
24.6234 405
24.64351 467
24.66362 480
24.68374 453
24.70385 494
24.72397 430
24.74408 511
24.76419 482
24.78431 473
24.80442 465
24.82453 503
24.84465 498
24.86476 481
24.88488 514
24.90499 488
24.9251 478
24.94522 459
24.96533 485
24.98544 465
25.00556 487
25.02567 497
25.04579 418
25.0659 504
25.08601 528
25.10613 506
25.12624 509
25.14635 489
25.16647 501
25.18658 521
25.20669 476
25.22681 477
25.24692 496
25.26704 452
25.28715 533
25.30726 452
25.32738 537
25.34749 466
25.3676 510
25.38772 517
25.40783 569
25.42795 599
25.44806 609
25.46817 670
25.48829 670
25.5084 705
25.52851 664
25.54863 674
25.56874 630
25.58886 633
25.60897 566
25.62908 567
25.6492 584
25.66931 551
25.68942 542
25.70954 581
25.72965 563
25.74976 574
25.76988 614
25.78999 568
25.81011 586
25.83022 604
25.85033 561
25.87045 581
25.89056 615
25.91067 611
25.93079 642
25.9509 640
25.97102 626
25.99113 667
26.01124 705
26.03136 702
26.05147 737
26.07158 736
26.0917 784
26.11181 737
26.13193 818
26.15204 829
26.17215 836
26.19227 908
26.21238 975
26.23249 930
26.25261 972
26.27272 950
26.29283 1021
26.31295 1026
26.33306 1132
26.35318 1233
26.37329 1366
26.3934 1458
26.41352 1706
26.43363 1989
26.45374 2283
26.47386 2707
26.49397 3213
26.51409 3933
26.5342 5064
26.55431 6275
26.57443 7676
26.59454 8749
26.61465 9221
26.63477 8677
26.65488 7459
26.67499 5770
26.69511 4604
26.71522 3557
26.73534 2359
26.75545 1799
26.77556 1497
26.79568 1382
26.81579 1158
26.8359 1119
26.85602 1035
26.87613 858
26.89625 835
26.91636 766
26.93647 760
26.95659 717
26.9767 675
26.99681 633
27.01693 614
27.03704 589
27.05716 574
27.07727 561
27.09738 595
27.1175 562
27.13761 534
27.15772 486
27.17784 512
27.19795 568
27.21806 533
27.23818 519
27.25829 535
27.27841 490
27.29852 540
27.31863 521
27.33875 536
27.35886 551
27.37897 544
27.39909 532
27.4192 545
27.43932 538
27.45943 519
27.47954 578
27.49966 528
27.51977 558
27.53988 535
27.56 575
27.58011 580
27.60023 586
27.62034 627
27.64045 744
27.66057 787
27.68068 839
27.70079 966
27.72091 1092
27.74102 1250
27.76113 1318
27.78125 1346
27.80136 1305
27.82148 1379
27.84159 1438
27.8617 1400
27.88182 1395
27.90193 1405
27.92204 1305
27.94216 1344
27.96227 1372
27.98239 1233
28.0025 1200
28.02261 1111
28.04273 928
28.06284 861
28.08295 808
28.10307 676
28.12318 659
28.1433 617
28.16341 637
28.18352 671
28.20364 736
28.22375 682
28.24386 742
28.26398 743
28.28409 784
28.3042 777
28.32432 772
28.34443 825
28.36455 695
28.38466 718
28.40477 665
28.42489 675
28.445 601
28.46511 596
28.48523 571
28.50534 549
28.52546 551
28.54557 544
28.56568 563
28.5858 521
28.60591 494
28.62602 495
28.64614 503
28.66625 475
28.68636 542
28.70648 445
28.72659 493
28.74671 458
28.76682 442
28.78693 470
28.80705 459
28.82716 492
28.84727 437
28.86739 466
28.8875 477
28.90762 462
28.92773 440
28.94784 466
28.96796 472
28.98807 445
29.00818 411
29.0283 468
29.04841 415
29.06853 458
29.08864 421
29.10875 428
29.12887 429
29.14898 434
29.16909 431
29.18921 426
29.20932 446
29.22943 413
29.24955 409
29.26966 418
29.28978 404
29.30989 431
29.33 413
29.35012 429
29.37023 440
29.39034 409
29.41046 419
29.43057 384
29.45069 432
29.4708 518
29.49091 474
29.51103 455
29.53114 436
29.55125 459
29.57137 482
29.59148 444
29.6116 492
29.63171 487
29.65182 497
29.67194 569
29.69205 538
29.71216 531
29.73228 564
29.75239 562
29.7725 569
29.79262 597
29.81273 587
29.83285 588
29.85296 615
29.87307 579
29.89319 608
29.9133 561
29.93341 543
29.95353 517
29.97364 545
29.99376 492
30.01387 486
30.03398 495
30.0541 466
30.07421 481
30.09432 483
30.11444 459
30.13455 454
30.15467 482
30.17478 475
30.19489 498
30.21501 516
30.23512 528
30.25523 524
30.27535 565
30.29546 569
30.31557 634
30.33569 629
30.3558 644
30.37592 693
30.39603 629
30.41614 670
30.43626 648
30.45637 657
30.47648 562
30.4966 566
30.51671 534
30.53683 575
30.55694 549
30.57705 518
30.59717 516
30.61728 493
30.63739 515
30.65751 452
30.67762 441
30.69773 457
30.71785 497
30.73796 517
30.75808 499
30.77819 456
30.7983 495
30.81842 501
30.83853 458
30.85864 451
30.87876 440
30.89887 409
30.91899 397
30.9391 461
30.95921 403
30.97933 457
30.99944 395
31.01955 454
31.03967 442
31.05978 458
31.0799 476
31.10001 441
31.12012 438
31.14024 466
31.16035 460
31.18046 456
31.20058 508
31.22069 488
31.2408 515
31.26092 524
31.28103 549
31.30115 493
31.32126 540
31.34137 555
31.36149 527
31.3816 511
31.40171 513
31.42183 497
31.44194 499
31.46206 439
31.48217 437
31.50228 438
31.5224 463
31.54251 444
31.56262 411
31.58274 409
31.60285 416
31.62297 453
31.64308 431
31.66319 426
31.68331 443
31.70342 401
31.72353 371
31.74365 377
31.76376 422
31.78387 400
31.80399 380
31.8241 428
31.84422 391
31.86433 406
31.88444 398
31.90456 396
31.92467 430
31.94478 398
31.9649 444
31.98501 414
32.00513 456
32.02524 446
32.04535 421
32.06547 484
32.08558 472
32.10569 489
32.12581 443
32.14592 479
32.16604 426
32.18615 379
32.20626 407
32.22638 435
32.24649 381
32.2666 424
32.28672 394
32.30683 437
32.32694 410
32.34706 381
32.36717 437
32.38729 384
32.4074 418
32.42751 438
32.44763 397
32.46774 418
32.48785 414
32.50797 470
32.52808 435
32.5482 449
32.56831 409
32.58842 407
32.60854 413
32.62865 414
32.64876 441
32.66888 449
32.68899 414
32.7091 431
32.72922 416
32.74933 370
32.76945 413
32.78956 398
32.80967 396
32.82979 416
32.8499 399
32.87001 421
32.89013 449
32.91024 451
32.93036 441
32.95047 449
32.97058 433
32.9907 475
33.01081 398
33.03092 470
33.05104 461
33.07115 414
33.09127 441
33.11138 462
33.13149 462
33.15161 411
33.17172 419
33.19183 451
33.21195 429
33.23206 466
33.25217 427
33.27229 445
33.2924 412
33.31252 363
33.33263 437
33.35274 381
33.37286 392
33.39297 397
33.41308 394
33.4332 385
33.45331 394
33.47343 374
33.49354 407
33.51365 412
33.53377 380
33.55388 419
33.57399 380
33.59411 455
33.61422 428
33.63434 415
33.65445 446
33.67456 472
33.69468 477
33.71479 481
33.7349 507
33.75502 507
33.77513 538
33.79524 553
33.81536 547
33.83547 608
33.85559 562
33.8757 566
33.89581 572
33.91593 585
33.93604 650
33.95615 644
33.97627 645
33.99638 679
34.0165 741
34.03661 711
34.05672 742
34.07684 806
34.09695 865
34.11706 860
34.13718 1021
34.15729 1022
34.17741 1049
34.19752 973
34.21763 1102
34.23775 1030
34.25786 940
34.27797 974
34.29809 924
34.3182 831
34.33831 779
34.35843 787
34.37854 708
34.39866 642
34.41877 675
34.43888 589
34.459 580
34.47911 599
34.49922 601
34.51934 568
34.53945 576
34.55957 620
34.57968 651
34.59979 573
34.61991 607
34.64002 549
34.66013 588
34.68025 577
34.70036 622
34.72047 567
34.74059 593
34.7607 572
34.78082 555
34.80093 554
34.82104 581
34.84116 540
34.86127 569
34.88138 559
34.9015 637
34.92161 616
34.94173 612
34.96184 678
34.98195 647
35.00207 726
35.02218 688
35.04229 713
35.06241 668
35.08252 671
35.10264 661
35.12275 600
35.14286 661
35.16298 594
35.18309 607
35.2032 543
35.22332 611
35.24343 571
35.26354 576
35.28366 604
35.30377 596
35.32389 612
35.344 603
35.36411 576
35.38423 547
35.40434 535
35.42445 568
35.44457 543
35.46468 552
35.4848 545
35.50491 587
35.52502 562
35.54514 556
35.56525 550
35.58536 546
35.60548 518
35.62559 541
35.64571 535
35.66582 560
35.68593 549
35.70605 554
35.72616 548
35.74627 540
35.76639 505
35.7865 552
35.80661 484
35.82673 531
35.84684 529
35.86696 512
35.88707 468
35.90718 473
35.9273 458
35.94741 516
35.96752 527
35.98764 544
36.00775 476
36.02787 482
36.04798 471
36.06809 483
36.08821 513
36.10832 511
36.12843 458
36.14855 504
36.16866 518
36.18878 507
36.20889 508
36.229 475
36.24912 508
36.26923 469
36.28934 463
36.30946 547
36.32957 576
36.34968 592
36.3698 591
36.38991 623
36.41003 714
36.43014 736
36.45025 867
36.47037 981
36.49048 1026
36.51059 1041
36.53071 1040
36.55082 947
36.57094 873
36.59105 875
36.61116 805
36.63128 739
36.65139 642
36.6715 659
36.69162 631
36.71173 643
36.73184 697
36.75196 690
36.77207 656
36.79219 674
36.8123 691
36.83241 702
36.85253 665
36.87264 686
36.89275 694
36.91287 635
36.93298 697
36.9531 688
36.97321 684
36.99332 688
37.01344 660
37.03355 664
37.05366 611
37.07378 643
37.09389 558
37.11401 566
37.13412 559
37.15423 523
37.17435 537
37.19446 477
37.21457 539
37.23469 493
37.2548 496
37.27491 439
37.29503 449
37.31514 445
37.33526 476
37.35537 482
37.37548 462
37.3956 461
37.41571 461
37.43582 448
37.45594 417
37.47605 435
37.49617 434
37.51628 458
37.53639 469
37.55651 474
37.57662 495
37.59673 464
37.61685 464
37.63696 455
37.65708 410
37.67719 447
37.6973 451
37.71742 481
37.73753 447
37.75764 467
37.77776 435
37.79787 468
37.81798 468
37.8381 440
37.85821 411
37.87833 452
37.89844 411
37.91855 399
37.93867 421
37.95878 423
37.97889 413
37.99901 442
38.01912 435
38.03924 436
38.05935 399
38.07946 421
38.09958 443
38.11969 425
38.1398 431
38.15992 439
38.18003 400
38.20015 418
38.22026 406
38.24037 406
38.26049 433
38.2806 418
38.30071 434
38.32083 435
38.34094 424
38.36105 394
38.38117 393
38.40128 409
38.4214 400
38.44151 395
38.46162 370
38.48174 408
38.50185 385
38.52196 396
38.54208 391
38.56219 400
38.58231 405
38.60242 398
38.62253 410
38.64265 367
38.66276 359
38.68287 397
38.70299 393
38.7231 383
38.74321 395
38.76333 364
38.78344 393
38.80356 393
38.82367 393
38.84378 384
38.8639 409
38.88401 406
38.90412 420
38.92424 407
38.94435 432
38.96447 419
38.98458 408
39.00469 402
39.02481 440
39.04492 459
39.06503 425
39.08515 477
39.10526 495
39.12538 482
39.14549 505
39.1656 464
39.18572 489
39.20583 500
39.22594 502
39.24606 479
39.26617 537
39.28628 543
39.3064 591
39.32651 682
39.34663 728
39.36674 772
39.38685 827
39.40697 866
39.42708 980
39.44719 942
39.46731 884
39.48742 752
39.50754 721
39.52765 728
39.54776 677
39.56788 623
39.58799 636
39.6081 529
39.62822 469
39.64833 501
39.66845 440
39.68856 445
39.70867 455
39.72879 473
39.7489 489
39.76901 488
39.78913 491
39.80924 443
39.82935 456
39.84947 473
39.86958 512
39.8897 460
39.90981 474
39.92992 400
39.95004 397
39.97015 446
39.99026 449
40.01038 474
40.03049 468
40.05061 452
40.07072 472
40.09083 494
40.11095 542
40.13106 511
40.15117 544
40.17129 543
40.1914 644
40.21152 675
40.23163 630
40.25174 649
40.27186 667
40.29197 632
40.31208 600
40.3322 578
40.35231 532
40.37242 532
40.39254 536
40.41265 474
40.43277 484
40.45288 417
40.47299 423
40.49311 374
40.51322 414
40.53333 432
40.55345 427
40.57356 393
40.59368 405
40.61379 413
40.6339 389
40.65402 403
40.67413 447
40.69424 417
40.71436 458
40.73447 411
40.75458 401
40.7747 418
40.79481 492
40.81493 425
40.83504 463
40.85515 446
40.87527 420
40.89538 462
40.91549 420
40.93561 407
40.95572 464
40.97584 446
40.99595 436
41.01606 435
41.03618 426
41.05629 464
41.0764 418
41.09652 484
41.11663 456
41.13675 451
41.15686 486
41.17697 490
41.19709 482
41.2172 499
41.23731 525
41.25743 533
41.27754 518
41.29765 513
41.31777 526
41.33788 531
41.358 567
41.37811 542
41.39822 578
41.41834 542
41.43845 538
41.45856 569
41.47868 545
41.49879 575
41.51891 534
41.53902 554
41.55913 571
41.57925 599
41.59936 522
41.61947 559
41.63959 555
41.6597 544
41.67982 515
41.69993 488
41.72004 547
41.74016 492
41.76027 460
41.78038 490
41.8005 466
41.82061 480
41.84072 487
41.86084 425
41.88095 463
41.90107 450
41.92118 456
41.94129 432
41.96141 411
41.98152 405
42.00163 448
42.02175 445
42.04186 482
42.06198 463
42.08209 433
42.1022 486
42.12232 463
42.14243 459
42.16254 447
42.18266 506
42.20277 536
42.22289 488
42.243 540
42.26311 521
42.28323 539
42.30334 540
42.32345 584
42.34357 628
42.36368 704
42.38379 745
42.40391 801
42.42402 771
42.44414 633
42.46425 640
42.48436 609
42.50448 585
42.52459 585
42.5447 573
42.56482 477
42.58493 477
42.60505 418
42.62516 412
42.64527 416
42.66539 410
42.6855 388
42.70561 384
42.72573 387
42.74584 428
42.76595 406
42.78607 413
42.80618 412
42.8263 435
42.84641 484
42.86652 402
42.88664 402
42.90675 376
42.92686 410
42.94698 414
42.96709 387
42.98721 378
43.00732 413
43.02743 374
43.04755 365
43.06766 376
43.08777 365
43.10789 383
43.128 357
43.14812 357
43.16823 370
43.18834 392
43.20846 356
43.22857 337
43.24868 342
43.2688 343
43.28891 343
43.30902 372
43.32914 359
43.34925 364
43.36937 336
43.38948 342
43.40959 390
43.42971 334
43.44982 354
43.46993 370
43.49005 349
43.51016 338
43.53028 329
43.55039 362
43.5705 369
43.59062 345
43.61073 351
43.63084 333
43.65096 354
43.67107 370
43.69119 348
43.7113 329
43.73141 363
43.75153 362
43.77164 322
43.79175 350
43.81187 387
43.83198 327
43.85209 327
43.87221 330
43.89232 362
43.91244 310
43.93255 366
43.95266 372
43.97278 358
43.99289 369
44.013 362
44.03312 383
44.05323 344
44.07335 370
44.09346 349
44.11357 352
44.13369 378
44.1538 355
44.17391 326
44.19403 301
44.21414 325
44.23426 347
44.25437 326
44.27448 354
44.2946 378
44.31471 353
44.33482 359
44.35494 353
44.37505 362
44.39516 377
44.41528 350
44.43539 368
44.45551 364
44.47562 375
44.49573 369
44.51585 373
44.53596 363
44.55607 342
44.57619 382
44.5963 360
44.61642 372
44.63653 353
44.65664 395
44.67676 401
44.69687 386
44.71698 399
44.7371 388
44.75721 407
44.77732 456
44.79744 422
44.81755 432
44.83767 440
44.85778 423
44.87789 444
44.89801 424
44.91812 425
44.93823 428
44.95835 452
44.97846 480
44.99858 483
45.01869 479
45.0388 481
45.05892 430
45.07903 464
45.09914 452
45.11926 486
45.13937 458
45.15949 496
45.1796 476
45.19971 463
45.21983 454
45.23994 481
45.26005 487
45.28017 520
45.30028 459
45.32039 478
45.34051 482
45.36062 507
45.38074 516
45.40085 526
45.42096 582
45.44108 532
45.46119 535
45.4813 522
45.50142 521
45.52153 545
45.54165 496
45.56176 510
45.58187 508
45.60199 511
45.6221 528
45.64221 554
45.66233 555
45.68244 568
45.70256 613
45.72267 638
45.74278 644
45.7629 588
45.78301 627
45.80312 552
45.82324 496
45.84335 513
45.86346 497
45.88358 492
45.90369 464
45.92381 467
45.94392 434
45.96403 424
45.98415 408
46.00426 408
46.02437 445
46.04449 444
46.0646 406
46.08472 413
46.10483 404
46.12494 397
46.14506 393
46.16517 400
46.18528 380
46.2054 424
46.22551 409
46.24563 390
46.26574 381
46.28585 371
46.30597 366
46.32608 396
46.34619 359
46.36631 377
46.38642 351
46.40653 382
46.42665 356
46.44676 364
46.46688 352
46.48699 366
46.5071 415
46.52722 356
46.54733 366
46.56744 357
46.58756 380
46.60767 372
46.62779 394
46.6479 381
46.66801 379
46.68813 368
46.70824 366
46.72835 373
46.74847 396
46.76858 377
46.78869 385
46.80881 412
46.82892 378
46.84904 389
46.86915 396
46.88926 401
46.90938 370
46.92949 364
46.9496 394
46.96972 416
46.98983 382
47.00995 371
47.03006 399
47.05017 368
47.07029 367
47.0904 374
47.11051 362
47.13063 356
47.15074 356
47.17086 359
47.19097 359
47.21108 369
47.2312 341
47.25131 366
47.27142 368
47.29154 369
47.31165 382
47.33176 343
47.35188 359
47.37199 383
47.39211 370
47.41222 381
47.43233 380
47.45245 404
47.47256 359
47.49267 357
47.51279 408
47.5329 372
47.55302 375
47.57313 383
47.59324 337
47.61336 380
47.63347 329
47.65358 369
47.6737 356
47.69381 347
47.71393 376
47.73404 386
47.75415 348
47.77427 384
47.79438 391
47.81449 324
47.83461 340
47.85472 355
47.87483 357
47.89495 340
47.91506 353
47.93518 351
47.95529 344
47.9754 363
47.99552 371
48.01563 350
48.03574 333
48.05586 364
48.07597 326
48.09609 332
48.1162 368
48.13631 319
48.15643 372
48.17654 342
48.19665 351
48.21677 346
48.23688 378
48.257 366
48.27711 344
48.29722 376
48.31734 384
48.33745 419
48.35756 355
48.37768 330
48.39779 386
48.4179 369
48.43802 359
48.45813 379
48.47825 353
48.49836 361
48.51847 330
48.53859 398
48.5587 328
48.57881 339
48.59893 400
48.61904 345
48.63916 362
48.65927 374
48.67938 329
48.6995 352
48.71961 355
48.73972 368
48.75984 330
48.77995 357
48.80006 351
48.82018 336
48.84029 358
48.86041 358
48.88052 326
48.90063 371
48.92075 335
48.94086 346
48.96097 357
48.98109 375
49.0012 364
49.02132 385
49.04143 345
49.06154 356
49.08166 344
49.10177 370
49.12188 346
49.142 362
49.16211 419
49.18223 447
49.20234 387
49.22245 351
49.24257 381
49.26268 359
49.28279 398
49.30291 354
49.32302 390
49.34313 361
49.36325 330
49.38336 353
49.40348 309
49.42359 339
49.4437 364
49.46382 362
49.48393 342
49.50404 344
49.52416 384
49.54427 393
49.56439 358
49.5845 352
49.60461 380
49.62473 344
49.64484 386
49.66495 414
49.68507 401
49.70518 406
49.7253 417
49.74541 446
49.76552 417
49.78564 412
49.80575 465
49.82586 498
49.84598 473
49.86609 499
49.8862 533
49.90632 561
49.92643 569
49.94655 593
49.96666 671
49.98677 722
50.00689 786
50.027 898
50.04711 941
50.06723 1094
50.08734 1124
50.10746 1074
50.12757 1035
50.14768 899
50.1678 785
50.18791 698
50.20802 740
50.22814 648
50.24825 653
50.26837 583
50.28848 518
50.30859 428
50.32871 376
50.34882 369
50.36893 360
50.38905 386
50.40916 369
50.42927 356
50.44939 343
50.4695 361
50.48962 336
50.50973 346
50.52984 354
50.54996 362
50.57007 340
50.59018 343
50.6103 378
50.63041 374
50.65053 382
50.67064 358
50.69075 380
50.71087 387
50.73098 318
50.75109 369
50.77121 352
50.79132 374
50.81143 357
50.83155 364
50.85166 354
50.87178 343
50.89189 353
50.912 320
50.93212 324
50.95223 353
50.97234 340
50.99246 314
51.01257 328
51.03269 352
51.0528 314
51.07291 357
51.09303 316
51.11314 326
51.13325 313
51.15337 344
51.17348 373
51.1936 377
51.21371 390
51.23382 402
51.25394 375
51.27405 386
51.29416 386
51.31428 423
51.33439 396
51.3545 413
51.37462 387
51.39473 391
51.41485 343
51.43496 366
51.45507 358
51.47519 349
51.4953 336
51.51541 331
51.53553 314
51.55564 323
51.57576 296
51.59587 323
51.61598 346
51.6361 322
51.65621 336
51.67632 336
51.69644 346
51.71655 335
51.73667 361
51.75678 329
51.77689 316
51.79701 292
51.81712 332
51.83723 344
51.85735 331
51.87746 322
51.89757 336
51.91769 354
51.9378 314
51.95792 322
51.97803 341
51.99814 320
52.01826 350
52.03837 308
52.05848 320
52.0786 315
52.09871 342
52.11883 340
52.13894 328
52.15905 328
52.17917 344
52.19928 336
52.21939 330
52.23951 321
52.25962 318
52.27974 359
52.29985 303
52.31996 346
52.34008 384
52.36019 332
52.3803 347
52.40042 367
52.42053 358
52.44064 362
52.46076 352
52.48087 348
52.50099 358
52.5211 374
52.54121 344
52.56133 376
52.58144 411
52.60155 381
52.62167 345
52.64178 351
52.6619 367
52.68201 338
52.70212 367
52.72224 339
52.74235 350
52.76246 382
52.78258 376
52.80269 428
52.8228 390
52.84292 361
52.86303 345
52.88315 378
52.90326 388
52.92337 374
52.94349 427
52.9636 374
52.98371 376
53.00383 404
53.02394 405
53.04406 399
53.06417 376
53.08428 420
53.1044 351
53.12451 373
53.14462 358
53.16474 360
53.18485 379
53.20497 356
53.22508 399
53.24519 382
53.26531 348
53.28542 387
53.30553 354
53.32565 354
53.34576 355
53.36587 359
53.38599 355
53.4061 332
53.42622 375
53.44633 339
53.46644 363
53.48656 346
53.50667 360
53.52678 346
53.5469 345
53.56701 324
53.58713 338
53.60724 352
53.62735 377
53.64747 369
53.66758 376
53.68769 361
53.70781 373
53.72792 383
53.74804 353
53.76815 350
53.78826 408
53.80838 369
53.82849 379
53.8486 344
53.86872 372
53.88883 384
53.90894 405
53.92906 378
53.94917 360
53.96929 343
53.9894 380
54.00951 346
54.02963 380
54.04974 389
54.06985 357
54.08997 371
54.11008 374
54.1302 387
54.15031 374
54.17042 418
54.19054 405
54.21065 409
54.23076 378
54.25088 398
54.27099 400
54.29111 401
54.31122 411
54.33133 433
54.35145 414
54.37156 463
54.39167 446
54.41179 441
54.4319 445
54.45201 440
54.47213 461
54.49224 452
54.51236 420
54.53247 474
54.55258 441
54.5727 479
54.59281 497
54.61292 501
54.63304 504
54.65315 533
54.67327 579
54.69338 530
54.71349 589
54.73361 647
54.75372 598
54.77383 625
54.79395 658
54.81406 697
54.83417 676
54.85429 674
54.8744 658
54.89452 621
54.91463 555
54.93474 596
54.95486 563
54.97497 561
54.99508 533
55.0152 539
55.03531 510
55.05543 526
55.07554 497
55.09565 484
55.11577 486
55.13588 478
55.15599 501
55.17611 470
55.19622 509
55.21634 479
55.23645 489
55.25656 500
55.27668 516
55.29679 523
55.3169 508
55.33702 468
55.35713 509
55.37724 448
55.39736 473
55.41747 419
55.43759 435
55.4577 449
55.47781 415
55.49793 394
55.51804 443
55.53815 439
55.55827 375
55.57838 362
55.5985 443
55.61861 350
55.63872 369
55.65884 399
55.67895 391
55.69906 383
55.71918 362
55.73929 411
55.75941 440
55.77952 401
55.79963 375
55.81975 392
55.83986 394
55.85997 399
55.88009 404
55.9002 364
55.92031 396
55.94043 379
55.96054 397
55.98066 397
56.00077 378
56.02088 386
56.041 362
56.06111 391
56.08122 362
56.10134 338
56.12145 366
56.14157 330
56.16168 332
56.18179 377
56.20191 377
56.22202 368
56.24213 346
56.26225 370
56.28236 352
56.30248 358
56.32259 316
56.3427 345
56.36282 346
56.38293 363
56.40304 342
56.42316 308
56.44327 320
56.46338 369
56.4835 364
56.50361 331
56.52373 351
56.54384 376
56.56395 356
56.58407 360
56.60418 347
56.62429 295
56.64441 354
56.66452 341
56.68464 359
56.70475 332
56.72486 334
56.74498 350
56.76509 364
56.7852 349
56.80532 342
56.82543 364
56.84554 365
56.86566 335
56.88577 333
56.90589 372
56.926 358
56.94611 350
56.96623 379
56.98634 333
57.00645 320
57.02657 349
57.04668 337
57.0668 362
57.08691 362
57.10702 365
57.12714 347
57.14725 363
57.16736 351
57.18748 367
57.20759 341
57.22771 335
57.24782 372
57.26793 352
57.28805 359
57.30816 366
57.32827 355
57.34839 348
57.3685 301
57.38861 347
57.40873 350
57.42884 363
57.44896 382
57.46907 344
57.48918 367
57.5093 343
57.52941 341
57.54952 363
57.56964 342
57.58975 347
57.60987 351
57.62998 348
57.65009 351
57.67021 384
57.69032 320
57.71043 351
57.73055 338
57.75066 368
57.77078 355
57.79089 343
57.811 354
57.83112 328
57.85123 337
57.87134 361
57.89146 324
57.91157 311
57.93168 326
57.9518 334
57.97191 348
57.99203 353
58.01214 333
58.03225 313
58.05237 321
58.07248 283
58.09259 335
58.11271 358
58.13282 336
58.15294 329
58.17305 355
58.19316 326
58.21328 343
58.23339 352
58.2535 353
58.27362 312
58.29373 337
58.31385 325
58.33396 310
58.35407 347
58.37419 326
58.3943 350
58.41441 311
58.43453 333
58.45464 337
58.47475 334
58.49487 353
58.51498 357
58.5351 312
58.55521 316
58.57532 345
58.59544 311
58.61555 326
58.63566 346
58.65578 322
58.67589 342
58.69601 327
58.71612 333
58.73623 331
58.75635 334
58.77646 310
58.79657 323
58.81669 330
58.8368 341
58.85691 357
58.87703 360
58.89714 310
58.91726 335
58.93737 318
58.95748 329
58.9776 336
58.99771 334
59.01782 323
59.03794 326
59.05805 326
59.07817 348
59.09828 349
59.11839 314
59.13851 313
59.15862 351
59.17873 338
59.19885 335
59.21896 359
59.23908 335
59.25919 374
59.2793 363
59.29942 370
59.31953 375
59.33964 330
59.35976 354
59.37987 332
59.39998 363
59.4201 369
59.44021 365
59.46033 378
59.48044 394
59.50055 379
59.52067 370
59.54078 409
59.56089 385
59.58101 399
59.60112 431
59.62124 463
59.64135 487
59.66146 424
59.68158 480
59.70169 502
59.7218 536
59.74192 565
59.76203 604
59.78215 585
59.80226 658
59.82237 726
59.84249 798
59.8626 827
59.88271 849
59.90283 931
59.92294 918
59.94305 862
59.96317 785
59.98328 754
60.0034 674
60.02351 727
60.04362 731
60.06374 725
60.08385 745
60.10396 703
60.12408 636
60.14419 661
60.16431 573
60.18442 591
60.20453 598
60.22465 573
60.24476 562
60.26487 553
60.28499 546
60.3051 559
60.32522 599
60.34533 594
60.36544 556
60.38556 514
60.40567 530
60.42578 524
60.4459 521
60.46601 489
60.48612 459
60.50624 470
60.52635 438
60.54647 422
60.56658 468
60.58669 439
60.60681 458
60.62692 409
60.64703 386
60.66715 404
60.68726 398
60.70738 383
60.72749 419
60.7476 404
60.76772 358
60.78783 418
60.80794 385
60.82806 411
60.84817 400
60.86828 406
60.8884 396
60.90851 359
60.92863 376
60.94874 424
60.96885 374
60.98897 407
61.00908 421
61.02919 407
61.04931 382
61.06942 355
61.08954 345
61.10965 362
61.12976 380
61.14988 377
61.16999 341
61.1901 363
61.21022 388
61.23033 369
61.25045 315
61.27056 376
61.29067 358
61.31079 369
61.3309 357
61.35101 373
61.37113 380
61.39124 368
61.41135 359
61.43147 361
61.45158 350
61.4717 381
61.49181 353
61.51192 382
61.53204 367
61.55215 384
61.57226 369
61.59238 368
61.61249 355
61.63261 393
61.65272 411
61.67283 399
61.69295 379
61.71306 426
61.73317 417
61.75329 402
61.7734 369
61.79352 388
61.81363 385
61.83374 381
61.85386 433
61.87397 412
61.89408 419
61.9142 403
61.93431 395
61.95442 379
61.97454 366
61.99465 384
62.01477 370
62.03488 350
62.05499 350
62.07511 350
62.09522 392
62.11533 356
62.13545 330
62.15556 414
62.17568 369
62.19579 338
62.2159 347
62.23602 362
62.25613 356
62.27624 356
62.29636 319
62.31647 380
62.33659 347
62.3567 337
62.37681 347
62.39693 316
62.41704 330
62.43715 330
62.45727 332
62.47738 326
62.49749 334
62.51761 331
62.53772 354
62.55784 327
62.57795 369
62.59806 315
62.61818 341
62.63829 345
62.6584 312
62.67852 330
62.69863 362
62.71875 379
62.73886 370
62.75897 333
62.77909 350
62.7992 339
62.81931 334
62.83943 375
62.85954 337
62.87965 343
62.89977 340
62.91988 325
62.94 345
62.96011 358
62.98022 345
63.00034 359
63.02045 338
63.04056 353
63.06068 341
63.08079 317
63.10091 322
63.12102 323
63.14113 317
63.16125 365
63.18136 323
63.20147 348
63.22159 323
63.2417 355
63.26182 327
63.28193 304
63.30204 352
63.32216 328
63.34227 350
63.36238 338
63.3825 338
63.40261 342
63.42272 340
63.44284 316
63.46295 344
63.48307 325
63.50318 314
63.52329 298
63.54341 311
63.56352 331
63.58363 356
63.60375 322
63.62386 364
63.64398 348
63.66409 326
63.6842 357
63.70432 334
63.72443 347
63.74454 341
63.76466 367
63.78477 329
63.80489 363
63.825 340
63.84511 359
63.86523 367
63.88534 389
63.90545 369
63.92557 365
63.94568 404
63.96579 407
63.98591 385
64.00602 369
64.02614 387
64.04625 416
64.06636 377
64.08648 392
64.10659 346
64.1267 331
64.14682 355
64.16693 304
64.18705 348
64.20716 343
64.22727 318
64.24739 343
64.2675 322
64.28761 302
64.30773 311
64.32784 296
64.34796 298
64.36807 325
64.38818 310
64.4083 294
64.42841 322
64.44852 310
64.46864 314
64.48875 299
64.50886 310
64.52898 323
64.54909 283
64.56921 318
64.58932 324
64.60943 295
64.62955 327
64.64966 312
64.66977 300
64.68989 332
64.71 298
64.73012 301
64.75023 309
64.77034 280
64.79046 316
64.81057 276
64.83068 301
64.8508 303
64.87091 307
64.89102 320
64.91114 299
64.93125 323
64.95137 287
64.97148 340
64.99159 285
65.01171 322
65.03182 285
65.05193 326
65.07205 321
65.09216 276
65.11228 306
65.13239 288
65.1525 317
65.17262 315
65.19273 269
65.21284 326
65.23296 323
65.25307 301
65.27319 275
65.2933 331
65.31341 315
65.33353 300
65.35364 337
65.37375 299
65.39387 290
65.41398 300
65.43409 318
65.45421 300
65.47432 308
65.49444 315
65.51455 302
65.53466 317
65.55478 314
65.57489 332
65.595 316
65.61512 323
65.63523 308
65.65535 306
65.67546 312
65.69557 305
65.71569 312
65.7358 289
65.75591 324
65.77603 311
65.79614 298
65.81626 331
65.83637 319
65.85648 289
65.8766 332
65.89671 288
65.91682 324
65.93694 319
65.95705 309
65.97716 280
65.99728 322
66.01739 275
66.03751 312
66.05762 285
66.07773 302
66.09785 274
66.11796 306
66.13807 325
66.15819 301
66.1783 310
66.19842 309
66.21853 278
66.23864 309
66.25876 269
66.27887 321
66.29898 317
66.3191 300
66.33921 328
66.35933 307
66.37944 276
66.39955 325
66.41967 290
66.43978 299
66.45989 311
66.48001 310
66.50012 273
66.52023 268
66.54035 296
66.56046 303
66.58058 337
66.60069 313
66.6208 315
66.64092 288
66.66103 269
66.68114 277
66.70126 330
66.72137 279
66.74149 312
66.7616 290
66.78171 335
66.80183 323
66.82194 316
66.84205 282
66.86217 316
66.88228 331
66.90239 335
66.92251 324
66.94262 309
66.96274 316
66.98285 339
67.00296 301
67.02308 326
67.04319 328
67.0633 317
67.08342 326
67.10353 341
67.12365 347
67.14376 327
67.16387 333
67.18399 339
67.2041 339
67.22421 315
67.24433 332
67.26444 335
67.28456 347
67.30467 330
67.32478 314
67.3449 305
67.36501 334
67.38512 337
67.40524 311
67.42535 371
67.44546 336
67.46558 391
67.48569 389
67.50581 400
67.52592 366
67.54603 420
67.56615 426
67.58626 469
67.60637 477
67.62649 494
67.6466 528
67.66672 551
67.68683 566
67.70694 593
67.72706 562
67.74717 519
67.76728 510
67.7874 509
67.80751 499
67.82763 478
67.84774 487
67.86785 513
67.88797 537
67.90808 528
67.92819 530
67.94831 563
67.96842 534
67.98853 579
68.00865 611
68.02876 582
68.04888 693
68.06899 689
68.0891 665
68.10922 728
68.12933 650
68.14944 670
68.16956 619
68.18967 605
68.20979 613
68.2299 610
68.25001 625
68.27013 667
68.29024 650
68.31035 597
68.33047 538
68.35058 476
68.3707 464
68.39081 461
68.41092 432
68.43104 450
68.45115 445
68.47126 453
68.49138 395
68.51149 402
68.5316 393
68.55172 365
68.57183 340
68.59195 362
68.61206 336
68.63217 334
68.65229 345
68.6724 329
68.69251 330
68.71263 354
68.73274 345
68.75286 348
68.77297 336
68.79308 356
68.8132 347
68.83331 322
68.85342 320
68.87354 326
68.89365 328
68.91376 352
68.93388 356
68.95399 379
68.97411 318
68.99422 369
69.01433 359
69.03445 297
69.05456 349
69.07467 352
69.09479 349
69.1149 311
69.13502 346
69.15513 368
69.17524 344
69.19536 362
69.21547 322
69.23558 331
69.2557 346
69.27581 324
69.29593 348
69.31604 376
69.33615 347
69.35627 336
69.37638 346
69.39649 333
69.41661 331
69.43672 344
69.45683 353
69.47695 352
69.49706 364
69.51718 354
69.53729 314
69.5574 336
69.57752 329
69.59763 368
69.61774 322
69.63786 339
69.65797 306
69.67809 307
69.6982 346
69.71831 364
69.73843 305
69.75854 324
69.77865 296
69.79877 322
69.81888 321
69.839 332
69.85911 317
69.87922 315
69.89934 296
69.91945 326
69.93956 327
69.95968 329
69.97979 295
69.9999 312
70.02002 293
70.04013 312
70.06025 322
70.08036 318
70.10047 308
70.12059 307
70.1407 313
70.16081 306
70.18093 286
70.20104 311
70.22116 305
70.24127 330
70.26138 299
70.2815 310
70.30161 268
70.32172 279
70.34184 293
70.36195 281
70.38207 315
70.40218 293
70.42229 303
70.44241 293
70.46252 291
70.48263 314
70.50275 296
70.52286 274
70.54297 291
70.56309 286
70.5832 317
70.60332 309
70.62343 321
70.64354 309
70.66366 300
70.68377 317
70.70388 321
70.724 295
70.74411 332
70.76423 305
70.78434 311
70.80445 312
70.82457 320
70.84468 346
70.86479 331
70.88491 337
70.90502 330
70.92513 317
70.94525 315
70.96536 343
70.98548 347
71.00559 332
71.0257 348
71.04582 352
71.06593 375
71.08604 350
71.10616 375
71.12627 316
71.14639 367
71.1665 365
71.18661 353
71.20673 361
71.22684 369
71.24695 335
71.26707 356
71.28718 348
71.3073 323
71.32741 316
71.34752 320
71.36764 320
71.38775 311
71.40786 293
71.42798 318
71.44809 316
71.4682 320
71.48832 284
71.50843 324
71.52855 330
71.54866 309
71.56877 295
71.58889 325
71.609 324
71.62911 312
71.64923 305
71.66934 291
71.68946 313
71.70957 312
71.72968 287
71.7498 314
71.76991 300
71.79002 299
71.81014 324
71.83025 290
71.85037 291
71.87048 314
71.89059 314
71.91071 278
71.93082 308
71.95093 325
71.97105 359
71.99116 320
72.01127 285
72.03139 317
72.0515 312
72.07162 301
72.09173 290
72.11184 310
72.13196 306
72.15207 293
72.17218 295
72.1923 300
72.21241 306
72.23253 337
72.25264 303
72.27275 324
72.29287 284
72.31298 272
72.33309 301
72.35321 303
72.37332 325
72.39344 316
72.41355 302
72.43366 280
72.45378 309
72.47389 314
72.494 288
72.51412 277
72.53423 325
72.55434 310
72.57446 332
72.59457 275
72.61469 292
72.6348 286
72.65491 326
72.67503 289
72.69514 313
72.71525 315
72.73537 312
72.75548 306
72.7756 289
72.79571 298
72.81582 321
72.83594 322
72.85605 292
72.87616 292
72.89628 305
72.91639 300
72.9365 321
72.95662 299
72.97673 315
72.99685 301
73.01696 322
73.03707 317
73.05719 330
73.0773 313
73.09741 333
73.11753 303
73.13764 328
73.15776 341
73.17787 316
73.19798 308
73.2181 350
73.23821 349
73.25832 367
73.27844 361
73.29855 359
73.31867 359
73.33878 318
73.35889 349
73.37901 341
73.39912 355
73.41923 372
73.43935 364
73.45946 386
73.47957 337
73.49969 331
73.5198 307
73.53992 338
73.56003 349
73.58014 311
73.60026 349
73.62037 331
73.64048 324
73.6606 326
73.68071 291
73.70083 298
73.72094 295
73.74105 298
73.76117 281
73.78128 304
73.80139 275
73.82151 286
73.84162 286
73.86174 327
73.88185 299
73.90196 281
73.92208 269
73.94219 284
73.9623 277
73.98242 298
74.00253 284
74.02264 287
74.04276 291
74.06287 253
74.08299 275
74.1031 275
74.12321 263
74.14333 278
74.16344 273
74.18355 276
74.20367 271
74.22378 317
74.2439 328
74.26401 296
74.28412 282
74.30424 273
74.32435 297
74.34446 315
74.36458 269
74.38469 249
74.40481 295
74.42492 308
74.44503 301
74.46515 303
74.48526 320
74.50537 320
74.52549 294
74.5456 312
74.56571 281
74.58583 293
74.60594 292
74.62606 298
74.64617 290
74.66628 328
74.6864 284
74.70651 273
74.72662 306
74.74674 301
74.76685 299
74.78697 300
74.80708 260
74.82719 294
74.84731 301
74.86742 299
74.88753 245
74.90765 296
74.92776 297
74.94787 267
74.96799 285
74.9881 285
75.00822 293
