3.00117 22634.4518028478
3.02128 22259.5167845355
3.0414 21643
3.06151 21066.6573560504
3.08162 20234.1267511765
3.10174 19611.6727834809
3.12185 19558.2273498801
3.14197 18654.0941569193
3.16208 18368.1424208082
3.18219 17911.4579848016
3.20231 16938.771268348
3.22242 16977.9625347751
3.24253 16535.1036339565
3.26265 15996.7557722367
3.28276 15489.0643853224
3.30288 14982.3988449836
3.32299 14610.2469055739
3.3431 13974
3.36322 13499.7187165195
3.38333 13259.4430407787
3.40344 12675.6162993332
3.42356 12153.3192146444
3.44367 12112.523645125
3.46379 11510.1802301178
3.4839 11360
3.50401 10580.7020222686
3.52413 10374.8481784112
3.54424 10082.0261753856
3.56435 9642.33732010614
3.58447 9613.55771567997
3.60458 8918.53629609682
3.62469 8708.09284123213
3.64481 8322.75141117003
3.66492 7971.97795887532
3.68504 8000.24888055624
3.70515 7375.35318891159
3.72526 7523.02806548537
3.74538 7076.57843656576
3.76549 6725.02684745043
3.7856 6662
3.80572 5993.64621038584
3.82583 6035.98889971462
3.84595 5782.38014518422
3.86606 5684.09899362932
3.88617 5482.67472164192
3.90629 4974.13436661186
3.9264 4967
3.94651 4766.85147873884
3.96663 4511.76489832641
3.98674 4330.24528628099
4.00686 3863.53213463724
4.02697 3881.84063872949
4.04708 3824.27534617802
4.0672 3519
4.08731 3568.93146956409
4.10742 3215.73031842314
4.12754 3172.06361828069
4.14765 3122.34257236394
4.16776 2952.27907231617
4.18788 2843.13806701742
4.20799 2680.06000635927
4.22811 2638.00303011974
4.24822 2605.87470923609
4.26833 2456.93184246866
4.28845 2465.72405178337
4.30856 2219.44262153744
4.32867 2145.9360076149
4.34879 2198.0064032098
4.3689 2108
4.38902 2016.89139504792
4.40913 1924.98934170506
4.42924 1953.89886864124
4.44936 1833.1283635575
4.46947 1874.89139579438
4.48958 1871.11195135854
4.5097 1692
4.52981 1628.03388360507
4.54992 1726.000755756
4.57004 1630.87534510144
4.59015 1617.18982676393
4.61027 1508.99568667764
4.63038 1588.02293813917
4.65049 1446.04927544071
4.67061 1464.02341771104
4.69072 1452.931830853
4.71083 1367.90867260447
4.73095 1350.01143644124
4.75106 1360.95679395067
4.77118 1353.08211592286
4.79129 1250.01206372954
4.8114 1289
4.83152 1211.96135790249
4.85163 1210.90204065449
4.87174 1130.10961470607
4.89186 1271.94541940783
4.91197 1126.26501008123
4.93209 1057.97974357275
4.9522 1132
4.97231 1091.96615669695
4.99243 1034.92360810587
5.01254 993.957861638861
5.03265 1001.90850838803
5.05277 1049.93747905407
5.07288 1035.10462059527
5.09299 907.024814068162
5.11311 949.023071709946
5.13322 939.963308687128
5.15334 904.938497268986
5.17345 880.959117659876
5.19356 866.039914171511
5.21368 838.031899992895
5.23379 812.006811031229
5.2539 816
5.27402 833.996524718195
5.29413 805.944831978886
5.31425 769.898798255405
5.33436 731.049390539117
5.35447 746.893538116036
5.37459 809.013375903349
5.3947 712
5.41481 719.015513447743
5.43493 723.969758531494
5.45504 705.015543610245
5.47516 714.081185275675
5.49527 641.054500916414
5.51538 663.96371892732
5.5355 667
5.55561 622.983101776308
5.57572 615.011245161269
5.59584 631.025481089165
5.61595 636.991621854421
5.63606 649.93919680019
5.65618 664.04446726406
5.67629 596.006721477026
5.69641 626.993782163628
5.71652 558.952507384417
5.73663 565.026401741416
5.75675 564.987329301165
5.77686 568.970957389052
5.79697 571.052636230778
5.81709 520.010060120611
5.8372 535
5.85732 534.029749843612
5.87743 576.997681150176
5.89754 534.958092147445
5.91766 548.002364908655
5.93777 500.117924298624
5.95788 452.9678456397
5.978 525
5.99811 487.987827564843
6.01823 514.060805414655
6.03834 528.968866566195
6.05845 501.042205854662
6.07857 516.928891618718
6.09868 537.065400118399
6.11879 446.997171061813
6.13891 534.016717985575
6.15902 476.949774369167
6.17913 471.973906701451
6.19925 447.075579439839
6.21936 510.974630010493
6.23948 469.015660255455
6.25959 500.99000798576
6.2797 483
6.29982 474.992222594479
6.31993 469.017642835597
6.34004 493.029173052631
6.36016 497.9674400435
6.38027 503.07490898587
6.40039 438.996097545106
6.4205 503
6.44061 454.982851977724
6.46073 470.030374152195
6.48084 464.965935888334
6.50095 450.029163515399
6.52107 450.966907473935
6.54118 480.984195194524
6.56129 464.023181583784
6.58141 427.004291061006
6.60152 465.015120157701
6.62164 435.915160848153
6.64175 411.991159976048
6.66186 423.958592168886
6.68198 439.995808170216
6.70209 428.012727710079
6.7222 410
6.74232 419.969025357471
6.76243 374.012252464222
6.78255 436.116254407009
6.80266 437.012849000655
6.82277 431.053929554751
6.84289 386.999382932231
6.863 441
6.88311 455.980802913535
6.90323 393.928707038875
6.92334 387.045706749894
6.94346 423.909505894356
6.96357 452.01536468039
6.98368 407.054690190111
7.0038 382
7.02391 418.0035806588
7.04402 399.001944623893
7.06414 428.030071241511
7.08425 410.07276445685
7.10436 395.988154599814
7.12448 405.009692164756
7.14459 383.002935257517
7.16471 400.00909546428
7.18482 411.016645229965
7.20493 436.034104298853
7.22505 438.939626664086
7.24516 399.072457483401
7.26527 390.960759282897
7.28539 421.001495414563
7.3055 382
7.32562 372.020725508023
7.34573 393.990908473348
7.36584 371.000699179592
7.38596 411.884194660621
7.40607 444.021620889752
7.42618 400.035703985946
7.4463 393
7.46641 391.996068100192
7.48653 389.021952484221
7.50664 423.084064313679
7.52675 429.157898284853
7.54687 358.970455366734
7.56698 441.97749105967
7.58709 384.017358141672
7.60721 404.001405208982
7.62732 367.975535249795
7.64743 374.008474537097
7.66755 371.026966170372
7.68766 386.025890832367
7.70778 356.003804077965
7.72789 382.990463186419
7.748 380
7.76812 401.037994299857
7.78823 426.983657131216
7.80834 388.938990610546
7.82846 386.972864376139
7.84857 396.999636929675
7.86869 399.987830198448
7.8888 417
7.90891 358.001078854775
7.92903 417.044153993128
7.94914 395.98614469079
7.96925 425.937816050245
7.98937 418.040417652312
8.00948 393.015470467243
8.0296 407
8.04971 449.980899872298
8.06982 363.96836885987
8.08994 402.043565348953
8.11005 378.971985686014
8.13016 394.001624612712
8.15028 378.985499703259
8.17039 410.004777728898
8.1905 370
8.21062 399.991738393103
8.23073 353.98204802351
8.25085 390.066591055824
8.27096 385.004422736371
8.29107 396.9955720255
8.31119 380.012203242466
8.3313 368
8.35141 386.004860562731
8.37153 382.996573340891
8.39164 393.040800569753
8.41176 409.997738130803
8.43187 404.983965465133
8.45198 424.002216745265
8.4721 400
8.49221 397.995526616519
8.51232 380.995649927401
8.53244 402.076847867238
8.55255 416.111957565128
8.57266 349.034934852963
8.59278 385.975548859043
8.61289 369.010289121372
8.63301 369.003561638565
8.65312 367.989058926992
8.67323 362.023629277139
8.69335 377.944521505662
8.71346 335.014898166799
8.73357 379.912741725597
8.75369 404.009636525455
8.7738 370
8.79392 386.008684058478
8.81403 379.004211486507
8.83414 391.996170888105
8.85426 373.025804198713
8.87437 382.959863935925
8.89448 397.022547700323
8.9146 358
8.93471 388.019805699368
8.95483 404.989113685894
8.97494 386.97261702348
8.99505 384.001463173507
9.01517 382.993718033907
9.03528 390.995310398458
9.05539 384.009964627199
9.07551 369.00470809142
9.09562 385.988264251112
9.11573 361.020316712253
9.13585 398.991426816149
9.15596 352.053115238221
9.17608 372.967744835398
9.19619 381.007975855687
9.2163 361
9.23642 381.032756367303
9.25653 394.961873353157
9.27664 353.976216700071
9.29676 372.985465563387
9.31687 358.007911488498
9.33699 372.993149576607
9.3571 374
9.37721 372.996721801802
9.39733 365.00172532982
9.41744 379.039950714387
9.43755 385.053278469566
9.45767 357.000573651415
9.47778 382.983351395645
9.4979 378
9.51801 379.99409112877
9.53812 355.985002806409
9.55824 369.078242158428
9.57835 399.974741933443
9.59846 367.009324554401
9.61858 393.989023693444
9.63869 363.025544313323
9.6588 329
9.67892 354.026565412404
9.69903 372.033940535045
9.71915 387.960912954857
9.73926 344.086656059455
9.75937 333.957827693908
9.77949 371.992916977272
9.7996 356
9.81971 353.002689356007
9.83983 346.955939327508
9.85994 321.03308942994
9.88006 361.984535766195
9.90017 337.995547592303
9.92028 369.995971225605
9.9404 346
9.96051 381.004412909596
9.98062 348.968524301748
10.00074 345.019475952419
10.02085 354.974185999527
10.04097 363.991700730728
10.06108 364.005554699022
10.08119 362.993140522002
10.10131 378.997694778463
10.12142 364.007664648465
10.14153 385.992417327688
10.16165 352.948748807486
10.18176 351.034271705927
10.20187 338.928917754415
10.22199 417.986465582154
10.2421 372
10.26222 357.019168353261
10.28233 377.997493887409
10.30244 359.992610886276
10.32256 371.008912353655
10.34267 356.981202480843
10.36278 383.010047570254
10.3829 337
10.40301 338.001488775762
10.42313 331.002940564463
10.44324 347.032341872341
10.46335 350.024848736797
10.48347 350.946851598657
10.50358 392.006631882342
10.52369 354.998353433273
10.54381 384.986186834824
10.56392 317.99659276968
10.58403 383.053526953803
10.60415 351.904257219742
10.62426 345.985549602206
10.64438 353.984413140936
10.66449 367.003456648748
10.6846 356
10.70472 395.018069000006
10.72483 376.958137647852
10.74494 365.008154557966
10.76506 383.935477401068
10.78517 405.020876315664
10.80529 370.009042409364
10.8254 386
10.84551 418.021637001007
10.86563 442.951146804044
10.88574 378.940431624561
10.90585 404.904710878138
10.92597 410.045180785894
10.94608 376.003964789817
10.9662 396
10.98631 389.013390168376
11.00642 426.981457463651
11.02654 363.945075341569
11.04665 380.029202993848
11.06676 341.9824853905
11.08688 394.979170032779
11.10699 367.008646949841
11.1271 392
11.14722 406.979180497287
11.16733 365.94925656023
11.18745 363.062523635172
11.20756 393.965690823716
11.22767 393.006586457236
11.24779 399.99084410995
11.2679 408
11.28801 374.000293865138
11.30813 408.032759327512
11.32824 396.960880430107
11.34836 405.899698553968
11.36847 461.980709356762
11.38858 423.050435990017
11.4087 404
11.42881 429.002601077507
11.44892 422.01711330445
11.46904 452.996089337526
11.48915 413.089636281565
11.50927 411.965238291833
11.52938 444.961516566069
11.54949 459.018399196268
11.56961 404.994755014994
11.58972 437.013251418769
11.60983 413.976240463131
11.62995 437.125918880841
11.65006 473.019475755417
11.67017 441.995334048018
11.69029 486.980633728785
11.7104 480
11.73052 433.981677305658
11.75063 464.10565279192
11.77074 535.076393588521
11.79086 529.058487171925
11.81097 513.976019793071
11.83108 538.008046095692
11.8512 514
11.87131 565.011510570314
11.89143 536.940031841743
11.91154 528.053279860367
11.93165 571.906306101473
11.95177 588.992323182187
11.97188 606.953424734118
11.99199 660.988316329493
12.01211 648.99271706985
12.03222 644.987200339849
12.05234 638.065956312435
12.07245 683.993983119701
12.09256 645.999046835618
12.11268 714.906983565078
12.13279 769.002741961666
12.1529 721
12.17302 704.023511845856
12.19313 752.077454856923
12.21324 788.041210523658
12.23336 810.916832633755
12.25347 858.963093376695
12.27359 881.963933874094
12.2937 962
12.31381 894.994938643547
12.33393 948.006900827882
12.35404 877.880601290863
12.37415 871.981174841445
12.39427 845.102669465889
12.41438 768.04390657
12.4345 760
12.45461 723.976002806272
12.47472 679.963062839137
12.49484 631.842105052013
12.51495 555.049217447626
12.53506 574.029481422769
12.55518 519.028336708685
12.57529 531.000198250006
12.5954 497
12.61552 467.955178598036
12.63563 428.013516924353
12.65575 469.030131907997
12.67586 440.042774040738
12.69597 435.041793003801
12.71609 395.000638325524
12.7362 425
12.75631 392.991579903872
12.77643 411.033940914647
12.79654 405.929908210368
12.81666 374.979472485349
12.83677 422.932553640219
12.85688 424.043704133485
12.877 371
12.89711 384.012421658568
12.91722 386.973448647477
12.93734 348.953620045144
12.95745 356.925766317455
12.97757 378.013559978431
12.99768 349.017182390291
13.01779 367.976093691564
13.03791 397.986032893985
13.05802 329.950361853494
13.07813 334.053563672538
13.09825 360.998395152064
13.11836 339.036321959364
13.13847 339.983912383459
13.15859 338.013881934615
13.1787 313
13.19882 365.02906283654
13.21893 344.938747005294
13.23904 317.988001908896
13.25916 326.977837515338
13.27927 331.994878791718
13.29938 325.030667680999
13.3195 296
13.33961 329.998917527301
13.35973 291.977073851389
13.37984 319.061662251246
13.39995 322.046192881188
13.42007 304.002675604711
13.44018 311.007338657643
13.46029 294.997825193743
13.48041 313.999403832052
13.50052 288.982414086545
13.52064 297.041830388832
13.54075 312.006440005136
13.56086 290.103621798919
13.58098 254.965218406319
13.60109 336.973690492555
13.6212 325
13.64132 302.990814772683
13.66143 290.957194406547
13.68154 272.061608156847
13.70166 328.963330635886
13.72177 290.076232898909
13.74189 276.985144276108
13.762 315
13.78211 290.993121916418
13.80223 308.04163541216
13.82234 313.942524510442
13.84245 275.027633025129
13.86257 298.95744172572
13.88268 302.02182184681
13.9028 275
13.92291 285.010732556477
13.94302 296.992374045849
13.96314 282.000079893244
13.98325 292.018538282868
14.00336 273.988455025805
14.02348 294.009981275542
14.04359 258.006732433473
14.06371 277.00650285431
14.08382 264.982227960332
14.10393 265.033498665539
14.12405 294.037745399908
14.14416 283.057879563224
14.16427 266.969874009964
14.18439 300.000471464349
14.2045 269
14.22461 300.021027983145
14.24473 309.946464514872
14.26484 264.992092940245
14.28496 292.99860773902
14.30507 264.998408010082
14.32518 290.01414058395
14.3453 244
14.36541 290.020924152396
14.38552 285.964752169629
14.40564 252.977358939227
14.42575 260.9851335963
14.44587 259.987296960909
14.46598 281.977219865596
14.48609 290.005009417385
14.50621 268.989273883948
14.52632 263.01528749045
14.54643 279.98976574396
14.56655 256.984877963277
14.58666 271.985678131071
14.60677 265.993654591853
14.62689 281.997171574999
14.647 268
14.66712 253.994280501487
14.68723 257.016446135859
14.70734 269.013337816376
14.72746 271.985909797397
14.74757 270.047836136033
14.76768 231.001670862971
14.7878 272
14.80791 294.006231789257
14.82803 292.952707341468
14.84814 254.994203605247
14.86825 278.004135943522
14.88837 250.008002140948
14.90848 272.992113760455
14.92859 258.999622341691
14.94871 274.997495201319
14.96882 251.998308659059
14.98894 280.053697349945
15.00905 273.899222250276
15.02916 236.987635289939
15.04928 268.002024499649
15.06939 230.009409926867
15.0895 256
15.10962 275.990354465959
15.12973 261.01803032893
15.14984 293.025019504662
15.16996 276.034349284422
15.19007 272.009631373582
15.21019 260.002430998441
15.2303 266
15.25041 267.998472846506
15.27053 261.988482577897
15.29064 259.013853494801
15.31075 272.968331073533
15.33087 278.001507175191
15.35098 271.014560457626
15.3711 257
15.39121 267.008107874148
15.41132 279.004192582454
15.43144 275.987672603716
15.45155 274.978765477755
15.47166 276.055527645991
15.49178 239.0046094531
15.51189 264.993399534521
15.53201 250.99383979732
15.55212 259.018258561859
15.57223 270.998462112613
15.59235 268.031685161407
15.61246 277.063210162091
15.63257 229.003976832714
15.65269 271.986579435367
15.6728 253
15.69291 247.015450238129
15.71303 284.002988631527
15.73314 253.963416121241
15.75326 263.977145791649
15.77337 270.965034318186
15.79348 297.006266805545
15.8136 259
15.83371 241.988777053876
15.85382 226.025148966948
15.87394 273.029005853277
15.89405 253.006548804111
15.91417 278.979378232135
15.93428 266.013447894731
15.95439 265.999390039383
15.97451 257.992340625025
15.99462 251.015309335947
16.01473 270.989411879681
16.03485 244.987130236654
16.05496 258.022012293581
16.07508 233.983603365734
16.09519 269.010959953916
16.1153 208
16.13542 265.034576403705
16.15553 250.993832036501
16.17564 270.999909503758
16.19576 249.997199016297
16.21587 282.954537651361
16.23598 278.038930887554
16.2561 239
16.27621 279.032461968451
16.29633 316.968136050659
16.31644 260.931861386027
16.33655 257.053171930487
16.35667 217.017662817638
16.37678 248.955776455778
16.39689 262.015399660183
16.41701 218.994795103684
16.43712 247.027804688714
16.45724 253.001182256996
16.47735 252.969329633675
16.49746 237.992496558569
16.51758 254.996684479237
16.53769 241.003995823464
16.5578 245
16.57792 245.024835365187
16.59803 285.032091366168
16.61814 279.987705550963
16.63826 277.041142064258
16.65837 247.014914706334
16.67849 254.004253150292
16.6986 235
16.71871 270.011794890435
16.73883 262.97144843809
16.75894 249.985742105684
16.77905 247.00036116233
16.79917 256.957085869936
16.81928 283.006934571547
16.8394 248
16.85951 245.001833568775
16.87962 242.997916276069
16.89974 251.045265161534
16.91985 278.953194119186
16.93996 278.034321007869
16.96008 256.018589547779
16.98019 248.997537129201
17.00031 257.000914276729
17.02042 255.005653011454
17.04053 269.017143180975
17.06065 268.975858135622
17.08076 254.034830159021
17.10087 239.015066094188
17.12099 240.990634508642
17.1411 261
17.16121 245.996623505796
17.18133 257.02157150795
17.20144 267.023766718164
17.22156 268.057975213801
17.24167 235.982684718058
17.26178 278.984703050364
17.2819 248
17.30201 244.013565441263
17.32212 266.984881529691
17.34224 229.982873419924
17.36235 265.884815549792
17.38247 288.99975984856
17.40258 273.025623392456
17.42269 246.012989701608
17.44281 233.005075920064
17.46292 254.009283254715
17.48303 245.987139789611
17.50315 252.047828148158
17.52326 263.034382015477
17.54338 244.971347066431
17.56349 301.990614773736
17.5836 269
17.60372 268.007693394592
17.62383 271.010712199481
17.64394 277.987205707177
17.66406 261.02250948143
17.68417 259.007714131562
17.70428 251.995015615625
17.7244 267
17.74451 263.997394126738
17.76463 268.022288681168
17.78474 285.017005568758
17.80485 271.099182643366
17.82497 237.984868667848
17.84508 276.98309426336
17.86519 264.998486132755
17.88531 296.013818985267
17.90542 297.984822021445
17.92554 279.970558778786
17.94565 268.968850101079
17.96576 257.007929608891
17.98588 262.989475417474
18.00599 277.987740749136
18.0261 298
18.04622 274.983148026509
18.06633 269.982088979897
18.08645 254.004757921972
18.10656 278.937995014147
18.12667 296.001122979918
18.14679 284.006469539563
18.1669 279
18.18701 288.008895452638
18.20713 306.011476886679
18.22724 302.992561596789
18.24735 298.041325354998
18.26747 279.998013198187
18.28758 300.979975188424
18.3077 313
18.32781 321.987108569218
18.34792 279.987467280544
18.36804 300.02081125678
18.38815 282.05744270392
18.40826 276.974229148067
18.42838 301.969049978611
18.44849 309.020581713568
18.46861 246.984854859411
18.48872 268.040125358106
18.50883 289.99714106867
18.52895 259.858418639174
18.54906 217.97245603791
18.56917 280.903143272803
18.58929 296.019556506475
18.6094 248
18.62951 287.019012290434
18.64963 285.951473702102
18.66974 255.997572367186
18.68986 282.943940398311
18.70997 286.032298169574
18.73008 263.001452400936
18.7502 274
18.77031 249.99855403323
18.79042 278.032219206553
18.81054 299.040488812987
18.83065 302.103535280339
18.85077 248.009982740098
18.87088 290.965194296497
18.89099 297.991618264027
18.91111 317.989332781485
18.93122 268.981901551107
18.95133 285.99761282843
18.97145 259.993583394252
18.99156 293.928911320785
19.01168 301.017432549087
19.03179 279.005229098102
19.0519 285
19.07202 283.979463595029
19.09213 258.98952664137
19.11224 277.055543840325
19.13236 296.981794732315
19.15247 295.016061293596
19.17258 287.993097267192
19.1927 303
19.21281 302.003656038574
19.23293 308.972617834725
19.25304 279.999769127195
19.27315 298.035136686073
19.29327 271.951195700149
19.31338 337.000076496167
19.33349 278.006971021069
19.35361 332.020369475514
19.37372 324.991068553394
19.39384 340.037927063185
19.41395 340.951751905089
19.43406 325.967187894129
19.45418 356.998498019122
19.47429 336.994721773493
19.4944 380
19.51452 374.000542290319
19.53463 388.999950040343
19.55475 375.00617872696
19.57486 408.900978428066
19.59497 460.916292818432
19.61509 504.993087530091
19.6352 502
19.65531 539.021101977804
19.67543 585.101408654561
19.69554 651.043524690782
19.71565 660.821170325214
19.73577 767.939064763153
19.75588 751.961889058172
19.776 857
19.79611 863.002153790843
19.81622 915.083847591217
19.83634 1000.1385858699
19.85645 1039.9712170358
19.87656 1037.01087706933
19.89668 1041.98381107424
19.91679 1043.02071950198
19.93691 987.994274699414
19.95702 1028.04265305965
19.97713 1019.90420746751
19.99725 938.867227076314
20.01736 940.918663886535
20.03747 976.993940853182
20.05759 941.028258950725
20.0777 893
20.09782 893.027754093426
20.11793 916.983886868335
20.13804 871.904442306575
20.15816 863.912744534878
20.17827 917.983933868712
20.19838 868.074093090967
20.2185 818
20.23861 836.014774710524
20.25872 868.043811349422
20.27884 910.0321702437
20.29895 904.994607346399
20.31907 919.992519570199
20.33918 895.051824611099
20.35929 852.000283183024
20.37941 892.022496929184
20.39952 886.924881868787
20.41963 801.980012146326
20.43975 856.091112014376
20.45986 861.907869995278
20.47998 925.015233295349
20.50009 846.01625212979
20.5202 900
20.54032 910.944441316769
20.56043 839.958755868579
20.58054 869.08127057919
20.60066 887.983979352243
20.62077 920.876864494508
20.64088 1013.9605776406
20.661 1018
20.68111 1141.06963591054
20.70123 1295.32962825523
20.72134 1576.56160464401
20.74145 1886.9447715949
20.76157 2399.27245896943
20.78168 2812.60073827356
20.80179 3303.69182395087
20.82191 3863.13451055282
20.84202 3812.82593144185
20.86214 3645.55856741443
20.88225 3293.77356516208
20.90236 2706.23653543405
20.92248 2098.60121840754
20.94259 1550.21236413849
20.9627 1263
20.98282 1095.8404624289
21.00293 950.849441880066
21.02305 888.858659091266
21.04316 843.984871860956
21.06327 880.000174074733
21.08339 827.02872651845
21.1035 792
21.12361 755.988141603108
21.14373 760.048204253458
21.16384 775.909694754289
21.18395 722.904824767621
21.20407 807.021887776824
21.22418 703.038646009537
21.2443 770
21.26441 755.981886471157
21.28452 748.021101411157
21.30464 781.053064232795
21.32475 778.093943990148
21.34486 729.062688011378
21.36498 727.986566511335
21.38509 731.008245843564
21.40521 709.999440951892
21.42532 706.949330998451
21.44543 639.992043887593
21.46555 697.106358439934
21.48566 682.079064182899
21.50577 662.979002420728
21.52589 675.018797763584
21.546 614
21.56612 662.03779893134
21.58623 655.975495631033
21.60634 639.92369206234
21.62646 594.031349684476
21.64657 606.000256304513
21.66668 590.992480493081
21.6868 619
21.70691 593.98321478001
21.72702 573.991255502269
21.74714 563.957994358198
21.76725 549.947221111755
21.78737 597.943042595805
21.80748 591.050448533424
21.82759 541.003066500843
21.84771 570.006064848835
21.86782 545.972388949757
21.88793 541.01776478392
21.90805 561.062784577279
21.92816 577.009960518702
21.94828 554.026233731146
21.96839 534.009210708147
21.9885 526
22.00862 548.997811314482
22.02873 526.992893345815
22.04884 554.072610074581
22.06896 563.065997044151
22.08907 513.04017461411
22.10919 514.003189498356
22.1293 504
22.14941 547.001581202028
22.16953 511.978598549611
22.18964 532.018890992828
22.20975 522.976818879452
22.22987 543.020746540974
22.24998 507.998487449414
22.27009 534.009642039329
22.29021 472.985666740678
22.31032 499.029692510501
22.33044 506.016640668376
22.35055 509.924647572271
22.37066 474.9605331971
22.39078 524.006840194088
22.41089 467.007992943953
22.431 501
22.45112 474.028934454631
22.47123 532.967078854409
22.49135 439.891960100565
22.51146 479.926518923925
22.53157 470.021238459992
22.55169 473.999027640177
22.5718 469
22.59191 475.995244766712
22.61203 455.993765063536
22.63214 463.980907286913
22.65225 445.968728999304
22.67237 489.944467689814
22.69248 491.026152539783
22.7126 455
22.73271 430.997037150002
22.75282 452.051576747729
22.77294 483.915443387092
22.79305 417.959475356726
22.81316 501.937383364504
22.83328 448.051075282232
22.85339 454.983659488557
22.87351 464.985496670914
22.89362 422.987788221734
22.91373 446.032008171106
22.93385 451.025874243145
22.95396 460.041773932788
22.97407 437.948505100092
22.99419 504.991300900076
23.0143 453
23.03442 434.006961504508
23.05453 468.114176580487
23.07464 529.950349732169
23.09476 436.143113368892
23.11487 440.930827842286
23.13498 467.020550281124
23.1551 422
23.17521 446.019664109446
23.19532 466.997310141253
23.21544 444.936649600722
23.23555 425.982107687074
23.25567 441.013086756112
23.27578 420.987029077603
23.29589 467.981379965757
23.31601 472.99666281888
23.33612 454.950644188176
23.35623 410.024017044015
23.37635 461.008864817088
23.39646 410.060189249458
23.41658 431.96954862726
23.43669 436.00707240881
23.4568 429
23.47692 457.007879025284
23.49703 443.993834471646
23.51714 450.981488984271
23.53726 431.989189672009
23.55737 443.054112625085
23.57749 385.999003559828
23.5976 449
23.61771 436.983316057538
23.63783 418.997128244303
23.65794 425.010584817137
23.67805 427.981162857726
23.69817 439.986140983511
23.71828 442.999686999997
23.73839 443.999270051821
23.75851 456.016333693852
23.77862 492.011163465965
23.79874 473.952503349571
23.81885 465.008358020789
23.83896 475.967480651567
23.85908 475.038621220306
23.87919 446.974095507607
23.8993 539
23.91942 468.925101223209
23.93953 463.076390553387
23.95965 528.118845197336
23.97976 529.088327822237
23.99987 486.990122791061
24.01999 517.009207040752
24.0401 455
24.06021 481.012198551098
24.08033 476.994549709942
24.10044 472.932567751605
24.12056 433.979240516582
24.14067 478.984378308748
24.16078 448.009918109886
24.1809 472
24.20101 461.007967301717
24.22112 495.999774113732
24.24124 456.945668236771
24.26135 470.914618890519
24.28146 491.015900908037
24.30158 472.996101437046
24.32169 496.994920108667
24.34181 486.998655787595
24.36192 503.018583530738
24.38203 507.986475840239
24.40215 496.998821146476
24.42226 504.99607814963
24.44237 498.006613694954
24.46249 504.992185330251
24.4826 525
24.50272 543.007961472253
24.52283 545.008036433651
24.54294 557.024896955238
24.56306 571.949620131491
24.58317 594.004467215957
24.60328 573.010090254805
24.6234 591
24.64351 616.000602942807
24.66362 606.005623125815
24.68374 641.102168238789
24.70385 679.973700603142
24.72397 675.983656471013
24.74408 720.931882678445
24.76419 781.983520259118
24.78431 799.016493670957
24.80442 853.047117347833
24.82453 879.025866182368
24.84465 876.888437345867
24.86476 836.928270614084
24.88488 913.988222864797
24.90499 847.026393647176
24.9251 853
24.94522 846.983773621338
24.96533 815.905731150866
24.98544 735.872142356341
25.00556 717.947447664874
25.02567 749.003042899071
25.04579 712.017876899768
25.0659 684
25.08601 647.018795324312
25.10613 716.995660971428
25.12624 658.012396116359
25.14635 742.862293289048
25.16647 711.102826707664
25.18658 684.953853042286
25.20669 757.988050140677
25.22681 719.981454376371
25.24692 723.020169042539
25.26704 754.116004995066
25.28715 794.906855263802
25.30726 685.228076339243
25.32738 630.995099729298
25.34749 658.991751130325
25.3676 641
25.38772 588.938587347668
25.40783 541.986787649607
25.42795 562.040788880503
25.44806 555.035269971765
25.46817 544.994812358706
25.48829 552.002629181654
25.5084 528
25.52851 502.995796464357
25.54863 511.024112653163
25.56874 531.055447048798
25.58886 554.991751399981
25.60897 531.066640751519
25.62908 495.005423046914
25.6492 524
25.66931 562.012609906211
25.68942 574.003299237412
25.70954 570.976804928903
25.72965 556.026212412141
25.74976 552.006058893699
25.76988 549.995313317735
25.78999 558.997427890107
25.81011 570.017234904012
25.83022 594.964416595913
25.85033 524.959938751663
25.87045 560.09601133023
25.89056 561.039093521196
25.91067 547.994326161596
25.93079 555.006812636761
25.9509 543
25.97102 606.022414313541
25.99113 567.923127569593
26.01124 555.061057502784
26.03136 598.957343199029
26.05147 587.031089155622
26.07158 569.027932180645
26.0917 561
26.11181 667.050409981483
26.13193 702.948187893649
26.15204 661.038423213096
26.17215 731.890641998102
26.19227 743.92030343866
26.21238 827.969985470363
26.23249 801.999865653413
26.25261 843.006780729506
26.27272 845.073755199798
26.29283 971.110768739723
26.31295 991.165697061065
26.33306 1117.80262132139
26.35318 1187.87429209716
26.37329 1385.90091109576
26.3934 1583
26.41352 1931.38598812783
26.43363 2364.79035549292
26.45374 3020.51038222919
26.47386 3899.93918527454
26.49397 5157.74947607677
26.51409 6908.02890231359
26.5342 9029
26.55431 11410.1864952424
26.57443 13664.0825111346
26.59454 15216.5292381962
26.61465 15246.9646035262
26.63477 14525.9271970268
26.65488 12657.2041453638
26.67499 10319.22606023
26.69511 7874.87374974843
26.71522 5842.10765340099
26.73534 4070.94716319917
26.75545 2796.27857496157
26.77556 1868.38599226557
26.79568 1405.28759999924
26.81579 1204.06837794945
26.8359 1086
26.85602 971.915468755111
26.87613 911.905035867553
26.89625 851.949019215604
26.91636 847.097101312851
26.93647 748.143057324887
26.95659 696.010424652854
26.9767 673
26.99681 619.987466720872
27.01693 619.981008673462
27.03704 578.90616997919
27.05716 545.046200737402
27.07727 530.009681991104
27.09738 538.969088047628
27.1175 561
27.13761 500.977394631669
27.15772 491.999763789085
27.17784 491.032663797935
27.19795 513.006273367654
27.21806 477.096178587102
27.23818 452.984227210999
27.25829 482.000138957221
27.27841 455.997206997273
27.29852 477.007811194065
27.31863 459.979226833632
27.33875 475.104517545679
27.35886 511.996808817089
27.37897 489.01016234234
27.39909 511.987346533424
27.4192 514
27.43932 492.997471763818
27.45943 506.009300811332
27.47954 499.997057439937
27.49966 492.083693276508
27.51977 438.024006436159
27.53988 464.975086519693
27.56 448
27.58011 400.999552154222
27.60023 430.005466162507
27.62034 396.948087530024
27.64045 412.877082962025
27.66057 446.036832778306
27.68068 399.989358296537
27.70079 451.001699456714
27.72091 388.985170360742
27.74102 416.017801111701
27.76113 395.968751826559
27.78125 395.007376444575
27.80136 391.011697204177
27.82148 385.009380163419
27.84159 380.993237912263
27.8617 395
27.88182 374.025335563799
27.90193 426.009494113903
27.92204 372.891746859503
27.94216 367.9259185658
27.96227 397.033257978911
27.98239 354.993365484114
28.0025 410
28.02261 358.983758863235
28.04273 380.049106203745
28.06284 379.92802323996
28.08295 347.960547326127
28.10307 402.937655111932
28.12318 395.041554195394
28.1433 353
28.16341 357.012937466411
28.18352 378.99853239462
28.20364 357.965744012157
28.22375 356.003685015635
28.24386 362.947996317549
28.26398 388.010111570183
28.28409 340.027007773901
28.3042 321
28.32432 362.014839119862
28.34443 339.956405290979
28.36455 337.067343916552
28.38466 373.954932240073
28.40477 374.010482785749
28.42489 362.015180023671
28.445 338
28.46511 375.994020886517
28.48523 322.972958990691
28.50534 349.007788435661
28.52546 321.006725269013
28.54557 348.985513695331
28.56568 326.020136201995
28.5858 323
28.60591 305.993753070142
28.62602 322.053850107142
28.64614 362.934349208907
28.66625 291.036873631145
28.68636 344.923330955623
28.70648 330.021797852338
28.72659 330.996444137473
28.74671 328.995172284139
28.76682 326.016609748005
28.78693 343.982041551576
28.80705 313.988240794298
28.82716 349.903117060114
28.84727 365.055555683331
28.86739 311.008152621081
28.8875 335
28.90762 318.989663110613
28.92773 334.038828978424
28.94784 349.998606922336
28.96796 342.992519020285
28.98807 350.021333005163
29.00818 326.99446122899
29.0283 352
29.04841 322.995555719745
29.06853 351.052234845369
29.08864 353.923861104252
29.10875 316.959830875226
29.12887 359.016722616111
29.14898 292.045670585987
29.16909 308.977805285719
29.18921 337.001171061236
29.20932 326.999940422077
29.22943 331.974512293262
29.24955 301.983216936432
29.26966 321.972012302253
29.28978 314.013487610671
29.30989 312.993442021909
29.33 331
29.35012 339.017599299419
29.37023 353.97981388061
29.39034 322.976561128055
29.41046 336.98093016491
29.43057 333.990438455487
29.45069 340.0130818339
29.4708 305
29.49091 354.010382902476
29.51103 316.911197719324
29.53114 288.038371959802
29.55125 338.880795980691
29.57137 357.006539939368
29.59148 339.030049998684
29.6116 318
29.63171 335.994121219935
29.65182 310.014900215149
29.67194 357.029999449222
29.69205 326.938306651542
29.71216 324.029159514841
29.73228 301.991383411969
29.75239 333.995092454814
29.7725 322
29.79262 354.002279851604
29.81273 326.990559451465
29.83285 344.990504721367
29.85296 319.004752942127
29.87307 330.04697056852
29.89319 276.998679841388
29.9133 327
29.93341 292.999194034812
29.95353 332.014646962561
29.97364 294.936208020321
29.99376 299.955502013404
30.01387 309.022817411507
30.03398 287.00004430577
30.0541 316
30.07421 336.000853945464
30.09432 327.99282421651
30.11444 325.994330988207
30.13455 318.028060602476
30.15467 310.995434153075
30.17478 321.989093660221
30.19489 325.002433105017
30.21501 314.993843298383
30.23512 313.018333607517
30.25523 336.002574463804
30.27535 318.981389203763
30.29546 325.009357188122
30.31557 311.99204418193
30.33569 328.003875588227
30.3558 306
30.37592 340.012176653889
30.39603 314.955127900805
30.41614 302.994253764856
30.43626 306.965063833665
30.45637 325.002082240168
30.47648 308.008768754671
30.4966 311
30.51671 290.989790975444
30.53683 295.059104344103
30.55694 332.976538352378
30.57705 288.032920181139
30.59717 313.988306514331
30.61728 293.002943014318
30.63739 311.002545238847
30.65751 279.992297921275
30.67762 290.004129559354
30.69773 287.029611237052
30.71785 326.061319743796
30.73796 312.086272973326
30.75808 279.989220248222
30.77819 317.991146682795
30.7983 304
30.81842 311.001020342108
30.83853 298.986216488895
30.85864 304.0298659152
30.87876 314.011635290311
30.89887 301.001083844815
30.91899 324.979298712306
30.9391 348
30.95921 293.982358291296
30.97933 297.020487040773
30.99944 312.068778390841
31.01955 340.057371957151
31.03967 277.070569676841
31.05978 284.953255060931
31.0799 321
31.10001 290.001674032888
31.12012 325.007428450507
31.14024 294.963370867968
31.16035 303.992000037712
31.18046 293.994735964962
31.20058 311.990025303088
31.22069 299.01377734515
31.2408 275
31.26092 279.008491533079
31.28103 280.991105275795
31.30115 278.030625419363
31.32126 296.990797742081
31.34137 286.010376709583
31.36149 289.000436439459
31.3816 284
31.40171 299.006484605271
31.42183 295.969171918247
31.44194 280.025009840881
31.46206 303.017280851409
31.48217 277.976117508563
31.50228 322.995674585098
31.5224 275
31.54251 283.021971495168
31.56262 311.976518619021
31.58274 260.968317249142
31.60285 293.917633504331
31.62297 288.053062303342
31.64308 259.992762676937
31.66319 290.992405828573
31.68331 279.995886640018
31.70342 286.002862894105
31.72353 278.990612082945
31.74365 277.995803259353
31.76376 285.932696527214
31.78387 323.993651209948
31.80399 283.029599045394
31.8241 253
31.84422 307.047951803018
31.86433 317.971953853824
31.88444 283.916004856062
31.90456 262.954695492922
31.92467 305.974081521623
31.94478 293.00197344499
31.9649 306
31.98501 278.999054680808
32.00513 305.021182022802
32.02524 288.950016078335
32.04535 273.02372243837
32.06547 272.976904044657
32.08558 286.013380683609
32.10569 264.992813019326
32.12581 310.013694439863
32.14592 289.950517327447
32.16604 247.970961369212
32.18615 266.090720386463
32.20626 295.975247486718
32.22638 293.00555564035
32.24649 290.00402126906
32.2666 277
32.28672 274.000368448248
32.30683 271.990415360437
32.32694 269.020544828375
32.34706 288.968310991587
32.36717 287.030134067261
32.38729 265.003499802554
32.4074 276
32.42751 297.020828688822
32.44763 325.95097219496
32.46774 260.962456264601
32.48785 290.991731942476
32.50797 261.986989974304
32.52808 312.972628508992
32.5482 293
32.56831 282.992433179882
32.58842 268.011336922121
32.60854 300.041284066823
32.62865 292.055551568455
32.64876 277.000852649898
32.66888 284.000106622618
32.68899 281.992099067932
32.7091 301
32.72922 274.01001734933
32.74933 311.003595404436
32.76945 265.890385432302
32.78956 262.940401589028
32.80967 293.987411321771
32.82979 281.004712952021
32.8499 284
32.87001 276.99979506496
32.89013 289.025691937532
32.91024 294.971137115463
32.93036 279.972502804234
32.95047 303.0248390693
32.97058 250.03671970987
32.9907 255
33.01081 273.012628794274
33.03092 306.031216246303
33.05104 324.00409013882
33.07115 308.083033954873
33.09127 281.991545186621
33.11138 298.019393840214
33.13149 258.99826533601
33.15161 301.007149541371
33.17172 273.983935745457
33.19183 291.030406626809
33.21195 294.993952296501
33.23206 294.003282093681
33.25217 294.986507609334
33.27229 312.988848346767
33.2924 330
33.31252 320.976564947628
33.33263 297.987935325139
33.35274 297.974086379194
33.37286 277.999373071195
33.39297 303.955407960886
33.41308 321.987870039185
33.4332 321
33.45331 275.980237046326
33.47343 271.054679391411
33.49354 319.044499484023
33.51365 301.089394217559
33.53377 283.975469840882
33.55388 315.985126932447
33.57399 297.018456647138
33.59411 266.993289007048
33.61422 278.033958712013
33.63434 307.999927270878
33.65445 281.944474285641
33.67456 279.989219806836
33.69468 284.990276514519
33.71479 291.005730585453
33.7349 272
33.75502 294.030956318115
33.77513 302.956859814626
33.79524 258.958808594447
33.81536 275.939163573075
33.83547 295.9860683467
33.85559 298.000906355514
33.8757 293
33.89581 277.993008020056
33.91593 271.001897889825
33.93604 271.982065124036
33.95615 262.97321182562
33.97627 293.952442873314
33.99638 306.009141684778
34.0165 288
34.03661 282.996113599122
34.05672 271.996252182362
34.07684 284.05167222384
34.09695 306.988308455255
34.11706 307.946325119261
34.13718 336.025710524852
34.15729 269.020069813512
34.17741 287.019957054366
34.19752 316.020701903879
34.21763 310.923189454327
34.23775 256.012308610482
34.25786 322.866056491702
34.27797 340.033791628201
34.29809 307.012171064328
34.3182 299
34.33831 298.003740681445
34.35843 311.012610910672
34.37854 322.061050421161
34.39866 347.046298369981
34.41877 311.952037794965
34.43888 388.979909178695
34.459 332
34.47911 330.006420252294
34.49922 342.030712014687
34.51934 385.057105180334
34.53945 389.011957491198
34.55957 388.000953491268
34.57968 389.989702757311
34.59979 397.006859946197
34.61991 380.007413247447
34.64002 427.044080503444
34.66013 447.013108717708
34.68025 457.026222607933
34.70036 471.95262859942
34.72047 491.005909592598
34.74059 479.991929201836
34.7607 518
34.78082 513.002736226871
34.80093 539.047963383389
34.82104 564.04315201412
34.84116 580.98628469496
34.86127 576.020074746142
34.88138 572.977186387724
34.9015 614
34.92161 623.993877666166
34.94173 615.024888483891
34.96184 632.945669240797
34.98195 571.096889789251
35.00207 580.959011377256
35.02218 592.007954849449
35.04229 581.996216840684
35.06241 603.005228038322
35.08252 579.944521257414
35.10264 526.969184781888
35.12275 543.0176953605
35.14286 528.019724056364
35.16298 540.973599307118
35.18309 545.022518586377
35.2032 484
35.22332 514.017486638676
35.24343 499.990787422836
35.26354 522.062302973993
35.28366 536.022204447791
35.30377 508.043027320784
35.32389 498.992322772678
35.344 525
35.36411 530.002721173617
35.38423 533.980714098259
35.40434 508.966342400636
35.42445 502.037863552137
35.44457 487.977605765355
35.46468 531.955265740015
35.4848 557
35.50491 551.983234650169
35.52502 533.050398355045
35.54514 604.980507918684
35.56525 523.102136172207
35.58536 550.975480359392
35.60548 518.022759408886
35.62559 536.9815355648
35.64571 552.989720985467
35.66582 538.048307770889
35.68593 602.96512288335
35.70605 513.931240436955
35.72616 569.930360320508
35.74627 552.993238202014
35.76639 583.007152804432
35.7865 541
35.80661 602.001542435129
35.82673 542.964799308781
35.84684 570.997474209213
35.86696 526.043735161316
35.88707 553.942679457635
35.90718 562.023495974486
35.9273 534
35.94741 562.019277309861
35.96752 564.941970468716
35.98764 489.957066877603
36.00775 520.968517039757
36.02787 503.980535751645
36.04798 551.972199102028
36.06809 542.005300527844
36.08821 543.995353569697
36.10832 519.982039156844
36.12843 511.978501261201
36.14855 487.949251837921
36.16866 491.928519695615
36.18878 525.012261244851
36.20889 491.993240955444
36.229 545
36.24912 518.996102013996
36.26923 556.046418115184
36.28934 555.980723597894
36.30946 571.890031463342
36.32957 634.962087474712
36.34968 642.943868914119
36.3698 750
36.38991 818.046781146975
36.41003 954.212492086735
36.43014 1085.27343987539
36.45025 1218.74824925128
36.47037 1298.85365280941
36.49048 1383.99846095641
36.51059 1303.04564299208
36.53071 1254.98928331736
36.55082 1228.9560804952
36.57094 1134.67722168743
36.59105 967.775120159319
36.61116 944.095527248871
36.63128 814.177596006099
36.65139 659.046180352922
36.6715 621
36.69162 566.934746626466
36.71173 512.951915700157
36.73184 505.017224239124
36.75196 505.052224745053
36.77207 469.017346990502
36.79219 487.989311863355
36.8123 490
36.83241 472.989509843599
36.85253 465.030967896296
36.87264 491.990479012236
36.89275 467.981589616948
36.91287 511.947650895374
36.93298 510.021465817215
36.9531 491
36.97321 485.99817886282
36.99332 480.996347748348
37.01344 477.988745377621
37.03355 465.053492518962
37.05366 450.978472627003
37.07378 472.998036634124
37.09389 451.009256572379
37.11401 451.003202307894
37.13412 463.02871685844
37.15423 484.970322559333
37.17435 447.006195985718
37.19446 484.980272622653
37.21457 443.080942180429
37.23469 432.974630969081
37.2548 496
37.27491 450.983449631574
37.29503 449.979200017373
37.31514 417.979751568063
37.33526 438.957254104917
37.35537 438.023632819282
37.37548 431.979188710495
37.3956 459
37.41571 431.999524946062
37.43582 454.996898432795
37.45594 422.972710760045
37.47605 444.930796882518
37.49617 456.99350052574
37.51628 473.958426437417
37.53639 496.027145206008
37.55651 412.996908022271
37.57662 482.037524882121
37.59673 465.016526708275
37.61685 511.013012147993
37.63696 478.980440334913
37.65708 526.996607777594
37.67719 476.016041894719
37.6973 494
37.71742 514.039998983365
37.73753 549.971224636121
37.75764 490.935356625181
37.77776 498.013216677444
37.79787 469.010108064755
37.81798 491.98456788831
37.8381 477
37.85821 461.008112269266
37.87833 490.007420411996
37.89844 462.939344253835
37.91855 468.866430020027
37.93867 516.037950549666
37.95878 449.01140327684
37.97889 510.972184339078
37.99901 500.972053509902
38.01912 460.015789140391
38.03924 510.039584580329
38.05935 485.955362258231
38.07946 500.950685768534
38.09958 511.006173300027
38.11969 508.988005414292
38.1398 523
38.15992 450.016222842079
38.18003 541.065112624102
38.20015 510.979280578332
38.22026 545.990639431525
38.24037 524.953137990963
38.26049 601.981495161208
38.2806 566
38.30071 555.025072177548
38.32083 609.981323532508
38.34094 546.950480951161
38.36105 577.96027960735
38.38117 564.977460284721
38.40128 598.016470598554
38.4214 539
38.44151 578.031275926667
38.46162 609.988060132311
38.48174 581.994087426495
38.50185 603.985477280305
38.52196 583.034551246837
38.54208 570.038272974259
38.56219 521.007297357724
38.58231 547.013937471378
38.60242 538.956680089819
38.62253 494.985188869751
38.64265 509.991169936658
38.66276 486.999742790401
38.68287 516.964047483884
38.70299 500.028529235057
38.7231 446
38.74321 482.016730074455
38.76333 486.994002872408
38.78344 483.977010982349
38.80356 461.054676206938
38.82367 449.970622080873
38.84378 470.024320646026
38.8639 425
38.88401 482.023382517626
38.90412 481.979592298472
38.92424 452.89642384377
38.94435 408.975126314134
38.96447 468.910134765602
38.98458 483.028607700477
39.00469 443.011442046315
39.02481 446.004819774594
39.04492 463.044026667378
39.06503 510.008027033922
39.08515 473.917643723873
39.10526 475.950039785546
39.12538 496.998233195289
39.14549 483.005524086197
39.1656 483
39.18572 492.035442652324
39.20583 544.059715251201
39.22594 558.004282898896
39.24606 574.912440678383
39.26617 630.939473685288
39.28628 657.957289929753
39.3064 753
39.32651 919.062407858666
39.34663 996.109672216382
39.36674 1084.15076897646
39.38685 1158.72357746909
39.40697 1278.90541160014
39.42708 1274.01901817851
39.44719 1226.07254473112
39.46731 1043.95660559503
39.48742 1041.94332697712
39.50754 882.664776725405
39.52765 767.774151524486
39.54776 690.091913354961
39.56788 653.068053411846
39.58799 540.064704598585
39.6081 449
39.62822 452.962450690743
39.64833 372.919371796207
39.66845 373.035343576503
39.68856 366.047105373897
39.70867 355.956040663526
39.72879 409.981332351914
39.7489 404
39.76901 370.993841504546
39.78913 361.938828394174
39.80924 314.010272231107
39.82935 354.009247704186
39.84947 302.039112443842
39.86958 336.943022320388
39.8897 372
39.90981 356.987296806952
39.92992 337.993115653307
39.95004 347.046376295409
39.97015 372.954192083798
39.99026 372.044162119567
40.01038 349.998475842864
40.03049 385.971184587506
40.05061 420.98989218762
40.07072 385.020195220577
40.09083 464.10220747853
40.11095 495.0884465789
40.13106 552.889349352447
40.15117 589.960636648086
40.17129 617.983100510788
40.1914 666
40.21152 725.023891886199
40.23163 744.107658091159
40.25174 835.035295998699
40.27186 760.187846888737
40.29197 702.057521479134
40.31208 659.054280720681
40.3322 594
40.35231 530.969800024811
40.37242 491.0010461152
40.39254 495.90352390551
40.41265 406.152508726191
40.43277 394.017287276706
40.45288 359.033176712881
40.47299 342.005511961798
40.49311 334.001318491781
40.51322 344.006470207658
40.53333 344.001948101133
40.55345 345.985762849946
40.57356 342.96321039516
40.59368 367.005248808442
40.61379 339.004597727469
40.6339 351
40.65402 334.017464997464
40.67413 359.944363986058
40.69424 293.016289841113
40.71436 360.985640056934
40.73447 299.028948441315
40.75458 343.981175009327
40.7747 324
40.79481 372.996177547277
40.81493 315.981644284989
40.83504 352.994777410207
40.85515 303.039608374252
40.87527 338.963665661171
40.89538 330.997357460391
40.91549 359.986096609709
40.93561 367.998289916257
40.95572 361.991850482822
40.97584 345.940597561703
40.99595 313.958985256216
41.01606 315.988223542751
41.03618 320.986186303691
41.05629 345.98582082135
41.0764 355
41.09652 308.964295678557
41.11663 316.078593019049
41.13675 365.990851327139
41.15686 316.075200944158
41.17697 324.952078730231
41.19709 339.010821395669
41.2172 297
41.23731 305.017796986247
41.25743 343.035671767762
41.27754 338.94111403993
41.29765 306.040432420101
41.31777 305.010582624196
41.33788 297.979469353167
41.358 331
41.37811 302.992450999195
41.39822 307.989428858731
41.41834 288.025156317201
41.43845 335.891478954871
41.45856 340.062546332009
41.47868 296.037387043025
41.49879 284.991705134351
41.51891 318.018306614449
41.53902 341.004066276579
41.55913 330.978755111076
41.57925 316.952321688937
41.59936 305.968298192194
41.61947 331.999195698519
41.63959 311.001413222682
41.6597 336
41.67982 344.010580875756
41.69993 348.960686815217
41.72004 302.943312633342
41.74016 307.965567144927
41.76027 325.957752119763
41.78038 347.013499166017
41.8005 306
41.82061 301.005433416405
41.84072 317.023038148962
41.86084 334.996888103751
41.88095 316.049121650284
41.90107 306.009415146991
41.92118 301.997071835884
41.94129 321.978865495061
41.96141 349.985581701408
41.98152 296.998365188093
42.00163 342.017669325462
42.02175 305.95259915488
42.04186 322.985124237536
42.06198 304.016679046623
42.08209 309.989772185286
42.1022 327
42.12232 327.016443489376
42.14243 354.017153916787
42.16254 357.054536686586
42.18266 391.020538140201
42.20277 355.98418723384
42.22289 418.97439006681
42.243 441
42.26311 507.029167485051
42.28323 535.013313191721
42.30334 574.212612131658
42.32345 698.864264131383
42.34357 687.976336190738
42.36368 802.807326446986
42.38379 948.005314439567
42.40391 842.984914014289
42.42402 911.021291472634
42.44414 819.751602491652
42.46425 736.890888002091
42.48436 697.134818987155
42.50448 611.062043370315
42.52459 570.031814520432
42.5447 486
42.56482 467.98517867993
42.58493 426.909285724387
42.60505 359.835615975484
42.62516 319.990848902907
42.64527 339.022031216695
42.66539 301.999620982329
42.6855 336
42.70561 293.982414076924
42.72573 296.028147826601
42.74584 312.027693378292
42.76595 312.065759780031
42.78607 278.015024051096
42.80618 293.987563685072
42.8263 288
42.84641 285.000025272251
42.86652 285.000672501859
42.88664 287.00647415468
42.90675 289.00422525367
42.92686 282.022783755817
42.94698 273.997492087813
42.96709 283.996362915064
42.98721 285.000621296655
43.00732 276.966838864197
43.02743 249.035887954063
43.04755 309.083266835459
43.06766 292.057773823099
43.08777 278.015496038937
43.10789 272.993264212803
43.128 297
43.14812 290.987812525366
43.16823 275.959422272974
43.18834 251.001937167122
43.20846 281.918471964869
43.22857 299.031492038977
43.24868 258.028141539875
43.2688 265
43.28891 294.003836625023
43.30902 278.97906388849
43.32914 263.973070892109
43.34925 263.925238570904
43.36937 299.998222537015
43.38948 275.998564907927
43.40959 295.010995137981
43.42971 250.004550560894
43.44982 298.997694033924
43.46993 243.972851686167
43.49005 284.075856250757
43.51016 273.033586827626
43.53028 270.005057666719
43.55039 268.987463793472
43.5705 301
43.59062 269.98904629709
43.61073 300.065778792141
43.63084 309.909571915289
43.65096 253.999937098756
43.67107 292.01220097534
43.69119 245.995458033805
43.7113 306
43.73141 258.987870896553
43.75153 292.062854720008
43.77164 294.927701295073
43.79175 252.040984688432
43.81187 267.967862367793
43.83198 273.006632892148
43.85209 263.004880992272
43.87221 256.998960531051
43.89232 262.015111880768
43.91244 279.014631697629
43.93255 266.925892243977
43.95266 246.968425905888
43.97278 293.952804977016
43.99289 308.011230147017
44.013 273
44.03312 281.021609411276
44.05323 290.980759027576
44.07335 275.029329322955
44.09346 302.996638163489
44.11357 280.005535841192
44.13369 304.990584330009
44.1538 293
44.17391 264.996586168656
44.19403 283.045563788789
44.21414 299.979480493149
44.23426 278.008302112163
44.25437 290.999749828489
44.27448 268.026221712564
44.2946 253
44.31471 255.011135479441
44.33482 285.015175382991
44.35494 288.03095352503
44.37505 304.050870374041
44.39516 265.999487371674
44.41528 295.008005801949
44.43539 252.004926784234
44.45551 289.01469031108
44.47562 293.014593165958
44.49573 312.975892298142
44.51585 266.929573534381
44.53596 268.010599528243
44.55607 251.992820775135
44.57619 280.987625236874
44.5963 283
44.61642 281.020343695269
44.63653 304.99341269171
44.65664 268.922258986892
44.67676 256.966612665424
44.69687 291.938650968843
44.71698 317.001175117964
44.7371 295
44.75721 277.996580947899
44.77732 277.000729475018
44.79744 284.043745500921
44.81755 302.034114688133
44.83767 264.040478822073
44.85778 270.97108464131
44.87789 286.011540660326
44.89801 255.007906222959
44.91812 303.010704197445
44.93823 271.987813234065
44.95835 300.032722532515
44.97846 286.00505405595
44.99858 299.00601614929
45.01869 276.001586822571
45.0388 300
45.05892 302.997202170563
45.07903 306.011246728691
45.09914 306.969443005198
45.11926 285.017763779085
45.13937 294.97723757399
45.15949 307.991590365769
45.1796 326
45.19971 321.992325630476
45.21983 307.996401115429
45.23994 312.996325730817
45.26005 300.034981988634
45.28017 297.980332470571
45.30028 317.984837429126
45.32039 317.008500105863
45.34051 307.01003828778
45.36062 346.023324954989
45.38074 344.999874654886
45.40085 357.024699966934
45.42096 357.007338930334
45.44108 355.001219742012
45.46119 358.992746943888
45.4813 371
45.50142 353.003927479024
45.52153 383.044031444269
45.54165 391.98736572223
45.56176 403.893675329452
45.58187 475.935690774793
45.60199 479.998741099521
45.6221 503
45.64221 531.019466829029
45.66233 580.069664822469
45.68244 629.135653460343
45.70256 700.914828950955
45.72267 714.973477202161
45.74278 725.041670555056
45.7629 661
45.78301 681.980399822888
45.80312 586.94760756825
45.82324 589.948797161061
45.84335 516.141116189815
45.86346 498.045355353309
45.88358 461.016896147396
45.90369 461.01013810098
45.92381 416.983370199372
45.94392 395.959350313271
45.96403 344.971287335224
45.98415 371.107368880391
46.00426 381.090252602584
46.02437 321.017710150867
46.04449 345.00777939886
46.0646 295
46.08472 329.984730220361
46.10483 272.997886372317
46.12494 334.0667649913
46.14506 308.054980909343
46.16517 310.98808984473
46.18528 313.986374196445
46.2054 338
46.22551 334.988352843925
46.24563 316.014197174667
46.26574 342.013046226852
46.28585 328.991933012919
46.30597 340.038180488909
46.32608 291.014583606001
46.34619 312.00000006441
46.36631 278.989426816256
46.38642 295.033988451605
46.40653 315.993412972755
46.42665 291.936094750347
46.44676 284.971633013343
46.46688 302.998226922257
46.48699 292.000150353371
46.5071 306
46.52722 294.975819306901
46.54733 280.016187976396
46.56744 311.057940992517
46.58756 327.967343670884
46.60767 337.025404661921
46.62779 307.005525314607
46.6479 320
46.66801 299.974339635451
46.68813 262.032823991855
46.70824 325.07770996929
46.72835 311.077446879401
46.74847 295.006846502281
46.76858 297.989669341498
46.78869 306.00197593172
46.80881 297.001270603002
46.82892 309.002781025562
46.84904 287.918683081125
46.86915 261.041493871128
46.88926 306.938497300351
46.90938 310.990710882186
46.92949 323.010072669636
46.9496 283
46.96972 305.015175983391
46.98983 289.958305225809
47.00995 279.046202532314
47.03006 299.038372465962
47.05017 261.988894700958
47.07029 311.986027581128
47.0904 293
47.11051 292.009467972246
47.13063 301.966551142329
47.15074 273.026804078579
47.17086 312.997344635927
47.19097 277.010527888141
47.21108 300.01232065775
47.2312 261
47.25131 316.012468857531
47.27142 283.959938368212
47.29154 273.014144347194
47.31165 280.000438432739
47.33176 272.018770914531
47.35188 269.992149861971
47.37199 278.002075661921
47.39211 268.00141838637
47.41222 292.034670228163
47.43233 314.998116219461
47.45245 293.940351952314
47.47256 279.021067488382
47.49267 276.976802012639
47.51279 304.986932379698
47.5329 310
47.55302 287.006227640648
47.57313 312.004063892004
47.59324 287.971390761624
47.61336 294.992486816172
47.63347 278.045739851823
47.65358 266.96534301234
47.6737 314
47.69381 268.9875373349
47.71393 294.061631666024
47.73404 311.977601796192
47.75415 291.012918807807
47.77427 307.970014012045
47.79438 312.012099407568
47.81449 300.996209132867
47.83461 323.007269270868
47.85472 316.981946172863
47.87483 295.965573528086
47.89495 286.043531449059
47.91506 325.915002448737
47.93518 333.047475057479
47.95529 278.996317833261
47.9754 342
47.99552 329.966019524206
48.01563 309.993661310615
48.03574 318.030364589289
48.05586 327.011623789215
48.07597 299.073022027188
48.09609 265.990715941343
48.1162 316
48.13631 298.989934019481
48.15643 294.989300465096
48.17654 271.935891977555
48.19665 260.915477923376
48.21677 309.984688595463
48.23688 281.014624821541
48.257 300
48.27711 296.994541147428
48.29722 290.998510096451
48.31734 285.968046866498
48.33745 263.961759554684
48.35756 262.982864355151
48.37768 273.98907412221
48.39779 280.99926819022
48.4179 282
48.43802 288.993928079295
48.45813 273.989837423272
48.47825 276.993558912638
48.49836 269.989756815684
48.51847 287.977618707942
48.53859 291.00103204111
48.5587 287
48.57881 282.006857343361
48.59893 297.981369629207
48.61904 255.916156285673
48.63916 243.961945686625
48.65927 276.956989853418
48.67938 284.014228302445
48.6995 270
48.71961 290.001148149348
48.73972 272.992252759979
48.75984 281.003794594498
48.77995 272.999584265586
48.80006 273.05280844599
48.82018 239.992787884428
48.84029 278.992367097034
48.86041 259.995761927361
48.88052 277.012783610519
48.90063 268.976162410263
48.92075 260.000150771752
48.94086 271.951071731185
48.96097 291.008256656736
48.98109 270.004102275128
49.0012 279
49.02132 265.986316372053
49.04143 262.002340301384
49.06154 262.997001505947
49.08166 258.014875453767
49.10177 258.970994138092
49.12188 284.989443287104
49.142 278
49.16211 277.993768997517
49.18223 255.983358393235
49.20234 274.090238867136
49.22245 306.050641544698
49.24257 252.044788821671
49.26268 267.973973638815
49.28279 278.996835946019
49.30291 292.010160402076
49.32302 313.013880035074
49.34313 310.971190867667
49.36325 281.925754932391
49.38336 263.010051352564
49.40348 266.994718124436
49.42359 270.996116698581
49.4437 277
49.46382 271.018312083245
49.48393 309.043377024619
49.50404 300.910642639502
49.52416 254.027969036401
49.54427 278.94690822941
49.56439 296.999627187591
49.5845 286
49.60461 278.006123795099
49.62473 295.997414826768
49.64484 282.012879194016
49.66495 310.94875174603
49.68507 307.020921766886
49.70518 302.988539533643
49.7253 321
49.74541 327.010474650803
49.76552 353.001932948925
49.78564 348.067961361913
49.80575 415.119158593037
49.82586 421.014052663479
49.84598 433.963180481748
49.86609 475.98809744735
49.8862 505
49.90632 617.077195206365
49.92643 665.132968468533
49.94655 807.339478520767
49.96666 913.780665692893
49.98677 1053.75852610771
50.00689 1234.89778016767
50.027 1437
50.04711 1581.0852840628
50.06723 1734.059512277
50.08734 1662.82895213897
50.10746 1624.05077560979
50.12757 1543.25522633533
50.14768 1339.14412203699
50.1678 1262
50.18791 1115.92432196601
50.20802 994.90108261317
50.22814 903.828519951766
50.24825 822.183351858929
50.26837 739.168301057051
50.28848 604.128365308931
50.30859 496.049884565358
50.32871 403.965210852321
50.34882 362.981156072635
50.36893 354.998150287013
50.38905 349.962400524453
50.40916 335.990531526467
50.42927 345.02801172635
50.44939 312.000716258526
50.4695 341
50.48962 321.981677152931
50.50973 326.024371178699
50.52984 339.008192213871
50.54996 330.041155094721
50.57007 303.043673983509
50.59018 289.982396299928
50.6103 317
50.63041 292.995045156212
50.65053 316.054657268891
50.67064 335.98486184883
50.69075 305.096699793399
50.71087 285.98002804558
50.73098 309.00286288275
50.75109 281.008317899098
50.77121 290.006323521925
50.79132 286.98388780761
50.81143 275.010537002753
50.83155 292.007590104809
50.85166 289.949235251877
50.87178 326.003226383327
50.89189 287.010616826421
50.912 304
50.93212 304.985172519267
50.95223 286.979154341457
50.97234 279.991684848511
50.99246 275.010415147594
51.01257 268.016130851502
51.03269 262.993788945013
51.0528 277
51.07291 253.003110091512
51.09303 283.007773188751
51.11314 256.969393531218
51.13325 271.942364375649
51.15337 272.048188484577
51.17348 239.989876167372
51.1936 281
51.21371 263.994279712357
51.23382 264.979813768676
51.25394 230.987238350737
51.27405 257.938357902526
51.29416 257.029417530896
51.31428 241.016460232863
51.33439 240.983616330471
51.3545 286
51.37462 267.969331707561
51.39473 246.980034467409
51.41485 246.045868017914
51.43496 264.018706591757
51.45507 239.998471718915
51.47519 267.991517410943
51.4953 250
51.51541 228.009900894372
51.53553 262.99794300911
51.55564 228.976667505708
51.57576 252.96395532116
51.59587 247.010181569929
51.61598 255.981958437578
51.6361 266
51.65621 243.990482726226
51.67632 245.022216669458
51.69644 272.027574364206
51.71655 258.095922257009
51.73667 225.996199211699
51.75678 257.97204868083
51.77689 258.009378785196
51.79701 246.005666893664
51.81712 267.000321472956
51.83723 241.962944626283
51.85735 235.007695296053
51.87746 243.96349534809
51.89757 257.015778653917
51.91769 233.004405073406
51.9378 244
51.95792 238.99900108428
51.97803 247.009122058118
51.99814 241.971114059358
52.01826 231.986075924224
52.03837 252.970748627366
52.05848 261.995373660932
52.0786 263
52.09871 258.008001426613
52.11883 280.996775498508
52.13894 254.966809868181
52.15905 264.948314083798
52.17917 275.009610813117
52.19928 255.024755879564
52.21939 239.999519902503
52.23951 255.010433314153
52.25962 257.969240350651
52.27974 216.977355790371
52.29985 237.034377882428
52.31996 237.962371480342
52.34008 269.990709761322
52.36019 246.015984045598
52.3803 230
52.40042 239.014251982165
52.42053 250.005214537192
52.44064 253.027216674752
52.46076 261.050050938595
52.48087 218.026970935971
52.50099 231.994941112234
52.5211 232
52.54121 259.998167163352
52.56133 239.024410273972
52.58144 281.00311436143
52.60155 245.011214319102
52.62167 271.020212269925
52.64178 221.012962746159
52.6619 260
52.68201 252.989759805931
52.70212 248.013931381659
52.72224 271.037091517952
52.74235 266.08563107669
52.76246 226.031516098922
52.78258 245.962756289302
52.80269 269.002470756465
52.8228 243
52.84292 238.017847995015
52.86303 262.017588094766
52.88315 252.949664780127
52.90326 231.046902293787
52.92337 218.980926481891
52.94349 250.983961841471
52.9636 261
52.98371 244.004866936442
53.00383 272.014392125015
53.02394 250.945037889067
53.04406 240.984250619905
53.06417 262.952115718112
53.08428 279.022145481865
53.1044 247
53.12451 284.000283627689
53.14462 253.006419067469
53.16474 291.995562548033
53.18485 248.030780005446
53.20497 277.985440918095
53.22508 258.993522186116
53.24519 292.995497923064
53.26531 260.981782829384
53.28542 246.999525299788
53.30553 261.057626556771
53.32565 302.027599272689
53.34576 286.016104480814
53.36587 290.02193199387
53.38599 265.996494903284
53.4061 305
53.42622 303.981228648659
53.44633 289.998558269636
53.46644 295.997630993418
53.48656 288.00045683485
53.50667 293.010205775705
53.52678 281.99038388549
53.5469 305
53.56701 295.00654132343
53.58713 326.009529523367
53.60724 302.970216656756
53.62735 314.94934819394
53.64747 319.027577739382
53.66758 300.988374007657
53.68769 328.000704110074
53.70781 294.988102759797
53.72792 310.043006123603
53.74804 339.972089161061
53.76815 303.986342944915
53.78826 329.988053054802
53.80838 308.006518007371
53.82849 336.979546248669
53.8486 356
53.86872 327.987734701419
53.88883 344.040913790065
53.90894 361.00328262761
53.92906 351.025754128655
53.94917 342.010138564598
53.96929 335.003930613463
53.9894 327
54.00951 326.003640372162
54.02963 339.019923124131
54.04974 348.010464606404
54.06985 351.988717413108
54.08997 348.034974569749
54.11008 326.985767271347
54.1302 367
54.15031 372.014276581728
54.17042 404.976356270861
54.19054 340.946554215404
54.21065 369.934993538596
54.23076 370.975459994035
54.25088 395.000622133106
54.27099 371.004830265999
54.29111 383.001690809425
54.31122 378.016978859223
54.33133 407.000646172298
54.35145 381.982581175013
54.37156 394.022429430758
54.39167 367.984889301205
54.41179 414.983374910598
54.4319 405
54.45201 383.000897387608
54.47213 397.002381566809
54.49224 387.007341428455
54.51236 407.967266029584
54.53247 410.000977321094
54.55258 415.989884217665
54.5727 435
54.59281 460.992497254092
54.61292 443.049098704832
54.63304 531.055520232989
54.65315 488.064418215007
54.67327 522.923087440912
54.69338 574.919782549694
54.71349 664.974202923888
54.73361 663.989598715548
54.75372 680.076544262633
54.77383 781.096115630538
54.79395 785.957778186068
54.81406 786.95747736839
54.83417 803.026043793519
54.85429 746.036940292638
54.8744 695
54.89452 704.989115370499
54.91463 657.91343615696
54.93474 611.928296599034
54.95486 589.009032690358
54.97497 585.0394898573
54.99508 547.015382757889
55.0152 550
55.03531 510.987497741687
55.05543 496.937879381043
55.07554 440.963024316259
55.09565 473.88388713517
55.11577 490.031729359325
55.13588 457.012311807881
55.15599 473.988748313723
55.17611 494.016371742624
55.19622 539.040597437833
55.21634 557.991592139495
55.23645 557.074700524399
55.25656 595.010010741979
55.27668 547.039907382584
55.29679 542.99531582543
55.3169 531
55.33702 475.972166939778
55.35713 479.00251438381
55.37724 460.952462002982
55.39736 441.039512318569
55.41747 426.002091674363
55.43759 430.003806468195
55.4577 415
55.47781 420.992300521735
55.49793 390.986356922299
55.51804 402.9965228504
55.53815 376.071104336532
55.55827 365.992146551097
55.57838 369.013490996694
55.5985 346
55.61861 356.009094120797
55.63872 357.973888279782
55.65884 313.92155549314
55.67895 311.88596716263
55.69906 365.976057574827
55.71918 332.033256588041
55.73929 328.994697415322
55.75941 332.996886800528
55.77952 327.008332529051
55.79963 345.013172184502
55.81975 339.988112872417
55.83986 330.06855027236
55.85997 297.975019488264
55.88009 347.989520864629
55.9002 319
55.92031 316.017314665094
55.94043 347.978637815513
55.96054 310.008255164115
55.98066 354.963335245423
56.00077 325.049378528991
56.02088 317.997163281961
56.041 319
56.06111 327.004769022568
56.08122 333.000004066547
56.10134 324.968854852542
56.12145 319.941475102228
56.14157 351.996308972806
56.16168 316.044926160569
56.18179 296.993466620445
56.20191 324.008213518855
56.22202 317.983825871006
56.24213 309.005265649249
56.26225 307.930669676202
56.28236 275.982002631597
56.30248 324.95736689578
56.32259 326.01511505887
56.3427 295
56.36282 311.030152404297
56.38293 325.974548829381
56.40304 290.955628073542
56.42316 292.985485156397
56.44327 292.005649127445
56.46338 290.001137102522
56.4835 309
56.50361 364.994362383767
56.52373 300.943087328941
56.54384 320.058390471912
56.56395 316.084728290206
56.58407 284.001593092852
56.60418 312.971075488808
56.62429 313.014012960611
56.64441 281.995374193631
56.66452 301.029309099838
56.68464 320.01081758733
56.70475 323.036631228031
56.72486 341.002842044668
56.74498 314.035919528985
56.76509 283.013990767152
56.7852 267
56.80532 284.000770442862
56.82543 272.006309862788
56.84554 302.072671812722
56.86566 313.054390072018
56.88577 273.021382357702
56.90589 287.995335945241
56.926 284
56.94611 305.001180387236
56.96623 289.998011528938
56.98634 305.006206806835
57.00645 283.079308345596
57.02657 268.975274167344
57.04668 306.96281820203
57.0668 316
57.08691 298.017786840895
57.10702 356.002061747057
57.12714 299.923707076025
57.14725 315.922282613103
57.16736 325.022944441443
57.18748 304.020819667392
57.20759 286.010831153252
57.22771 266.998523416952
57.24782 291.048485636446
57.26793 333.009048446183
57.28805 297.869833051291
57.30816 267.983045933208
57.32827 302.949860769167
57.34839 313.003890450584
57.3685 295
57.38861 272.996429762332
57.40873 282.023878030149
57.42884 295.018255508403
57.44896 297.015352063893
57.46907 280.034795884248
57.48918 260.009955004386
57.5093 261
57.52941 266.001444251054
57.54952 269.006087130268
57.56964 279.023181153755
57.58975 286.004426727223
57.60987 280.002375140153
57.62998 274.027723276656
57.65009 242.998934544898
57.67021 281.019990538374
57.69032 288.97512823897
57.71043 257.986160165656
57.73055 269.005607377274
57.75066 257.005460285356
57.77078 277.964474724949
57.79089 303.999569836678
57.811 288
57.83112 284.978565292728
57.85123 251.980835168056
57.87134 261.002177687261
57.89146 248.006853913854
57.91157 255.007829393859
57.93168 242.990527151878
57.9518 273
57.97191 280.008643068559
57.99203 298.981289352669
58.01214 263.969206732548
58.03225 275.986469008448
58.05237 264.009228235506
58.07248 267.007711354504
58.09259 252.997890499852
58.11271 278.011802711336
58.13282 291.014739104888
58.15294 306.002019737222
58.17305 277.855326587125
58.19316 227.009949056211
58.21328 265.957589357624
58.23339 270.01815506796
58.2535 227
58.27362 251.033467557685
58.29373 271.016292850942
58.31385 271.964188141912
58.33396 250.032142291389
58.35407 255.953464585326
58.37419 287.997384706441
58.3943 265
58.41441 254.998173437675
58.43453 260.037114443469
58.45464 281.970643123674
58.47475 253.959846138978
58.49487 300.989368526701
58.51498 251.053010666474
58.5351 238
58.55521 260.006187744487
58.57532 270.029153402978
58.59544 299.980812704594
58.61555 255.088047501139
58.63566 258.943393582138
58.65578 282.994589690779
58.67589 275.999550900708
58.69601 284.998463794562
58.71612 270.996419641641
58.73623 281.00829447512
58.75635 284.050643854744
58.77646 303.041728986274
58.79657 253.044096771238
58.81669 261.992090208946
58.8368 263
58.85691 259.997279263625
58.87703 257.011935716279
58.89714 271.013040078235
58.91726 267.008360621078
58.93737 273.971313021522
58.95748 291.000742531284
58.9776 269
58.99771 261.017562839385
59.01782 308.006917794797
59.03794 274.957575546962
59.05805 285.969333820822
59.07817 277.03265276683
59.09828 264.98781725046
59.11839 288.995633555083
59.13851 273.989901569115
59.15862 268.009431354837
59.17873 283.014077084597
59.19885 282.994339270974
59.21896 286.976929124283
59.23908 297.999155395041
59.25919 286.008919512973
59.2793 278
59.29942 290.98940468742
59.31953 269.006882615002
59.33964 299.032704437007
59.35976 291.008659352252
59.37987 300.989668103388
59.39998 302.987368187778
59.4201 333
59.44021 353.993711310328
59.46033 321.969105157458
59.48044 324.011209276885
59.50055 329.945230293215
59.52067 353.010282237444
59.54078 325.009189301596
59.56089 343.991689634143
59.58101 347.004198521174
59.60112 377.04837883763
59.62124 411.984097796043
59.64135 390.054820694231
59.66146 445.957071310647
59.68158 426.000676156287
59.70169 477.961675677119
59.7218 553
59.74192 632.090625544031
59.76203 724.112284608208
59.78215 777.106509669123
59.80226 854.71123716093
59.82237 1008.89316761084
59.84249 1021.9650054356
59.8626 1150
59.88271 1165.03917466815
59.90283 1271.9716422711
59.92294 1123.74730418255
59.94305 1072.17893078807
59.96317 947.171228379142
59.98328 874.062991409217
60.0034 799
60.02351 757.008288787999
60.04362 792.991530978405
60.06374 722.830962831
60.08385 673.027609945999
60.10396 655.14697852792
60.12408 535.106283120864
60.14419 471.025351226974
60.16431 415.976920437101
60.18442 374.948796086749
60.20453 320.951048702074
60.22465 310.977210123025
60.24476 300.981142973536
60.26487 317.015930616301
60.28499 289.00126200541
60.3051 319
60.32522 316.979501908157
60.34533 298.993480355543
60.36544 299.974419928048
60.38556 278.013985406997
60.40567 292.969958359128
60.42578 295.022348698163
60.4459 265
60.46601 273.006501715028
60.48612 276.997855667622
60.50624 276.009060015374
60.52635 281.010093574643
60.54647 267.022829589872
60.56658 259.000760130123
60.58669 258.004318658645
60.60681 256.013200954489
60.62692 295.013522025297
60.64703 274.964058369195
60.66715 264.982093867116
60.68726 263.960568110995
60.70738 287.006079894115
60.72749 251.017022829079
60.7476 241
60.76772 250.011269674539
60.78783 260.010033024631
60.80794 265.013463426098
60.82806 267.025386040297
60.84817 244.027930184761
60.86828 248.966653718428
60.8884 281
60.90851 250.995266729197
60.92863 268.005385323167
60.94874 255.013749207688
60.96885 281.973696904126
60.98897 269.010872479846
61.00908 273.008435176502
61.02919 255.000366100512
61.04931 270.001168569691
61.06942 262.012226555563
61.08954 286.999116860119
61.10965 256.935640975404
61.12976 255.97808705298
61.14988 274.964265783696
61.16999 302.008320824134
61.1901 260
61.21022 284.018155535575
61.23033 272.969727539257
61.25045 261.992325668784
61.27056 271.941350901115
61.29067 301.992438816743
61.31079 279.014176123482
61.3309 273
61.35101 304.007790941963
61.37113 292.963178212646
61.39124 283.039978328022
61.41135 311.004480139769
61.43147 287.9969907032
61.45158 307.018339017166
61.4717 269
61.49181 324.00477272807
61.51192 283.991555294975
61.53204 327.066860649701
61.55215 327.985373735161
61.57226 337.054388647686
61.59238 284.027994923219
61.61249 301.982722734074
61.63261 329.012028267273
61.65272 351.015487756164
61.67283 352.978346370211
61.69295 343.045945379796
61.71306 377.969258505898
61.73317 363.030619821782
61.75329 353.004173415668
61.7734 352
61.79352 375.99314161199
61.81363 345.982608436985
61.83374 375.101093822091
61.85386 420.934509160541
61.87397 432.017934293987
61.89408 413.008643680262
61.9142 411
61.93431 387.999465253239
61.95442 416.035518772566
61.97454 441.034329478196
61.99465 453.977390903545
62.01477 461.986264164748
62.03488 475.980020608535
62.05499 488.005738975567
62.07511 482.021979838392
62.09522 548.014827980421
62.11533 504.947576583725
62.13545 508.014497250735
62.15556 512.929226455519
62.17568 562.983424315217
62.19579 535.017916765665
62.2159 520
62.23602 525.012280715669
62.25613 522.942028796388
62.27624 467.943908922511
62.29636 477.966957584449
62.31647 480.003246159782
62.33659 468.018841186791
62.3567 432
62.37681 461.990499362804
62.39693 401.965055410516
62.41704 427.016328347999
62.43715 390.111947959748
62.45727 378.958230230534
62.47738 407.016106465254
62.49749 362.006963574502
62.51761 387.005994648945
62.53772 363.971790980889
62.55784 349.980904613269
62.57795 335.956981504685
62.59806 324.992309001812
62.61818 335.001043409131
62.63829 327.995335016192
62.6584 353
62.67852 338.953829061673
62.69863 292.98221281535
62.71875 316.063101440329
62.73886 323.993499205438
62.75897 328.99945458922
62.77909 325.999345584375
62.7992 318
62.81931 273.998636682674
62.83943 312.047299514545
62.85954 310.973571758742
62.87965 303.013694317346
62.89977 293.027676692826
62.91988 276.998286274149
62.94 288
62.96011 270.997062089409
62.98022 286.021036085086
63.00034 293.980655532376
63.02045 271.06717496651
63.04056 263.94445501568
63.06068 302.989039488718
63.08079 282.008867810464
63.10091 291.012076715915
63.12102 305.992717190841
63.14113 294.020818417174
63.16125 320.991653875303
63.18136 289.030755859252
63.20147 303.978608991723
63.22159 302.999907706006
63.2417 309
63.26182 301.997082581633
63.28193 300.981811255819
63.30204 287.013201174108
63.32216 308.981101170579
63.34227 299.013097108074
63.36238 301.995461599169
63.3825 305
63.40261 319.006126237511
63.42272 314.972302512753
63.44284 289.017983010878
63.46295 313.035493880287
63.48307 268.022188901707
63.50318 289.995532324596
63.52329 276.988054147471
63.54341 325.002139001531
63.56352 292.003616153876
63.58363 334.012522870578
63.60375 294.928992227639
63.62386 300.986175281352
63.64398 294.999096464376
63.66409 306.996323627026
63.6842 306
63.70432 314.003398263364
63.72443 307.984678522943
63.74454 324.134906053923
63.76466 387.048290283245
63.78477 308.028756717316
63.80489 367.978266200283
63.825 357
63.84511 385.020600862567
63.86523 412.011678591888
63.88534 401.956487216792
63.90545 393.936393130824
63.92557 445.923179926957
63.94568 462.027229021119
63.96579 422.006863523838
63.98591 439.006691937098
64.00602 420.957080842074
64.02614 387.006208454257
64.04625 407.980009208178
64.06636 372.031485400803
64.08648 384.000478527709
64.10659 361.007561691657
64.1267 359
64.14682 334.99224689241
64.16693 347.013500084342
64.18705 348.02628879792
64.20716 354.060052253762
64.22727 298.059358764916
64.24739 288.004448635806
64.2675 274
64.28761 282.990001240996
64.30773 247.99832996918
64.32784 286.067541399974
64.34796 281.070723891108
64.36807 244.026563580692
64.38818 254.971613357555
64.4083 276
64.42841 261.997057697906
64.44852 274.018021014218
64.46864 272.933075226341
64.48875 229.045357058697
64.50886 244.954502963841
64.52898 259.980321321331
64.54909 282.994023231003
64.56921 279.996122002083
64.58932 267.974294330315
64.60943 241.995686794531
64.62955 265.071168855371
64.64966 277.01331547285
64.66977 261.020923878956
64.68989 250.009085827945
64.71 238
64.73012 270.005839659381
64.75023 242.960040764855
64.77034 237.004669985906
64.79046 237.995223263889
64.81057 243.986547718268
64.83068 257.978592340576
64.8508 279
64.87091 269.98752775322
64.89102 247.997414450111
64.91114 261.01701466915
64.93125 262.967015668956
64.95137 282.993663298858
64.97148 269.012047702133
64.99159 268.998925576579
65.01171 268.00023192844
65.03182 269.998989198527
65.05193 252.938091332974
65.07205 212.98980502599
65.09216 244.932816559957
65.11228 253.011077952434
65.13239 246.991608121372
65.1525 272
65.17262 237.953974909568
65.19273 218.033662878814
65.21284 264.068270183876
65.23296 276.966328961127
65.25307 291.031726670287
65.27319 249.007752783996
65.2933 262
65.31341 246.010155763417
65.33353 289.004209307295
65.35364 248.954005704777
65.37375 263.963740078602
65.39387 251.043380749676
65.41398 241.964438613449
65.43409 289.000054179643
65.45421 246.98998989581
65.47432 268.017677080433
65.49444 254.946103780259
65.51455 246.061347079892
65.53466 282.975607369942
65.55478 266.013901613151
65.57489 275.988752120277
65.595 285
65.61512 262.013397780154
65.63523 302.025127317346
65.65535 278.925123776338
65.67546 281.913541650368
65.69557 324.012917800041
65.71569 279.008641347446
65.7358 301
65.75591 281.99500124771
65.77603 291.001688304271
65.79614 276.980867900471
65.81626 280.985476327356
65.83637 281.011280913491
65.85648 260.039781156753
65.8766 229
65.89671 270.011751574278
65.91682 265.001834654841
65.93694 279.998111276736
65.95705 259.039556763289
65.97716 262.972873078915
65.99728 272.99670026857
66.01739 267.007389108171
66.03751 255.001060326517
66.05762 262.994376941266
66.07773 249.003605413369
66.09785 270.042625936515
66.11796 270.015978965522
66.13807 263.00908595339
66.15819 251.012247564941
66.1783 230
66.19842 260.02907487552
66.21853 267.987168402911
66.23864 259.004211872329
66.25876 266.011666999993
66.27887 254.986123005506
66.29898 279.989548066727
66.3191 265
66.33921 253.998189953189
66.35933 248.981712025726
66.37944 243.039131025802
66.39955 264.053196669521
66.41967 217.018003066077
66.43978 253.960874859034
66.45989 267.996116181735
66.48001 272.993261067174
66.50012 246.98341384672
66.52023 254.03483810945
66.54035 270.988297404501
66.56046 253.014913132804
66.58058 257.007176275998
66.60069 238.004281879778
66.6208 248
66.64092 258.010115113922
66.66103 267.002581420295
66.68114 266.013687678362
66.70126 272.028293735217
66.72137 249.997053570872
66.74149 272.995477141471
66.7616 256
66.78171 251.00310099789
66.80183 255.993103631985
66.82194 250.01832580432
66.84205 264.02047957613
66.86217 249.96462695564
66.88228 294.993862081725
66.90239 260.009024321632
66.92251 273.000153446181
66.94262 247.980887891892
66.96274 251.021148120955
66.98285 256.001675967396
67.00296 254.008591030792
67.02308 259.971554564493
67.04319 289.00255447204
67.0633 263
67.08342 293.012832756693
67.10353 277.988316746654
67.12365 283.978848388252
67.14376 258.035799241614
67.16387 270.937908254631
67.18399 307.999306954098
67.2041 282
67.22421 286.995989524361
67.24433 268.006448333395
67.26444 309.113613047815
67.28456 334.069271923376
67.30467 271.04792436066
67.32478 291.9632801483
67.3449 313
67.36501 322.005641139427
67.38512 330.998201773597
67.40524 326.015669682134
67.42535 339.014203880203
67.44546 331.93456932394
67.46558 402.934625092531
67.48569 423.011260896333
67.50581 399.00646793583
67.52592 454.063460097428
67.54603 514.114755184032
67.56615 596.136144803347
67.58626 627.909692338982
67.60637 692.919340789756
67.62649 751.944998380861
67.6466 854
67.66672 777.018111719375
67.68683 885.051095558744
67.70694 796.808778662827
67.72706 757.066142784196
67.74717 705.068771039652
67.76728 664.061201512892
67.7874 615
67.80751 680.010203813599
67.82763 642.969537170157
67.84774 673.080690123536
67.86785 696.950516343154
67.88797 698.067856321066
67.90808 652.969916013487
67.92819 726.994465831103
67.94831 669.988321350224
67.96842 720.061767652997
67.98853 774.130074442054
68.00865 887.225229724747
68.02876 940.899346280408
68.04888 1013.91336343608
68.06899 1074.99845609027
68.0891 1025
68.10922 979.97731719996
68.12933 969.988917913816
68.14944 949.925231389466
68.16956 901.096842466973
68.18967 881.95705202692
68.20979 932.985483406896
68.2299 942
68.25001 992.004791749734
68.27013 963.989339363006
68.29024 977.9545776719
68.31035 871.445226630857
68.33047 691.180184740804
68.35058 637.040444169652
68.3707 576
68.39081 529.983349874259
68.41092 523.036474255102
68.43104 564.983835100908
68.45115 500.823789142855
68.47126 464.021920031627
68.49138 452.031307476392
68.51149 397.031848519989
68.5316 347
68.55172 336.993821842939
68.57183 320.961536603738
68.59195 297.980826121184
68.61206 306.970940888775
68.63217 305.044315929129
68.65229 266.009262416977
68.6724 278
68.69251 294.005030072252
68.71263 296.990165766203
68.73274 283.972498934073
68.75286 275.007987888842
68.77297 275.991051198906
68.79308 281.999003719042
68.8132 275
68.83331 264.999945547295
68.85342 275.013369522333
68.87354 285.012640317943
68.89365 280.059002358956
68.91376 244.06827971577
68.93388 229.989181689814
68.95399 257.983743178727
68.97411 285.011645793801
68.99422 293.981743742785
69.01433 259.962494291549
69.03445 266.087284695631
69.05456 290.050200937311
69.07467 241.013983857984
69.09479 275.989902019626
69.1149 256
69.13502 257.029923454093
69.15513 273.941052610157
69.17524 212.991261284525
69.19536 262.952677991242
69.21547 236.032800448807
69.23558 248.97811803157
69.2557 258
69.27581 257.00103437406
69.29593 263.010009845906
69.31604 255.936340861827
69.33615 224.981566615685
69.35627 264.956056581784
69.37638 256.031878836439
69.39649 231.001590310885
69.41661 251.014804675371
69.43672 267.995134976455
69.45683 248.97567776928
69.47695 247.017831739271
69.49706 253.000785893451
69.51718 250.993683382456
69.53729 259.003498526986
69.5574 241
69.57752 259.039567716686
69.59763 288.989681283494
69.61774 249.921565784367
69.63786 236.982639061777
69.65797 251.983962899722
69.67809 243.016733193076
69.6982 218
69.71831 277.023947998041
69.73843 278.952894100392
69.75854 256.030026860904
69.77865 289.989885565877
69.79877 259.033451471332
69.81888 255.019386526314
69.839 231
69.85911 280.014246878786
69.87922 271.991921038764
69.89934 270.953925432288
69.91945 229.936514609567
69.93956 238.941828230253
69.95968 268.97455246868
69.97979 277.008700176241
69.9999 244
70.02002 226.989752032843
70.04013 231.048970033371
70.06025 273.042714734132
70.08036 264.005303721956
70.10047 276.991928563894
70.12059 261.013859805997
70.1407 238
70.16081 245.011723467261
70.18093 271.023378261352
70.20104 258.911599122964
70.22116 223.95782213943
70.24127 279.965767246148
70.26138 254.022482189282
70.2815 254
70.30161 224.989089073305
70.32172 240.056181603106
70.34184 294.006134697723
70.36195 256.05140579425
70.38207 269.988593585425
70.40218 254.015754038092
70.42229 246.008121182133
70.44241 232.007552157939
70.46252 261.00065446705
70.48263 233.982123793743
70.50275 248.020975462355
70.52286 237.025308510335
70.54297 236.985891288719
70.56309 245.999082481928
70.5832 247
70.60332 265.002360765729
70.62343 260.024256967008
70.64354 281.967595127451
70.66366 229.086786509898
70.68377 221.9833051153
70.70388 236.97736517984
70.724 253
70.74411 229.996596582373
70.76423 243.009896385349
70.78434 233.984444383927
70.80445 240.953938444929
70.82457 256.996005547846
70.84468 249.005089134311
70.86479 249.003103750548
70.88491 245.009009072248
70.90502 266.987886609044
70.92513 236.005152480826
70.94525 273.041372493895
70.96536 245.08523304396
70.98548 228.977289225843
71.00559 261.998837840092
71.0257 239
71.04582 264.011893314371
71.06593 246.967287698191
71.08604 235.98361541406
71.10616 228.004062511666
71.12627 232.988842295268
71.14639 240.99446504481
71.1665 253
71.18661 248.990449165026
71.20673 225.981753628465
71.22684 233.040305573087
71.24695 249.992343270304
71.26707 243.004045731037
71.28718 245.007226899784
71.3073 234
71.32741 251.002964800375
71.34752 242.99830229796
71.36764 244.965912082298
71.38775 219.996650480714
71.40786 246.964537704455
71.42798 243.003431030296
71.44809 241.010950202262
71.4682 217
71.48832 256.012699277784
71.50843 229.961418113235
71.52855 234.061744160834
71.54866 250.02678102579
71.56877 221.015121032776
71.58889 241.985189299595
71.609 261
71.62911 257.987174058372
71.64923 231.003202890503
71.66934 255.016775315151
71.68946 236.041190836803
71.70957 237.965014891616
71.72968 267.97732267756
71.7498 271
71.76991 249.992755172665
71.79002 252.016763692774
71.81014 259.954484592862
71.83025 227.993095610224
71.85037 256.000189815113
71.87048 231.990115840643
71.89059 275.989955277595
71.91071 250.983279566618
71.93082 235.994366766736
71.95093 239.030308011422
71.97105 260.998692984947
71.99116 235.059791049901
72.01127 237.922644091811
72.03139 294.998822289807
72.0515 246
72.07162 257.03218845599
72.09173 270.974150887644
72.11184 243.995571947049
72.13196 267.966065715811
72.15207 252.06279807302
72.17218 220.989682073652
72.1923 257
72.21241 241.99563240688
72.23253 247.989252873855
72.25264 228.99691553893
72.27275 258.885497263755
72.29287 282.035555808856
72.31298 239.010352356884
72.33309 264.992916184298
72.35321 246.988804464043
72.37332 242.006821595659
72.39344 252.020120436772
72.41355 253.971739068104
72.43366 240.001223176874
72.45378 258.971249516919
72.47389 273.007959644075
72.494 248
72.51412 273.007163974875
72.53423 254.9848341962
72.55434 264.013099298208
72.57446 252.04972315328
72.59457 232.999306056778
72.61469 252.98709064372
72.6348 267
72.65491 263.006584697918
72.67503 276.969129801361
72.69514 234.970642931138
72.71525 257.943867261135
72.73537 259.005267250002
72.75548 265.984511983057
72.7756 280
72.79571 269.989818659464
72.81582 261.020567058473
72.83594 291.001666804184
72.85605 261.059289100603
72.87616 263.972916567559
72.89628 269.006618343908
72.91639 264.992016291217
72.9365 295
72.95662 292.986391076633
72.97673 276.970588089875
72.99685 269.051199312089
73.01696 298.993486978332
73.03707 280.996884031521
73.05719 303.998425931954
73.0773 279
73.09741 279.00234748636
73.11753 284.025153869502
73.13764 312.053684986365
73.15776 323.015691301758
73.17787 311.993452289593
73.19798 329.988851244361
73.2181 330
73.23821 348.011647225491
73.25832 358.988524038824
73.27844 346.033258378287
73.29855 392.885045075102
73.31867 427.934366907795
73.33878 477.967328087845
73.35889 480.009548409682
73.37901 465.002495030578
73.39912 489.026064411136
73.41923 493.965842373128
73.43935 451.885960259835
73.45946 420.030439082907
73.47957 412.018660116199
73.49969 396.003306916827
73.5198 393
73.53992 371.003393225948
73.56003 403.051450526986
73.58014 411.963298773593
73.60026 384.03476405689
73.62037 385.984195235699
73.64048 395.988992394487
73.6606 388
73.68071 320.979780546503
73.70083 315.993285046128
73.72094 302.003078010505
73.74105 321.959829511734
73.76117 315.040601420414
73.78128 287.012140146791
73.80139 283.009988393515
73.82151 271.022192934116
73.84162 330.985782758435
73.86174 256.940776870328
73.88185 296.07243641454
73.90196 273.076742141046
73.92208 254.000820112836
73.94219 260.997136104536
73.9623 259
73.98242 259.016981659744
74.00253 271.96707487598
74.02264 234.997967876099
74.04276 273.936652798638
74.06287 265.054525437148
74.08299 237.996785725414
74.1031 270
74.12321 269.993594331245
74.14333 259.993907587277
74.16344 261.004479877873
74.18355 258.026981224266
74.20367 246.005671735997
74.22378 261.962244924733
74.2439 292
74.26401 251.986293634234
74.28412 261.027269699318
74.30424 272.961912322282
74.32435 243.011678270147
74.34446 268.948202790194
74.36458 276.997346909456
74.38469 281.000326615255
74.40481 270.991029958108
74.42492 260.009753122942
74.44503 273.981898739353
74.46515 248.006427080278
74.48526 273.002314890438
74.50537 238.041755401686
74.52549 241.990084448837
74.5456 254
74.56571 249.008137518234
74.58583 272.993106426457
74.60594 243.973861665629
74.62606 253.005604003752
74.64617 233.012757843222
74.66628 246.981222608247
74.6864 261
74.70651 270.992490365556
74.72662 245.998302732385
74.74674 272.049873856143
74.76685 276.021447352832
74.78697 268.004010318268
74.80708 261.025519700581
74.82719 233.998327520692
74.84731 263.008998152642
74.86742 250.97529594069
74.88753 234.995887232095
74.90765 249.074618995218
74.92776 272.012676938897
74.94787 251.993671566292
74.96799 278.994940689661
74.9881 260
75.00822 256.00442660574
