3.00117 19784
3.02128 19007
3.0414 18729
3.06151 18045
3.08162 17639
3.10174 17376
3.12185 16681
3.14197 16477
3.16208 15702
3.18219 15467
3.20231 15142
3.22242 14049
3.24253 14264
3.26265 13566
3.28276 13031
3.30288 12666
3.32299 12373
3.3431 11823
3.36322 11424
3.38333 11164
3.40344 10907
3.42356 10429
3.44367 10221
3.46379 9858
3.4839 9445
3.50401 8993
3.52413 8482
3.54424 8484
3.56435 7988
3.58447 7686
3.60458 7635
3.62469 7149
3.64481 7113
3.66492 6650
3.68504 6625
3.70515 6076
3.72526 5779
3.74538 5862
3.76549 5502
3.7856 5267
3.80572 4878
3.82583 4666
3.84595 4608
3.86606 4370
3.88617 4205
3.90629 4023
3.9264 3765
3.94651 3809
3.96663 3420
3.98674 3407
4.00686 3187
4.02697 2943
4.04708 2951
4.0672 2769
4.08731 2654
4.10742 2556
4.12754 2319
4.14765 2396
4.16776 2314
4.18788 2127
4.20799 2083
4.22811 1890
4.24822 1858
4.26833 1819
4.28845 1802
4.30856 1644
4.32867 1546
4.34879 1648
4.3689 1634
4.38902 1396
4.40913 1404
4.42924 1353
4.44936 1476
4.46947 1320
4.48958 1299
4.5097 1262
4.52981 1259
4.54992 1209
4.57004 1236
4.59015 1050
4.61027 1118
4.63038 1090
4.65049 1057
4.67061 1101
4.69072 905
4.71083 1049
4.73095 1003
4.75106 949
4.77118 1004
4.79129 850
4.8114 882
4.83152 799
4.85163 864
4.87174 809
4.89186 798
4.91197 736
4.93209 735
4.9522 703
4.97231 768
4.99243 682
5.01254 703
5.03265 675
5.05277 675
5.07288 668
5.09299 652
5.11311 583
5.13322 577
5.15334 564
5.17345 605
5.19356 493
5.21368 546
5.23379 500
5.2539 531
5.27402 536
5.29413 522
5.31425 447
5.33436 423
5.35447 464
5.37459 472
5.3947 409
5.41481 413
5.43493 436
5.45504 379
5.47516 363
5.49527 392
5.51538 402
5.5355 390
5.55561 382
5.57572 324
5.59584 340
5.61595 285
5.63606 334
5.65618 318
5.67629 306
5.69641 306
5.71652 315
5.73663 282
5.75675 268
5.77686 303
5.79697 293
5.81709 257
5.8372 292
5.85732 278
5.87743 250
5.89754 295
5.91766 288
5.93777 266
5.95788 254
5.978 249
5.99811 274
6.01823 271
6.03834 240
6.05845 253
6.07857 246
6.09868 243
6.11879 236
6.13891 236
6.15902 240
6.17913 211
6.19925 256
6.21936 229
6.23948 240
6.25959 215
6.2797 208
6.29982 211
6.31993 197
6.34004 204
6.36016 213
6.38027 198
6.40039 209
6.4205 214
6.44061 207
6.46073 198
6.48084 227
6.50095 184
6.52107 210
6.54118 172
6.56129 220
6.58141 190
6.60152 249
6.62164 200
6.64175 217
6.66186 192
6.68198 199
6.70209 225
6.7222 224
6.74232 228
6.76243 196
6.78255 201
6.80266 177
6.82277 197
6.84289 192
6.863 230
6.88311 191
6.90323 201
6.92334 196
6.94346 218
6.96357 218
6.98368 177
7.0038 201
7.02391 198
7.04402 170
7.06414 194
7.08425 178
7.10436 204
7.12448 174
7.14459 223
7.16471 176
7.18482 232
7.20493 193
7.22505 192
7.24516 189
7.26527 179
7.28539 228
7.3055 210
7.32562 183
7.34573 209
7.36584 205
7.38596 183
7.40607 252
7.42618 182
7.4463 194
7.46641 203
7.48653 182
7.50664 213
7.52675 196
7.54687 194
7.56698 209
7.58709 191
7.60721 221
7.62732 235
7.64743 207
7.66755 207
7.68766 201
7.70778 202
7.72789 164
7.748 209
7.76812 206
7.78823 223
7.80834 199
7.82846 201
7.84857 207
7.86869 190
7.8888 219
7.90891 204
7.92903 195
7.94914 219
7.96925 196
7.98937 225
8.00948 230
8.0296 214
8.04971 221
8.06982 205
8.08994 219
8.11005 207
8.13016 223
8.15028 207
8.17039 231
8.1905 201
8.21062 248
8.23073 218
8.25085 200
8.27096 203
8.29107 247
8.31119 228
8.3313 219
8.35141 223
8.37153 213
8.39164 203
8.41176 224
8.43187 233
8.45198 232
8.4721 228
8.49221 269
8.51232 196
8.53244 239
8.55255 264
8.57266 248
8.59278 219
8.61289 222
8.63301 191
8.65312 211
8.67323 249
8.69335 229
8.71346 265
8.73357 235
8.75369 257
8.7738 251
8.79392 254
8.81403 257
8.83414 257
8.85426 219
8.87437 257
8.89448 237
8.9146 241
8.93471 238
8.95483 225
8.97494 224
8.99505 232
9.01517 263
9.03528 213
9.05539 198
9.07551 235
9.09562 201
9.11573 195
9.13585 236
9.15596 210
9.17608 214
9.19619 246
9.2163 239
9.23642 202
9.25653 212
9.27664 200
9.29676 234
9.31687 219
9.33699 239
9.3571 214
9.37721 265
9.39733 231
9.41744 265
9.43755 226
9.45767 216
9.47778 222
9.4979 240
9.51801 205
9.53812 255
9.55824 215
9.57835 222
9.59846 203
9.61858 213
9.63869 244
9.6588 227
9.67892 229
9.69903 230
9.71915 221
9.73926 219
9.75937 203
9.77949 216
9.7996 235
9.81971 202
9.83983 240
9.85994 199
9.88006 210
9.90017 244
9.92028 212
9.9404 236
9.96051 204
9.98062 240
10.00074 243
10.02085 208
10.04097 208
10.06108 227
10.08119 229
10.10131 222
10.12142 224
10.14153 238
10.16165 210
10.18176 215
10.20187 229
10.22199 197
10.2421 220
10.26222 225
10.28233 230
10.30244 209
10.32256 247
10.34267 204
10.36278 217
10.3829 213
10.40301 222
10.42313 237
10.44324 217
10.46335 223
10.48347 221
10.50358 250
10.52369 217
10.54381 219
10.56392 215
10.58403 230
10.60415 221
10.62426 239
10.64438 200
10.66449 235
10.6846 238
10.70472 219
10.72483 244
10.74494 217
10.76506 230
10.78517 237
10.80529 227
10.8254 254
10.84551 241
10.86563 242
10.88574 233
10.90585 245
10.92597 218
10.94608 216
10.9662 181
10.98631 263
11.00642 212
11.02654 228
11.04665 256
11.06676 227
11.08688 238
11.10699 216
11.1271 213
11.14722 232
11.16733 211
11.18745 244
11.20756 226
11.22767 221
11.24779 245
11.2679 231
11.28801 202
11.30813 204
11.32824 210
11.34836 210
11.36847 234
11.38858 215
11.4087 191
11.42881 226
11.44892 220
11.46904 228
11.48915 219
11.50927 238
11.52938 183
11.54949 253
11.56961 211
11.58972 227
11.60983 226
11.62995 218
11.65006 221
11.67017 227
11.69029 216
11.7104 253
11.73052 198
11.75063 231
11.77074 223
11.79086 214
11.81097 193
11.83108 228
11.8512 221
11.87131 235
11.89143 239
11.91154 224
11.93165 229
11.95177 253
11.97188 227
11.99199 214
12.01211 217
12.03222 237
12.05234 183
12.07245 202
12.09256 220
12.11268 228
12.13279 220
12.1529 270
12.17302 240
12.19313 257
12.21324 225
12.23336 245
12.25347 210
12.27359 259
12.2937 236
12.31381 235
12.33393 249
12.35404 244
12.37415 240
12.39427 220
12.41438 223
12.4345 252
12.45461 269
12.47472 232
12.49484 232
12.51495 210
12.53506 220
12.55518 203
12.57529 181
12.5954 214
12.61552 232
12.63563 229
12.65575 215
12.67586 219
12.69597 201
12.71609 217
12.7362 206
12.75631 215
12.77643 200
12.79654 226
12.81666 201
12.83677 226
12.85688 219
12.877 185
12.89711 211
12.91722 209
12.93734 205
12.95745 183
12.97757 210
12.99768 224
13.01779 216
13.03791 225
13.05802 209
13.07813 215
13.09825 259
13.11836 277
13.13847 259
13.15859 273
13.1787 224
13.19882 241
13.21893 218
13.23904 227
13.25916 240
13.27927 234
13.29938 229
13.3195 253
13.33961 231
13.35973 240
13.37984 200
13.39995 218
13.42007 234
13.44018 242
13.46029 223
13.48041 216
13.50052 206
13.52064 253
13.54075 248
13.56086 272
13.58098 306
13.60109 335
13.6212 363
13.64132 355
13.66143 359
13.68154 378
13.70166 295
13.72177 279
13.74189 273
13.762 225
13.78211 229
13.80223 261
13.82234 272
13.84245 228
13.86257 237
13.88268 243
13.9028 232
13.92291 262
13.94302 221
13.96314 197
13.98325 220
14.00336 196
14.02348 223
14.04359 221
14.06371 183
14.08382 195
14.10393 200
14.12405 186
14.14416 195
14.16427 194
14.18439 213
14.2045 222
14.22461 184
14.24473 169
14.26484 187
14.28496 165
14.30507 172
14.32518 177
14.3453 184
14.36541 204
14.38552 175
14.40564 174
14.42575 195
14.44587 186
14.46598 176
14.48609 175
14.50621 211
14.52632 175
14.54643 185
14.56655 186
14.58666 176
14.60677 203
14.62689 170
14.647 173
14.66712 176
14.68723 163
14.70734 180
14.72746 194
14.74757 182
14.76768 226
14.7878 195
14.80791 218
14.82803 208
14.84814 210
14.86825 198
14.88837 225
14.90848 228
14.92859 278
14.94871 239
14.96882 267
14.98894 244
15.00905 234
15.02916 257
15.04928 260
15.06939 227
15.0895 221
15.10962 204
15.12973 211
15.14984 229
15.16996 220
15.19007 185
15.21019 220
15.2303 229
15.25041 238
15.27053 201
15.29064 176
15.31075 179
15.33087 186
15.35098 174
15.3711 185
15.39121 185
15.41132 186
15.43144 173
15.45155 191
15.47166 160
15.49178 179
15.51189 186
15.53201 158
15.55212 177
15.57223 201
15.59235 171
15.61246 178
15.63257 194
15.65269 195
15.6728 174
15.69291 164
15.71303 214
15.73314 192
15.75326 197
15.77337 199
15.79348 191
15.8136 203
15.83371 174
15.85382 185
15.87394 186
15.89405 173
15.91417 196
15.93428 192
15.95439 170
15.97451 189
15.99462 156
16.01473 169
16.03485 155
16.05496 165
16.07508 165
16.09519 183
16.1153 165
16.13542 184
16.15553 171
16.17564 175
16.19576 180
16.21587 175
16.23598 180
16.2561 197
16.27621 161
16.29633 154
16.31644 139
16.33655 194
16.35667 137
16.37678 195
16.39689 175
16.41701 177
16.43712 162
16.45724 175
16.47735 179
16.49746 157
16.51758 175
16.53769 179
16.5578 163
16.57792 162
16.59803 163
16.61814 170
16.63826 168
16.65837 152
16.67849 162
16.6986 162
16.71871 154
16.73883 162
16.75894 173
16.77905 183
16.79917 169
16.81928 161
16.8394 166
16.85951 160
16.87962 146
16.89974 147
16.91985 167
16.93996 148
16.96008 174
16.98019 152
17.00031 156
17.02042 179
17.04053 181
17.06065 187
17.08076 187
17.10087 175
17.12099 160
17.1411 185
17.16121 151
17.18133 174
17.20144 164
17.22156 170
17.24167 165
17.26178 151
17.2819 150
17.30201 157
17.32212 182
17.34224 165
17.36235 154
17.38247 177
17.40258 173
17.42269 164
17.44281 154
17.46292 156
17.48303 167
17.50315 151
17.52326 160
17.54338 150
17.56349 165
17.5836 163
17.60372 172
17.62383 183
17.64394 180
17.66406 168
17.68417 153
17.70428 173
17.7244 188
17.74451 176
17.76463 179
17.78474 175
17.80485 188
17.82497 158
17.84508 163
17.86519 143
17.88531 137
17.90542 144
17.92554 179
17.94565 160
17.96576 161
17.98588 171
18.00599 154
18.0261 183
18.04622 168
18.06633 186
18.08645 164
18.10656 179
18.12667 154
18.14679 145
18.1669 168
18.18701 162
18.20713 176
18.22724 179
18.24735 161
18.26747 138
18.28758 191
18.3077 174
18.32781 175
18.34792 189
18.36804 181
18.38815 155
18.40826 184
18.42838 170
18.44849 181
18.46861 157
18.48872 179
18.50883 137
18.52895 140
18.54906 162
18.56917 149
18.58929 186
18.6094 150
18.62951 153
18.64963 158
18.66974 152
18.68986 166
18.70997 181
18.73008 178
18.7502 173
18.77031 166
18.79042 166
18.81054 200
18.83065 207
18.85077 182
18.87088 174
18.89099 153
18.91111 173
18.93122 162
18.95133 176
18.97145 167
18.99156 192
19.01168 169
19.03179 188
19.0519 185
19.07202 178
19.09213 178
19.11224 167
19.13236 180
19.15247 184
19.17258 176
19.1927 165
19.21281 184
19.23293 224
19.25304 206
19.27315 218
19.29327 183
19.31338 207
19.33349 222
19.35361 194
19.37372 190
19.39384 227
19.41395 193
19.43406 172
19.45418 222
19.47429 175
19.4944 193
19.51452 198
19.53463 183
19.55475 193
19.57486 219
19.59497 233
19.61509 237
19.6352 242
19.65531 194
19.67543 217
19.69554 228
19.71565 220
19.73577 266
19.75588 256
19.776 279
19.79611 271
19.81622 265
19.83634 259
19.85645 273
19.87656 255
19.89668 250
19.91679 262
19.93691 251
19.95702 243
19.97713 255
19.99725 266
20.01736 280
20.03747 266
20.05759 267
20.0777 272
20.09782 248
20.11793 238
20.13804 255
20.15816 253
20.17827 277
20.19838 263
20.2185 278
20.23861 312
20.25872 285
20.27884 282
20.29895 311
20.31907 294
20.33918 316
20.35929 306
20.37941 321
20.39952 310
20.41963 299
20.43975 322
20.45986 314
20.47998 360
20.50009 336
20.5202 344
20.54032 354
20.56043 371
20.58054 373
20.60066 396
20.62077 423
20.64088 478
20.661 597
20.68111 697
20.70123 904
20.72134 1225
20.74145 1653
20.76157 2307
20.78168 3184
20.80179 4003
20.82191 4760
20.84202 5155
20.86214 5138
20.88225 4415
20.90236 3487
20.92248 2674
20.94259 2069
20.9627 1591
20.98282 1395
21.00293 1210
21.02305 1120
21.04316 931
21.06327 836
21.08339 728
21.1035 566
21.12361 499
21.14373 462
21.16384 441
21.18395 362
21.20407 311
21.22418 301
21.2443 323
21.26441 291
21.28452 313
21.30464 279
21.32475 267
21.34486 285
21.36498 277
21.38509 279
21.40521 292
21.42532 231
21.44543 264
21.46555 240
21.48566 270
21.50577 251
21.52589 270
21.546 232
21.56612 264
21.58623 224
21.60634 247
21.62646 246
21.64657 203
21.66668 242
21.6868 247
21.70691 264
21.72702 240
21.74714 222
21.76725 258
21.78737 238
21.80748 259
21.82759 232
21.84771 243
21.86782 271
21.88793 288
21.90805 277
21.92816 314
21.94828 320
21.96839 391
21.9885 415
22.00862 434
22.02873 450
22.04884 432
22.06896 400
22.08907 373
22.10919 346
22.1293 299
22.14941 276
22.16953 292
22.18964 278
22.20975 278
22.22987 304
22.24998 349
22.27009 325
22.29021 410
22.31032 421
22.33044 411
22.35055 388
22.37066 416
22.39078 404
22.41089 388
22.431 379
22.45112 353
22.47123 353
22.49135 315
22.51146 336
22.53157 306
22.55169 360
22.5718 304
22.59191 295
22.61203 313
22.63214 281
22.65225 323
22.67237 292
22.69248 276
22.7126 277
22.73271 267
22.75282 220
22.77294 249
22.79305 233
22.81316 249
22.83328 260
22.85339 233
22.87351 259
22.89362 278
22.91373 286
22.93385 290
22.95396 326
22.97407 326
22.99419 369
23.0143 382
23.03442 371
23.05453 379
23.07464 390
23.09476 404
23.11487 431
23.13498 487
23.1551 489
23.17521 504
23.19532 555
23.21544 598
23.23555 533
23.25567 535
23.27578 484
23.29589 425
23.31601 418
23.33612 379
23.35623 410
23.37635 366
23.39646 390
23.41658 369
23.43669 387
23.4568 444
23.47692 449
23.49703 465
23.51714 484
23.53726 447
23.55737 443
23.57749 459
23.5976 452
23.61771 394
23.63783 408
23.65794 419
23.67805 370
23.69817 344
23.71828 376
23.73839 374
23.75851 399
23.77862 408
23.79874 422
23.81885 443
23.83896 421
23.85908 451
23.87919 465
23.8993 473
23.91942 524
23.93953 539
23.95965 524
23.97976 519
23.99987 514
24.01999 469
24.0401 390
24.06021 373
24.08033 380
24.10044 323
24.12056 341
24.14067 372
24.16078 371
24.1809 401
24.20101 440
24.22112 396
24.24124 440
24.26135 489
24.28146 471
24.30158 417
24.32169 441
24.34181 391
24.36192 407
24.38203 374
24.40215 361
24.42226 344
24.44237 288
24.46249 283
24.4826 295
24.50272 274
24.52283 277
24.54294 289
24.56306 332
24.58317 296
24.60328 281
24.6234 386
24.64351 320
24.66362 323
24.68374 310
24.70385 353
24.72397 311
24.74408 368
24.76419 318
24.78431 326
24.80442 326
24.82453 275
24.84465 348
24.86476 298
24.88488 295
24.90499 320
24.9251 324
24.94522 299
24.96533 264
24.98544 296
25.00556 259
25.02567 277
25.04579 248
25.0659 257
25.08601 256
25.10613 257
25.12624 249
25.14635 242
25.16647 262
25.18658 251
25.20669 279
25.22681 267
25.24692 294
25.26704 280
25.28715 278
25.30726 299
25.32738 265
25.34749 295
25.3676 340
25.38772 373
25.40783 380
25.42795 478
25.44806 511
25.46817 577
25.48829 646
25.5084 710
25.52851 742
25.54863 806
25.56874 913
25.58886 854
25.60897 887
25.62908 846
25.6492 849
25.66931 764
25.68942 654
25.70954 618
25.72965 555
25.74976 449
25.76988 438
25.78999 400
25.81011 398
25.83022 389
25.85033 371
25.87045 402
25.89056 387
25.91067 376
25.93079 400
25.9509 434
25.97102 418
25.99113 447
26.01124 436
26.03136 444
26.05147 457
26.07158 458
26.0917 489
26.11181 486
26.13193 530
26.15204 575
26.17215 594
26.19227 625
26.21238 689
26.23249 756
26.25261 814
26.27272 852
26.29283 963
26.31295 1023
26.33306 1182
26.35318 1351
26.37329 1541
26.3934 1781
26.41352 2020
26.43363 2626
26.45374 3142
26.47386 4381
26.49397 5599
26.51409 7802
26.5342 10780
26.55431 14572
26.57443 18973
26.59454 21805
26.61465 23525
26.63477 23018
26.65488 19858
26.67499 16134
26.69511 11974
26.71522 8479
26.73534 5691
26.75545 3581
26.77556 2260
26.79568 1634
26.81579 1465
26.8359 1319
26.85602 1282
26.87613 1107
26.89625 1112
26.91636 1092
26.93647 1144
26.95659 1145
26.9767 1232
26.99681 1219
27.01693 1280
27.03704 1358
27.05716 1281
27.07727 1219
27.09738 1114
27.1175 981
27.13761 963
27.15772 881
27.17784 814
27.19795 701
27.21806 749
27.23818 814
27.25829 866
27.27841 854
27.29852 1002
27.31863 1038
27.33875 1139
27.35886 1282
27.37897 1450
27.39909 1707
27.4192 1823
27.43932 2030
27.45943 1974
27.47954 1932
27.49966 1798
27.51977 1657
27.53988 1367
27.56 1177
27.58011 956
27.60023 821
27.62034 725
27.64045 590
27.66057 592
27.68068 605
27.70079 615
27.72091 600
27.74102 574
27.76113 559
27.78125 584
27.80136 570
27.82148 560
27.84159 671
27.8617 690
27.88182 677
27.90193 701
27.92204 731
27.94216 681
27.96227 644
27.98239 626
28.0025 497
28.02261 493
28.04273 426
28.06284 452
28.08295 423
28.10307 434
28.12318 421
28.1433 411
28.16341 446
28.18352 424
28.20364 395
28.22375 392
28.24386 333
28.26398 344
28.28409 300
28.3042 335
28.32432 305
28.34443 285
28.36455 273
28.38466 279
28.40477 265
28.42489 278
28.445 256
28.46511 255
28.48523 251
28.50534 235
28.52546 237
28.54557 248
28.56568 238
28.5858 250
28.60591 242
28.62602 231
28.64614 236
28.66625 222
28.68636 240
28.70648 238
28.72659 216
28.74671 236
28.76682 241
28.78693 232
28.80705 258
28.82716 219
28.84727 230
28.86739 215
28.8875 240
28.90762 237
28.92773 237
28.94784 222
28.96796 236
28.98807 238
29.00818 236
29.0283 256
29.04841 242
29.06853 242
29.08864 238
29.10875 265
29.12887 250
29.14898 260
29.16909 235
29.18921 247
29.20932 259
29.22943 268
29.24955 279
29.26966 226
29.28978 269
29.30989 304
29.33 312
29.35012 334
29.37023 383
29.39034 364
29.41046 389
29.43057 422
29.45069 415
29.4708 393
29.49091 433
29.51103 407
29.53114 420
29.55125 399
29.57137 355
29.59148 386
29.6116 304
29.63171 322
29.65182 320
29.67194 318
29.69205 323
29.71216 331
29.73228 317
29.75239 356
29.7725 349
29.79262 358
29.81273 360
29.83285 357
29.85296 367
29.87307 399
29.89319 351
29.9133 333
29.93341 350
29.95353 383
29.97364 405
29.99376 416
30.01387 431
30.03398 424
30.0541 437
30.07421 511
30.09432 495
30.11444 512
30.13455 530
30.15467 548
30.17478 531
30.19489 495
30.21501 488
30.23512 455
30.25523 405
30.27535 403
30.29546 343
30.31557 356
30.33569 278
30.3558 351
30.37592 281
30.39603 348
30.41614 312
30.43626 334
30.45637 309
30.47648 367
30.4966 322
30.51671 348
30.53683 310
30.55694 357
30.57705 333
30.59717 369
30.61728 344
30.63739 391
30.65751 441
30.67762 473
30.69773 516
30.71785 552
30.73796 518
30.75808 536
30.77819 531
30.7983 565
30.81842 496
30.83853 492
30.85864 455
30.87876 430
30.89887 422
30.91899 357
30.9391 341
30.95921 279
30.97933 275
30.99944 263
31.01955 237
31.03967 240
31.05978 230
31.0799 219
31.10001 239
31.12012 227
31.14024 223
31.16035 237
31.18046 245
31.20058 251
31.22069 230
31.2408 230
31.26092 213
31.28103 239
31.30115 230
31.32126 197
31.34137 220
31.36149 203
31.3816 206
31.40171 224
31.42183 198
31.44194 212
31.46206 212
31.48217 198
31.50228 170
31.5224 201
31.54251 187
31.56262 171
31.58274 184
31.60285 220
31.62297 175
31.64308 194
31.66319 184
31.68331 181
31.70342 180
31.72353 211
31.74365 189
31.76376 220
31.78387 197
31.80399 176
31.8241 184
31.84422 197
31.86433 182
31.88444 198
31.90456 188
31.92467 203
31.94478 217
31.9649 211
31.98501 201
32.00513 235
32.02524 234
32.04535 238
32.06547 245
32.08558 227
32.10569 243
32.12581 274
32.14592 276
32.16604 227
32.18615 253
32.20626 254
32.22638 262
32.24649 256
32.2666 279
32.28672 264
32.30683 312
32.32694 251
32.34706 273
32.36717 294
32.38729 288
32.4074 300
32.42751 314
32.44763 274
32.46774 279
32.48785 252
32.50797 246
32.52808 239
32.5482 244
32.56831 192
32.58842 226
32.60854 203
32.62865 180
32.64876 173
32.66888 215
32.68899 193
32.7091 204
32.72922 180
32.74933 175
32.76945 182
32.78956 171
32.80967 192
32.82979 191
32.8499 212
32.87001 174
32.89013 162
32.91024 168
32.93036 175
32.95047 182
32.97058 178
32.9907 181
33.01081 183
33.03092 209
33.05104 200
33.07115 153
33.09127 173
33.11138 195
33.13149 216
33.15161 176
33.17172 220
33.19183 192
33.21195 184
33.23206 174
33.25217 190
33.27229 214
33.2924 183
33.31252 163
33.33263 180
33.35274 183
33.37286 202
33.39297 191
33.41308 178
33.4332 172
33.45331 147
33.47343 191
33.49354 161
33.51365 185
33.53377 177
33.55388 167
33.57399 189
33.59411 170
33.61422 173
33.63434 188
33.65445 202
33.67456 211
33.69468 200
33.71479 170
33.7349 166
33.75502 191
33.77513 158
33.79524 197
33.81536 184
33.83547 199
33.85559 196
33.8757 204
33.89581 212
33.91593 202
33.93604 229
33.95615 217
33.97627 228
33.99638 193
34.0165 220
34.03661 234
34.05672 235
34.07684 251
34.09695 257
34.11706 321
34.13718 312
34.15729 311
34.17741 278
34.19752 329
34.21763 345
34.23775 348
34.25786 343
34.27797 326
34.29809 295
34.3182 291
34.33831 286
34.35843 339
34.37854 292
34.39866 287
34.41877 311
34.43888 295
34.459 266
34.47911 308
34.49922 289
34.51934 321
34.53945 323
34.55957 289
34.57968 321
34.59979 333
34.61991 311
34.64002 304
34.66013 330
34.68025 292
34.70036 311
34.72047 313
34.74059 315
34.7607 290
34.78082 314
34.80093 318
34.82104 338
34.84116 338
34.86127 349
34.88138 348
34.9015 358
34.92161 392
34.94173 426
34.96184 417
34.98195 389
35.00207 427
35.02218 370
35.04229 378
35.06241 373
35.08252 366
35.10264 347
35.12275 357
35.14286 315
35.16298 344
35.18309 320
35.2032 329
35.22332 298
35.24343 327
35.26354 303
35.28366 286
35.30377 330
35.32389 358
35.344 338
35.36411 303
35.38423 332
35.40434 354
35.42445 330
35.44457 383
35.46468 363
35.4848 368
35.50491 324
35.52502 372
35.54514 340
35.56525 351
35.58536 312
35.60548 296
35.62559 303
35.64571 310
35.66582 323
35.68593 261
35.70605 261
35.72616 236
35.74627 262
35.76639 243
35.7865 260
35.80661 254
35.82673 257
35.84684 242
35.86696 239
35.88707 241
35.90718 210
35.9273 210
35.94741 215
35.96752 218
35.98764 198
36.00775 213
36.02787 225
36.04798 215
36.06809 219
36.08821 237
36.10832 259
36.12843 263
36.14855 270
36.16866 252
36.18878 235
36.20889 228
36.229 255
36.24912 253
36.26923 294
36.28934 311
36.30946 329
36.32957 400
36.34968 409
36.3698 534
36.38991 641
36.41003 790
36.43014 965
36.45025 1170
36.47037 1447
36.49048 1640
36.51059 1663
36.53071 1606
36.55082 1449
36.57094 1253
36.59105 1142
36.61116 921
36.63128 798
36.65139 621
36.6715 509
36.69162 383
36.71173 318
36.73184 309
36.75196 293
36.77207 274
36.79219 284
36.8123 280
36.83241 288
36.85253 306
36.87264 269
36.89275 299
36.91287 288
36.93298 287
36.9531 321
36.97321 258
36.99332 262
37.01344 317
37.03355 246
37.05366 314
37.07378 272
37.09389 242
37.11401 234
37.13412 232
37.15423 261
37.17435 241
37.19446 246
37.21457 220
37.23469 238
37.2548 199
37.27491 231
37.29503 218
37.31514 194
37.33526 218
37.35537 243
37.37548 251
37.3956 225
37.41571 203
37.43582 231
37.45594 222
37.47605 233
37.49617 211
37.51628 201
37.53639 247
37.55651 235
37.57662 223
37.59673 231
37.61685 239
37.63696 247
37.65708 217
37.67719 225
37.6973 211
37.71742 202
37.73753 209
37.75764 224
37.77776 196
37.79787 207
37.81798 218
37.8381 182
37.85821 192
37.87833 207
37.89844 201
37.91855 184
37.93867 194
37.95878 206
37.97889 196
37.99901 186
38.01912 197
38.03924 180
38.05935 192
38.07946 184
38.09958 195
38.11969 206
38.1398 195
38.15992 200
38.18003 171
38.20015 184
38.22026 192
38.24037 179
38.26049 198
38.2806 222
38.30071 194
38.32083 225
38.34094 193
38.36105 211
38.38117 215
38.40128 226
38.4214 224
38.44151 258
38.46162 260
38.48174 221
38.50185 262
38.52196 303
38.54208 268
38.56219 286
38.58231 254
38.60242 229
38.62253 247
38.64265 238
38.66276 236
38.68287 217
38.70299 216
38.7231 224
38.74321 211
38.76333 214
38.78344 198
38.80356 201
38.82367 209
38.84378 214
38.8639 207
38.88401 219
38.90412 203
38.92424 210
38.94435 219
38.96447 207
38.98458 194
39.00469 204
39.02481 216
39.04492 222
39.06503 206
39.08515 206
39.10526 252
39.12538 218
39.14549 243
39.1656 270
39.18572 260
39.20583 272
39.22594 306
39.24606 331
39.26617 411
39.28628 455
39.3064 566
39.32651 676
39.34663 841
39.36674 1063
39.38685 1213
39.40697 1430
39.42708 1536
39.44719 1428
39.46731 1419
39.48742 1238
39.50754 1085
39.52765 957
39.54776 788
39.56788 684
39.58799 565
39.6081 387
39.62822 331
39.64833 287
39.66845 207
39.68856 188
39.70867 215
39.72879 208
39.7489 193
39.76901 186
39.78913 214
39.80924 225
39.82935 205
39.84947 193
39.86958 220
39.8897 213
39.90981 199
39.92992 206
39.95004 210
39.97015 245
39.99026 238
40.01038 236
40.03049 241
40.05061 265
40.07072 266
40.09083 323
40.11095 331
40.13106 419
40.15117 507
40.17129 558
40.1914 613
40.21152 730
40.23163 818
40.25174 785
40.27186 859
40.29197 787
40.31208 674
40.3322 643
40.35231 532
40.37242 516
40.39254 403
40.41265 362
40.43277 300
40.45288 269
40.47299 232
40.49311 225
40.51322 190
40.53333 205
40.55345 208
40.57356 205
40.59368 199
40.61379 217
40.6339 193
40.65402 182
40.67413 208
40.69424 194
40.71436 183
40.73447 204
40.75458 203
40.7747 198
40.79481 180
40.81493 165
40.83504 191
40.85515 172
40.87527 187
40.89538 199
40.91549 188
40.93561 199
40.95572 214
40.97584 183
40.99595 209
41.01606 183
41.03618 192
41.05629 205
41.0764 196
41.09652 190
41.11663 169
41.13675 205
41.15686 189
41.17697 179
41.19709 187
41.2172 185
41.23731 189
41.25743 192
41.27754 194
41.29765 187
41.31777 185
41.33788 203
41.358 213
41.37811 201
41.39822 213
41.41834 225
41.43845 213
41.45856 202
41.47868 224
41.49879 240
41.51891 230
41.53902 230
41.55913 261
41.57925 267
41.59936 272
41.61947 296
41.63959 342
41.6597 341
41.67982 376
41.69993 453
41.72004 414
41.74016 487
41.76027 459
41.78038 500
41.8005 498
41.82061 440
41.84072 434
41.86084 382
41.88095 352
41.90107 329
41.92118 333
41.94129 291
41.96141 255
41.98152 256
42.00163 243
42.02175 265
42.04186 235
42.06198 225
42.08209 226
42.1022 210
42.12232 232
42.14243 245
42.16254 253
42.18266 247
42.20277 307
42.22289 318
42.243 342
42.26311 411
42.28323 486
42.30334 569
42.32345 665
42.34357 847
42.36368 972
42.38379 1059
42.40391 1135
42.42402 1141
42.44414 1088
42.46425 960
42.48436 820
42.50448 763
42.52459 764
42.5447 638
42.56482 531
42.58493 405
42.60505 347
42.62516 322
42.64527 265
42.66539 255
42.6855 294
42.70561 296
42.72573 261
42.74584 244
42.76595 255
42.78607 237
42.80618 219
42.8263 238
42.84641 232
42.86652 213
42.88664 197
42.90675 208
42.92686 185
42.94698 184
42.96709 207
42.98721 197
43.00732 186
43.02743 192
43.04755 184
43.06766 199
43.08777 213
43.10789 204
43.128 206
43.14812 197
43.16823 193
43.18834 188
43.20846 192
43.22857 180
43.24868 202
43.2688 177
43.28891 182
43.30902 175
43.32914 185
43.34925 174
43.36937 176
43.38948 182
43.40959 187
43.42971 205
43.44982 183
43.46993 215
43.49005 202
43.51016 181
43.53028 208
43.55039 225
43.5705 211
43.59062 208
43.61073 190
43.63084 214
43.65096 162
43.67107 193
43.69119 181
43.7113 168
43.73141 196
43.75153 185
43.77164 180
43.79175 153
43.81187 153
43.83198 171
43.85209 186
43.87221 183
43.89232 190
43.91244 187
43.93255 169
43.95266 211
43.97278 186
43.99289 188
44.013 191
44.03312 166
44.05323 204
44.07335 202
44.09346 187
44.11357 184
44.13369 191
44.1538 174
44.17391 209
44.19403 227
44.21414 217
44.23426 170
44.25437 196
44.27448 195
44.2946 183
44.31471 182
44.33482 189
44.35494 176
44.37505 162
44.39516 186
44.41528 168
44.43539 189
44.45551 175
44.47562 167
44.49573 160
44.51585 164
44.53596 182
44.55607 171
44.57619 175
44.5963 152
44.61642 193
44.63653 189
44.65664 176
44.67676 194
44.69687 172
44.71698 160
44.7371 207
44.75721 173
44.77732 182
44.79744 172
44.81755 148
44.83767 180
44.85778 161
44.87789 188
44.89801 167
44.91812 171
44.93823 167
44.95835 173
44.97846 199
44.99858 183
45.01869 187
45.0388 200
45.05892 169
45.07903 199
45.09914 193
45.11926 194
45.13937 186
45.15949 201
45.1796 214
45.19971 208
45.21983 186
45.23994 185
45.26005 192
45.28017 207
45.30028 205
45.32039 207
45.34051 231
45.36062 221
45.38074 234
45.40085 228
45.42096 231
45.44108 243
45.46119 289
45.4813 278
45.50142 291
45.52153 311
45.54165 339
45.56176 328
45.58187 369
45.60199 366
45.6221 421
45.64221 490
45.66233 545
45.68244 630
45.70256 743
45.72267 796
45.74278 884
45.7629 847
45.78301 875
45.80312 708
45.82324 615
45.84335 559
45.86346 577
45.88358 532
45.90369 472
45.92381 380
45.94392 309
45.96403 248
45.98415 259
46.00426 257
46.02437 238
46.04449 236
46.0646 221
46.08472 227
46.10483 227
46.12494 197
46.14506 214
46.16517 205
46.18528 232
46.2054 252
46.22551 224
46.24563 220
46.26574 196
46.28585 193
46.30597 199
46.32608 183
46.34619 201
46.36631 178
46.38642 155
46.40653 157
46.42665 167
46.44676 175
46.46688 181
46.48699 173
46.5071 157
46.52722 172
46.54733 178
46.56744 171
46.58756 156
46.60767 163
46.62779 167
46.6479 158
46.66801 163
46.68813 163
46.70824 169
46.72835 173
46.74847 176
46.76858 182
46.78869 192
46.80881 170
46.82892 185
46.84904 159
46.86915 177
46.88926 178
46.90938 181
46.92949 176
46.9496 201
46.96972 209
46.98983 211
47.00995 186
47.03006 229
47.05017 249
47.07029 248
47.0904 234
47.11051 246
47.13063 222
47.15074 210
47.17086 221
47.19097 226
47.21108 218
47.2312 207
47.25131 209
47.27142 225
47.29154 180
47.31165 180
47.33176 199
47.35188 201
47.37199 229
47.39211 177
47.41222 195
47.43233 205
47.45245 193
47.47256 200
47.49267 177
47.51279 193
47.5329 211
47.55302 185
47.57313 183
47.59324 193
47.61336 173
47.63347 176
47.65358 164
47.6737 183
47.69381 165
47.71393 171
47.73404 178
47.75415 153
47.77427 168
47.79438 170
47.81449 154
47.83461 168
47.85472 180
47.87483 174
47.89495 192
47.91506 169
47.93518 173
47.95529 165
47.9754 188
47.99552 171
48.01563 156
48.03574 149
48.05586 169
48.07597 195
48.09609 194
48.1162 188
48.13631 172
48.15643 183
48.17654 183
48.19665 161
48.21677 184
48.23688 189
48.257 175
48.27711 185
48.29722 177
48.31734 178
48.33745 183
48.35756 188
48.37768 175
48.39779 167
48.4179 169
48.43802 163
48.45813 160
48.47825 166
48.49836 158
48.51847 151
48.53859 172
48.5587 162
48.57881 202
48.59893 192
48.61904 161
48.63916 171
48.65927 169
48.67938 219
48.6995 179
48.71961 186
48.73972 214
48.75984 215
48.77995 233
48.80006 226
48.82018 229
48.84029 230
48.86041 234
48.88052 243
48.90063 239
48.92075 224
48.94086 228
48.96097 245
48.98109 238
49.0012 237
49.02132 241
49.04143 240
49.06154 214
49.08166 256
49.10177 231
49.12188 266
49.142 208
49.16211 264
49.18223 252
49.20234 194
49.22245 220
49.24257 185
49.26268 184
49.28279 189
49.30291 199
49.32302 191
49.34313 193
49.36325 204
49.38336 201
49.40348 176
49.42359 185
49.4437 195
49.46382 218
49.48393 182
49.50404 192
49.52416 199
49.54427 200
49.56439 194
49.5845 200
49.60461 232
49.62473 231
49.64484 190
49.66495 237
49.68507 245
49.70518 253
49.7253 283
49.74541 314
49.76552 297
49.78564 346
49.80575 332
49.82586 376
49.84598 391
49.86609 445
49.8862 471
49.90632 564
49.92643 627
49.94655 789
49.96666 910
49.98677 1184
50.00689 1418
50.027 1718
50.04711 2017
50.06723 2316
50.08734 2457
50.10746 2403
50.12757 2243
50.14768 2040
50.1678 1610
50.18791 1477
50.20802 1512
50.22814 1332
50.24825 1178
50.26837 1052
50.28848 815
50.30859 604
50.32871 500
50.34882 411
50.36893 393
50.38905 448
50.40916 459
50.42927 476
50.44939 499
50.4695 577
50.48962 584
50.50973 548
50.52984 668
50.54996 641
50.57007 632
50.59018 594
50.6103 526
50.63041 516
50.65053 495
50.67064 489
50.69075 491
50.71087 420
50.73098 387
50.75109 367
50.77121 367
50.79132 317
50.81143 290
50.83155 322
50.85166 315
50.87178 270
50.89189 277
50.912 274
50.93212 267
50.95223 244
50.97234 240
50.99246 264
51.01257 250
51.03269 245
51.0528 233
51.07291 209
51.09303 256
51.11314 197
51.13325 212
51.15337 227
51.17348 246
51.1936 213
51.21371 184
51.23382 202
51.25394 186
51.27405 162
51.29416 178
51.31428 186
51.33439 174
51.3545 171
51.37462 136
51.39473 159
51.41485 149
51.43496 146
51.45507 189
51.47519 162
51.4953 156
51.51541 157
51.53553 152
51.55564 166
51.57576 168
51.59587 161
51.61598 155
51.6361 168
51.65621 178
51.67632 161
51.69644 154
51.71655 167
51.73667 167
51.75678 170
51.77689 160
51.79701 167
51.81712 148
51.83723 159
51.85735 156
51.87746 171
51.89757 139
51.91769 115
51.9378 136
51.95792 147
51.97803 137
51.99814 132
52.01826 130
52.03837 163
52.05848 152
52.0786 176
52.09871 161
52.11883 156
52.13894 171
52.15905 174
52.17917 187
52.19928 167
52.21939 162
52.23951 167
52.25962 143
52.27974 160
52.29985 166
52.31996 160
52.34008 159
52.36019 147
52.3803 164
52.40042 181
52.42053 189
52.44064 166
52.46076 161
52.48087 188
52.50099 202
52.5211 188
52.54121 161
52.56133 160
52.58144 185
52.60155 199
52.62167 169
52.64178 163
52.6619 166
52.68201 179
52.70212 183
52.72224 173
52.74235 175
52.76246 185
52.78258 160
52.80269 184
52.8228 162
52.84292 159
52.86303 168
52.88315 190
52.90326 173
52.92337 184
52.94349 187
52.9636 181
52.98371 174
53.00383 151
53.02394 172
53.04406 175
53.06417 162
53.08428 174
53.1044 167
53.12451 175
53.14462 168
53.16474 204
53.18485 165
53.20497 192
53.22508 183
53.24519 157
53.26531 181
53.28542 183
53.30553 179
53.32565 156
53.34576 162
53.36587 156
53.38599 175
53.4061 168
53.42622 186
53.44633 195
53.46644 172
53.48656 163
53.50667 202
53.52678 165
53.5469 145
53.56701 176
53.58713 158
53.60724 151
53.62735 175
53.64747 168
53.66758 151
53.68769 172
53.70781 151
53.72792 149
53.74804 184
53.76815 178
53.78826 195
53.80838 158
53.82849 169
53.8486 196
53.86872 175
53.88883 173
53.90894 186
53.92906 168
53.94917 170
53.96929 176
53.9894 172
54.00951 174
54.02963 162
54.04974 193
54.06985 166
54.08997 188
54.11008 177
54.1302 176
54.15031 189
54.17042 159
54.19054 170
54.21065 196
54.23076 184
54.25088 172
54.27099 172
54.29111 192
54.31122 191
54.33133 168
54.35145 209
54.37156 185
54.39167 177
54.41179 206
54.4319 192
54.45201 212
54.47213 181
54.49224 210
54.51236 193
54.53247 192
54.55258 234
54.5727 264
54.59281 259
54.61292 269
54.63304 273
54.65315 292
54.67327 338
54.69338 397
54.71349 428
54.73361 490
54.75372 601
54.77383 648
54.79395 804
54.81406 812
54.83417 796
54.85429 797
54.8744 693
54.89452 608
54.91463 575
54.93474 520
54.95486 579
54.97497 533
54.99508 478
55.0152 441
55.03531 348
55.05543 302
55.07554 302
55.09565 277
55.11577 320
55.13588 256
55.15599 313
55.17611 336
55.19622 379
55.21634 395
55.23645 403
55.25656 463
55.27668 474
55.29679 468
55.3169 478
55.33702 415
55.35713 348
55.37724 330
55.39736 337
55.41747 360
55.43759 330
55.4577 312
55.47781 299
55.49793 237
55.51804 222
55.53815 242
55.55827 213
55.57838 196
55.5985 199
55.61861 205
55.63872 190
55.65884 189
55.67895 187
55.69906 195
55.71918 175
55.73929 172
55.75941 199
55.77952 173
55.79963 171
55.81975 154
55.83986 179
55.85997 174
55.88009 210
55.9002 151
55.92031 167
55.94043 186
55.96054 155
55.98066 158
56.00077 169
56.02088 168
56.041 153
56.06111 160
56.08122 154
56.10134 165
56.12145 167
56.14157 144
56.16168 168
56.18179 173
56.20191 166
56.22202 173
56.24213 156
56.26225 164
56.28236 177
56.30248 163
56.32259 155
56.3427 181
56.36282 152
56.38293 166
56.40304 172
56.42316 152
56.44327 163
56.46338 150
56.4835 152
56.50361 138
56.52373 184
56.54384 166
56.56395 173
56.58407 182
56.60418 184
56.62429 179
56.64441 182
56.66452 195
56.68464 173
56.70475 175
56.72486 189
56.74498 188
56.76509 161
56.7852 178
56.80532 189
56.82543 193
56.84554 166
56.86566 185
56.88577 192
56.90589 152
56.926 170
56.94611 146
56.96623 177
56.98634 151
57.00645 172
57.02657 174
57.04668 178
57.0668 178
57.08691 175
57.10702 173
57.12714 217
57.14725 228
57.16736 189
57.18748 199
57.20759 197
57.22771 200
57.24782 182
57.26793 185
57.28805 197
57.30816 195
57.32827 201
57.34839 213
57.3685 194
57.38861 169
57.40873 214
57.42884 174
57.44896 152
57.46907 194
57.48918 178
57.5093 183
57.52941 179
57.54952 171
57.56964 197
57.58975 157
57.60987 140
57.62998 169
57.65009 142
57.67021 155
57.69032 165
57.71043 172
57.73055 173
57.75066 161
57.77078 162
57.79089 173
57.811 177
57.83112 167
57.85123 149
57.87134 156
57.89146 168
57.91157 155
57.93168 173
57.9518 164
57.97191 160
57.99203 174
58.01214 178
58.03225 172
58.05237 191
58.07248 176
58.09259 178
58.11271 178
58.13282 192
58.15294 169
58.17305 161
58.19316 193
58.21328 158
58.23339 145
58.2535 166
58.27362 173
58.29373 159
58.31385 164
58.33396 179
58.35407 186
58.37419 153
58.3943 154
58.41441 170
58.43453 191
58.45464 206
58.47475 169
58.49487 195
58.51498 164
58.5351 209
58.55521 191
58.57532 195
58.59544 192
58.61555 201
58.63566 193
58.65578 178
58.67589 237
58.69601 185
58.71612 202
58.73623 206
58.75635 187
58.77646 181
58.79657 200
58.81669 196
58.8368 189
58.85691 172
58.87703 183
58.89714 179
58.91726 186
58.93737 176
58.95748 160
58.9776 168
58.99771 196
59.01782 175
59.03794 168
59.05805 163
59.07817 171
59.09828 151
59.11839 158
59.13851 171
59.15862 168
59.17873 171
59.19885 174
59.21896 186
59.23908 162
59.25919 159
59.2793 181
59.29942 183
59.31953 165
59.33964 207
59.35976 199
59.37987 216
59.39998 180
59.4201 222
59.44021 181
59.46033 214
59.48044 199
59.50055 220
59.52067 219
59.54078 214
59.56089 235
59.58101 278
59.60112 273
59.62124 299
59.64135 310
59.66146 275
59.68158 338
59.70169 387
59.7218 428
59.74192 564
59.76203 578
59.78215 709
59.80226 908
59.82237 1010
59.84249 1224
59.8626 1389
59.88271 1531
59.90283 1617
59.92294 1575
59.94305 1499
59.96317 1198
59.98328 1015
60.0034 908
60.02351 913
60.04362 934
60.06374 952
60.08385 861
60.10396 806
60.12408 635
60.14419 453
60.16431 375
60.18442 292
60.20453 243
60.22465 232
60.24476 230
60.26487 215
60.28499 215
60.3051 230
60.32522 214
60.34533 192
60.36544 224
60.38556 195
60.40567 216
60.42578 171
60.4459 188
60.46601 189
60.48612 195
60.50624 179
60.52635 187
60.54647 192
60.56658 174
60.58669 200
60.60681 186
60.62692 188
60.64703 188
60.66715 178
60.68726 186
60.70738 186
60.72749 185
60.7476 175
60.76772 199
60.78783 164
60.80794 186
60.82806 168
60.84817 196
60.86828 163
60.8884 167
60.90851 185
60.92863 166
60.94874 180
60.96885 185
60.98897 196
61.00908 217
61.02919 182
61.04931 195
61.06942 205
61.08954 207
61.10965 211
61.12976 212
61.14988 203
61.16999 204
61.1901 228
61.21022 217
61.23033 223
61.25045 209
61.27056 218
61.29067 197
61.31079 193
61.3309 220
61.35101 190
61.37113 193
61.39124 193
61.41135 197
61.43147 202
61.45158 192
61.4717 190
61.49181 184
61.51192 193
61.53204 189
61.55215 197
61.57226 190
61.59238 195
61.61249 204
61.63261 199
61.65272 197
61.67283 204
61.69295 170
61.71306 175
61.73317 195
61.75329 194
61.7734 173
61.79352 175
61.81363 187
61.83374 185
61.85386 196
61.87397 193
61.89408 198
61.9142 188
61.93431 188
61.95442 167
61.97454 198
61.99465 170
62.01477 210
62.03488 214
62.05499 160
62.07511 171
62.09522 211
62.11533 191
62.13545 202
62.15556 181
62.17568 178
62.19579 210
62.2159 189
62.23602 192
62.25613 168
62.27624 181
62.29636 183
62.31647 175
62.33659 176
62.3567 177
62.37681 184
62.39693 192
62.41704 205
62.43715 182
62.45727 217
62.47738 177
62.49749 184
62.51761 200
62.53772 191
62.55784 169
62.57795 193
62.59806 223
62.61818 230
62.63829 181
62.6584 204
62.67852 188
62.69863 207
62.71875 178
62.73886 183
62.75897 189
62.77909 179
62.7992 208
62.81931 200
62.83943 195
62.85954 210
62.87965 177
62.89977 185
62.91988 183
62.94 183
62.96011 202
62.98022 196
63.00034 199
63.02045 182
63.04056 206
63.06068 233
63.08079 177
63.10091 185
63.12102 175
63.14113 187
63.16125 182
63.18136 206
63.20147 181
63.22159 168
63.2417 185
63.26182 183
63.28193 181
63.30204 159
63.32216 178
63.34227 188
63.36238 194
63.3825 177
63.40261 190
63.42272 179
63.44284 189
63.46295 194
63.48307 162
63.50318 191
63.52329 200
63.54341 212
63.56352 211
63.58363 203
63.60375 198
63.62386 198
63.64398 216
63.66409 225
63.6842 182
63.70432 235
63.72443 249
63.74454 219
63.76466 250
63.78477 263
63.80489 288
63.825 286
63.84511 319
63.86523 314
63.88534 358
63.90545 388
63.92557 411
63.94568 430
63.96579 469
63.98591 528
64.00602 490
64.02614 387
64.04625 410
64.06636 379
64.08648 350
64.10659 355
64.1267 341
64.14682 356
64.16693 346
64.18705 305
64.20716 311
64.22727 273
64.24739 247
64.2675 213
64.28761 222
64.30773 216
64.32784 187
64.34796 183
64.36807 174
64.38818 171
64.4083 173
64.42841 185
64.44852 186
64.46864 203
64.48875 189
64.50886 157
64.52898 165
64.54909 145
64.56921 160
64.58932 195
64.60943 172
64.62955 162
64.64966 167
64.66977 182
64.68989 175
64.71 157
64.73012 189
64.75023 179
64.77034 166
64.79046 166
64.81057 180
64.83068 168
64.8508 205
64.87091 186
64.89102 193
64.91114 185
64.93125 179
64.95137 186
64.97148 178
64.99159 194
65.01171 181
65.03182 202
65.05193 214
65.07205 176
65.09216 227
65.11228 213
65.13239 225
65.1525 227
65.17262 221
65.19273 204
65.21284 201
65.23296 226
65.25307 206
65.27319 209
65.2933 195
65.31341 222
65.33353 221
65.35364 210
65.37375 203
65.39387 214
65.41398 236
65.43409 174
65.45421 181
65.47432 198
65.49444 175
65.51455 176
65.53466 170
65.55478 182
65.57489 187
65.595 187
65.61512 203
65.63523 198
65.65535 185
65.67546 207
65.69557 213
65.71569 206
65.7358 222
65.75591 220
65.77603 191
65.79614 212
65.81626 193
65.83637 193
65.85648 185
65.8766 229
65.89671 202
65.91682 198
65.93694 188
65.95705 193
65.97716 186
65.99728 165
66.01739 157
66.03751 170
66.05762 176
66.07773 183
66.09785 185
66.11796 187
66.13807 187
66.15819 185
66.1783 219
66.19842 207
66.21853 200
66.23864 201
66.25876 211
66.27887 195
66.29898 188
66.3191 203
66.33921 198
66.35933 193
66.37944 185
66.39955 172
66.41967 188
66.43978 186
66.45989 166
66.48001 174
66.50012 202
66.52023 194
66.54035 188
66.56046 168
66.58058 171
66.60069 168
66.6208 170
66.64092 147
66.66103 149
66.68114 177
66.70126 167
66.72137 176
66.74149 165
66.7616 167
66.78171 151
66.80183 175
66.82194 171
66.84205 177
66.86217 200
66.88228 157
66.90239 159
66.92251 161
66.94262 156
66.96274 176
66.98285 196
67.00296 177
67.02308 203
67.04319 182
67.0633 188
67.08342 188
67.10353 199
67.12365 193
67.14376 175
67.16387 201
67.18399 201
67.2041 185
67.22421 206
67.24433 198
67.26444 218
67.28456 226
67.30467 201
67.32478 216
67.3449 186
67.36501 238
67.38512 255
67.40524 221
67.42535 233
67.44546 302
67.46558 251
67.48569 321
67.50581 376
67.52592 377
67.54603 473
67.56615 522
67.58626 586
67.60637 710
67.62649 811
67.6466 935
67.66672 1034
67.68683 1010
67.70694 1033
67.72706 923
67.74717 880
67.76728 685
67.7874 666
67.80751 683
67.82763 705
67.84774 760
67.86785 711
67.88797 770
67.90808 734
67.92819 777
67.94831 745
67.96842 727
67.98853 809
68.00865 912
68.02876 1111
68.04888 1241
68.06899 1323
68.0891 1396
68.10922 1398
68.12933 1340
68.14944 1213
68.16956 1151
68.18967 1090
68.20979 1149
68.2299 1271
68.25001 1311
68.27013 1338
68.29024 1235
68.31035 1072
68.33047 866
68.35058 749
68.3707 615
68.39081 581
68.41092 552
68.43104 531
68.45115 530
68.47126 498
68.49138 440
68.51149 391
68.5316 330
68.55172 278
68.57183 229
68.59195 245
68.61206 215
68.63217 199
68.65229 204
68.6724 187
68.69251 193
68.71263 193
68.73274 197
68.75286 187
68.77297 181
68.79308 177
68.8132 172
68.83331 183
68.85342 170
68.87354 170
68.89365 185
68.91376 173
68.93388 166
68.95399 184
68.97411 172
68.99422 171
69.01433 192
69.03445 189
69.05456 153
69.07467 154
69.09479 164
69.1149 160
69.13502 154
69.15513 162
69.17524 163
69.19536 168
69.21547 170
69.23558 167
69.2557 155
69.27581 178
69.29593 143
69.31604 168
69.33615 143
69.35627 165
69.37638 154
69.39649 158
69.41661 181
69.43672 162
69.45683 160
69.47695 186
69.49706 175
69.51718 151
69.53729 161
69.5574 179
69.57752 169
69.59763 143
69.61774 148
69.63786 155
69.65797 163
69.67809 145
69.6982 151
69.71831 158
69.73843 147
69.75854 141
69.77865 156
69.79877 166
69.81888 156
69.839 174
69.85911 165
69.87922 171
69.89934 175
69.91945 164
69.93956 148
69.95968 156
69.97979 147
69.9999 176
70.02002 165
70.04013 168
70.06025 164
70.08036 154
70.10047 151
70.12059 166
70.1407 168
70.16081 140
70.18093 158
70.20104 157
70.22116 165
70.24127 155
70.26138 148
70.2815 150
70.30161 158
70.32172 169
70.34184 150
70.36195 153
70.38207 148
70.40218 170
70.42229 168
70.44241 170
70.46252 149
70.48263 168
70.50275 162
70.52286 140
70.54297 157
70.56309 149
70.5832 166
70.60332 166
70.62343 144
70.64354 143
70.66366 150
70.68377 166
70.70388 167
70.724 153
70.74411 170
70.76423 158
70.78434 138
70.80445 157
70.82457 174
70.84468 174
70.86479 166
70.88491 189
70.90502 164
70.92513 160
70.94525 169
70.96536 179
70.98548 171
71.00559 141
71.0257 159
71.04582 150
71.06593 158
71.08604 157
71.10616 153
71.12627 167
71.14639 172
71.1665 158
71.18661 129
71.20673 162
71.22684 170
71.24695 145
71.26707 157
71.28718 166
71.3073 155
71.32741 161
71.34752 142
71.36764 143
71.38775 181
71.40786 153
71.42798 154
71.44809 177
71.4682 170
71.48832 184
71.50843 178
71.52855 162
71.54866 174
71.56877 186
71.58889 171
71.609 164
71.62911 208
71.64923 178
71.66934 166
71.68946 190
71.70957 184
71.72968 176
71.7498 177
71.76991 173
71.79002 185
71.81014 178
71.83025 179
71.85037 181
71.87048 163
71.89059 185
71.91071 202
71.93082 160
71.95093 181
71.97105 182
71.99116 181
72.01127 167
72.03139 173
72.0515 171
72.07162 172
72.09173 168
72.11184 196
72.13196 184
72.15207 207
72.17218 161
72.1923 166
72.21241 189
72.23253 178
72.25264 185
72.27275 187
72.29287 164
72.31298 205
72.33309 179
72.35321 181
72.37332 196
72.39344 180
72.41355 166
72.43366 165
72.45378 195
72.47389 198
72.494 167
72.51412 185
72.53423 179
72.55434 187
72.57446 176
72.59457 163
72.61469 163
72.6348 169
72.65491 166
72.67503 176
72.69514 156
72.71525 168
72.73537 156
72.75548 170
72.7756 177
72.79571 170
72.81582 172
72.83594 165
72.85605 153
72.87616 170
72.89628 194
72.91639 158
72.9365 192
72.95662 167
72.97673 193
72.99685 182
73.01696 205
73.03707 175
73.05719 228
73.0773 216
73.09741 210
73.11753 218
73.13764 219
73.15776 203
73.17787 208
73.19798 219
73.2181 250
73.23821 239
73.25832 233
73.27844 263
73.29855 327
73.31867 322
73.33878 365
73.35889 411
73.37901 434
73.39912 479
73.41923 450
73.43935 470
73.45946 411
73.47957 356
73.49969 341
73.5198 321
73.53992 281
73.56003 279
73.58014 298
73.60026 317
73.62037 338
73.64048 313
73.6606 286
73.68071 282
73.70083 246
73.72094 240
73.74105 211
73.76117 194
73.78128 215
73.80139 215
73.82151 162
73.84162 171
73.86174 176
73.88185 194
73.90196 157
73.92208 172
73.94219 178
73.9623 171
73.98242 177
74.00253 153
74.02264 160
74.04276 165
74.06287 187
74.08299 181
74.1031 173
74.12321 164
74.14333 172
74.16344 160
74.18355 167
74.20367 159
74.22378 162
74.2439 162
74.26401 176
74.28412 173
74.30424 183
74.32435 177
74.34446 162
74.36458 182
74.38469 193
74.40481 172
74.42492 167
74.44503 159
74.46515 153
74.48526 178
74.50537 170
74.52549 193
74.5456 199
74.56571 181
74.58583 172
74.60594 173
74.62606 170
74.64617 180
74.66628 191
74.6864 177
74.70651 193
74.72662 166
74.74674 179
74.76685 181
74.78697 203
74.80708 195
74.82719 195
74.84731 181
74.86742 158
74.88753 189
74.90765 204
74.92776 219
74.94787 174
74.96799 199
74.9881 167
75.00822 182
