3.00117 22699
3.02128 22335
3.0414 21897
3.06151 20879
3.08162 20626
3.10174 19865
3.12185 19443
3.14197 19002
3.16208 18437
3.18219 17969
3.20231 17416
3.22242 16823
3.24253 16229
3.26265 15476
3.28276 15234
3.30288 14676
3.32299 14037
3.3431 13664
3.36322 13311
3.38333 13283
3.40344 12408
3.42356 12257
3.44367 11901
3.46379 10977
3.4839 11027
3.50401 10552
3.52413 10111
3.54424 9857
3.56435 9499
3.58447 9265
3.60458 8673
3.62469 8799
3.64481 8281
3.66492 7981
3.68504 7531
3.70515 7278
3.72526 6936
3.74538 6853
3.76549 6131
3.7856 6462
3.80572 5859
3.82583 5628
3.84595 5477
3.86606 5092
3.88617 4843
3.90629 4613
3.9264 4640
3.94651 4343
3.96663 3993
3.98674 3952
4.00686 3621
4.02697 3691
4.04708 3435
4.0672 3070
4.08731 3100
4.10742 2937
4.12754 2778
4.14765 2732
4.16776 2395
4.18788 2322
4.20799 2182
4.22811 2106
4.24822 2172
4.26833 2024
4.28845 1885
4.30856 1884
4.32867 1922
4.34879 1822
4.3689 1570
4.38902 1603
4.40913 1493
4.42924 1495
4.44936 1524
4.46947 1331
4.48958 1353
4.5097 1299
4.52981 1342
4.54992 1351
4.57004 1196
4.59015 1238
4.61027 1173
4.63038 1105
4.65049 1126
4.67061 1025
4.69072 1059
4.71083 1020
4.73095 969
4.75106 984
4.77118 838
4.79129 901
4.8114 879
4.83152 787
4.85163 833
4.87174 726
4.89186 763
4.91197 786
4.93209 693
4.9522 731
4.97231 699
4.99243 620
5.01254 630
5.03265 609
5.05277 638
5.07288 563
5.09299 568
5.11311 646
5.13322 570
5.15334 540
5.17345 512
5.19356 496
5.21368 509
5.23379 490
5.2539 470
5.27402 440
5.29413 468
5.31425 417
5.33436 425
5.35447 379
5.37459 396
5.3947 379
5.41481 425
5.43493 375
5.45504 393
5.47516 359
5.49527 304
5.51538 323
5.5355 286
5.55561 316
5.57572 277
5.59584 280
5.61595 269
5.63606 262
5.65618 252
5.67629 252
5.69641 273
5.71652 241
5.73663 254
5.75675 227
5.77686 253
5.79697 248
5.81709 214
5.8372 231
5.85732 221
5.87743 214
5.89754 234
5.91766 201
5.93777 210
5.95788 196
5.978 202
5.99811 183
6.01823 166
6.03834 176
6.05845 186
6.07857 185
6.09868 202
6.11879 186
6.13891 170
6.15902 164
6.17913 174
6.19925 192
6.21936 181
6.23948 182
6.25959 159
6.2797 172
6.29982 153
6.31993 184
6.34004 147
6.36016 162
6.38027 160
6.40039 162
6.4205 152
6.44061 149
6.46073 142
6.48084 122
6.50095 151
6.52107 141
6.54118 148
6.56129 156
6.58141 127
6.60152 148
6.62164 137
6.64175 152
6.66186 159
6.68198 157
6.70209 145
6.7222 133
6.74232 141
6.76243 165
6.78255 151
6.80266 130
6.82277 136
6.84289 147
6.863 137
6.88311 142
6.90323 168
6.92334 140
6.94346 146
6.96357 139
6.98368 163
7.0038 135
7.02391 153
7.04402 156
7.06414 149
7.08425 133
7.10436 163
7.12448 132
7.14459 139
7.16471 150
7.18482 162
7.20493 146
7.22505 160
7.24516 163
7.26527 161
7.28539 178
7.3055 166
7.32562 159
7.34573 148
7.36584 165
7.38596 141
7.40607 171
7.42618 153
7.4463 164
7.46641 159
7.48653 156
7.50664 159
7.52675 154
7.54687 144
7.56698 153
7.58709 151
7.60721 192
7.62732 189
7.64743 170
7.66755 165
7.68766 180
7.70778 184
7.72789 171
7.748 164
7.76812 180
7.78823 163
7.80834 198
7.82846 171
7.84857 163
7.86869 155
7.8888 169
7.90891 177
7.92903 160
7.94914 168
7.96925 175
7.98937 160
8.00948 193
8.0296 186
8.04971 190
8.06982 205
8.08994 169
8.11005 194
8.13016 166
8.15028 156
8.17039 174
8.1905 166
8.21062 190
8.23073 171
8.25085 186
8.27096 163
8.29107 147
8.31119 203
8.3313 166
8.35141 172
8.37153 157
8.39164 163
8.41176 189
8.43187 170
8.45198 244
8.4721 174
8.49221 182
8.51232 194
8.53244 194
8.55255 203
8.57266 148
8.59278 178
8.61289 188
8.63301 159
8.65312 175
8.67323 175
8.69335 180
8.71346 170
8.73357 186
8.75369 178
8.7738 154
8.79392 185
8.81403 209
8.83414 175
8.85426 162
8.87437 154
8.89448 197
8.9146 211
8.93471 194
8.95483 180
8.97494 175
8.99505 211
9.01517 204
9.03528 188
9.05539 187
9.07551 180
9.09562 182
9.11573 166
9.13585 161
9.15596 184
9.17608 172
9.19619 189
9.2163 171
9.23642 214
9.25653 178
9.27664 187
9.29676 204
9.31687 174
9.33699 175
9.3571 173
9.37721 197
9.39733 176
9.41744 189
9.43755 160
9.45767 170
9.47778 208
9.4979 186
9.51801 193
9.53812 187
9.55824 182
9.57835 203
9.59846 229
9.61858 221
9.63869 190
9.6588 202
9.67892 212
9.69903 197
9.71915 188
9.73926 178
9.75937 173
9.77949 196
9.7996 180
9.81971 200
9.83983 186
9.85994 202
9.88006 199
9.90017 226
9.92028 201
9.9404 151
9.96051 182
9.98062 187
10.00074 190
10.02085 204
10.04097 191
10.06108 196
10.08119 197
10.10131 201
10.12142 182
10.14153 213
10.16165 198
10.18176 185
10.20187 188
10.22199 180
10.2421 183
10.26222 173
10.28233 169
10.30244 210
10.32256 194
10.34267 206
10.36278 203
10.3829 177
10.40301 174
10.42313 170
10.44324 189
10.46335 182
10.48347 172
10.50358 203
10.52369 225
10.54381 185
10.56392 174
10.58403 212
10.60415 197
10.62426 177
10.64438 178
10.66449 186
10.6846 206
10.70472 166
10.72483 160
10.74494 165
10.76506 162
10.78517 201
10.80529 169
10.8254 201
10.84551 198
10.86563 189
10.88574 213
10.90585 183
10.92597 213
10.94608 194
10.9662 210
10.98631 205
11.00642 166
11.02654 171
11.04665 192
11.06676 172
11.08688 198
11.10699 200
11.1271 191
11.14722 194
11.16733 213
11.18745 157
11.20756 177
11.22767 179
11.24779 184
11.2679 167
11.28801 173
11.30813 182
11.32824 172
11.34836 177
11.36847 190
11.38858 178
11.4087 176
11.42881 185
11.44892 211
11.46904 189
11.48915 171
11.50927 190
11.52938 205
11.54949 187
11.56961 186
11.58972 191
11.60983 197
11.62995 194
11.65006 205
11.67017 172
11.69029 200
11.7104 188
11.73052 179
11.75063 197
11.77074 211
11.79086 198
11.81097 198
11.83108 183
11.8512 178
11.87131 201
11.89143 192
11.91154 179
11.93165 191
11.95177 196
11.97188 198
11.99199 196
12.01211 172
12.03222 173
12.05234 202
12.07245 182
12.09256 190
12.11268 195
12.13279 200
12.1529 201
12.17302 197
12.19313 203
12.21324 179
12.23336 212
12.25347 201
12.27359 204
12.2937 159
12.31381 180
12.33393 170
12.35404 162
12.37415 194
12.39427 198
12.41438 196
12.4345 196
12.45461 167
12.47472 182
12.49484 203
12.51495 149
12.53506 169
12.55518 188
12.57529 195
12.5954 181
12.61552 191
12.63563 184
12.65575 182
12.67586 171
12.69597 190
12.71609 166
12.7362 167
12.75631 168
12.77643 188
12.79654 177
12.81666 199
12.83677 167
12.85688 199
12.877 194
12.89711 206
12.91722 186
12.93734 152
12.95745 158
12.97757 183
12.99768 177
13.01779 174
13.03791 206
13.05802 169
13.07813 176
13.09825 161
13.11836 152
13.13847 172
13.15859 207
13.1787 186
13.19882 162
13.21893 190
13.23904 169
13.25916 190
13.27927 148
13.29938 169
13.3195 162
13.33961 208
13.35973 172
13.37984 192
13.39995 184
13.42007 168
13.44018 192
13.46029 163
13.48041 167
13.50052 162
13.52064 184
13.54075 135
13.56086 183
13.58098 172
13.60109 187
13.6212 175
13.64132 205
13.66143 200
13.68154 189
13.70166 190
13.72177 187
13.74189 166
13.762 167
13.78211 186
13.80223 162
13.82234 168
13.84245 176
13.86257 149
13.88268 174
13.9028 182
13.92291 154
13.94302 145
13.96314 173
13.98325 173
14.00336 160
14.02348 166
14.04359 166
14.06371 147
14.08382 162
14.10393 172
14.12405 181
14.14416 165
14.16427 193
14.18439 178
14.2045 169
14.22461 164
14.24473 161
14.26484 176
14.28496 165
14.30507 150
14.32518 183
14.3453 160
14.36541 164
14.38552 141
14.40564 149
14.42575 161
14.44587 160
14.46598 145
14.48609 158
14.50621 164
14.52632 150
14.54643 152
14.56655 187
14.58666 168
14.60677 173
14.62689 195
14.647 145
14.66712 162
14.68723 157
14.70734 158
14.72746 168
14.74757 155
14.76768 151
14.7878 180
14.80791 152
14.82803 156
14.84814 147
14.86825 177
14.88837 152
14.90848 146
14.92859 151
14.94871 157
14.96882 166
14.98894 195
15.00905 185
15.02916 158
15.04928 159
15.06939 166
15.0895 168
15.10962 156
15.12973 162
15.14984 174
15.16996 168
15.19007 156
15.21019 145
15.2303 165
15.25041 175
15.27053 166
15.29064 134
15.31075 155
15.33087 142
15.35098 152
15.3711 155
15.39121 179
15.41132 169
15.43144 153
15.45155 138
15.47166 164
15.49178 170
15.51189 142
15.53201 145
15.55212 170
15.57223 123
15.59235 179
15.61246 142
15.63257 138
15.65269 178
15.6728 168
15.69291 145
15.71303 139
15.73314 146
15.75326 163
15.77337 148
15.79348 156
15.8136 162
15.83371 139
15.85382 173
15.87394 150
15.89405 156
15.91417 167
15.93428 165
15.95439 179
15.97451 183
15.99462 127
16.01473 114
16.03485 165
16.05496 150
16.07508 145
16.09519 157
16.1153 140
16.13542 156
16.15553 147
16.17564 135
16.19576 127
16.21587 157
16.23598 168
16.2561 149
16.27621 176
16.29633 153
16.31644 147
16.33655 166
16.35667 148
16.37678 150
16.39689 154
16.41701 141
16.43712 162
16.45724 157
16.47735 159
16.49746 125
16.51758 161
16.53769 156
16.5578 135
16.57792 175
16.59803 167
16.61814 142
16.63826 152
16.65837 150
16.67849 128
16.6986 162
16.71871 144
16.73883 142
16.75894 165
16.77905 181
16.79917 142
16.81928 138
16.8394 170
16.85951 163
16.87962 147
16.89974 153
16.91985 139
16.93996 193
16.96008 153
16.98019 146
17.00031 154
17.02042 143
17.04053 157
17.06065 167
17.08076 165
17.10087 145
17.12099 130
17.1411 126
17.16121 137
17.18133 139
17.20144 155
17.22156 148
17.24167 161
17.26178 133
17.2819 159
17.30201 141
17.32212 174
17.34224 141
17.36235 156
17.38247 147
17.40258 140
17.42269 155
17.44281 157
17.46292 119
17.48303 160
17.50315 113
17.52326 157
17.54338 145
17.56349 171
17.5836 141
17.60372 142
17.62383 148
17.64394 154
17.66406 154
17.68417 150
17.70428 154
17.7244 145
17.74451 167
17.76463 133
17.78474 167
17.80485 146
17.82497 161
17.84508 149
17.86519 148
17.88531 143
17.90542 158
17.92554 164
17.94565 158
17.96576 159
17.98588 157
18.00599 165
18.0261 146
18.04622 154
18.06633 141
18.08645 126
18.10656 161
18.12667 142
18.14679 152
18.1669 157
18.18701 152
18.20713 168
18.22724 149
18.24735 146
18.26747 160
18.28758 146
18.3077 143
18.32781 155
18.34792 143
18.36804 138
18.38815 129
18.40826 171
18.42838 154
18.44849 125
18.46861 136
18.48872 135
18.50883 156
18.52895 148
18.54906 157
18.56917 127
18.58929 163
18.6094 155
18.62951 123
18.64963 148
18.66974 132
18.68986 159
18.70997 149
18.73008 133
18.7502 157
18.77031 150
18.79042 171
18.81054 174
18.83065 186
18.85077 158
18.87088 178
18.89099 174
18.91111 154
18.93122 158
18.95133 127
18.97145 135
18.99156 136
19.01168 131
19.03179 134
19.0519 157
19.07202 166
19.09213 146
19.11224 155
19.13236 161
19.15247 160
19.17258 163
19.1927 134
19.21281 138
19.23293 156
19.25304 173
19.27315 129
19.29327 173
19.31338 146
19.33349 141
19.35361 158
19.37372 157
19.39384 161
19.41395 183
19.43406 152
19.45418 187
19.47429 184
19.4944 160
19.51452 156
19.53463 156
19.55475 170
19.57486 133
19.59497 134
19.61509 153
19.6352 140
19.65531 158
19.67543 183
19.69554 150
19.71565 133
19.73577 145
19.75588 175
19.776 153
19.79611 184
19.81622 129
19.83634 184
19.85645 200
19.87656 175
19.89668 174
19.91679 160
19.93691 164
19.95702 191
19.97713 209
19.99725 193
20.01736 205
20.03747 216
20.05759 191
20.0777 222
20.09782 194
20.11793 221
20.13804 230
20.15816 233
20.17827 221
20.19838 216
20.2185 224
20.23861 235
20.25872 217
20.27884 224
20.29895 256
20.31907 230
20.33918 268
20.35929 241
20.37941 256
20.39952 294
20.41963 274
20.43975 245
20.45986 321
20.47998 289
20.50009 283
20.5202 337
20.54032 300
20.56043 350
20.58054 335
20.60066 426
20.62077 421
20.64088 445
20.661 489
20.68111 555
20.70123 727
20.72134 900
20.74145 1296
20.76157 1797
20.78168 2608
20.80179 4027
20.82191 5933
20.84202 8237
20.86214 10672
20.88225 11617
20.90236 10479
20.92248 8201
20.94259 5719
20.9627 3545
20.98282 1817
21.00293 1047
21.02305 750
21.04316 656
21.06327 597
21.08339 553
21.1035 523
21.12361 477
21.14373 422
21.16384 379
21.18395 337
21.20407 313
21.22418 297
21.2443 266
21.26441 268
21.28452 281
21.30464 254
21.32475 222
21.34486 264
21.36498 235
21.38509 222
21.40521 204
21.42532 235
21.44543 209
21.46555 221
21.48566 216
21.50577 222
21.52589 222
21.546 244
21.56612 192
21.58623 200
21.60634 182
21.62646 188
21.64657 191
21.66668 214
21.6868 189
21.70691 241
21.72702 198
21.74714 213
21.76725 219
21.78737 217
21.80748 209
21.82759 183
21.84771 201
21.86782 193
21.88793 213
21.90805 206
21.92816 223
21.94828 207
21.96839 186
21.9885 210
22.00862 215
22.02873 211
22.04884 187
22.06896 186
22.08907 200
22.10919 181
22.1293 195
22.14941 202
22.16953 184
22.18964 174
22.20975 175
22.22987 178
22.24998 202
22.27009 217
22.29021 181
22.31032 199
22.33044 206
22.35055 176
22.37066 201
22.39078 185
22.41089 206
22.431 217
22.45112 207
22.47123 202
22.49135 212
22.51146 219
22.53157 232
22.55169 224
22.5718 216
22.59191 212
22.61203 211
22.63214 229
22.65225 188
22.67237 184
22.69248 196
22.7126 231
22.73271 195
22.75282 188
22.77294 174
22.79305 164
22.81316 180
22.83328 192
22.85339 176
22.87351 215
22.89362 189
22.91373 200
22.93385 177
22.95396 203
22.97407 182
22.99419 189
23.0143 199
23.03442 196
23.05453 158
23.07464 186
23.09476 211
23.11487 188
23.13498 222
23.1551 178
23.17521 186
23.19532 203
23.21544 188
23.23555 179
23.25567 193
23.27578 216
23.29589 185
23.31601 195
23.33612 179
23.35623 159
23.37635 207
23.39646 189
23.41658 176
23.43669 197
23.4568 201
23.47692 234
23.49703 210
23.51714 229
23.53726 200
23.55737 235
23.57749 242
23.5976 264
23.61771 227
23.63783 232
23.65794 202
23.67805 225
23.69817 210
23.71828 194
23.73839 199
23.75851 189
23.77862 205
23.79874 210
23.81885 220
23.83896 221
23.85908 211
23.87919 209
23.8993 202
23.91942 207
23.93953 249
23.95965 203
23.97976 238
23.99987 281
24.01999 318
24.0401 315
24.06021 284
24.08033 264
24.10044 226
24.12056 216
24.14067 199
24.16078 188
24.1809 178
24.20101 193
24.22112 210
24.24124 195
24.26135 178
24.28146 183
24.30158 191
24.32169 206
24.34181 172
24.36192 202
24.38203 182
24.40215 198
24.42226 188
24.44237 179
24.46249 174
24.4826 191
24.50272 176
24.52283 187
24.54294 168
24.56306 167
24.58317 189
24.60328 196
24.6234 183
24.64351 188
24.66362 203
24.68374 219
24.70385 154
24.72397 204
24.74408 163
24.76419 186
24.78431 201
24.80442 189
24.82453 212
24.84465 201
24.86476 181
24.88488 189
24.90499 200
24.9251 176
24.94522 178
24.96533 168
24.98544 175
25.00556 163
25.02567 179
25.04579 170
25.0659 186
25.08601 194
25.10613 198
25.12624 205
25.14635 187
25.16647 209
25.18658 179
25.20669 197
25.22681 218
25.24692 196
25.26704 187
25.28715 188
25.30726 202
25.32738 206
25.34749 199
25.3676 188
25.38772 200
25.40783 204
25.42795 196
25.44806 211
25.46817 223
25.48829 231
25.5084 230
25.52851 230
25.54863 264
25.56874 246
25.58886 287
25.60897 281
25.62908 313
25.6492 328
25.66931 359
25.68942 341
25.70954 371
25.72965 391
25.74976 429
25.76988 410
25.78999 450
25.81011 463
25.83022 443
25.85033 475
25.87045 440
25.89056 479
25.91067 437
25.93079 427
25.9509 494
25.97102 476
25.99113 473
26.01124 472
26.03136 474
26.05147 533
26.07158 510
26.0917 544
26.11181 496
26.13193 557
26.15204 576
26.17215 661
26.19227 662
26.21238 760
26.23249 805
26.25261 867
26.27272 816
26.29283 1030
26.31295 1060
26.33306 1179
26.35318 1275
26.37329 1351
26.3934 1529
26.41352 1758
26.43363 2145
26.45374 2580
26.47386 3365
26.49397 4504
26.51409 6314
26.5342 8906
26.55431 12664
26.57443 18345
26.59454 26541
26.61465 36677
26.63477 47985
26.65488 53983
26.67499 47598
26.69511 37220
26.71522 28870
26.73534 22719
26.75545 14078
26.77556 6933
26.79568 3556
26.81579 2495
26.8359 2080
26.85602 1778
26.87613 1639
26.89625 1507
26.91636 1440
26.93647 1301
26.95659 1203
26.9767 1121
26.99681 1002
27.01693 861
27.03704 819
27.05716 794
27.07727 732
27.09738 711
27.1175 679
27.13761 547
27.15772 573
27.17784 489
27.19795 511
27.21806 490
27.23818 462
27.25829 433
27.27841 449
27.29852 457
27.31863 434
27.33875 448
27.35886 475
27.37897 482
27.39909 474
27.4192 528
27.43932 524
27.45943 583
27.47954 604
27.49966 638
27.51977 615
27.53988 624
27.56 523
27.58011 474
27.60023 444
27.62034 383
27.64045 363
27.66057 339
27.68068 342
27.70079 312
27.72091 315
27.74102 305
27.76113 342
27.78125 287
27.80136 331
27.82148 293
27.84159 285
27.8617 318
27.88182 334
27.90193 328
27.92204 294
27.94216 259
27.96227 272
27.98239 260
28.0025 275
28.02261 277
28.04273 325
28.06284 244
28.08295 278
28.10307 276
28.12318 241
28.1433 267
28.16341 242
28.18352 236
28.20364 241
28.22375 265
28.24386 243
28.26398 236
28.28409 274
28.3042 222
28.32432 251
28.34443 258
28.36455 246
28.38466 262
28.40477 238
28.42489 234
28.445 244
28.46511 249
28.48523 237
28.50534 234
28.52546 246
28.54557 243
28.56568 224
28.5858 222
28.60591 258
28.62602 239
28.64614 231
28.66625 222
28.68636 239
28.70648 232
28.72659 241
28.74671 215
28.76682 226
28.78693 221
28.80705 259
28.82716 238
28.84727 242
28.86739 230
28.8875 216
28.90762 234
28.92773 218
28.94784 216
28.96796 229
28.98807 223
29.00818 218
29.0283 209
29.04841 211
29.06853 244
29.08864 230
29.10875 208
29.12887 224
29.14898 202
29.16909 221
29.18921 215
29.20932 203
29.22943 206
29.24955 219
29.26966 212
29.28978 219
29.30989 202
29.33 209
29.35012 210
29.37023 211
29.39034 214
29.41046 228
29.43057 208
29.45069 220
29.4708 209
29.49091 195
29.51103 228
29.53114 238
29.55125 249
29.57137 226
29.59148 193
29.6116 201
29.63171 246
29.65182 204
29.67194 220
29.69205 192
29.71216 210
29.73228 232
29.75239 221
29.7725 226
29.79262 222
29.81273 224
29.83285 217
29.85296 247
29.87307 219
29.89319 218
29.9133 215
29.93341 246
29.95353 225
29.97364 200
29.99376 217
30.01387 207
30.03398 237
30.0541 201
30.07421 210
30.09432 191
30.11444 211
30.13455 203
30.15467 230
30.17478 225
30.19489 187
30.21501 225
30.23512 209
30.25523 210
30.27535 206
30.29546 208
30.31557 208
30.33569 214
30.3558 186
30.37592 208
30.39603 185
30.41614 180
30.43626 188
30.45637 193
30.47648 180
30.4966 188
30.51671 193
30.53683 179
30.55694 210
30.57705 192
30.59717 191
30.61728 190
30.63739 206
30.65751 209
30.67762 202
30.69773 197
30.71785 208
30.73796 206
30.75808 228
30.77819 242
30.7983 233
30.81842 269
30.83853 237
30.85864 236
30.87876 202
30.89887 202
30.91899 200
30.9391 151
30.95921 191
30.97933 186
30.99944 202
31.01955 201
31.03967 161
31.05978 164
31.0799 149
31.10001 175
31.12012 163
31.14024 189
31.16035 174
31.18046 158
31.20058 162
31.22069 189
31.2408 163
31.26092 165
31.28103 155
31.30115 161
31.32126 141
31.34137 134
31.36149 158
31.3816 163
31.40171 145
31.42183 163
31.44194 142
31.46206 153
31.48217 160
31.50228 175
31.5224 179
31.54251 171
31.56262 152
31.58274 175
31.60285 173
31.62297 134
31.64308 160
31.66319 189
31.68331 163
31.70342 167
31.72353 124
31.74365 153
31.76376 145
31.78387 156
31.80399 160
31.8241 140
31.84422 149
31.86433 162
31.88444 152
31.90456 151
31.92467 169
31.94478 123
31.9649 138
31.98501 133
32.00513 128
32.02524 144
32.04535 137
32.06547 159
32.08558 147
32.10569 162
32.12581 166
32.14592 160
32.16604 144
32.18615 152
32.20626 146
32.22638 169
32.24649 170
32.2666 188
32.28672 175
32.30683 167
32.32694 178
32.34706 172
32.36717 202
32.38729 156
32.4074 170
32.42751 156
32.44763 160
32.46774 146
32.48785 129
32.50797 142
32.52808 119
32.5482 150
32.56831 131
32.58842 142
32.60854 147
32.62865 135
32.64876 147
32.66888 136
32.68899 172
32.7091 128
32.72922 142
32.74933 145
32.76945 158
32.78956 147
32.80967 151
32.82979 149
32.8499 144
32.87001 153
32.89013 155
32.91024 142
32.93036 143
32.95047 122
32.97058 128
32.9907 151
33.01081 149
33.03092 136
33.05104 127
33.07115 145
33.09127 166
33.11138 154
33.13149 131
33.15161 156
33.17172 138
33.19183 142
33.21195 161
33.23206 156
33.25217 151
33.27229 136
33.2924 130
33.31252 176
33.33263 139
33.35274 136
33.37286 119
33.39297 150
33.41308 145
33.4332 126
33.45331 125
33.47343 133
33.49354 123
33.51365 127
33.53377 134
33.55388 138
33.57399 142
33.59411 139
33.61422 118
33.63434 132
33.65445 135
33.67456 130
33.69468 157
33.71479 122
33.7349 138
33.75502 152
33.77513 146
33.79524 140
33.81536 119
33.83547 131
33.85559 146
33.8757 138
33.89581 109
33.91593 137
33.93604 113
33.95615 145
33.97627 150
33.99638 138
34.0165 149
34.03661 120
34.05672 145
34.07684 132
34.09695 139
34.11706 139
34.13718 130
34.15729 136
34.17741 152
34.19752 163
34.21763 167
34.23775 150
34.25786 151
34.27797 148
34.29809 160
34.3182 137
34.33831 155
34.35843 141
34.37854 147
34.39866 134
34.41877 152
34.43888 165
34.459 147
34.47911 162
34.49922 138
34.51934 147
34.53945 132
34.55957 153
34.57968 140
34.59979 138
34.61991 135
34.64002 151
34.66013 150
34.68025 168
34.70036 137
34.72047 188
34.74059 151
34.7607 159
34.78082 141
34.80093 180
34.82104 156
34.84116 146
34.86127 155
34.88138 168
34.9015 173
34.92161 157
34.94173 183
34.96184 149
34.98195 154
35.00207 148
35.02218 166
35.04229 118
35.06241 146
35.08252 174
35.10264 143
35.12275 156
35.14286 135
35.16298 158
35.18309 145
35.2032 130
35.22332 164
35.24343 154
35.26354 146
35.28366 148
35.30377 159
35.32389 169
35.344 150
35.36411 159
35.38423 160
35.40434 170
35.42445 178
35.44457 156
35.46468 165
35.4848 185
35.50491 178
35.52502 178
35.54514 180
35.56525 185
35.58536 198
35.60548 161
35.62559 182
35.64571 201
35.66582 169
35.68593 195
35.70605 159
35.72616 191
35.74627 161
35.76639 148
35.7865 165
35.80661 150
35.82673 177
35.84684 168
35.86696 146
35.88707 151
35.90718 147
35.9273 167
35.94741 172
35.96752 179
35.98764 168
36.00775 135
36.02787 177
36.04798 153
36.06809 183
36.08821 176
36.10832 153
36.12843 169
36.14855 166
36.16866 198
36.18878 188
36.20889 193
36.229 224
36.24912 210
36.26923 269
36.28934 275
36.30946 283
36.32957 333
36.34968 368
36.3698 453
36.38991 572
36.41003 655
36.43014 850
36.45025 1133
36.47037 1405
36.49048 1977
36.51059 2533
36.53071 3199
36.55082 3523
36.57094 3145
36.59105 2346
36.61116 1841
36.63128 1828
36.65139 1663
36.6715 1334
36.69162 822
36.71173 395
36.73184 323
36.75196 274
36.77207 243
36.79219 226
36.8123 229
36.83241 199
36.85253 218
36.87264 205
36.89275 174
36.91287 175
36.93298 181
36.9531 181
36.97321 159
36.99332 168
37.01344 178
37.03355 157
37.05366 145
37.07378 162
37.09389 149
37.11401 156
37.13412 156
37.15423 138
37.17435 155
37.19446 154
37.21457 138
37.23469 152
37.2548 147
37.27491 143
37.29503 160
37.31514 163
37.33526 156
37.35537 139
37.37548 136
37.3956 149
37.41571 130
37.43582 139
37.45594 142
37.47605 149
37.49617 144
37.51628 170
37.53639 132
37.55651 153
37.57662 145
37.59673 136
37.61685 117
37.63696 138
37.65708 146
37.67719 137
37.6973 137
37.71742 135
37.73753 125
37.75764 155
37.77776 152
37.79787 147
37.81798 132
37.8381 148
37.85821 164
37.87833 137
37.89844 123
37.91855 159
37.93867 137
37.95878 144
37.97889 132
37.99901 152
38.01912 146
38.03924 145
38.05935 140
38.07946 128
38.09958 154
38.11969 140
38.1398 143
38.15992 160
38.18003 121
38.20015 133
38.22026 162
38.24037 150
38.26049 171
38.2806 151
38.30071 154
38.32083 157
38.34094 131
38.36105 161
38.38117 139
38.40128 133
38.4214 162
38.44151 175
38.46162 169
38.48174 145
38.50185 162
38.52196 150
38.54208 135
38.56219 163
38.58231 157
38.60242 143
38.62253 181
38.64265 148
38.66276 150
38.68287 161
38.70299 148
38.7231 134
38.74321 152
38.76333 146
38.78344 147
38.80356 150
38.82367 137
38.84378 174
38.8639 169
38.88401 166
38.90412 160
38.92424 156
38.94435 177
38.96447 154
38.98458 155
39.00469 192
39.02481 159
39.04492 178
39.06503 166
39.08515 197
39.10526 194
39.12538 191
39.14549 207
39.1656 205
39.18572 222
39.20583 272
39.22594 265
39.24606 335
39.26617 385
39.28628 452
39.3064 496
39.32651 632
39.34663 804
39.36674 927
39.38685 1338
39.40697 1724
39.42708 2270
39.44719 2849
39.46731 3106
39.48742 3042
39.50754 2352
39.52765 1729
39.54776 1627
39.56788 1689
39.58799 1495
39.6081 1015
39.62822 582
39.64833 391
39.66845 299
39.68856 280
39.70867 250
39.72879 248
39.7489 217
39.76901 181
39.78913 170
39.80924 199
39.82935 210
39.84947 179
39.86958 156
39.8897 190
39.90981 179
39.92992 178
39.95004 198
39.97015 168
39.99026 175
40.01038 215
40.03049 220
40.05061 228
40.07072 249
40.09083 261
40.11095 260
40.13106 321
40.15117 378
40.17129 477
40.1914 574
40.21152 747
40.23163 970
40.25174 1207
40.27186 1453
40.29197 1668
40.31208 1514
40.3322 1292
40.35231 877
40.37242 884
40.39254 918
40.41265 800
40.43277 578
40.45288 405
40.47299 227
40.49311 234
40.51322 202
40.53333 153
40.55345 195
40.57356 178
40.59368 198
40.61379 159
40.6339 173
40.65402 169
40.67413 168
40.69424 161
40.71436 153
40.73447 141
40.75458 172
40.7747 162
40.79481 155
40.81493 142
40.83504 146
40.85515 152
40.87527 137
40.89538 144
40.91549 149
40.93561 147
40.95572 167
40.97584 167
40.99595 142
41.01606 160
41.03618 164
41.05629 163
41.0764 160
41.09652 145
41.11663 151
41.13675 163
41.15686 162
41.17697 141
41.19709 156
41.2172 168
41.23731 151
41.25743 157
41.27754 150
41.29765 158
41.31777 129
41.33788 136
41.358 142
41.37811 146
41.39822 143
41.41834 144
41.43845 149
41.45856 136
41.47868 162
41.49879 143
41.51891 132
41.53902 135
41.55913 146
41.57925 148
41.59936 157
41.61947 175
41.63959 169
41.6597 193
41.67982 167
41.69993 180
41.72004 162
41.74016 182
41.76027 169
41.78038 212
41.8005 166
41.82061 171
41.84072 183
41.86084 194
41.88095 181
41.90107 170
41.92118 188
41.94129 150
41.96141 163
41.98152 149
42.00163 154
42.02175 173
42.04186 168
42.06198 156
42.08209 176
42.1022 202
42.12232 201
42.14243 202
42.16254 204
42.18266 218
42.20277 274
42.22289 281
42.243 288
42.26311 313
42.28323 394
42.30334 499
42.32345 614
42.34357 760
42.36368 907
42.38379 1235
42.40391 1565
42.42402 1918
42.44414 2187
42.46425 2284
42.48436 1755
42.50448 1352
42.52459 1143
42.5447 1128
42.56482 1218
42.58493 978
42.60505 673
42.62516 380
42.64527 310
42.66539 228
42.6855 237
42.70561 191
42.72573 189
42.74584 170
42.76595 208
42.78607 181
42.80618 176
42.8263 185
42.84641 178
42.86652 149
42.88664 142
42.90675 173
42.92686 160
42.94698 146
42.96709 132
42.98721 153
43.00732 141
43.02743 159
43.04755 153
43.06766 135
43.08777 132
43.10789 126
43.128 135
43.14812 126
43.16823 135
43.18834 139
43.20846 148
43.22857 140
43.24868 134
43.2688 132
43.28891 142
43.30902 125
43.32914 142
43.34925 145
43.36937 150
43.38948 116
43.40959 129
43.42971 147
43.44982 123
43.46993 130
43.49005 125
43.51016 123
43.53028 138
43.55039 148
43.5705 126
43.59062 142
43.61073 157
43.63084 152
43.65096 115
43.67107 136
43.69119 145
43.7113 140
43.73141 127
43.75153 173
43.77164 147
43.79175 135
43.81187 134
43.83198 134
43.85209 131
43.87221 127
43.89232 158
43.91244 120
43.93255 140
43.95266 133
43.97278 131
43.99289 123
44.013 127
44.03312 125
44.05323 132
44.07335 136
44.09346 154
44.11357 114
44.13369 142
44.1538 133
44.17391 128
44.19403 125
44.21414 137
44.23426 121
44.25437 129
44.27448 128
44.2946 129
44.31471 130
44.33482 138
44.35494 112
44.37505 141
44.39516 130
44.41528 138
44.43539 115
44.45551 112
44.47562 137
44.49573 129
44.51585 121
44.53596 131
44.55607 131
44.57619 120
44.5963 127
44.61642 154
44.63653 152
44.65664 148
44.67676 134
44.69687 128
44.71698 127
44.7371 119
44.75721 130
44.77732 129
44.79744 144
44.81755 121
44.83767 129
44.85778 131
44.87789 116
44.89801 141
44.91812 123
44.93823 120
44.95835 156
44.97846 129
44.99858 144
45.01869 161
45.0388 149
45.05892 142
45.07903 163
45.09914 137
45.11926 159
45.13937 129
45.15949 156
45.1796 132
45.19971 146
45.21983 154
45.23994 145
45.26005 136
45.28017 131
45.30028 129
45.32039 156
45.34051 137
45.36062 153
45.38074 150
45.40085 154
45.42096 183
45.44108 184
45.46119 148
45.4813 165
45.50142 185
45.52153 192
45.54165 185
45.56176 221
45.58187 251
45.60199 285
45.6221 319
45.64221 369
45.66233 439
45.68244 517
45.70256 713
45.72267 826
45.74278 990
45.7629 1303
45.78301 1418
45.80312 1531
45.82324 1252
45.84335 917
45.86346 768
45.88358 750
45.90369 745
45.92381 732
45.94392 599
45.96403 414
45.98415 246
46.00426 215
46.02437 185
46.04449 177
46.0646 168
46.08472 162
46.10483 157
46.12494 141
46.14506 137
46.16517 149
46.18528 145
46.2054 143
46.22551 128
46.24563 143
46.26574 141
46.28585 125
46.30597 119
46.32608 149
46.34619 133
46.36631 117
46.38642 120
46.40653 125
46.42665 138
46.44676 122
46.46688 134
46.48699 140
46.5071 134
46.52722 113
46.54733 127
46.56744 129
46.58756 129
46.60767 146
46.62779 97
46.6479 121
46.66801 113
46.68813 123
46.70824 136
46.72835 135
46.74847 117
46.76858 114
46.78869 112
46.80881 124
46.82892 102
46.84904 114
46.86915 132
46.88926 119
46.90938 118
46.92949 118
46.9496 116
46.96972 130
46.98983 126
47.00995 123
47.03006 123
47.05017 117
47.07029 143
47.0904 128
47.11051 134
47.13063 127
47.15074 139
47.17086 135
47.19097 116
47.21108 139
47.2312 124
47.25131 144
47.27142 124
47.29154 112
47.31165 115
47.33176 109
47.35188 131
47.37199 127
47.39211 137
47.41222 123
47.43233 133
47.45245 134
47.47256 142
47.49267 138
47.51279 154
47.5329 134
47.55302 144
47.57313 138
47.59324 130
47.61336 141
47.63347 130
47.65358 127
47.6737 123
47.69381 112
47.71393 116
47.73404 116
47.75415 111
47.77427 139
47.79438 147
47.81449 98
47.83461 136
47.85472 112
47.87483 104
47.89495 145
47.91506 119
47.93518 108
47.95529 125
47.9754 130
47.99552 135
48.01563 118
48.03574 109
48.05586 108
48.07597 106
48.09609 139
48.1162 139
48.13631 117
48.15643 127
48.17654 120
48.19665 115
48.21677 126
48.23688 128
48.257 122
48.27711 116
48.29722 123
48.31734 144
48.33745 118
48.35756 134
48.37768 148
48.39779 143
48.4179 128
48.43802 128
48.45813 134
48.47825 124
48.49836 146
48.51847 139
48.53859 127
48.5587 123
48.57881 134
48.59893 145
48.61904 131
48.63916 138
48.65927 120
48.67938 122
48.6995 131
48.71961 135
48.73972 118
48.75984 127
48.77995 142
48.80006 151
48.82018 132
48.84029 143
48.86041 141
48.88052 151
48.90063 137
48.92075 127
48.94086 135
48.96097 142
48.98109 145
49.0012 149
49.02132 160
49.04143 141
49.06154 150
49.08166 133
49.10177 146
49.12188 145
49.142 159
49.16211 155
49.18223 139
49.20234 146
49.22245 149
49.24257 133
49.26268 147
49.28279 153
49.30291 141
49.32302 147
49.34313 140
49.36325 165
49.38336 122
49.40348 154
49.42359 158
49.4437 147
49.46382 146
49.48393 135
49.50404 180
49.52416 163
49.54427 164
49.56439 172
49.5845 171
49.60461 142
49.62473 193
49.64484 208
49.66495 159
49.68507 191
49.70518 193
49.7253 203
49.74541 246
49.76552 266
49.78564 303
49.80575 321
49.82586 313
49.84598 357
49.86609 433
49.8862 478
49.90632 541
49.92643 661
49.94655 719
49.96666 897
49.98677 1013
50.00689 1355
50.027 1692
50.04711 2160
50.06723 2776
50.08734 3344
50.10746 4130
50.12757 4688
50.14768 4768
50.1678 3941
50.18791 2835
50.20802 2232
50.22814 2112
50.24825 2366
50.26837 2413
50.28848 2133
50.30859 1547
50.32871 930
50.34882 580
50.36893 451
50.38905 357
50.40916 314
50.42927 317
50.44939 295
50.4695 296
50.48962 285
50.50973 275
50.52984 294
50.54996 274
50.57007 283
50.59018 289
50.6103 308
50.63041 302
50.65053 286
50.67064 249
50.69075 230
50.71087 223
50.73098 234
50.75109 223
50.77121 200
50.79132 199
50.81143 173
50.83155 156
50.85166 144
50.87178 173
50.89189 144
50.912 157
50.93212 146
50.95223 136
50.97234 138
50.99246 129
51.01257 147
51.03269 146
51.0528 130
51.07291 145
51.09303 141
51.11314 113
51.13325 141
51.15337 131
51.17348 151
51.1936 133
51.21371 133
51.23382 124
51.25394 118
51.27405 118
51.29416 120
51.31428 122
51.33439 114
51.3545 131
51.37462 124
51.39473 107
51.41485 128
51.43496 117
51.45507 133
51.47519 137
51.4953 117
51.51541 119
51.53553 100
51.55564 105
51.57576 115
51.59587 113
51.61598 115
51.6361 126
51.65621 107
51.67632 110
51.69644 114
51.71655 131
51.73667 116
51.75678 109
51.77689 104
51.79701 112
51.81712 108
51.83723 124
51.85735 128
51.87746 112
51.89757 105
51.91769 119
51.9378 125
51.95792 122
51.97803 106
51.99814 121
52.01826 108
52.03837 119
52.05848 98
52.0786 102
52.09871 117
52.11883 129
52.13894 112
52.15905 105
52.17917 123
52.19928 106
52.21939 116
52.23951 115
52.25962 122
52.27974 119
52.29985 121
52.31996 103
52.34008 124
52.36019 106
52.3803 104
52.40042 120
52.42053 105
52.44064 113
52.46076 129
52.48087 136
52.50099 124
52.5211 116
52.54121 111
52.56133 107
52.58144 117
52.60155 126
52.62167 99
52.64178 131
52.6619 103
52.68201 106
52.70212 120
52.72224 128
52.74235 120
52.76246 117
52.78258 110
52.80269 121
52.8228 112
52.84292 119
52.86303 117
52.88315 109
52.90326 108
52.92337 114
52.94349 108
52.9636 125
52.98371 118
53.00383 124
53.02394 126
53.04406 142
53.06417 131
53.08428 103
53.1044 116
53.12451 115
53.14462 129
53.16474 103
53.18485 112
53.20497 131
53.22508 137
53.24519 104
53.26531 128
53.28542 138
53.30553 137
53.32565 134
53.34576 131
53.36587 143
53.38599 130
53.4061 142
53.42622 150
53.44633 119
53.46644 121
53.48656 125
53.50667 139
53.52678 126
53.5469 124
53.56701 133
53.58713 121
53.60724 128
53.62735 125
53.64747 150
53.66758 132
53.68769 133
53.70781 116
53.72792 117
53.74804 127
53.76815 128
53.78826 104
53.80838 119
53.82849 111
53.8486 116
53.86872 116
53.88883 107
53.90894 129
53.92906 120
53.94917 125
53.96929 119
53.9894 102
54.00951 113
54.02963 116
54.04974 134
54.06985 111
54.08997 124
54.11008 120
54.1302 119
54.15031 113
54.17042 140
54.19054 117
54.21065 142
54.23076 121
54.25088 124
54.27099 129
54.29111 125
54.31122 123
54.33133 140
54.35145 157
54.37156 155
54.39167 153
54.41179 149
54.4319 148
54.45201 140
54.47213 153
54.49224 164
54.51236 161
54.53247 191
54.55258 183
54.5727 189
54.59281 209
54.61292 227
54.63304 257
54.65315 245
54.67327 308
54.69338 354
54.71349 409
54.73361 473
54.75372 578
54.77383 728
54.79395 870
54.81406 1015
54.83417 1239
54.85429 1452
54.8744 1437
54.89452 1291
54.91463 1003
54.93474 724
54.95486 652
54.97497 698
54.99508 720
55.0152 751
55.03531 710
55.05543 556
55.07554 393
55.09565 328
55.11577 254
55.13588 263
55.15599 267
55.17611 274
55.19622 318
55.21634 388
55.23645 391
55.25656 474
55.27668 571
55.29679 573
55.3169 645
55.33702 636
55.35713 543
55.37724 484
55.39736 332
55.41747 331
55.43759 357
55.4577 376
55.47781 386
55.49793 337
55.51804 257
55.53815 200
55.55827 151
55.57838 146
55.5985 152
55.61861 180
55.63872 146
55.65884 147
55.67895 137
55.69906 138
55.71918 120
55.73929 121
55.75941 135
55.77952 124
55.79963 117
55.81975 121
55.83986 133
55.85997 111
55.88009 119
55.9002 121
55.92031 117
55.94043 110
55.96054 113
55.98066 105
56.00077 104
56.02088 103
56.041 97
56.06111 95
56.08122 107
56.10134 103
56.12145 124
56.14157 111
56.16168 107
56.18179 117
56.20191 118
56.22202 103
56.24213 123
56.26225 104
56.28236 103
56.30248 88
56.32259 125
56.3427 100
56.36282 111
56.38293 108
56.40304 105
56.42316 97
56.44327 106
56.46338 88
56.4835 114
56.50361 111
56.52373 98
56.54384 109
56.56395 118
56.58407 124
56.60418 111
56.62429 112
56.64441 103
56.66452 126
56.68464 108
56.70475 118
56.72486 118
56.74498 111
56.76509 107
56.7852 109
56.80532 122
56.82543 121
56.84554 92
56.86566 121
56.88577 107
56.90589 113
56.926 118
56.94611 104
56.96623 118
56.98634 107
57.00645 103
57.02657 108
57.04668 127
57.0668 138
57.08691 138
57.10702 146
57.12714 145
57.14725 154
57.16736 158
57.18748 171
57.20759 175
57.22771 193
57.24782 185
57.26793 167
57.28805 154
57.30816 147
57.32827 157
57.34839 144
57.3685 143
57.38861 147
57.40873 138
57.42884 123
57.44896 111
57.46907 109
57.48918 111
57.5093 101
57.52941 108
57.54952 112
57.56964 99
57.58975 101
57.60987 134
57.62998 97
57.65009 130
57.67021 101
57.69032 116
57.71043 120
57.73055 122
57.75066 108
57.77078 115
57.79089 126
57.811 96
57.83112 117
57.85123 108
57.87134 101
57.89146 95
57.91157 112
57.93168 106
57.9518 87
57.97191 110
57.99203 122
58.01214 116
58.03225 121
58.05237 123
58.07248 109
58.09259 106
58.11271 118
58.13282 123
58.15294 112
58.17305 111
58.19316 107
58.21328 124
58.23339 112
58.2535 112
58.27362 105
58.29373 116
58.31385 111
58.33396 109
58.35407 115
58.37419 116
58.3943 99
58.41441 113
58.43453 132
58.45464 115
58.47475 108
58.49487 119
58.51498 118
58.5351 134
58.55521 118
58.57532 109
58.59544 97
58.61555 145
58.63566 139
58.65578 116
58.67589 123
58.69601 144
58.71612 124
58.73623 119
58.75635 113
58.77646 128
58.79657 127
58.81669 116
58.8368 125
58.85691 129
58.87703 145
58.89714 115
58.91726 114
58.93737 118
58.95748 158
58.9776 126
58.99771 117
59.01782 131
59.03794 108
59.05805 121
59.07817 114
59.09828 111
59.11839 138
59.13851 119
59.15862 116
59.17873 121
59.19885 108
59.21896 137
59.23908 105
59.25919 105
59.2793 133
59.29942 139
59.31953 116
59.33964 140
59.35976 144
59.37987 153
59.39998 149
59.4201 156
59.44021 158
59.46033 141
59.48044 177
59.50055 171
59.52067 211
59.54078 176
59.56089 194
59.58101 223
59.60112 224
59.62124 254
59.64135 286
59.66146 312
59.68158 327
59.70169 385
59.7218 449
59.74192 500
59.76203 584
59.78215 705
59.80226 848
59.82237 1070
59.84249 1264
59.8626 1621
59.88271 1842
59.90283 2273
59.92294 2704
59.94305 2885
59.96317 2876
59.98328 2373
60.0034 1708
60.02351 1335
60.04362 1217
60.06374 1317
60.08385 1444
60.10396 1465
60.12408 1434
60.14419 1212
60.16431 869
60.18442 498
60.20453 374
60.22465 304
60.24476 224
60.26487 239
60.28499 220
60.3051 215
60.32522 171
60.34533 158
60.36544 160
60.38556 167
60.40567 139
60.42578 150
60.4459 148
60.46601 155
60.48612 141
60.50624 136
60.52635 145
60.54647 111
60.56658 152
60.58669 131
60.60681 118
60.62692 128
60.64703 132
60.66715 133
60.68726 134
60.70738 133
60.72749 129
60.7476 119
60.76772 133
60.78783 127
60.80794 98
60.82806 136
60.84817 119
60.86828 126
60.8884 120
60.90851 134
60.92863 122
60.94874 117
60.96885 135
60.98897 111
61.00908 110
61.02919 123
61.04931 103
61.06942 127
61.08954 113
61.10965 131
61.12976 135
61.14988 106
61.16999 104
61.1901 97
61.21022 114
61.23033 144
61.25045 144
61.27056 126
61.29067 128
61.31079 121
61.3309 90
61.35101 113
61.37113 126
61.39124 108
61.41135 116
61.43147 101
61.45158 104
61.4717 96
61.49181 107
61.51192 142
61.53204 94
61.55215 105
61.57226 122
61.59238 103
61.61249 111
61.63261 117
61.65272 104
61.67283 107
61.69295 95
61.71306 119
61.73317 88
61.75329 106
61.7734 122
61.79352 83
61.81363 114
61.83374 109
61.85386 120
61.87397 124
61.89408 130
61.9142 116
61.93431 115
61.95442 118
61.97454 122
61.99465 127
62.01477 119
62.03488 102
62.05499 102
62.07511 108
62.09522 128
62.11533 111
62.13545 103
62.15556 110
62.17568 134
62.19579 98
62.2159 98
62.23602 124
62.25613 109
62.27624 102
62.29636 96
62.31647 98
62.33659 95
62.3567 106
62.37681 90
62.39693 99
62.41704 103
62.43715 105
62.45727 126
62.47738 101
62.49749 100
62.51761 105
62.53772 86
62.55784 100
62.57795 98
62.59806 101
62.61818 116
62.63829 99
62.6584 115
62.67852 109
62.69863 119
62.71875 108
62.73886 106
62.75897 109
62.77909 110
62.7992 98
62.81931 122
62.83943 112
62.85954 114
62.87965 106
62.89977 104
62.91988 102
62.94 104
62.96011 89
62.98022 112
63.00034 123
63.02045 107
63.04056 111
63.06068 95
63.08079 99
63.10091 95
63.12102 121
63.14113 113
63.16125 110
63.18136 111
63.20147 120
63.22159 110
63.2417 99
63.26182 114
63.28193 101
63.30204 117
63.32216 114
63.34227 97
63.36238 93
63.3825 108
63.40261 104
63.42272 113
63.44284 99
63.46295 93
63.48307 116
63.50318 115
63.52329 107
63.54341 104
63.56352 106
63.58363 116
63.60375 120
63.62386 129
63.64398 129
63.66409 104
63.6842 150
63.70432 127
63.72443 159
63.74454 161
63.76466 186
63.78477 167
63.80489 190
63.825 185
63.84511 216
63.86523 208
63.88534 278
63.90545 292
63.92557 337
63.94568 383
63.96579 470
63.98591 486
64.00602 564
64.02614 640
64.04625 552
64.06636 494
64.08648 370
64.10659 320
64.1267 328
64.14682 341
64.16693 307
64.18705 316
64.20716 324
64.22727 343
64.24739 257
64.2675 205
64.28761 157
64.30773 139
64.32784 135
64.34796 132
64.36807 108
64.38818 107
64.4083 127
64.42841 125
64.44852 119
64.46864 110
64.48875 113
64.50886 123
64.52898 105
64.54909 101
64.56921 113
64.58932 110
64.60943 110
64.62955 119
64.64966 101
64.66977 117
64.68989 101
64.71 92
64.73012 78
64.75023 103
64.77034 97
64.79046 92
64.81057 101
64.83068 119
64.8508 114
64.87091 116
64.89102 96
64.91114 107
64.93125 112
64.95137 104
64.97148 110
64.99159 106
65.01171 116
65.03182 97
65.05193 101
65.07205 105
65.09216 98
65.11228 100
65.13239 115
65.1525 139
65.17262 131
65.19273 107
65.21284 121
65.23296 107
65.25307 102
65.27319 137
65.2933 124
65.31341 140
65.33353 106
65.35364 99
65.37375 119
65.39387 99
65.41398 125
65.43409 123
65.45421 114
65.47432 116
65.49444 132
65.51455 104
65.53466 114
65.55478 136
65.57489 126
65.595 132
65.61512 157
65.63523 155
65.65535 158
65.67546 167
65.69557 212
65.71569 210
65.7358 225
65.75591 212
65.77603 249
65.79614 250
65.81626 194
65.83637 172
65.85648 164
65.8766 151
65.89671 167
65.91682 176
65.93694 168
65.95705 181
65.97716 175
65.99728 164
66.01739 139
66.03751 131
66.05762 125
66.07773 119
66.09785 120
66.11796 128
66.13807 145
66.15819 110
66.1783 101
66.19842 117
66.21853 123
66.23864 117
66.25876 115
66.27887 117
66.29898 124
66.3191 114
66.33921 102
66.35933 120
66.37944 140
66.39955 154
66.41967 117
66.43978 127
66.45989 121
66.48001 114
66.50012 107
66.52023 117
66.54035 150
66.56046 115
66.58058 120
66.60069 130
66.6208 108
66.64092 109
66.66103 97
66.68114 145
66.70126 127
66.72137 131
66.74149 123
66.7616 111
66.78171 127
66.80183 143
66.82194 118
66.84205 119
66.86217 113
66.88228 122
66.90239 129
66.92251 134
66.94262 140
66.96274 116
66.98285 149
67.00296 122
67.02308 127
67.04319 135
67.0633 132
67.08342 149
67.10353 145
67.12365 149
67.14376 152
67.16387 140
67.18399 141
67.2041 161
67.22421 159
67.24433 144
67.26444 151
67.28456 147
67.30467 166
67.32478 193
67.3449 185
67.36501 187
67.38512 205
67.40524 200
67.42535 252
67.44546 275
67.46558 300
67.48569 302
67.50581 331
67.52592 417
67.54603 440
67.56615 518
67.58626 608
67.60637 703
67.62649 863
67.6466 1036
67.66672 1243
67.68683 1313
67.70694 1550
67.72706 1710
67.74717 1705
67.76728 1446
67.7874 1112
67.80751 877
67.82763 791
67.84774 853
67.86785 938
67.88797 1061
67.90808 1147
67.92819 1212
67.94831 1219
67.96842 1079
67.98853 1101
68.00865 1053
68.02876 1218
68.04888 1288
68.06899 1570
68.0891 1776
68.10922 2138
68.12933 2253
68.14944 2285
68.16956 2021
68.18967 1656
68.20979 1452
68.2299 1452
68.25001 1579
68.27013 1794
68.29024 1975
68.31035 1995
68.33047 1944
68.35058 1632
68.3707 1114
68.39081 906
68.41092 733
68.43104 694
68.45115 675
68.47126 679
68.49138 737
68.51149 673
68.5316 565
68.55172 388
68.57183 292
68.59195 254
68.61206 209
68.63217 175
68.65229 185
68.6724 173
68.69251 166
68.71263 149
68.73274 148
68.75286 155
68.77297 120
68.79308 151
68.8132 131
68.83331 134
68.85342 152
68.87354 137
68.89365 145
68.91376 117
68.93388 141
68.95399 138
68.97411 111
68.99422 122
69.01433 127
69.03445 120
69.05456 130
69.07467 123
69.09479 125
69.1149 136
69.13502 127
69.15513 118
69.17524 140
69.19536 114
69.21547 127
69.23558 108
69.2557 132
69.27581 125
69.29593 121
69.31604 106
69.33615 99
69.35627 98
69.37638 111
69.39649 112
69.41661 126
69.43672 106
69.45683 112
69.47695 109
69.49706 124
69.51718 112
69.53729 115
69.5574 105
69.57752 107
69.59763 115
69.61774 105
69.63786 92
69.65797 104
69.67809 114
69.6982 113
69.71831 130
69.73843 109
69.75854 105
69.77865 106
69.79877 103
69.81888 95
69.839 100
69.85911 102
69.87922 107
69.89934 103
69.91945 93
69.93956 103
69.95968 96
69.97979 115
69.9999 116
70.02002 101
70.04013 93
70.06025 115
70.08036 116
70.10047 104
70.12059 106
70.1407 111
70.16081 94
70.18093 95
70.20104 99
70.22116 96
70.24127 107
70.26138 111
70.2815 125
70.30161 95
70.32172 87
70.34184 101
70.36195 109
70.38207 105
70.40218 108
70.42229 121
70.44241 123
70.46252 91
70.48263 114
70.50275 102
70.52286 107
70.54297 101
70.56309 102
70.5832 91
70.60332 100
70.62343 84
70.64354 90
70.66366 123
70.68377 96
70.70388 114
70.724 101
70.74411 102
70.76423 91
70.78434 101
70.80445 91
70.82457 106
70.84468 109
70.86479 110
70.88491 115
70.90502 114
70.92513 102
70.94525 112
70.96536 94
70.98548 96
71.00559 105
71.0257 123
71.04582 102
71.06593 100
71.08604 100
71.10616 95
71.12627 110
71.14639 100
71.1665 96
71.18661 107
71.20673 116
71.22684 83
71.24695 97
71.26707 95
71.28718 79
71.3073 105
71.32741 123
71.34752 93
71.36764 108
71.38775 96
71.40786 93
71.42798 83
71.44809 105
71.4682 102
71.48832 110
71.50843 97
71.52855 101
71.54866 102
71.56877 108
71.58889 113
71.609 108
71.62911 114
71.64923 106
71.66934 92
71.68946 104
71.70957 96
71.72968 106
71.7498 118
71.76991 110
71.79002 95
71.81014 80
71.83025 102
71.85037 116
71.87048 99
71.89059 116
71.91071 115
71.93082 110
71.95093 110
71.97105 89
71.99116 95
72.01127 97
72.03139 97
72.0515 115
72.07162 123
72.09173 90
72.11184 104
72.13196 106
72.15207 103
72.17218 95
72.1923 99
72.21241 95
72.23253 95
72.25264 96
72.27275 110
72.29287 112
72.31298 104
72.33309 110
72.35321 109
72.37332 87
72.39344 100
72.41355 103
72.43366 97
72.45378 98
72.47389 89
72.494 115
72.51412 97
72.53423 94
72.55434 94
72.57446 97
72.59457 100
72.61469 99
72.6348 103
72.65491 117
72.67503 94
72.69514 118
72.71525 117
72.73537 107
72.75548 116
72.7756 112
72.79571 106
72.81582 105
72.83594 96
72.85605 108
72.87616 82
72.89628 105
72.91639 108
72.9365 119
72.95662 130
72.97673 114
72.99685 123
73.01696 112
73.03707 122
73.05719 122
73.0773 120
73.09741 140
73.11753 136
73.13764 138
73.15776 147
73.17787 150
73.19798 161
73.2181 198
73.23821 186
73.25832 217
73.27844 188
73.29855 263
73.31867 292
73.33878 323
73.35889 352
73.37901 417
73.39912 527
73.41923 555
73.43935 592
73.45946 624
73.47957 562
73.49969 430
73.5198 341
73.53992 298
73.56003 258
73.58014 312
73.60026 266
73.62037 280
73.64048 370
73.6606 338
73.68071 317
73.70083 286
73.72094 265
73.74105 178
73.76117 145
73.78128 142
73.80139 130
73.82151 146
73.84162 124
73.86174 140
73.88185 118
73.90196 102
73.92208 110
73.94219 133
73.9623 101
73.98242 110
74.00253 87
74.02264 112
74.04276 108
74.06287 98
74.08299 95
74.1031 108
74.12321 93
74.14333 106
74.16344 91
74.18355 113
74.20367 104
74.22378 94
74.2439 109
74.26401 109
74.28412 96
74.30424 117
74.32435 89
74.34446 104
74.36458 120
74.38469 84
74.40481 87
74.42492 99
74.44503 103
74.46515 118
74.48526 91
74.50537 102
74.52549 111
74.5456 89
74.56571 94
74.58583 110
74.60594 107
74.62606 106
74.64617 106
74.66628 112
74.6864 94
74.70651 95
74.72662 106
74.74674 112
74.76685 111
74.78697 114
74.80708 111
74.82719 123
74.84731 104
74.86742 103
74.88753 110
74.90765 98
74.92776 109
74.94787 109
74.96799 129
74.9881 113
75.00822 100
