3.00117 16184
3.02128 15865
3.0414 15247
3.06151 14856
3.08162 14241
3.10174 13895
3.12185 13358
3.14197 13065
3.16208 12464
3.18219 12405
3.20231 11934
3.22242 11476
3.24253 11268
3.26265 10631
3.28276 10346
3.30288 10037
3.32299 9511
3.3431 9401
3.36322 8971
3.38333 8682
3.40344 8365
3.42356 8085
3.44367 7710
3.46379 7440
3.4839 7099
3.50401 6922
3.52413 6555
3.54424 6533
3.56435 6082
3.58447 5811
3.60458 5634
3.62469 5477
3.64481 5293
3.66492 4993
3.68504 4720
3.70515 4448
3.72526 4162
3.74538 4169
3.76549 3988
3.7856 3867
3.80572 3598
3.82583 3451
3.84595 3391
3.86606 3178
3.88617 3053
3.90629 2933
3.9264 2622
3.94651 2738
3.96663 2614
3.98674 2445
4.00686 2356
4.02697 2116
4.04708 2109
4.0672 2078
4.08731 1903
4.10742 1934
4.12754 1780
4.14765 1790
4.16776 1691
4.18788 1527
4.20799 1627
4.22811 1472
4.24822 1488
4.26833 1534
4.28845 1383
4.30856 1409
4.32867 1296
4.34879 1349
4.3689 1357
4.38902 1217
4.40913 1189
4.42924 1206
4.44936 1147
4.46947 1209
4.48958 1112
4.5097 1048
4.52981 1057
4.54992 1033
4.57004 1066
4.59015 858
4.61027 907
4.63038 972
4.65049 922
4.67061 913
4.69072 907
4.71083 859
4.73095 768
4.75106 776
4.77118 821
4.79129 710
4.8114 759
4.83152 711
4.85163 708
4.87174 686
4.89186 658
4.91197 616
4.93209 620
4.9522 613
4.97231 644
4.99243 544
5.01254 601
5.03265 498
5.05277 485
5.07288 532
5.09299 502
5.11311 463
5.13322 500
5.15334 442
5.17345 494
5.19356 480
5.21368 427
5.23379 439
5.2539 437
5.27402 433
5.29413 398
5.31425 409
5.33436 416
5.35447 394
5.37459 373
5.3947 386
5.41481 376
5.43493 311
5.45504 355
5.47516 337
5.49527 336
5.51538 308
5.5355 331
5.55561 306
5.57572 337
5.59584 326
5.61595 275
5.63606 318
5.65618 284
5.67629 257
5.69641 239
5.71652 249
5.73663 270
5.75675 303
5.77686 251
5.79697 251
5.81709 260
5.8372 251
5.85732 279
5.87743 245
5.89754 254
5.91766 281
5.93777 272
5.95788 247
5.978 243
5.99811 238
6.01823 239
6.03834 253
6.05845 248
6.07857 234
6.09868 253
6.11879 238
6.13891 250
6.15902 254
6.17913 258
6.19925 252
6.21936 213
6.23948 222
6.25959 235
6.2797 273
6.29982 189
6.31993 258
6.34004 187
6.36016 216
6.38027 239
6.40039 190
6.4205 197
6.44061 203
6.46073 228
6.48084 202
6.50095 220
6.52107 246
6.54118 229
6.56129 216
6.58141 230
6.60152 205
6.62164 214
6.64175 227
6.66186 220
6.68198 214
6.70209 219
6.7222 211
6.74232 198
6.76243 212
6.78255 211
6.80266 208
6.82277 208
6.84289 201
6.863 188
6.88311 176
6.90323 223
6.92334 248
6.94346 207
6.96357 201
6.98368 216
7.0038 197
7.02391 191
7.04402 210
7.06414 210
7.08425 224
7.10436 204
7.12448 189
7.14459 240
7.16471 202
7.18482 230
7.20493 197
7.22505 205
7.24516 184
7.26527 199
7.28539 184
7.3055 193
7.32562 207
7.34573 195
7.36584 210
7.38596 230
7.40607 230
7.42618 213
7.4463 205
7.46641 199
7.48653 229
7.50664 242
7.52675 178
7.54687 240
7.56698 204
7.58709 206
7.60721 236
7.62732 219
7.64743 227
7.66755 208
7.68766 217
7.70778 193
7.72789 244
7.748 225
7.76812 201
7.78823 227
7.80834 213
7.82846 202
7.84857 208
7.86869 220
7.8888 213
7.90891 202
7.92903 244
7.94914 188
7.96925 207
7.98937 208
8.00948 229
8.0296 229
8.04971 236
8.06982 222
8.08994 211
8.11005 218
8.13016 211
8.15028 209
8.17039 220
8.1905 226
8.21062 231
8.23073 185
8.25085 228
8.27096 205
8.29107 232
8.31119 217
8.3313 233
8.35141 253
8.37153 240
8.39164 245
8.41176 236
8.43187 239
8.45198 247
8.4721 228
8.49221 248
8.51232 263
8.53244 262
8.55255 235
8.57266 266
8.59278 295
8.61289 257
8.63301 273
8.65312 283
8.67323 255
8.69335 292
8.71346 325
8.73357 277
8.75369 286
8.7738 323
8.79392 329
8.81403 301
8.83414 285
8.85426 258
8.87437 287
8.89448 266
8.9146 249
8.93471 235
8.95483 219
8.97494 229
8.99505 236
9.01517 241
9.03528 225
9.05539 211
9.07551 234
9.09562 237
9.11573 257
9.13585 238
9.15596 220
9.17608 212
9.19619 206
9.2163 216
9.23642 223
9.25653 247
9.27664 220
9.29676 213
9.31687 221
9.33699 244
9.3571 217
9.37721 238
9.39733 230
9.41744 254
9.43755 224
9.45767 227
9.47778 238
9.4979 237
9.51801 251
9.53812 239
9.55824 216
9.57835 215
9.59846 240
9.61858 197
9.63869 241
9.6588 226
9.67892 203
9.69903 188
9.71915 241
9.73926 191
9.75937 227
9.77949 253
9.7996 203
9.81971 220
9.83983 195
9.85994 223
9.88006 219
9.90017 213
9.92028 238
9.9404 237
9.96051 208
9.98062 219
10.00074 221
10.02085 219
10.04097 217
10.06108 245
10.08119 231
10.10131 206
10.12142 219
10.14153 234
10.16165 237
10.18176 236
10.20187 229
10.22199 226
10.2421 229
10.26222 230
10.28233 220
10.30244 217
10.32256 246
10.34267 236
10.36278 220
10.3829 253
10.40301 226
10.42313 232
10.44324 247
10.46335 247
10.48347 236
10.50358 233
10.52369 246
10.54381 249
10.56392 235
10.58403 210
10.60415 221
10.62426 222
10.64438 236
10.66449 210
10.6846 236
10.70472 227
10.72483 227
10.74494 215
10.76506 205
10.78517 212
10.80529 185
10.8254 209
10.84551 207
10.86563 221
10.88574 234
10.90585 240
10.92597 217
10.94608 227
10.9662 223
10.98631 245
11.00642 251
11.02654 244
11.04665 238
11.06676 233
11.08688 233
11.10699 209
11.1271 229
11.14722 211
11.16733 206
11.18745 222
11.20756 215
11.22767 213
11.24779 210
11.2679 206
11.28801 233
11.30813 222
11.32824 211
11.34836 231
11.36847 222
11.38858 215
11.4087 221
11.42881 221
11.44892 227
11.46904 282
11.48915 250
11.50927 241
11.52938 209
11.54949 229
11.56961 213
11.58972 224
11.60983 250
11.62995 225
11.65006 242
11.67017 194
11.69029 222
11.7104 245
11.73052 197
11.75063 256
11.77074 242
11.79086 200
11.81097 226
11.83108 205
11.8512 244
11.87131 239
11.89143 255
11.91154 231
11.93165 230
11.95177 224
11.97188 211
11.99199 226
12.01211 291
12.03222 220
12.05234 230
12.07245 232
12.09256 226
12.11268 207
12.13279 218
12.1529 203
12.17302 244
12.19313 272
12.21324 250
12.23336 260
12.25347 226
12.27359 237
12.2937 232
12.31381 237
12.33393 237
12.35404 216
12.37415 229
12.39427 209
12.41438 217
12.4345 242
12.45461 249
12.47472 231
12.49484 231
12.51495 229
12.53506 222
12.55518 211
12.57529 230
12.5954 233
12.61552 211
12.63563 236
12.65575 235
12.67586 199
12.69597 230
12.71609 222
12.7362 207
12.75631 210
12.77643 221
12.79654 214
12.81666 178
12.83677 193
12.85688 188
12.877 222
12.89711 213
12.91722 201
12.93734 207
12.95745 182
12.97757 192
12.99768 238
13.01779 259
13.03791 225
13.05802 223
13.07813 226
13.09825 243
13.11836 247
13.13847 236
13.15859 243
13.1787 232
13.19882 224
13.21893 244
13.23904 226
13.25916 218
13.27927 210
13.29938 226
13.3195 167
13.33961 218
13.35973 202
13.37984 209
13.39995 197
13.42007 213
13.44018 232
13.46029 225
13.48041 229
13.50052 228
13.52064 225
13.54075 268
13.56086 281
13.58098 267
13.60109 271
13.6212 277
13.64132 284
13.66143 252
13.68154 255
13.70166 265
13.72177 299
13.74189 291
13.762 328
13.78211 298
13.80223 310
13.82234 317
13.84245 357
13.86257 315
13.88268 272
13.9028 286
13.92291 256
13.94302 236
13.96314 217
13.98325 227
14.00336 219
14.02348 235
14.04359 226
14.06371 189
14.08382 193
14.10393 201
14.12405 196
14.14416 216
14.16427 220
14.18439 158
14.2045 194
14.22461 185
14.24473 197
14.26484 199
14.28496 178
14.30507 210
14.32518 221
14.3453 185
14.36541 201
14.38552 196
14.40564 215
14.42575 200
14.44587 205
14.46598 200
14.48609 206
14.50621 197
14.52632 188
14.54643 172
14.56655 204
14.58666 201
14.60677 201
14.62689 169
14.647 201
14.66712 221
14.68723 203
14.70734 198
14.72746 236
14.74757 179
14.76768 212
14.7878 220
14.80791 234
14.82803 231
14.84814 246
14.86825 240
14.88837 259
14.90848 245
14.92859 246
14.94871 235
14.96882 231
14.98894 243
15.00905 202
15.02916 210
15.04928 202
15.06939 208
15.0895 227
15.10962 212
15.12973 233
15.14984 198
15.16996 235
15.19007 226
15.21019 219
15.2303 202
15.25041 192
15.27053 213
15.29064 186
15.31075 186
15.33087 181
15.35098 194
15.3711 195
15.39121 202
15.41132 195
15.43144 189
15.45155 203
15.47166 183
15.49178 168
15.51189 186
15.53201 191
15.55212 197
15.57223 205
15.59235 160
15.61246 195
15.63257 184
15.65269 180
15.6728 200
15.69291 203
15.71303 211
15.73314 232
15.75326 184
15.77337 240
15.79348 200
15.8136 207
15.83371 189
15.85382 191
15.87394 162
15.89405 188
15.91417 213
15.93428 181
15.95439 170
15.97451 170
15.99462 189
16.01473 163
16.03485 193
16.05496 176
16.07508 199
16.09519 190
16.1153 191
16.13542 184
16.15553 197
16.17564 200
16.19576 172
16.21587 211
16.23598 194
16.2561 183
16.27621 167
16.29633 167
16.31644 171
16.33655 174
16.35667 163
16.37678 181
16.39689 184
16.41701 171
16.43712 173
16.45724 153
16.47735 188
16.49746 171
16.51758 177
16.53769 153
16.5578 184
16.57792 198
16.59803 186
16.61814 163
16.63826 155
16.65837 166
16.67849 172
16.6986 182
16.71871 194
16.73883 157
16.75894 195
16.77905 155
16.79917 194
16.81928 187
16.8394 169
16.85951 188
16.87962 198
16.89974 199
16.91985 188
16.93996 177
16.96008 200
16.98019 174
17.00031 196
17.02042 165
17.04053 176
17.06065 173
17.08076 185
17.10087 177
17.12099 183
17.1411 173
17.16121 163
17.18133 176
17.20144 171
17.22156 161
17.24167 176
17.26178 162
17.2819 171
17.30201 206
17.32212 193
17.34224 200
17.36235 166
17.38247 207
17.40258 160
17.42269 163
17.44281 154
17.46292 177
17.48303 204
17.50315 215
17.52326 215
17.54338 207
17.56349 198
17.5836 191
17.60372 210
17.62383 218
17.64394 215
17.66406 197
17.68417 206
17.70428 207
17.7244 204
17.74451 198
17.76463 199
17.78474 164
17.80485 217
17.82497 198
17.84508 185
17.86519 184
17.88531 185
17.90542 190
17.92554 172
17.94565 157
17.96576 180
17.98588 190
18.00599 160
18.0261 167
18.04622 157
18.06633 173
18.08645 169
18.10656 165
18.12667 192
18.14679 168
18.1669 169
18.18701 189
18.20713 164
18.22724 167
18.24735 149
18.26747 187
18.28758 150
18.3077 187
18.32781 158
18.34792 158
18.36804 151
18.38815 183
18.40826 168
18.42838 176
18.44849 192
18.46861 157
18.48872 198
18.50883 197
18.52895 187
18.54906 194
18.56917 169
18.58929 186
18.6094 216
18.62951 181
18.64963 197
18.66974 174
18.68986 187
18.70997 184
18.73008 178
18.7502 183
18.77031 192
18.79042 185
18.81054 186
18.83065 167
18.85077 171
18.87088 183
18.89099 206
18.91111 207
18.93122 206
18.95133 179
18.97145 170
18.99156 205
19.01168 175
19.03179 176
19.0519 202
19.07202 201
19.09213 160
19.11224 245
19.13236 228
19.15247 213
19.17258 242
19.1927 224
19.21281 251
19.23293 226
19.25304 235
19.27315 221
19.29327 192
19.31338 209
19.33349 228
19.35361 210
19.37372 220
19.39384 186
19.41395 238
19.43406 198
19.45418 232
19.47429 214
19.4944 224
19.51452 205
19.53463 225
19.55475 225
19.57486 237
19.59497 249
19.61509 255
19.6352 229
19.65531 256
19.67543 256
19.69554 270
19.71565 247
19.73577 288
19.75588 275
19.776 293
19.79611 302
19.81622 294
19.83634 339
19.85645 285
19.87656 326
19.89668 289
19.91679 285
19.93691 251
19.95702 253
19.97713 254
19.99725 272
20.01736 243
20.03747 291
20.05759 275
20.0777 311
20.09782 286
20.11793 265
20.13804 250
20.15816 270
20.17827 284
20.19838 271
20.2185 281
20.23861 292
20.25872 277
20.27884 264
20.29895 272
20.31907 313
20.33918 251
20.35929 278
20.37941 287
20.39952 301
20.41963 312
20.43975 314
20.45986 304
20.47998 358
20.50009 370
20.5202 359
20.54032 347
20.56043 364
20.58054 456
20.60066 506
20.62077 615
20.64088 728
20.661 971
20.68111 1184
20.70123 1533
20.72134 2000
20.74145 2435
20.76157 2997
20.78168 3341
20.80179 3579
20.82191 3587
20.84202 3068
20.86214 2589
20.88225 2070
20.90236 1575
20.92248 1263
20.94259 1067
20.9627 955
20.98282 847
21.00293 786
21.02305 692
21.04316 634
21.06327 523
21.08339 457
21.1035 398
21.12361 358
21.14373 312
21.16384 315
21.18395 279
21.20407 297
21.22418 290
21.2443 263
21.26441 287
21.28452 289
21.30464 300
21.32475 260
21.34486 267
21.36498 262
21.38509 264
21.40521 285
21.42532 270
21.44543 253
21.46555 236
21.48566 257
21.50577 246
21.52589 274
21.546 247
21.56612 244
21.58623 271
21.60634 277
21.62646 241
21.64657 256
21.66668 259
21.6868 239
21.70691 252
21.72702 265
21.74714 295
21.76725 304
21.78737 307
21.80748 325
21.82759 381
21.84771 506
21.86782 581
21.88793 656
21.90805 826
21.92816 850
21.94828 932
21.96839 951
21.9885 917
22.00862 902
22.02873 760
22.04884 643
22.06896 584
22.08907 469
22.10919 376
22.1293 360
22.14941 376
22.16953 379
22.18964 367
22.20975 394
22.22987 372
22.24998 361
22.27009 330
22.29021 336
22.31032 360
22.33044 322
22.35055 301
22.37066 300
22.39078 240
22.41089 280
22.431 283
22.45112 259
22.47123 268
22.49135 236
22.51146 286
22.53157 288
22.55169 290
22.5718 294
22.59191 261
22.61203 292
22.63214 274
22.65225 265
22.67237 256
22.69248 265
22.7126 273
22.73271 265
22.75282 263
22.77294 257
22.79305 283
22.81316 282
22.83328 308
22.85339 314
22.87351 348
22.89362 372
22.91373 369
22.93385 413
22.95396 425
22.97407 433
22.99419 411
23.0143 426
23.03442 436
23.05453 440
23.07464 448
23.09476 483
23.11487 523
23.13498 463
23.1551 545
23.17521 447
23.19532 415
23.21544 370
23.23555 342
23.25567 340
23.27578 335
23.29589 323
23.31601 305
23.33612 321
23.35623 307
23.37635 345
23.39646 441
23.41658 410
23.43669 467
23.4568 511
23.47692 515
23.49703 525
23.51714 555
23.53726 564
23.55737 511
23.57749 450
23.5976 421
23.61771 430
23.63783 369
23.65794 374
23.67805 358
23.69817 372
23.71828 384
23.73839 384
23.75851 345
23.77862 423
23.79874 400
23.81885 503
23.83896 545
23.85908 591
23.87919 600
23.8993 635
23.91942 631
23.93953 667
23.95965 614
23.97976 556
23.99987 512
24.01999 507
24.0401 491
24.06021 511
24.08033 553
24.10044 534
24.12056 524
24.14067 596
24.16078 644
24.1809 587
24.20101 660
24.22112 657
24.24124 639
24.26135 668
24.28146 619
24.30158 529
24.32169 551
24.34181 470
24.36192 408
24.38203 371
24.40215 335
24.42226 316
24.44237 341
24.46249 313
24.4826 288
24.50272 282
24.52283 301
24.54294 319
24.56306 292
24.58317 294
24.60328 316
24.6234 346
24.64351 368
24.66362 353
24.68374 299
24.70385 308
24.72397 331
24.74408 303
24.76419 296
24.78431 301
24.80442 271
24.82453 292
24.84465 294
24.86476 275
24.88488 275
24.90499 316
24.9251 281
24.94522 269
24.96533 281
24.98544 270
25.00556 276
25.02567 264
25.04579 248
25.0659 274
25.08601 261
25.10613 290
25.12624 279
25.14635 299
25.16647 285
25.18658 300
25.20669 279
25.22681 310
25.24692 302
25.26704 349
25.28715 383
25.30726 349
25.32738 407
25.34749 468
25.3676 451
25.38772 534
25.40783 610
25.42795 695
25.44806 732
25.46817 727
25.48829 690
25.5084 688
25.52851 690
25.54863 638
25.56874 612
25.58886 558
25.60897 598
25.62908 535
25.6492 490
25.66931 506
25.68942 461
25.70954 445
25.72965 426
25.74976 402
25.76988 389
25.78999 339
25.81011 387
25.83022 382
25.85033 377
25.87045 389
25.89056 387
25.91067 392
25.93079 378
25.9509 379
25.97102 402
25.99113 403
26.01124 403
26.03136 420
26.05147 485
26.07158 458
26.0917 501
26.11181 536
26.13193 614
26.15204 594
26.17215 631
26.19227 703
26.21238 797
26.23249 833
26.25261 1012
26.27272 1131
26.29283 1312
26.31295 1399
26.33306 1687
26.35318 1913
26.37329 2241
26.3934 2775
26.41352 3339
26.43363 4278
26.45374 5497
26.47386 7109
26.49397 9126
26.51409 11504
26.5342 13373
26.55431 15060
26.57443 15798
26.59454 15132
26.61465 13524
26.63477 11426
26.65488 8685
26.67499 6218
26.69511 4373
26.71522 2915
26.73534 1957
26.75545 1354
26.77556 1154
26.79568 989
26.81579 935
26.8359 866
26.85602 831
26.87613 789
26.89625 807
26.91636 854
26.93647 852
26.95659 879
26.9767 915
26.99681 915
27.01693 878
27.03704 870
27.05716 784
27.07727 678
27.09738 652
27.1175 605
27.13761 620
27.15772 564
27.17784 614
27.19795 664
27.21806 744
27.23818 787
27.25829 905
27.27841 973
27.29852 1004
27.31863 1192
27.33875 1306
27.35886 1255
27.37897 1382
27.39909 1412
27.4192 1286
27.43932 1272
27.45943 1159
27.47954 1039
27.49966 952
27.51977 846
27.53988 791
27.56 761
27.58011 776
27.60023 841
27.62034 930
27.64045 993
27.66057 1077
27.68068 1189
27.70079 1290
27.72091 1313
27.74102 1296
27.76113 1359
27.78125 1381
27.80136 1547
27.82148 1509
27.84159 1602
27.8617 1606
27.88182 1657
27.90193 1544
27.92204 1343
27.94216 1297
27.96227 1061
27.98239 1032
28.0025 890
28.02261 770
28.04273 742
28.06284 649
28.08295 617
28.10307 586
28.12318 545
28.1433 582
28.16341 552
28.18352 564
28.20364 551
28.22375 569
28.24386 518
28.26398 560
28.28409 447
28.3042 472
28.32432 406
28.34443 392
28.36455 370
28.38466 366
28.40477 309
28.42489 326
28.445 299
28.46511 259
28.48523 282
28.50534 237
28.52546 264
28.54557 272
28.56568 307
28.5858 252
28.60591 236
28.62602 252
28.64614 240
28.66625 253
28.68636 247
28.70648 210
28.72659 225
28.74671 259
28.76682 238
28.78693 247
28.80705 225
28.82716 219
28.84727 252
28.86739 237
28.8875 238
28.90762 220
28.92773 253
28.94784 257
28.96796 234
28.98807 227
29.00818 261
29.0283 232
29.04841 241
29.06853 250
29.08864 226
29.10875 227
29.12887 263
29.14898 275
29.16909 258
29.18921 258
29.20932 265
29.22943 268
29.24955 319
29.26966 320
29.28978 370
29.30989 331
29.33 359
29.35012 388
29.37023 387
29.39034 391
29.41046 398
29.43057 422
29.45069 373
29.4708 336
29.49091 341
29.51103 285
29.53114 334
29.55125 307
29.57137 305
29.59148 281
29.6116 278
29.63171 320
29.65182 317
29.67194 328
29.69205 333
29.71216 341
29.73228 393
29.75239 380
29.7725 354
29.79262 370
29.81273 373
29.83285 360
29.85296 307
29.87307 329
29.89319 354
29.9133 361
29.93341 385
29.95353 403
29.97364 435
29.99376 441
30.01387 489
30.03398 456
30.0541 509
30.07421 527
30.09432 563
30.11444 579
30.13455 601
30.15467 548
30.17478 576
30.19489 573
30.21501 520
30.23512 511
30.25523 514
30.27535 471
30.29546 480
30.31557 499
30.33569 487
30.3558 499
30.37592 543
30.39603 565
30.41614 515
30.43626 500
30.45637 483
30.47648 442
30.4966 433
30.51671 416
30.53683 433
30.55694 413
30.57705 367
30.59717 419
30.61728 437
30.63739 463
30.65751 462
30.67762 473
30.69773 486
30.71785 542
30.73796 512
30.75808 534
30.77819 486
30.7983 520
30.81842 472
30.83853 433
30.85864 415
30.87876 325
30.89887 364
30.91899 319
30.9391 288
30.95921 278
30.97933 291
30.99944 241
31.01955 288
31.03967 244
31.05978 289
31.0799 268
31.10001 266
31.12012 291
31.14024 289
31.16035 307
31.18046 278
31.20058 301
31.22069 325
31.2408 316
31.26092 259
31.28103 289
31.30115 293
31.32126 265
31.34137 266
31.36149 288
31.3816 262
31.40171 287
31.42183 252
31.44194 268
31.46206 245
31.48217 247
31.50228 253
31.5224 217
31.54251 265
31.56262 254
31.58274 219
31.60285 251
31.62297 273
31.64308 264
31.66319 266
31.68331 250
31.70342 262
31.72353 263
31.74365 244
31.76376 245
31.78387 211
31.80399 235
31.8241 219
31.84422 258
31.86433 213
31.88444 199
31.90456 233
31.92467 247
31.94478 247
31.9649 237
31.98501 259
32.00513 253
32.02524 254
32.04535 250
32.06547 278
32.08558 274
32.10569 229
32.12581 256
32.14592 262
32.16604 251
32.18615 262
32.20626 251
32.22638 237
32.24649 253
32.2666 264
32.28672 245
32.30683 242
32.32694 261
32.34706 269
32.36717 266
32.38729 273
32.4074 290
32.42751 265
32.44763 269
32.46774 251
32.48785 225
32.50797 233
32.52808 194
32.5482 241
32.56831 228
32.58842 202
32.60854 211
32.62865 211
32.64876 226
32.66888 193
32.68899 215
32.7091 236
32.72922 190
32.74933 209
32.76945 200
32.78956 200
32.80967 199
32.82979 190
32.8499 217
32.87001 199
32.89013 212
32.91024 204
32.93036 227
32.95047 228
32.97058 179
32.9907 236
33.01081 215
33.03092 208
33.05104 206
33.07115 220
33.09127 234
33.11138 213
33.13149 240
33.15161 239
33.17172 204
33.19183 192
33.21195 227
33.23206 272
33.25217 224
33.27229 235
33.2924 244
33.31252 252
33.33263 242
33.35274 230
33.37286 227
33.39297 218
33.41308 255
33.4332 200
33.45331 216
33.47343 208
33.49354 202
33.51365 208
33.53377 218
33.55388 217
33.57399 229
33.59411 248
33.61422 221
33.63434 220
33.65445 248
33.67456 201
33.69468 254
33.71479 253
33.7349 252
33.75502 249
33.77513 277
33.79524 280
33.81536 258
33.83547 277
33.85559 272
33.8757 303
33.89581 259
33.91593 257
33.93604 270
33.95615 277
33.97627 292
33.99638 310
34.0165 315
34.03661 333
34.05672 346
34.07684 322
34.09695 372
34.11706 378
34.13718 427
34.15729 382
34.17741 359
34.19752 373
34.21763 356
34.23775 296
34.25786 309
34.27797 334
34.29809 348
34.3182 292
34.33831 286
34.35843 319
34.37854 323
34.39866 316
34.41877 317
34.43888 308
34.459 346
34.47911 321
34.49922 326
34.51934 348
34.53945 298
34.55957 281
34.57968 308
34.59979 297
34.61991 302
34.64002 303
34.66013 273
34.68025 285
34.70036 319
34.72047 333
34.74059 335
34.7607 322
34.78082 332
34.80093 334
34.82104 363
34.84116 339
34.86127 367
34.88138 355
34.9015 368
34.92161 355
34.94173 382
34.96184 380
34.98195 390
35.00207 349
35.02218 355
35.04229 373
35.06241 364
35.08252 337
35.10264 289
35.12275 365
35.14286 372
35.16298 364
35.18309 329
35.2032 355
35.22332 349
35.24343 358
35.26354 373
35.28366 352
35.30377 390
35.32389 423
35.344 362
35.36411 362
35.38423 400
35.40434 408
35.42445 382
35.44457 363
35.46468 389
35.4848 386
35.50491 395
35.52502 353
35.54514 361
35.56525 325
35.58536 334
35.60548 327
35.62559 263
35.64571 303
35.66582 285
35.68593 277
35.70605 262
35.72616 299
35.74627 274
35.76639 252
35.7865 268
35.80661 249
35.82673 262
35.84684 254
35.86696 271
35.88707 275
35.90718 235
35.9273 269
35.94741 259
35.96752 268
35.98764 271
36.00775 241
36.02787 253
36.04798 264
36.06809 274
36.08821 270
36.10832 305
36.12843 277
36.14855 307
36.16866 294
36.18878 275
36.20889 337
36.229 336
36.24912 321
36.26923 363
36.28934 442
36.30946 472
36.32957 558
36.34968 615
36.3698 757
36.38991 852
36.41003 1006
36.43014 1026
36.45025 1211
36.47037 1346
36.49048 1208
36.51059 1130
36.53071 1051
36.55082 942
36.57094 761
36.59105 668
36.61116 588
36.63128 445
36.65139 423
36.6715 359
36.69162 349
36.71173 353
36.73184 315
36.75196 334
36.77207 323
36.79219 314
36.8123 341
36.83241 328
36.85253 338
36.87264 357
36.89275 362
36.91287 381
36.93298 374
36.9531 352
36.97321 338
36.99332 342
37.01344 308
37.03355 290
37.05366 291
37.07378 274
37.09389 269
37.11401 279
37.13412 250
37.15423 258
37.17435 286
37.19446 250
37.21457 256
37.23469 277
37.2548 278
37.27491 281
37.29503 302
37.31514 293
37.33526 268
37.35537 320
37.37548 312
37.3956 300
37.41571 287
37.43582 277
37.45594 291
37.47605 321
37.49617 246
37.51628 281
37.53639 275
37.55651 269
37.57662 287
37.59673 315
37.61685 258
37.63696 275
37.65708 246
37.67719 268
37.6973 295
37.71742 273
37.73753 220
37.75764 240
37.77776 214
37.79787 221
37.81798 220
37.8381 199
37.85821 214
37.87833 213
37.89844 197
37.91855 190
37.93867 184
37.95878 193
37.97889 205
37.99901 218
38.01912 210
38.03924 183
38.05935 220
38.07946 218
38.09958 229
38.11969 238
38.1398 206
38.15992 212
38.18003 207
38.20015 213
38.22026 196
38.24037 236
38.26049 225
38.2806 218
38.30071 239
38.32083 220
38.34094 245
38.36105 256
38.38117 235
38.40128 258
38.4214 243
38.44151 283
38.46162 282
38.48174 272
38.50185 283
38.52196 268
38.54208 305
38.56219 245
38.58231 249
38.60242 229
38.62253 270
38.64265 266
38.66276 236
38.68287 244
38.70299 236
38.7231 250
38.74321 247
38.76333 232
38.78344 236
38.80356 247
38.82367 274
38.84378 245
38.8639 236
38.88401 250
38.90412 252
38.92424 279
38.94435 239
38.96447 251
38.98458 261
39.00469 269
39.02481 271
39.04492 259
39.06503 276
39.08515 285
39.10526 315
39.12538 321
39.14549 349
39.1656 344
39.18572 322
39.20583 360
39.22594 484
39.24606 504
39.26617 544
39.28628 618
39.3064 786
39.32651 869
39.34663 968
39.36674 1117
39.38685 1086
39.40697 1135
39.42708 1070
39.44719 930
39.46731 843
39.48742 710
39.50754 620
39.52765 566
39.54776 475
39.56788 434
39.58799 327
39.6081 273
39.62822 249
39.64833 243
39.66845 234
39.68856 243
39.70867 232
39.72879 238
39.7489 207
39.76901 217
39.78913 230
39.80924 209
39.82935 196
39.84947 229
39.86958 235
39.8897 234
39.90981 226
39.92992 231
39.95004 229
39.97015 248
39.99026 257
40.01038 279
40.03049 294
40.05061 306
40.07072 343
40.09083 345
40.11095 446
40.13106 463
40.15117 547
40.17129 599
40.1914 597
40.21152 613
40.23163 606
40.25174 579
40.27186 546
40.29197 518
40.31208 430
40.3322 411
40.35231 378
40.37242 372
40.39254 291
40.41265 250
40.43277 246
40.45288 224
40.47299 199
40.49311 206
40.51322 232
40.53333 225
40.55345 216
40.57356 197
40.59368 207
40.61379 215
40.6339 214
40.65402 220
40.67413 207
40.69424 225
40.71436 209
40.73447 204
40.75458 186
40.7747 204
40.79481 212
40.81493 182
40.83504 218
40.85515 238
40.87527 203
40.89538 206
40.91549 213
40.93561 212
40.95572 216
40.97584 197
40.99595 213
41.01606 218
41.03618 231
41.05629 207
41.0764 189
41.09652 220
41.11663 218
41.13675 233
41.15686 227
41.17697 230
41.19709 218
41.2172 235
41.23731 218
41.25743 223
41.27754 206
41.29765 194
41.31777 226
41.33788 243
41.358 229
41.37811 209
41.39822 247
41.41834 257
41.43845 205
41.45856 245
41.47868 254
41.49879 263
41.51891 268
41.53902 302
41.55913 295
41.57925 299
41.59936 338
41.61947 356
41.63959 395
41.6597 376
41.67982 407
41.69993 434
41.72004 441
41.74016 412
41.76027 390
41.78038 409
41.8005 401
41.82061 363
41.84072 362
41.86084 311
41.88095 311
41.90107 261
41.92118 248
41.94129 281
41.96141 245
41.98152 252
42.00163 255
42.02175 228
42.04186 232
42.06198 261
42.08209 273
42.1022 284
42.12232 268
42.14243 297
42.16254 324
42.18266 361
42.20277 366
42.22289 435
42.243 498
42.26311 552
42.28323 693
42.30334 700
42.32345 734
42.34357 827
42.36368 901
42.38379 882
42.40391 868
42.42402 787
42.44414 737
42.46425 656
42.48436 571
42.50448 542
42.52459 490
42.5447 430
42.56482 385
42.58493 343
42.60505 330
42.62516 290
42.64527 320
42.66539 292
42.6855 305
42.70561 295
42.72573 307
42.74584 301
42.76595 286
42.78607 313
42.80618 268
42.8263 281
42.84641 266
42.86652 241
42.88664 274
42.90675 236
42.92686 244
42.94698 221
42.96709 240
42.98721 248
43.00732 207
43.02743 221
43.04755 203
43.06766 204
43.08777 235
43.10789 201
43.128 230
43.14812 224
43.16823 238
43.18834 230
43.20846 210
43.22857 212
43.24868 211
43.2688 204
43.28891 225
43.30902 202
43.32914 231
43.34925 225
43.36937 194
43.38948 226
43.40959 226
43.42971 246
43.44982 241
43.46993 224
43.49005 262
43.51016 220
43.53028 220
43.55039 223
43.5705 217
43.59062 215
43.61073 198
43.63084 229
43.65096 181
43.67107 202
43.69119 204
43.7113 156
43.73141 198
43.75153 186
43.77164 197
43.79175 184
43.81187 166
43.83198 205
43.85209 180
43.87221 186
43.89232 192
43.91244 185
43.93255 189
43.95266 199
43.97278 222
43.99289 176
44.013 204
44.03312 202
44.05323 200
44.07335 200
44.09346 198
44.11357 209
44.13369 210
44.1538 209
44.17391 204
44.19403 187
44.21414 208
44.23426 216
44.25437 214
44.27448 188
44.2946 187
44.31471 219
44.33482 202
44.35494 187
44.37505 197
44.39516 204
44.41528 190
44.43539 185
44.45551 195
44.47562 189
44.49573 208
44.51585 187
44.53596 214
44.55607 211
44.57619 201
44.5963 189
44.61642 227
44.63653 200
44.65664 200
44.67676 201
44.69687 188
44.71698 218
44.7371 205
44.75721 197
44.77732 174
44.79744 215
44.81755 210
44.83767 193
44.85778 194
44.87789 181
44.89801 183
44.91812 211
44.93823 231
44.95835 201
44.97846 187
44.99858 218
45.01869 190
45.0388 198
45.05892 197
45.07903 197
45.09914 195
45.11926 226
45.13937 211
45.15949 202
45.1796 237
45.19971 223
45.21983 219
45.23994 222
45.26005 193
45.28017 205
45.30028 258
45.32039 214
45.34051 251
45.36062 308
45.38074 266
45.40085 267
45.42096 292
45.44108 292
45.46119 292
45.4813 324
45.50142 362
45.52153 306
45.54165 366
45.56176 422
45.58187 442
45.60199 487
45.6221 519
45.64221 534
45.66233 571
45.68244 627
45.70256 656
45.72267 659
45.74278 634
45.7629 616
45.78301 568
45.80312 473
45.82324 448
45.84335 417
45.86346 367
45.88358 334
45.90369 281
45.92381 289
45.94392 255
45.96403 220
45.98415 221
46.00426 224
46.02437 206
46.04449 206
46.0646 206
46.08472 218
46.10483 190
46.12494 238
46.14506 211
46.16517 217
46.18528 208
46.2054 183
46.22551 220
46.24563 212
46.26574 198
46.28585 194
46.30597 184
46.32608 216
46.34619 177
46.36631 179
46.38642 177
46.40653 176
46.42665 174
46.44676 195
46.46688 170
46.48699 159
46.5071 190
46.52722 174
46.54733 179
46.56744 162
46.58756 169
46.60767 159
46.62779 179
46.6479 186
46.66801 165
46.68813 186
46.70824 213
46.72835 175
46.74847 173
46.76858 207
46.78869 180
46.80881 187
46.82892 185
46.84904 215
46.86915 215
46.88926 211
46.90938 236
46.92949 209
46.9496 214
46.96972 228
46.98983 207
47.00995 243
47.03006 248
47.05017 233
47.07029 231
47.0904 231
47.11051 229
47.13063 214
47.15074 237
47.17086 220
47.19097 212
47.21108 194
47.2312 208
47.25131 201
47.27142 218
47.29154 227
47.31165 189
47.33176 216
47.35188 220
47.37199 251
47.39211 222
47.41222 208
47.43233 204
47.45245 204
47.47256 208
47.49267 210
47.51279 226
47.5329 216
47.55302 212
47.57313 196
47.59324 220
47.61336 186
47.63347 204
47.65358 207
47.6737 209
47.69381 181
47.71393 211
47.73404 191
47.75415 198
47.77427 202
47.79438 219
47.81449 164
47.83461 206
47.85472 199
47.87483 222
47.89495 218
47.91506 197
47.93518 223
47.95529 199
47.9754 208
47.99552 209
48.01563 241
48.03574 256
48.05586 226
48.07597 204
48.09609 223
48.1162 211
48.13631 230
48.15643 230
48.17654 222
48.19665 242
48.21677 241
48.23688 224
48.257 232
48.27711 229
48.29722 216
48.31734 223
48.33745 216
48.35756 204
48.37768 195
48.39779 221
48.4179 197
48.43802 200
48.45813 211
48.47825 206
48.49836 231
48.51847 201
48.53859 228
48.5587 197
48.57881 232
48.59893 226
48.61904 229
48.63916 221
48.65927 228
48.67938 215
48.6995 233
48.71961 234
48.73972 230
48.75984 246
48.77995 238
48.80006 244
48.82018 261
48.84029 240
48.86041 248
48.88052 262
48.90063 249
48.92075 251
48.94086 256
48.96097 247
48.98109 268
49.0012 256
49.02132 237
49.04143 265
49.06154 260
49.08166 280
49.10177 285
49.12188 273
49.142 265
49.16211 256
49.18223 242
49.20234 245
49.22245 268
49.24257 232
49.26268 227
49.28279 237
49.30291 253
49.32302 214
49.34313 240
49.36325 211
49.38336 218
49.40348 224
49.42359 237
49.4437 208
49.46382 216
49.48393 204
49.50404 226
49.52416 239
49.54427 231
49.56439 256
49.5845 260
49.60461 290
49.62473 312
49.64484 312
49.66495 303
49.68507 319
49.70518 345
49.7253 329
49.74541 383
49.76552 431
49.78564 437
49.80575 515
49.82586 555
49.84598 569
49.86609 611
49.8862 692
49.90632 720
49.92643 924
49.94655 1025
49.96666 1149
49.98677 1444
50.00689 1460
50.027 1718
50.04711 1785
50.06723 1789
50.08734 1631
50.10746 1453
50.12757 1297
50.14768 1188
50.1678 1043
50.18791 986
50.20802 924
50.22814 819
50.24825 638
50.26837 524
50.28848 479
50.30859 405
50.32871 362
50.34882 406
50.36893 397
50.38905 419
50.40916 395
50.42927 449
50.44939 444
50.4695 455
50.48962 410
50.50973 428
50.52984 440
50.54996 386
50.57007 381
50.59018 392
50.6103 346
50.63041 349
50.65053 346
50.67064 339
50.69075 325
50.71087 281
50.73098 325
50.75109 286
50.77121 292
50.79132 292
50.81143 280
50.83155 280
50.85166 247
50.87178 252
50.89189 268
50.912 257
50.93212 260
50.95223 256
50.97234 267
50.99246 268
51.01257 262
51.03269 280
51.0528 279
51.07291 273
51.09303 267
51.11314 262
51.13325 229
51.15337 271
51.17348 292
51.1936 243
51.21371 271
51.23382 279
51.25394 265
51.27405 265
51.29416 239
51.31428 241
51.33439 228
51.3545 212
51.37462 247
51.39473 217
51.41485 226
51.43496 214
51.45507 214
51.47519 200
51.4953 242
51.51541 176
51.53553 198
51.55564 194
51.57576 181
51.59587 180
51.61598 156
51.6361 185
51.65621 174
51.67632 175
51.69644 165
51.71655 162
51.73667 145
51.75678 164
51.77689 164
51.79701 148
51.81712 145
51.83723 171
51.85735 181
51.87746 184
51.89757 177
51.91769 173
51.9378 173
51.95792 172
51.97803 180
51.99814 184
52.01826 190
52.03837 213
52.05848 194
52.0786 177
52.09871 200
52.11883 184
52.13894 201
52.15905 193
52.17917 206
52.19928 176
52.21939 196
52.23951 198
52.25962 204
52.27974 192
52.29985 217
52.31996 222
52.34008 219
52.36019 207
52.3803 189
52.40042 193
52.42053 232
52.44064 215
52.46076 255
52.48087 229
52.50099 218
52.5211 202
52.54121 209
52.56133 213
52.58144 191
52.60155 224
52.62167 221
52.64178 255
52.6619 207
52.68201 190
52.70212 187
52.72224 217
52.74235 212
52.76246 220
52.78258 201
52.80269 202
52.8228 199
52.84292 221
52.86303 183
52.88315 208
52.90326 216
52.92337 220
52.94349 203
52.9636 220
52.98371 202
53.00383 201
53.02394 205
53.04406 202
53.06417 231
53.08428 199
53.1044 228
53.12451 207
53.14462 210
53.16474 224
53.18485 222
53.20497 225
53.22508 197
53.24519 195
53.26531 211
53.28542 200
53.30553 219
53.32565 201
53.34576 193
53.36587 198
53.38599 201
53.4061 199
53.42622 181
53.44633 195
53.46644 193
53.48656 205
53.50667 185
53.52678 210
53.5469 228
53.56701 178
53.58713 182
53.60724 178
53.62735 195
53.64747 209
53.66758 193
53.68769 197
53.70781 224
53.72792 201
53.74804 201
53.76815 208
53.78826 195
53.80838 194
53.82849 185
53.8486 202
53.86872 224
53.88883 190
53.90894 196
53.92906 220
53.94917 208
53.96929 190
53.9894 208
54.00951 198
54.02963 232
54.04974 210
54.06985 194
54.08997 196
54.11008 217
54.1302 207
54.15031 208
54.17042 237
54.19054 220
54.21065 224
54.23076 230
54.25088 214
54.27099 226
54.29111 233
54.31122 223
54.33133 230
54.35145 221
54.37156 226
54.39167 203
54.41179 241
54.4319 235
54.45201 239
54.47213 213
54.49224 244
54.51236 243
54.53247 240
54.55258 266
54.5727 264
54.59281 300
54.61292 315
54.63304 324
54.65315 381
54.67327 412
54.69338 422
54.71349 505
54.73361 542
54.75372 616
54.77383 606
54.79395 646
54.81406 568
54.83417 566
54.85429 515
54.8744 477
54.89452 465
54.91463 411
54.93474 443
54.95486 425
54.97497 407
54.99508 345
55.0152 328
55.03531 306
55.05543 275
55.07554 289
55.09565 297
55.11577 299
55.13588 293
55.15599 349
55.17611 350
55.19622 361
55.21634 406
55.23645 379
55.25656 415
55.27668 412
55.29679 370
55.3169 361
55.33702 326
55.35713 297
55.37724 317
55.39736 306
55.41747 300
55.43759 268
55.4577 260
55.47781 238
55.49793 246
55.51804 226
55.53815 220
55.55827 224
55.57838 216
55.5985 205
55.61861 224
55.63872 188
55.65884 232
55.67895 215
55.69906 205
55.71918 196
55.73929 202
55.75941 194
55.77952 193
55.79963 201
55.81975 225
55.83986 189
55.85997 192
55.88009 216
55.9002 206
55.92031 198
55.94043 197
55.96054 227
55.98066 229
56.00077 217
56.02088 186
56.041 225
56.06111 203
56.08122 205
56.10134 185
56.12145 218
56.14157 209
56.16168 200
56.18179 206
56.20191 157
56.22202 192
56.24213 173
56.26225 184
56.28236 202
56.30248 182
56.32259 200
56.3427 184
56.36282 197
56.38293 163
56.40304 188
56.42316 165
56.44327 224
56.46338 182
56.4835 180
56.50361 199
56.52373 193
56.54384 191
56.56395 191
56.58407 216
56.60418 193
56.62429 209
56.64441 201
56.66452 203
56.68464 160
56.70475 185
56.72486 191
56.74498 195
56.76509 198
56.7852 195
56.80532 164
56.82543 187
56.84554 185
56.86566 186
56.88577 188
56.90589 159
56.926 182
56.94611 183
56.96623 196
56.98634 190
57.00645 164
57.02657 163
57.04668 211
57.0668 214
57.08691 212
57.10702 205
57.12714 206
57.14725 224
57.16736 215
57.18748 219
57.20759 232
57.22771 190
57.24782 190
57.26793 223
57.28805 194
57.30816 220
57.32827 195
57.34839 223
57.3685 237
57.38861 192
57.40873 212
57.42884 204
57.44896 198
57.46907 201
57.48918 187
57.5093 206
57.52941 191
57.54952 186
57.56964 224
57.58975 184
57.60987 186
57.62998 186
57.65009 165
57.67021 184
57.69032 215
57.71043 174
57.73055 183
57.75066 170
57.77078 171
57.79089 215
57.811 209
57.83112 154
57.85123 186
57.87134 200
57.89146 195
57.91157 215
57.93168 185
57.9518 184
57.97191 202
57.99203 228
58.01214 218
58.03225 196
58.05237 231
58.07248 195
58.09259 210
58.11271 176
58.13282 207
58.15294 206
58.17305 211
58.19316 190
58.21328 197
58.23339 184
58.2535 200
58.27362 219
58.29373 189
58.31385 209
58.33396 207
58.35407 245
58.37419 203
58.3943 211
58.41441 228
58.43453 203
58.45464 215
58.47475 214
58.49487 227
58.51498 225
58.5351 242
58.55521 245
58.57532 236
58.59544 214
58.61555 242
58.63566 213
58.65578 217
58.67589 202
58.69601 183
58.71612 234
58.73623 201
58.75635 207
58.77646 209
58.79657 192
58.81669 177
58.8368 178
58.85691 207
58.87703 208
58.89714 168
58.91726 158
58.93737 197
58.95748 191
58.9776 152
58.99771 162
59.01782 189
59.03794 171
59.05805 172
59.07817 169
59.09828 176
59.11839 181
59.13851 201
59.15862 207
59.17873 188
59.19885 181
59.21896 186
59.23908 213
59.25919 211
59.2793 171
59.29942 198
59.31953 205
59.33964 202
59.35976 190
59.37987 182
59.39998 222
59.4201 257
59.44021 223
59.46033 220
59.48044 218
59.50055 268
59.52067 226
59.54078 261
59.56089 251
59.58101 272
59.60112 303
59.62124 322
59.64135 374
59.66146 398
59.68158 433
59.70169 557
59.7218 540
59.74192 633
59.76203 677
59.78215 816
59.80226 895
59.82237 996
59.84249 1134
59.8626 1168
59.88271 1183
59.90283 1128
59.92294 919
59.94305 884
59.96317 760
59.98328 708
60.0034 635
60.02351 683
60.04362 652
60.06374 603
60.08385 525
60.10396 436
60.12408 376
60.14419 300
60.16431 282
60.18442 288
60.20453 263
60.22465 254
60.24476 224
60.26487 247
60.28499 210
60.3051 248
60.32522 235
60.34533 248
60.36544 207
60.38556 233
60.40567 195
60.42578 207
60.4459 223
60.46601 201
60.48612 203
60.50624 206
60.52635 191
60.54647 211
60.56658 192
60.58669 199
60.60681 192
60.62692 207
60.64703 214
60.66715 195
60.68726 174
60.70738 197
60.72749 177
60.7476 207
60.76772 186
60.78783 213
60.80794 180
60.82806 191
60.84817 217
60.86828 196
60.8884 216
60.90851 212
60.92863 208
60.94874 206
60.96885 194
60.98897 217
61.00908 213
61.02919 228
61.04931 213
61.06942 215
61.08954 250
61.10965 225
61.12976 223
61.14988 236
61.16999 197
61.1901 233
61.21022 222
61.23033 209
61.25045 230
61.27056 178
61.29067 214
61.31079 190
61.3309 200
61.35101 176
61.37113 187
61.39124 203
61.41135 218
61.43147 188
61.45158 167
61.4717 227
61.49181 212
61.51192 207
61.53204 217
61.55215 218
61.57226 201
61.59238 212
61.61249 201
61.63261 176
61.65272 216
61.67283 215
61.69295 209
61.71306 216
61.73317 209
61.75329 198
61.7734 203
61.79352 197
61.81363 203
61.83374 197
61.85386 186
61.87397 219
61.89408 194
61.9142 194
61.93431 195
61.95442 231
61.97454 209
61.99465 195
62.01477 186
62.03488 226
62.05499 234
62.07511 199
62.09522 203
62.11533 185
62.13545 186
62.15556 187
62.17568 210
62.19579 190
62.2159 195
62.23602 188
62.25613 205
62.27624 210
62.29636 196
62.31647 173
62.33659 188
62.3567 199
62.37681 182
62.39693 194
62.41704 210
62.43715 195
62.45727 179
62.47738 188
62.49749 204
62.51761 203
62.53772 197
62.55784 212
62.57795 205
62.59806 197
62.61818 205
62.63829 185
62.6584 222
62.67852 191
62.69863 197
62.71875 204
62.73886 190
62.75897 224
62.77909 188
62.7992 223
62.81931 179
62.83943 198
62.85954 225
62.87965 216
62.89977 212
62.91988 212
62.94 212
62.96011 214
62.98022 202
63.00034 234
63.02045 197
63.04056 225
63.06068 232
63.08079 206
63.10091 214
63.12102 214
63.14113 224
63.16125 224
63.18136 230
63.20147 202
63.22159 234
63.2417 202
63.26182 222
63.28193 229
63.30204 208
63.32216 197
63.34227 202
63.36238 219
63.3825 220
63.40261 207
63.42272 222
63.44284 222
63.46295 232
63.48307 231
63.50318 242
63.52329 296
63.54341 242
63.56352 258
63.58363 263
63.60375 262
63.62386 265
63.64398 264
63.66409 282
63.6842 279
63.70432 289
63.72443 308
63.74454 288
63.76466 304
63.78477 346
63.80489 356
63.825 350
63.84511 376
63.86523 367
63.88534 408
63.90545 401
63.92557 420
63.94568 437
63.96579 398
63.98591 391
64.00602 339
64.02614 327
64.04625 331
64.06636 287
64.08648 288
64.10659 299
64.1267 255
64.14682 274
64.16693 252
64.18705 207
64.20716 212
64.22727 215
64.24739 195
64.2675 181
64.28761 208
64.30773 185
64.32784 189
64.34796 169
64.36807 186
64.38818 176
64.4083 184
64.42841 172
64.44852 196
64.46864 173
64.48875 185
64.50886 182
64.52898 173
64.54909 188
64.56921 171
64.58932 184
64.60943 182
64.62955 185
64.64966 169
64.66977 185
64.68989 180
64.71 188
64.73012 187
64.75023 189
64.77034 185
64.79046 179
64.81057 226
64.83068 187
64.8508 204
64.87091 181
64.89102 198
64.91114 205
64.93125 218
64.95137 196
64.97148 220
64.99159 216
65.01171 226
65.03182 228
65.05193 244
65.07205 214
65.09216 205
65.11228 227
65.13239 235
65.1525 208
65.17262 215
65.19273 219
65.21284 226
65.23296 209
65.25307 216
65.27319 243
65.2933 222
65.31341 210
65.33353 223
65.35364 236
65.37375 204
65.39387 211
65.41398 220
65.43409 170
65.45421 213
65.47432 221
65.49444 178
65.51455 196
65.53466 186
65.55478 181
65.57489 187
65.595 226
65.61512 199
65.63523 208
65.65535 212
65.67546 222
65.69557 209
65.71569 226
65.7358 197
65.75591 203
65.77603 204
65.79614 198
65.81626 201
65.83637 187
65.85648 191
65.8766 181
65.89671 185
65.91682 176
65.93694 176
65.95705 206
65.97716 172
65.99728 178
66.01739 211
66.03751 185
66.05762 201
66.07773 193
66.09785 193
66.11796 224
66.13807 194
66.15819 196
66.1783 200
66.19842 219
66.21853 238
66.23864 210
66.25876 209
66.27887 210
66.29898 213
66.3191 193
66.33921 214
66.35933 207
66.37944 198
66.39955 224
66.41967 198
66.43978 214
66.45989 188
66.48001 185
66.50012 186
66.52023 161
66.54035 186
66.56046 183
66.58058 178
66.60069 188
66.6208 181
66.64092 164
66.66103 188
66.68114 175
66.70126 179
66.72137 184
66.74149 195
66.7616 194
66.78171 183
66.80183 206
66.82194 201
66.84205 186
66.86217 192
66.88228 219
66.90239 207
66.92251 193
66.94262 224
66.96274 196
66.98285 222
67.00296 208
67.02308 225
67.04319 201
67.0633 209
67.08342 237
67.10353 216
67.12365 222
67.14376 233
67.16387 221
67.18399 220
67.2041 207
67.22421 221
67.24433 218
67.26444 221
67.28456 226
67.30467 247
67.32478 237
67.3449 247
67.36501 261
67.38512 305
67.40524 269
67.42535 268
67.44546 319
67.46558 352
67.48569 370
67.50581 414
67.52592 470
67.54603 536
67.56615 589
67.58626 634
67.60637 693
67.62649 733
67.6466 792
67.66672 756
67.68683 698
67.70694 655
67.72706 595
67.74717 605
67.76728 588
67.7874 572
67.80751 524
67.82763 625
67.84774 580
67.86785 639
67.88797 587
67.90808 632
67.92819 668
67.94831 742
67.96842 750
67.98853 798
68.00865 895
68.02876 967
68.04888 1036
68.06899 1026
68.0891 949
68.10922 919
68.12933 921
68.14944 870
68.16956 837
68.18967 896
68.20979 827
68.2299 895
68.25001 886
68.27013 832
68.29024 722
68.31035 570
68.33047 540
68.35058 468
68.3707 443
68.39081 448
68.41092 431
68.43104 371
68.45115 384
68.47126 345
68.49138 290
68.51149 250
68.5316 269
68.55172 221
68.57183 197
68.59195 193
68.61206 213
68.63217 213
68.65229 190
68.6724 214
68.69251 205
68.71263 176
68.73274 182
68.75286 212
68.77297 177
68.79308 200
68.8132 206
68.83331 201
68.85342 221
68.87354 205
68.89365 164
68.91376 170
68.93388 184
68.95399 201
68.97411 201
68.99422 209
69.01433 193
69.03445 193
69.05456 186
69.07467 178
69.09479 185
69.1149 201
69.13502 207
69.15513 179
69.17524 191
69.19536 172
69.21547 179
69.23558 216
69.2557 211
69.27581 202
69.29593 191
69.31604 204
69.33615 204
69.35627 199
69.37638 210
69.39649 191
69.41661 191
69.43672 209
69.45683 196
69.47695 216
69.49706 175
69.51718 189
69.53729 196
69.5574 192
69.57752 174
69.59763 182
69.61774 195
69.63786 185
69.65797 177
69.67809 202
69.6982 176
69.71831 203
69.73843 188
69.75854 195
69.77865 202
69.79877 183
69.81888 172
69.839 183
69.85911 189
69.87922 206
69.89934 172
69.91945 188
69.93956 179
69.95968 195
69.97979 167
69.9999 195
70.02002 183
70.04013 184
70.06025 168
70.08036 169
70.10047 174
70.12059 170
70.1407 170
70.16081 160
70.18093 158
70.20104 158
70.22116 166
70.24127 160
70.26138 144
70.2815 155
70.30161 164
70.32172 134
70.34184 168
70.36195 156
70.38207 166
70.40218 167
70.42229 184
70.44241 152
70.46252 158
70.48263 169
70.50275 182
70.52286 167
70.54297 161
70.56309 151
70.5832 167
70.60332 181
70.62343 208
70.64354 178
70.66366 179
70.68377 179
70.70388 171
70.724 189
70.74411 173
70.76423 192
70.78434 177
70.80445 195
70.82457 174
70.84468 202
70.86479 176
70.88491 185
70.90502 179
70.92513 166
70.94525 172
70.96536 178
70.98548 158
71.00559 165
71.0257 194
71.04582 154
71.06593 166
71.08604 166
71.10616 163
71.12627 156
71.14639 161
71.1665 200
71.18661 175
71.20673 176
71.22684 198
71.24695 181
71.26707 164
71.28718 194
71.3073 176
71.32741 195
71.34752 170
71.36764 197
71.38775 185
71.40786 162
71.42798 160
71.44809 187
71.4682 164
71.48832 197
71.50843 174
71.52855 180
71.54866 182
71.56877 197
71.58889 167
71.609 186
71.62911 162
71.64923 172
71.66934 178
71.68946 156
71.70957 201
71.72968 169
71.7498 168
71.76991 156
71.79002 169
71.81014 162
71.83025 160
71.85037 175
71.87048 197
71.89059 161
71.91071 177
71.93082 191
71.95093 187
71.97105 160
71.99116 177
72.01127 189
72.03139 167
72.0515 182
72.07162 188
72.09173 191
72.11184 179
72.13196 183
72.15207 202
72.17218 186
72.1923 164
72.21241 187
72.23253 167
72.25264 182
72.27275 168
72.29287 175
72.31298 159
72.33309 175
72.35321 170
72.37332 166
72.39344 180
72.41355 172
72.43366 169
72.45378 169
72.47389 164
72.494 147
72.51412 189
72.53423 163
72.55434 170
72.57446 158
72.59457 178
72.61469 149
72.6348 168
72.65491 167
72.67503 178
72.69514 162
72.71525 210
72.73537 166
72.75548 173
72.7756 155
72.79571 193
72.81582 173
72.83594 200
72.85605 179
72.87616 174
72.89628 188
72.91639 188
72.9365 204
72.95662 185
72.97673 203
72.99685 219
73.01696 187
73.03707 204
73.05719 205
73.0773 196
73.09741 202
73.11753 209
73.13764 224
73.15776 241
73.17787 224
73.19798 246
73.2181 248
73.23821 271
73.25832 266
73.27844 315
73.29855 320
73.31867 364
73.33878 367
73.35889 368
73.37901 377
73.39912 356
73.41923 354
73.43935 323
73.45946 271
73.47957 255
73.49969 272
73.5198 271
73.53992 263
73.56003 267
73.58014 287
73.60026 296
73.62037 264
73.64048 259
73.6606 228
73.68071 202
73.70083 192
73.72094 205
73.74105 223
73.76117 195
73.78128 192
73.80139 205
73.82151 197
73.84162 205
73.86174 199
73.88185 194
73.90196 189
73.92208 177
73.94219 186
73.9623 192
73.98242 204
74.00253 160
74.02264 169
74.04276 168
74.06287 190
74.08299 186
74.1031 160
74.12321 189
74.14333 162
74.16344 170
74.18355 176
74.20367 183
74.22378 170
74.2439 176
74.26401 166
74.28412 153
74.30424 174
74.32435 182
74.34446 171
74.36458 166
74.38469 186
74.40481 197
74.42492 159
74.44503 160
74.46515 199
74.48526 178
74.50537 159
74.52549 181
74.5456 213
74.56571 190
74.58583 203
74.60594 193
74.62606 206
74.64617 201
74.66628 180
74.6864 201
74.70651 205
74.72662 195
74.74674 201
74.76685 181
74.78697 187
74.80708 165
74.82719 199
74.84731 199
74.86742 192
74.88753 193
74.90765 187
74.92776 192
74.94787 214
74.96799 182
74.9881 178
75.00822 184
