3.00117 23623
3.02128 23229
3.0414 22587
3.06151 21979
3.08162 21389
3.10174 21015
3.12185 20366
3.14197 19800
3.16208 19549
3.18219 18810
3.20231 18437
3.22242 17955
3.24253 17584
3.26265 17119
3.28276 16546
3.30288 16212
3.32299 15576
3.3431 15289
3.36322 14821
3.38333 14579
3.40344 14016
3.42356 13799
3.44367 13086
3.46379 12956
3.4839 12577
3.50401 12241
3.52413 11707
3.54424 11454
3.56435 10929
3.58447 10620
3.60458 10292
3.62469 10095
3.64481 9963
3.66492 9347
3.68504 9042
3.70515 8825
3.72526 8447
3.74538 8318
3.76549 7838
3.7856 7624
3.80572 7541
3.82583 7251
3.84595 6970
3.86606 6748
3.88617 6558
3.90629 6248
3.9264 5997
3.94651 5805
3.96663 5500
3.98674 5389
4.00686 5182
4.02697 5006
4.04708 4783
4.0672 4659
4.08731 4486
4.10742 4173
4.12754 4052
4.14765 4037
4.16776 3755
4.18788 3626
4.20799 3639
4.22811 3551
4.24822 3353
4.26833 3248
4.28845 3160
4.30856 3100
4.32867 2887
4.34879 2876
4.3689 2695
4.38902 2623
4.40913 2526
4.42924 2474
4.44936 2485
4.46947 2296
4.48958 2221
4.5097 2239
4.52981 2162
4.54992 2109
4.57004 1979
4.59015 1850
4.61027 1864
4.63038 1768
4.65049 1795
4.67061 1765
4.69072 1719
4.71083 1618
4.73095 1622
4.75106 1532
4.77118 1530
4.79129 1431
4.8114 1341
4.83152 1406
4.85163 1384
4.87174 1384
4.89186 1260
4.91197 1255
4.93209 1267
4.9522 1191
4.97231 1157
4.99243 1109
5.01254 1066
5.03265 1050
5.05277 934
5.07288 990
5.09299 1028
5.11311 871
5.13322 904
5.15334 905
5.17345 810
5.19356 860
5.21368 832
5.23379 788
5.2539 789
5.27402 769
5.29413 765
5.31425 687
5.33436 696
5.35447 616
5.37459 692
5.3947 628
5.41481 633
5.43493 570
5.45504 541
5.47516 547
5.49527 557
5.51538 548
5.5355 543
5.55561 550
5.57572 513
5.59584 521
5.61595 445
5.63606 441
5.65618 489
5.67629 484
5.69641 477
5.71652 475
5.73663 443
5.75675 447
5.77686 399
5.79697 379
5.81709 387
5.8372 404
5.85732 378
5.87743 379
5.89754 408
5.91766 352
5.93777 349
5.95788 369
5.978 336
5.99811 353
6.01823 321
6.03834 336
6.05845 315
6.07857 324
6.09868 324
6.11879 299
6.13891 339
6.15902 327
6.17913 314
6.19925 316
6.21936 320
6.23948 319
6.25959 315
6.2797 309
6.29982 299
6.31993 296
6.34004 263
6.36016 302
6.38027 307
6.40039 319
6.4205 258
6.44061 263
6.46073 304
6.48084 289
6.50095 258
6.52107 281
6.54118 263
6.56129 291
6.58141 292
6.60152 289
6.62164 256
6.64175 251
6.66186 260
6.68198 263
6.70209 244
6.7222 266
6.74232 246
6.76243 229
6.78255 250
6.80266 227
6.82277 232
6.84289 223
6.863 239
6.88311 237
6.90323 237
6.92334 229
6.94346 244
6.96357 244
6.98368 252
7.0038 253
7.02391 231
7.04402 224
7.06414 233
7.08425 221
7.10436 229
7.12448 257
7.14459 252
7.16471 250
7.18482 208
7.20493 219
7.22505 254
7.24516 252
7.26527 238
7.28539 241
7.3055 240
7.32562 248
7.34573 253
7.36584 227
7.38596 235
7.40607 240
7.42618 266
7.4463 240
7.46641 237
7.48653 276
7.50664 209
7.52675 251
7.54687 246
7.56698 234
7.58709 261
7.60721 228
7.62732 259
7.64743 211
7.66755 227
7.68766 257
7.70778 240
7.72789 221
7.748 241
7.76812 240
7.78823 229
7.80834 211
7.82846 247
7.84857 230
7.86869 278
7.8888 219
7.90891 241
7.92903 236
7.94914 215
7.96925 209
7.98937 233
8.00948 239
8.0296 206
8.04971 215
8.06982 222
8.08994 207
8.11005 251
8.13016 217
8.15028 211
8.17039 246
8.1905 222
8.21062 216
8.23073 213
8.25085 248
8.27096 196
8.29107 227
8.31119 274
8.3313 233
8.35141 247
8.37153 224
8.39164 218
8.41176 227
8.43187 233
8.45198 214
8.4721 230
8.49221 233
8.51232 205
8.53244 231
8.55255 236
8.57266 226
8.59278 235
8.61289 220
8.63301 235
8.65312 202
8.67323 236
8.69335 231
8.71346 261
8.73357 240
8.75369 246
8.7738 232
8.79392 220
8.81403 216
8.83414 223
8.85426 229
8.87437 211
8.89448 229
8.9146 250
8.93471 222
8.95483 231
8.97494 204
8.99505 217
9.01517 218
9.03528 219
9.05539 228
9.07551 257
9.09562 230
9.11573 208
9.13585 259
9.15596 231
9.17608 262
9.19619 224
9.2163 225
9.23642 234
9.25653 217
9.27664 238
9.29676 211
9.31687 257
9.33699 233
9.3571 228
9.37721 218
9.39733 241
9.41744 246
9.43755 208
9.45767 227
9.47778 213
9.4979 228
9.51801 209
9.53812 234
9.55824 223
9.57835 225
9.59846 227
9.61858 232
9.63869 206
9.6588 233
9.67892 232
9.69903 201
9.71915 236
9.73926 244
9.75937 238
9.77949 224
9.7996 245
9.81971 215
9.83983 252
9.85994 241
9.88006 215
9.90017 234
9.92028 227
9.9404 194
9.96051 238
9.98062 217
10.00074 221
10.02085 237
10.04097 214
10.06108 189
10.08119 204
10.10131 198
10.12142 184
10.14153 238
10.16165 262
10.18176 213
10.20187 237
10.22199 227
10.2421 230
10.26222 211
10.28233 224
10.30244 226
10.32256 226
10.34267 249
10.36278 238
10.3829 231
10.40301 203
10.42313 219
10.44324 228
10.46335 183
10.48347 237
10.50358 248
10.52369 220
10.54381 209
10.56392 218
10.58403 225
10.60415 197
10.62426 211
10.64438 207
10.66449 222
10.6846 224
10.70472 230
10.72483 222
10.74494 224
10.76506 236
10.78517 228
10.80529 229
10.8254 210
10.84551 220
10.86563 184
10.88574 180
10.90585 227
10.92597 231
10.94608 212
10.9662 218
10.98631 238
11.00642 221
11.02654 191
11.04665 223
11.06676 216
11.08688 214
11.10699 200
11.1271 206
11.14722 220
11.16733 235
11.18745 219
11.20756 213
11.22767 240
11.24779 225
11.2679 237
11.28801 226
11.30813 204
11.32824 209
11.34836 238
11.36847 224
11.38858 209
11.4087 220
11.42881 219
11.44892 202
11.46904 213
11.48915 213
11.50927 224
11.52938 217
11.54949 189
11.56961 200
11.58972 190
11.60983 195
11.62995 200
11.65006 235
11.67017 236
11.69029 215
11.7104 242
11.73052 239
11.75063 172
11.77074 218
11.79086 240
11.81097 196
11.83108 231
11.8512 211
11.87131 213
11.89143 214
11.91154 214
11.93165 212
11.95177 183
11.97188 216
11.99199 213
12.01211 227
12.03222 212
12.05234 198
12.07245 214
12.09256 243
12.11268 216
12.13279 221
12.1529 191
12.17302 215
12.19313 204
12.21324 208
12.23336 218
12.25347 200
12.27359 207
12.2937 198
12.31381 203
12.33393 220
12.35404 207
12.37415 215
12.39427 208
12.41438 201
12.4345 231
12.45461 188
12.47472 202
12.49484 207
12.51495 205
12.53506 205
12.55518 203
12.57529 209
12.5954 182
12.61552 214
12.63563 191
12.65575 207
12.67586 244
12.69597 220
12.71609 204
12.7362 204
12.75631 226
12.77643 207
12.79654 207
12.81666 200
12.83677 208
12.85688 195
12.877 182
12.89711 214
12.91722 209
12.93734 200
12.95745 191
12.97757 220
12.99768 215
13.01779 211
13.03791 207
13.05802 212
13.07813 179
13.09825 168
13.11836 204
13.13847 212
13.15859 189
13.1787 184
13.19882 205
13.21893 224
13.23904 208
13.25916 208
13.27927 206
13.29938 193
13.3195 186
13.33961 206
13.35973 201
13.37984 202
13.39995 211
13.42007 189
13.44018 187
13.46029 200
13.48041 202
13.50052 213
13.52064 192
13.54075 212
13.56086 196
13.58098 167
13.60109 168
13.6212 205
13.64132 207
13.66143 198
13.68154 199
13.70166 179
13.72177 189
13.74189 196
13.762 206
13.78211 175
13.80223 183
13.82234 158
13.84245 182
13.86257 193
13.88268 165
13.9028 216
13.92291 195
13.94302 193
13.96314 181
13.98325 202
14.00336 205
14.02348 208
14.04359 179
14.06371 191
14.08382 203
14.10393 177
14.12405 193
14.14416 202
14.16427 180
14.18439 194
14.2045 174
14.22461 192
14.24473 193
14.26484 201
14.28496 186
14.30507 209
14.32518 175
14.3453 192
14.36541 194
14.38552 177
14.40564 201
14.42575 202
14.44587 177
14.46598 183
14.48609 176
14.50621 179
14.52632 201
14.54643 197
14.56655 194
14.58666 156
14.60677 210
14.62689 174
14.647 188
14.66712 205
14.68723 219
14.70734 186
14.72746 178
14.74757 164
14.76768 195
14.7878 178
14.80791 187
14.82803 180
14.84814 170
14.86825 215
14.88837 177
14.90848 145
14.92859 189
14.94871 193
14.96882 198
14.98894 187
15.00905 199
15.02916 183
15.04928 187
15.06939 168
15.0895 198
15.10962 168
15.12973 196
15.14984 183
15.16996 191
15.19007 188
15.21019 161
15.2303 176
15.25041 184
15.27053 164
15.29064 193
15.31075 181
15.33087 162
15.35098 188
15.3711 143
15.39121 164
15.41132 179
15.43144 176
15.45155 178
15.47166 164
15.49178 153
15.51189 187
15.53201 191
15.55212 181
15.57223 156
15.59235 191
15.61246 172
15.63257 194
15.65269 169
15.6728 174
15.69291 159
15.71303 189
15.73314 164
15.75326 160
15.77337 170
15.79348 187
15.8136 153
15.83371 192
15.85382 178
15.87394 187
15.89405 156
15.91417 170
15.93428 167
15.95439 137
15.97451 172
15.99462 156
16.01473 148
16.03485 158
16.05496 152
16.07508 181
16.09519 191
16.1153 213
16.13542 174
16.15553 191
16.17564 175
16.19576 152
16.21587 212
16.23598 182
16.2561 163
16.27621 163
16.29633 157
16.31644 191
16.33655 191
16.35667 145
16.37678 184
16.39689 171
16.41701 172
16.43712 151
16.45724 148
16.47735 159
16.49746 159
16.51758 149
16.53769 166
16.5578 158
16.57792 191
16.59803 169
16.61814 161
16.63826 151
16.65837 191
16.67849 160
16.6986 161
16.71871 162
16.73883 161
16.75894 169
16.77905 169
16.79917 197
16.81928 194
16.8394 150
16.85951 198
16.87962 163
16.89974 182
16.91985 170
16.93996 186
16.96008 172
16.98019 172
17.00031 171
17.02042 155
17.04053 187
17.06065 169
17.08076 170
17.10087 170
17.12099 175
17.1411 167
17.16121 186
17.18133 151
17.20144 165
17.22156 171
17.24167 177
17.26178 154
17.2819 154
17.30201 181
17.32212 166
17.34224 174
17.36235 149
17.38247 184
17.40258 168
17.42269 185
17.44281 177
17.46292 159
17.48303 133
17.50315 183
17.52326 201
17.54338 172
17.56349 161
17.5836 194
17.60372 165
17.62383 171
17.64394 168
17.66406 156
17.68417 158
17.70428 170
17.7244 165
17.74451 173
17.76463 186
17.78474 167
17.80485 157
17.82497 169
17.84508 167
17.86519 180
17.88531 171
17.90542 173
17.92554 156
17.94565 175
17.96576 184
17.98588 177
18.00599 174
18.0261 181
18.04622 152
18.06633 158
18.08645 181
18.10656 156
18.12667 166
18.14679 179
18.1669 159
18.18701 172
18.20713 185
18.22724 163
18.24735 183
18.26747 184
18.28758 158
18.3077 209
18.32781 169
18.34792 163
18.36804 182
18.38815 172
18.40826 181
18.42838 168
18.44849 183
18.46861 168
18.48872 185
18.50883 159
18.52895 174
18.54906 167
18.56917 180
18.58929 201
18.6094 158
18.62951 167
18.64963 160
18.66974 174
18.68986 168
18.70997 163
18.73008 178
18.7502 187
18.77031 167
18.79042 185
18.81054 176
18.83065 184
18.85077 166
18.87088 184
18.89099 166
18.91111 171
18.93122 177
18.95133 163
18.97145 147
18.99156 184
19.01168 180
19.03179 169
19.0519 190
19.07202 156
19.09213 176
19.11224 155
19.13236 164
19.15247 176
19.17258 176
19.1927 172
19.21281 168
19.23293 161
19.25304 193
19.27315 171
19.29327 179
19.31338 170
19.33349 181
19.35361 192
19.37372 168
19.39384 185
19.41395 195
19.43406 189
19.45418 191
19.47429 175
19.4944 219
19.51452 193
19.53463 226
19.55475 182
19.57486 224
19.59497 219
19.61509 235
19.6352 228
19.65531 254
19.67543 240
19.69554 279
19.71565 291
19.73577 237
19.75588 277
19.776 301
19.79611 283
19.81622 274
19.83634 256
19.85645 263
19.87656 257
19.89668 255
19.91679 293
19.93691 226
19.95702 211
19.97713 304
19.99725 261
20.01736 240
20.03747 226
20.05759 237
20.0777 247
20.09782 296
20.11793 257
20.13804 282
20.15816 282
20.17827 286
20.19838 318
20.2185 294
20.23861 308
20.25872 288
20.27884 292
20.29895 279
20.31907 346
20.33918 288
20.35929 306
20.37941 286
20.39952 301
20.41963 345
20.43975 350
20.45986 356
20.47998 376
20.50009 394
20.5202 397
20.54032 470
20.56043 481
20.58054 515
20.60066 544
20.62077 633
20.64088 787
20.661 995
20.68111 1252
20.70123 1616
20.72134 2237
20.74145 3062
20.76157 4125
20.78168 5631
20.80179 7201
20.82191 8477
20.84202 9384
20.86214 8684
20.88225 7230
20.90236 5168
20.92248 3508
20.94259 2061
20.9627 1163
20.98282 810
21.00293 650
21.02305 546
21.04316 511
21.06327 476
21.08339 427
21.1035 382
21.12361 373
21.14373 410
21.16384 319
21.18395 314
21.20407 303
21.22418 301
21.2443 263
21.26441 292
21.28452 286
21.30464 278
21.32475 284
21.34486 242
21.36498 235
21.38509 262
21.40521 273
21.42532 237
21.44543 250
21.46555 240
21.48566 232
21.50577 228
21.52589 234
21.546 262
21.56612 234
21.58623 236
21.60634 217
21.62646 206
21.64657 221
21.66668 214
21.6868 221
21.70691 237
21.72702 214
21.74714 246
21.76725 194
21.78737 192
21.80748 253
21.82759 241
21.84771 228
21.86782 240
21.88793 226
21.90805 229
21.92816 212
21.94828 239
21.96839 204
21.9885 223
22.00862 255
22.02873 215
22.04884 210
22.06896 242
22.08907 231
22.10919 220
22.1293 215
22.14941 209
22.16953 193
22.18964 239
22.20975 236
22.22987 239
22.24998 241
22.27009 251
22.29021 207
22.31032 216
22.33044 217
22.35055 215
22.37066 216
22.39078 223
22.41089 200
22.431 230
22.45112 195
22.47123 236
22.49135 204
22.51146 224
22.53157 197
22.55169 209
22.5718 185
22.59191 190
22.61203 229
22.63214 202
22.65225 220
22.67237 202
22.69248 222
22.7126 215
22.73271 195
22.75282 216
22.77294 197
22.79305 216
22.81316 239
22.83328 175
22.85339 197
22.87351 225
22.89362 188
22.91373 213
22.93385 232
22.95396 187
22.97407 206
22.99419 230
23.0143 205
23.03442 226
23.05453 205
23.07464 233
23.09476 207
23.11487 198
23.13498 206
23.1551 178
23.17521 190
23.19532 221
23.21544 209
23.23555 212
23.25567 202
23.27578 185
23.29589 190
23.31601 232
23.33612 190
23.35623 200
23.37635 194
23.39646 197
23.41658 197
23.43669 168
23.4568 183
23.47692 203
23.49703 244
23.51714 186
23.53726 215
23.55737 173
23.57749 193
23.5976 195
23.61771 202
23.63783 206
23.65794 195
23.67805 224
23.69817 212
23.71828 216
23.73839 228
23.75851 214
23.77862 196
23.79874 209
23.81885 215
23.83896 185
23.85908 208
23.87919 244
23.8993 209
23.91942 258
23.93953 268
23.95965 269
23.97976 283
23.99987 326
24.01999 291
24.0401 266
24.06021 239
24.08033 242
24.10044 209
24.12056 191
24.14067 214
24.16078 193
24.1809 201
24.20101 202
24.22112 212
24.24124 199
24.26135 228
24.28146 226
24.30158 208
24.32169 210
24.34181 197
24.36192 193
24.38203 190
24.40215 209
24.42226 188
24.44237 207
24.46249 194
24.4826 212
24.50272 197
24.52283 169
24.54294 188
24.56306 215
24.58317 217
24.60328 203
24.6234 210
24.64351 224
24.66362 197
24.68374 216
24.70385 215
24.72397 185
24.74408 251
24.76419 233
24.78431 231
24.80442 191
24.82453 190
24.84465 206
24.86476 193
24.88488 203
24.90499 201
24.9251 200
24.94522 210
24.96533 191
24.98544 191
25.00556 202
25.02567 174
25.04579 216
25.0659 215
25.08601 209
25.10613 206
25.12624 215
25.14635 184
25.16647 224
25.18658 240
25.20669 200
25.22681 195
25.24692 202
25.26704 228
25.28715 249
25.30726 213
25.32738 200
25.34749 248
25.3676 249
25.38772 240
25.40783 252
25.42795 221
25.44806 239
25.46817 203
25.48829 245
25.5084 226
25.52851 264
25.54863 250
25.56874 290
25.58886 272
25.60897 287
25.62908 318
25.6492 318
25.66931 364
25.68942 394
25.70954 406
25.72965 451
25.74976 399
25.76988 446
25.78999 477
25.81011 435
25.83022 468
25.85033 485
25.87045 452
25.89056 490
25.91067 479
25.93079 488
25.9509 456
25.97102 524
25.99113 538
26.01124 506
26.03136 531
26.05147 585
26.07158 639
26.0917 659
26.11181 661
26.13193 657
26.15204 725
26.17215 743
26.19227 920
26.21238 954
26.23249 1018
26.25261 1105
26.27272 1164
26.29283 1306
26.31295 1462
26.33306 1704
26.35318 1894
26.37329 2260
26.3934 2758
26.41352 3451
26.43363 4394
26.45374 6072
26.47386 8010
26.49397 10629
26.51409 14544
26.5342 19340
26.55431 25353
26.57443 32151
26.59454 37872
26.61465 41910
26.63477 41194
26.65488 33414
26.67499 25853
26.69511 19849
26.71522 13895
26.73534 8034
26.75545 4544
26.77556 2819
26.79568 2244
26.81579 1771
26.8359 1622
26.85602 1400
26.87613 1317
26.89625 1203
26.91636 1021
26.93647 962
26.95659 853
26.9767 809
26.99681 732
27.01693 687
27.03704 638
27.05716 611
27.07727 540
27.09738 535
27.1175 506
27.13761 543
27.15772 489
27.17784 463
27.19795 454
27.21806 452
27.23818 453
27.25829 421
27.27841 444
27.29852 448
27.31863 403
27.33875 384
27.35886 372
27.37897 430
27.39909 369
27.4192 412
27.43932 408
27.45943 407
27.47954 375
27.49966 392
27.51977 386
27.53988 351
27.56 353
27.58011 357
27.60023 343
27.62034 325
27.64045 337
27.66057 331
27.68068 303
27.70079 295
27.72091 313
27.74102 337
27.76113 324
27.78125 307
27.80136 262
27.82148 313
27.84159 312
27.8617 275
27.88182 294
27.90193 310
27.92204 306
27.94216 281
27.96227 293
27.98239 298
28.0025 277
28.02261 273
28.04273 297
28.06284 280
28.08295 303
28.10307 268
28.12318 277
28.1433 274
28.16341 266
28.18352 269
28.20364 263
28.22375 256
28.24386 262
28.26398 264
28.28409 269
28.3042 250
28.32432 255
28.34443 230
28.36455 265
28.38466 233
28.40477 249
28.42489 260
28.445 254
28.46511 290
28.48523 269
28.50534 246
28.52546 290
28.54557 261
28.56568 257
28.5858 264
28.60591 225
28.62602 240
28.64614 255
28.66625 242
28.68636 239
28.70648 249
28.72659 255
28.74671 250
28.76682 254
28.78693 263
28.80705 249
28.82716 259
28.84727 240
28.86739 246
28.8875 260
28.90762 243
28.92773 254
28.94784 223
28.96796 242
28.98807 228
29.00818 243
29.0283 209
29.04841 266
29.06853 238
29.08864 258
29.10875 255
29.12887 221
29.14898 255
29.16909 229
29.18921 221
29.20932 237
29.22943 237
29.24955 242
29.26966 223
29.28978 228
29.30989 231
29.33 219
29.35012 204
29.37023 235
29.39034 223
29.41046 246
29.43057 226
29.45069 226
29.4708 207
29.49091 213
29.51103 207
29.53114 217
29.55125 231
29.57137 215
29.59148 205
29.6116 186
29.63171 202
29.65182 199
29.67194 229
29.69205 221
29.71216 202
29.73228 183
29.75239 204
29.7725 217
29.79262 202
29.81273 213
29.83285 195
29.85296 192
29.87307 221
29.89319 191
29.9133 216
29.93341 212
29.95353 200
29.97364 209
29.99376 213
30.01387 211
30.03398 208
30.0541 225
30.07421 223
30.09432 199
30.11444 229
30.13455 177
30.15467 206
30.17478 227
30.19489 198
30.21501 203
30.23512 183
30.25523 198
30.27535 191
30.29546 198
30.31557 203
30.33569 183
30.3558 179
30.37592 213
30.39603 190
30.41614 186
30.43626 197
30.45637 219
30.47648 206
30.4966 197
30.51671 203
30.53683 195
30.55694 184
30.57705 188
30.59717 205
30.61728 189
30.63739 210
30.65751 178
30.67762 188
30.69773 202
30.71785 179
30.73796 212
30.75808 200
30.77819 200
30.7983 205
30.81842 188
30.83853 195
30.85864 184
30.87876 216
30.89887 183
30.91899 205
30.9391 190
30.95921 175
30.97933 198
30.99944 187
31.01955 162
31.03967 193
31.05978 185
31.0799 196
31.10001 190
31.12012 172
31.14024 185
31.16035 190
31.18046 170
31.20058 211
31.22069 168
31.2408 181
31.26092 174
31.28103 177
31.30115 180
31.32126 170
31.34137 183
31.36149 166
31.3816 184
31.40171 181
31.42183 165
31.44194 171
31.46206 203
31.48217 180
31.50228 181
31.5224 162
31.54251 184
31.56262 160
31.58274 166
31.60285 174
31.62297 166
31.64308 175
31.66319 172
31.68331 172
31.70342 171
31.72353 162
31.74365 156
31.76376 174
31.78387 155
31.80399 174
31.8241 164
31.84422 168
31.86433 168
31.88444 185
31.90456 172
31.92467 137
31.94478 187
31.9649 152
31.98501 181
32.00513 159
32.02524 186
32.04535 157
32.06547 164
32.08558 171
32.10569 174
32.12581 155
32.14592 162
32.16604 166
32.18615 170
32.20626 156
32.22638 177
32.24649 186
32.2666 185
32.28672 138
32.30683 182
32.32694 178
32.34706 151
32.36717 150
32.38729 154
32.4074 165
32.42751 156
32.44763 189
32.46774 179
32.48785 169
32.50797 168
32.52808 176
32.5482 146
32.56831 145
32.58842 163
32.60854 177
32.62865 162
32.64876 166
32.66888 167
32.68899 170
32.7091 166
32.72922 132
32.74933 167
32.76945 173
32.78956 166
32.80967 148
32.82979 167
32.8499 167
32.87001 158
32.89013 192
32.91024 140
32.93036 157
32.95047 149
32.97058 161
32.9907 130
33.01081 141
33.03092 158
33.05104 147
33.07115 168
33.09127 187
33.11138 149
33.13149 164
33.15161 167
33.17172 146
33.19183 148
33.21195 142
33.23206 166
33.25217 159
33.27229 166
33.2924 161
33.31252 144
33.33263 138
33.35274 162
33.37286 158
33.39297 123
33.41308 150
33.4332 154
33.45331 153
33.47343 136
33.49354 156
33.51365 157
33.53377 164
33.55388 139
33.57399 159
33.59411 154
33.61422 138
33.63434 155
33.65445 147
33.67456 162
33.69468 153
33.71479 138
33.7349 144
33.75502 143
33.77513 157
33.79524 145
33.81536 160
33.83547 143
33.85559 142
33.8757 129
33.89581 139
33.91593 140
33.93604 180
33.95615 153
33.97627 148
33.99638 162
34.0165 180
34.03661 156
34.05672 155
34.07684 142
34.09695 135
34.11706 148
34.13718 154
34.15729 156
34.17741 154
34.19752 151
34.21763 166
34.23775 158
34.25786 151
34.27797 159
34.29809 166
34.3182 136
34.33831 133
34.35843 158
34.37854 159
34.39866 145
34.41877 166
34.43888 180
34.459 161
34.47911 151
34.49922 189
34.51934 175
34.53945 157
34.55957 178
34.57968 174
34.59979 160
34.61991 175
34.64002 160
34.66013 167
34.68025 174
34.70036 188
34.72047 180
34.74059 182
34.7607 167
34.78082 173
34.80093 190
34.82104 195
34.84116 191
34.86127 170
34.88138 167
34.9015 170
34.92161 177
34.94173 173
34.96184 172
34.98195 174
35.00207 193
35.02218 155
35.04229 185
35.06241 181
35.08252 174
35.10264 200
35.12275 167
35.14286 170
35.16298 197
35.18309 173
35.2032 191
35.22332 190
35.24343 171
35.26354 154
35.28366 182
35.30377 169
35.32389 162
35.344 169
35.36411 193
35.38423 178
35.40434 164
35.42445 183
35.44457 171
35.46468 197
35.4848 175
35.50491 201
35.52502 174
35.54514 187
35.56525 208
35.58536 193
35.60548 193
35.62559 193
35.64571 163
35.66582 163
35.68593 183
35.70605 192
35.72616 182
35.74627 198
35.76639 144
35.7865 176
35.80661 172
35.82673 198
35.84684 170
35.86696 177
35.88707 164
35.90718 157
35.9273 196
35.94741 161
35.96752 186
35.98764 202
36.00775 198
36.02787 207
36.04798 192
36.06809 199
36.08821 226
36.10832 190
36.12843 242
36.14855 242
36.16866 266
36.18878 268
36.20889 281
36.229 295
36.24912 306
36.26923 355
36.28934 384
36.30946 474
36.32957 552
36.34968 680
36.3698 790
36.38991 1032
36.41003 1218
36.43014 1517
36.45025 1953
36.47037 2320
36.49048 2701
36.51059 2776
36.53071 2694
36.55082 2327
36.57094 1929
36.59105 1605
36.61116 1455
36.63128 1207
36.65139 850
36.6715 534
36.69162 393
36.71173 319
36.73184 260
36.75196 265
36.77207 258
36.79219 206
36.8123 205
36.83241 232
36.85253 219
36.87264 210
36.89275 211
36.91287 188
36.93298 194
36.9531 190
36.97321 183
36.99332 152
37.01344 210
37.03355 168
37.05366 218
37.07378 159
37.09389 166
37.11401 181
37.13412 172
37.15423 190
37.17435 171
37.19446 145
37.21457 161
37.23469 159
37.2548 169
37.27491 172
37.29503 173
37.31514 182
37.33526 176
37.35537 153
37.37548 167
37.3956 175
37.41571 158
37.43582 182
37.45594 152
37.47605 176
37.49617 138
37.51628 160
37.53639 165
37.55651 184
37.57662 179
37.59673 165
37.61685 158
37.63696 169
37.65708 145
37.67719 158
37.6973 153
37.71742 154
37.73753 170
37.75764 148
37.77776 148
37.79787 165
37.81798 169
37.8381 151
37.85821 149
37.87833 140
37.89844 153
37.91855 182
37.93867 155
37.95878 163
37.97889 152
37.99901 164
38.01912 155
38.03924 171
38.05935 160
38.07946 174
38.09958 182
38.11969 186
38.1398 162
38.15992 151
38.18003 174
38.20015 163
38.22026 167
38.24037 164
38.26049 177
38.2806 145
38.30071 168
38.32083 152
38.34094 184
38.36105 157
38.38117 156
38.40128 159
38.4214 171
38.44151 179
38.46162 144
38.48174 162
38.50185 182
38.52196 184
38.54208 183
38.56219 147
38.58231 159
38.60242 169
38.62253 167
38.64265 177
38.66276 139
38.68287 166
38.70299 171
38.7231 157
38.74321 187
38.76333 156
38.78344 168
38.80356 169
38.82367 175
38.84378 157
38.8639 186
38.88401 178
38.90412 179
38.92424 185
38.94435 199
38.96447 186
38.98458 180
39.00469 215
39.02481 222
39.04492 230
39.06503 208
39.08515 240
39.10526 242
39.12538 265
39.14549 275
39.1656 338
39.18572 358
39.20583 403
39.22594 457
39.24606 483
39.26617 581
39.28628 709
39.3064 960
39.32651 1172
39.34663 1362
39.36674 1608
39.38685 1883
39.40697 2301
39.42708 2509
39.44719 2503
39.46731 2134
39.48742 1669
39.50754 1477
39.52765 1338
39.54776 1207
39.56788 1014
39.58799 677
39.6081 453
39.62822 337
39.64833 318
39.66845 264
39.68856 286
39.70867 241
39.72879 250
39.7489 226
39.76901 191
39.78913 234
39.80924 230
39.82935 201
39.84947 224
39.86958 207
39.8897 232
39.90981 234
39.92992 255
39.95004 213
39.97015 222
39.99026 250
40.01038 283
40.03049 279
40.05061 305
40.07072 404
40.09083 393
40.11095 454
40.13106 557
40.15117 652
40.17129 776
40.1914 881
40.21152 1064
40.23163 1283
40.25174 1342
40.27186 1396
40.29197 1166
40.31208 914
40.3322 752
40.35231 707
40.37242 680
40.39254 604
40.41265 438
40.43277 316
40.45288 254
40.47299 227
40.49311 231
40.51322 221
40.53333 212
40.55345 197
40.57356 195
40.59368 196
40.61379 189
40.6339 177
40.65402 161
40.67413 173
40.69424 138
40.71436 166
40.73447 169
40.75458 162
40.7747 149
40.79481 196
40.81493 160
40.83504 177
40.85515 172
40.87527 175
40.89538 164
40.91549 162
40.93561 151
40.95572 175
40.97584 158
40.99595 158
41.01606 164
41.03618 186
41.05629 168
41.0764 195
41.09652 140
41.11663 130
41.13675 172
41.15686 180
41.17697 164
41.19709 160
41.2172 181
41.23731 167
41.25743 148
41.27754 161
41.29765 160
41.31777 151
41.33788 175
41.358 161
41.37811 158
41.39822 163
41.41834 146
41.43845 158
41.45856 149
41.47868 152
41.49879 141
41.51891 156
41.53902 164
41.55913 169
41.57925 180
41.59936 155
41.61947 152
41.63959 158
41.6597 172
41.67982 151
41.69993 171
41.72004 163
41.74016 163
41.76027 159
41.78038 163
41.8005 179
41.82061 161
41.84072 171
41.86084 185
41.88095 172
41.90107 156
41.92118 161
41.94129 180
41.96141 183
41.98152 200
42.00163 162
42.02175 189
42.04186 194
42.06198 212
42.08209 253
42.1022 222
42.12232 248
42.14243 268
42.16254 275
42.18266 351
42.20277 372
42.22289 407
42.243 464
42.26311 594
42.28323 685
42.30334 835
42.32345 1018
42.34357 1192
42.36368 1454
42.38379 1603
42.40391 1791
42.42402 1922
42.44414 1698
42.46425 1358
42.48436 1168
42.50448 1100
42.52459 986
42.5447 847
42.56482 770
42.58493 472
42.60505 318
42.62516 270
42.64527 239
42.66539 227
42.6855 266
42.70561 264
42.72573 206
42.74584 202
42.76595 210
42.78607 175
42.80618 166
42.8263 158
42.84641 168
42.86652 184
42.88664 157
42.90675 159
42.92686 174
42.94698 154
42.96709 178
42.98721 167
43.00732 165
43.02743 156
43.04755 159
43.06766 161
43.08777 179
43.10789 163
43.128 162
43.14812 153
43.16823 147
43.18834 150
43.20846 138
43.22857 166
43.24868 154
43.2688 169
43.28891 123
43.30902 150
43.32914 124
43.34925 129
43.36937 141
43.38948 169
43.40959 158
43.42971 146
43.44982 148
43.46993 150
43.49005 144
43.51016 154
43.53028 178
43.55039 167
43.5705 151
43.59062 163
43.61073 164
43.63084 146
43.65096 141
43.67107 168
43.69119 140
43.7113 127
43.73141 132
43.75153 163
43.77164 157
43.79175 143
43.81187 144
43.83198 152
43.85209 152
43.87221 134
43.89232 151
43.91244 152
43.93255 158
43.95266 153
43.97278 145
43.99289 161
44.013 152
44.03312 133
44.05323 146
44.07335 148
44.09346 149
44.11357 136
44.13369 159
44.1538 156
44.17391 156
44.19403 164
44.21414 141
44.23426 152
44.25437 150
44.27448 155
44.2946 132
44.31471 148
44.33482 133
44.35494 151
44.37505 158
44.39516 149
44.41528 182
44.43539 153
44.45551 143
44.47562 129
44.49573 138
44.51585 124
44.53596 141
44.55607 151
44.57619 142
44.5963 157
44.61642 164
44.63653 148
44.65664 146
44.67676 134
44.69687 137
44.71698 167
44.7371 142
44.75721 130
44.77732 130
44.79744 132
44.81755 134
44.83767 162
44.85778 144
44.87789 146
44.89801 151
44.91812 144
44.93823 145
44.95835 150
44.97846 180
44.99858 152
45.01869 152
45.0388 143
45.05892 148
45.07903 147
45.09914 146
45.11926 136
45.13937 158
45.15949 148
45.1796 166
45.19971 136
45.21983 154
45.23994 165
45.26005 155
45.28017 162
45.30028 160
45.32039 155
45.34051 185
45.36062 164
45.38074 165
45.40085 182
45.42096 175
45.44108 220
45.46119 209
45.4813 241
45.50142 245
45.52153 233
45.54165 272
45.56176 322
45.58187 338
45.60199 436
45.6221 483
45.64221 574
45.66233 694
45.68244 780
45.70256 968
45.72267 1123
45.74278 1207
45.7629 1249
45.78301 1121
45.80312 943
45.82324 735
45.84335 730
45.86346 678
45.88358 646
45.90369 572
45.92381 409
45.94392 289
45.96403 243
45.98415 240
46.00426 194
46.02437 168
46.04449 194
46.0646 166
46.08472 167
46.10483 163
46.12494 162
46.14506 143
46.16517 147
46.18528 126
46.2054 146
46.22551 146
46.24563 137
46.26574 149
46.28585 140
46.30597 146
46.32608 139
46.34619 156
46.36631 134
46.38642 130
46.40653 147
46.42665 130
46.44676 144
46.46688 141
46.48699 130
46.5071 115
46.52722 132
46.54733 136
46.56744 133
46.58756 155
46.60767 138
46.62779 133
46.6479 127
46.66801 135
46.68813 137
46.70824 133
46.72835 146
46.74847 109
46.76858 126
46.78869 137
46.80881 128
46.82892 129
46.84904 142
46.86915 127
46.88926 121
46.90938 121
46.92949 129
46.9496 120
46.96972 130
46.98983 147
47.00995 130
47.03006 124
47.05017 156
47.07029 138
47.0904 132
47.11051 121
47.13063 144
47.15074 143
47.17086 122
47.19097 117
47.21108 120
47.2312 124
47.25131 147
47.27142 128
47.29154 142
47.31165 138
47.33176 125
47.35188 138
47.37199 151
47.39211 120
47.41222 131
47.43233 139
47.45245 133
47.47256 132
47.49267 140
47.51279 139
47.5329 126
47.55302 116
47.57313 133
47.59324 138
47.61336 136
47.63347 124
47.65358 125
47.6737 133
47.69381 137
47.71393 124
47.73404 132
47.75415 140
47.77427 138
47.79438 109
47.81449 144
47.83461 138
47.85472 119
47.87483 128
47.89495 129
47.91506 111
47.93518 140
47.95529 138
47.9754 126
47.99552 147
48.01563 126
48.03574 131
48.05586 122
48.07597 133
48.09609 124
48.1162 133
48.13631 129
48.15643 141
48.17654 137
48.19665 143
48.21677 130
48.23688 138
48.257 144
48.27711 145
48.29722 142
48.31734 126
48.33745 133
48.35756 151
48.37768 137
48.39779 136
48.4179 155
48.43802 126
48.45813 154
48.47825 121
48.49836 115
48.51847 150
48.53859 141
48.5587 134
48.57881 125
48.59893 148
48.61904 157
48.63916 122
48.65927 127
48.67938 151
48.6995 142
48.71961 132
48.73972 181
48.75984 114
48.77995 149
48.80006 144
48.82018 123
48.84029 148
48.86041 153
48.88052 142
48.90063 158
48.92075 168
48.94086 146
48.96097 129
48.98109 165
49.0012 153
49.02132 150
49.04143 152
49.06154 137
49.08166 140
49.10177 148
49.12188 151
49.142 154
49.16211 136
49.18223 145
49.20234 138
49.22245 156
49.24257 169
49.26268 143
49.28279 162
49.30291 163
49.32302 146
49.34313 160
49.36325 156
49.38336 163
49.40348 178
49.42359 165
49.4437 164
49.46382 166
49.48393 185
49.50404 182
49.52416 182
49.54427 161
49.56439 188
49.5845 195
49.60461 209
49.62473 213
49.64484 210
49.66495 214
49.68507 253
49.70518 267
49.7253 319
49.74541 297
49.76552 339
49.78564 361
49.80575 421
49.82586 451
49.84598 520
49.86609 617
49.8862 686
49.90632 860
49.92643 1025
49.94655 1220
49.96666 1428
49.98677 1762
50.00689 2154
50.027 2763
50.04711 3129
50.06723 3679
50.08734 4027
50.10746 4200
50.12757 3763
50.14768 3015
50.1678 2439
50.18791 2136
50.20802 2095
50.22814 2059
50.24825 1855
50.26837 1551
50.28848 1132
50.30859 676
50.32871 487
50.34882 411
50.36893 344
50.38905 360
50.40916 282
50.42927 281
50.44939 261
50.4695 235
50.48962 260
50.50973 263
50.52984 276
50.54996 269
50.57007 288
50.59018 311
50.6103 266
50.63041 233
50.65053 216
50.67064 228
50.69075 216
50.71087 202
50.73098 198
50.75109 195
50.77121 189
50.79132 153
50.81143 159
50.83155 160
50.85166 155
50.87178 164
50.89189 134
50.912 157
50.93212 147
50.95223 163
50.97234 157
50.99246 126
51.01257 128
51.03269 141
51.0528 126
51.07291 153
51.09303 149
51.11314 132
51.13325 140
51.15337 138
51.17348 138
51.1936 137
51.21371 123
51.23382 124
51.25394 118
51.27405 146
51.29416 137
51.31428 131
51.33439 132
51.3545 152
51.37462 132
51.39473 126
51.41485 131
51.43496 128
51.45507 124
51.47519 136
51.4953 107
51.51541 118
51.53553 114
51.55564 115
51.57576 146
51.59587 122
51.61598 123
51.6361 120
51.65621 113
51.67632 116
51.69644 131
51.71655 125
51.73667 129
51.75678 130
51.77689 111
51.79701 123
51.81712 122
51.83723 136
51.85735 107
51.87746 136
51.89757 128
51.91769 125
51.9378 106
51.95792 130
51.97803 126
51.99814 122
52.01826 140
52.03837 104
52.05848 122
52.0786 141
52.09871 108
52.11883 119
52.13894 129
52.15905 115
52.17917 121
52.19928 126
52.21939 116
52.23951 140
52.25962 102
52.27974 138
52.29985 126
52.31996 125
52.34008 127
52.36019 118
52.3803 124
52.40042 109
52.42053 108
52.44064 109
52.46076 133
52.48087 119
52.50099 128
52.5211 139
52.54121 124
52.56133 114
52.58144 125
52.60155 143
52.62167 134
52.64178 127
52.6619 140
52.68201 116
52.70212 149
52.72224 136
52.74235 122
52.76246 154
52.78258 137
52.80269 128
52.8228 118
52.84292 127
52.86303 127
52.88315 140
52.90326 143
52.92337 115
52.94349 118
52.9636 118
52.98371 122
53.00383 142
53.02394 150
53.04406 130
53.06417 130
53.08428 119
53.1044 122
53.12451 135
53.14462 125
53.16474 124
53.18485 137
53.20497 119
53.22508 144
53.24519 135
53.26531 131
53.28542 154
53.30553 118
53.32565 132
53.34576 127
53.36587 127
53.38599 119
53.4061 114
53.42622 125
53.44633 137
53.46644 125
53.48656 121
53.50667 128
53.52678 125
53.5469 137
53.56701 137
53.58713 150
53.60724 173
53.62735 126
53.64747 152
53.66758 144
53.68769 132
53.70781 139
53.72792 134
53.74804 149
53.76815 125
53.78826 128
53.80838 140
53.82849 124
53.8486 144
53.86872 128
53.88883 139
53.90894 137
53.92906 149
53.94917 130
53.96929 108
53.9894 147
54.00951 139
54.02963 165
54.04974 164
54.06985 154
54.08997 145
54.11008 137
54.1302 147
54.15031 137
54.17042 133
54.19054 129
54.21065 135
54.23076 139
54.25088 165
54.27099 155
54.29111 125
54.31122 150
54.33133 190
54.35145 151
54.37156 160
54.39167 190
54.41179 157
54.4319 173
54.45201 175
54.47213 175
54.49224 199
54.51236 214
54.53247 216
54.55258 240
54.5727 256
54.59281 269
54.61292 319
54.63304 354
54.65315 409
54.67327 434
54.69338 505
54.71349 625
54.73361 766
54.75372 817
54.77383 985
54.79395 1085
54.81406 1187
54.83417 1236
54.85429 1148
54.8744 943
54.89452 788
54.91463 703
54.93474 687
54.95486 694
54.97497 697
54.99508 663
55.0152 592
55.03531 445
55.05543 342
55.07554 338
55.09565 281
55.11577 291
55.13588 299
55.15599 371
55.17611 392
55.19622 403
55.21634 462
55.23645 491
55.25656 553
55.27668 589
55.29679 588
55.3169 559
55.33702 460
55.35713 356
55.37724 363
55.39736 340
55.41747 351
55.43759 349
55.4577 349
55.47781 296
55.49793 222
55.51804 206
55.53815 163
55.55827 167
55.57838 160
55.5985 172
55.61861 143
55.63872 132
55.65884 137
55.67895 130
55.69906 147
55.71918 121
55.73929 103
55.75941 150
55.77952 115
55.79963 138
55.81975 134
55.83986 145
55.85997 117
55.88009 119
55.9002 148
55.92031 111
55.94043 136
55.96054 133
55.98066 136
56.00077 124
56.02088 120
56.041 135
56.06111 141
56.08122 140
56.10134 121
56.12145 138
56.14157 124
56.16168 137
56.18179 119
56.20191 128
56.22202 122
56.24213 124
56.26225 114
56.28236 122
56.30248 114
56.32259 114
56.3427 120
56.36282 129
56.38293 122
56.40304 139
56.42316 125
56.44327 121
56.46338 122
56.4835 106
56.50361 99
56.52373 133
56.54384 127
56.56395 123
56.58407 119
56.60418 119
56.62429 132
56.64441 99
56.66452 125
56.68464 126
56.70475 129
56.72486 121
56.74498 137
56.76509 164
56.7852 137
56.80532 119
56.82543 128
56.84554 123
56.86566 119
56.88577 132
56.90589 141
56.926 151
56.94611 125
56.96623 138
56.98634 140
57.00645 154
57.02657 143
57.04668 169
57.0668 151
57.08691 158
57.10702 166
57.12714 182
57.14725 193
57.16736 204
57.18748 172
57.20759 199
57.22771 190
57.24782 160
57.26793 155
57.28805 168
57.30816 139
57.32827 130
57.34839 156
57.3685 151
57.38861 139
57.40873 124
57.42884 136
57.44896 110
57.46907 129
57.48918 132
57.5093 135
57.52941 118
57.54952 118
57.56964 122
57.58975 125
57.60987 121
57.62998 126
57.65009 124
57.67021 108
57.69032 119
57.71043 134
57.73055 140
57.75066 112
57.77078 128
57.79089 126
57.811 119
57.83112 135
57.85123 122
57.87134 123
57.89146 123
57.91157 118
57.93168 127
57.9518 126
57.97191 142
57.99203 132
58.01214 114
58.03225 117
58.05237 136
58.07248 138
58.09259 126
58.11271 125
58.13282 110
58.15294 134
58.17305 123
58.19316 120
58.21328 144
58.23339 117
58.2535 131
58.27362 125
58.29373 142
58.31385 122
58.33396 100
58.35407 119
58.37419 117
58.3943 138
58.41441 132
58.43453 102
58.45464 138
58.47475 118
58.49487 134
58.51498 137
58.5351 136
58.55521 128
58.57532 119
58.59544 118
58.61555 136
58.63566 124
58.65578 131
58.67589 130
58.69601 129
58.71612 118
58.73623 129
58.75635 143
58.77646 137
58.79657 116
58.81669 142
58.8368 143
58.85691 141
58.87703 140
58.89714 121
58.91726 123
58.93737 137
58.95748 139
58.9776 148
58.99771 131
59.01782 143
59.03794 143
59.05805 137
59.07817 118
59.09828 144
59.11839 146
59.13851 149
59.15862 148
59.17873 133
59.19885 107
59.21896 149
59.23908 142
59.25919 164
59.2793 168
59.29942 132
59.31953 150
59.33964 191
59.35976 159
59.37987 175
59.39998 150
59.4201 185
59.44021 151
59.46033 217
59.48044 221
59.50055 251
59.52067 248
59.54078 241
59.56089 277
59.58101 252
59.60112 308
59.62124 327
59.64135 394
59.66146 430
59.68158 489
59.70169 562
59.7218 716
59.74192 826
59.76203 899
59.78215 1111
59.80226 1331
59.82237 1503
59.84249 1834
59.8626 2109
59.88271 2360
59.90283 2427
59.92294 2419
59.94305 2224
59.96317 1900
59.98328 1524
60.0034 1290
60.02351 1253
60.04362 1319
60.06374 1250
60.08385 1215
60.10396 1079
60.12408 847
60.14419 578
60.16431 444
60.18442 336
60.20453 292
60.22465 265
60.24476 225
60.26487 183
60.28499 205
60.3051 181
60.32522 194
60.34533 158
60.36544 170
60.38556 177
60.40567 163
60.42578 163
60.4459 164
60.46601 147
60.48612 165
60.50624 177
60.52635 165
60.54647 177
60.56658 120
60.58669 131
60.60681 153
60.62692 134
60.64703 136
60.66715 142
60.68726 152
60.70738 129
60.72749 109
60.7476 164
60.76772 138
60.78783 135
60.80794 142
60.82806 121
60.84817 144
60.86828 133
60.8884 153
60.90851 122
60.92863 141
60.94874 135
60.96885 126
60.98897 149
61.00908 134
61.02919 120
61.04931 113
61.06942 127
61.08954 127
61.10965 117
61.12976 141
61.14988 153
61.16999 143
61.1901 147
61.21022 120
61.23033 132
61.25045 127
61.27056 131
61.29067 140
61.31079 129
61.3309 148
61.35101 132
61.37113 129
61.39124 126
61.41135 143
61.43147 138
61.45158 126
61.4717 131
61.49181 135
61.51192 156
61.53204 155
61.55215 145
61.57226 155
61.59238 131
61.61249 139
61.63261 152
61.65272 146
61.67283 124
61.69295 139
61.71306 127
61.73317 131
61.75329 155
61.7734 156
61.79352 149
61.81363 157
61.83374 126
61.85386 141
61.87397 126
61.89408 149
61.9142 134
61.93431 122
61.95442 128
61.97454 124
61.99465 140
62.01477 152
62.03488 141
62.05499 117
62.07511 128
62.09522 139
62.11533 123
62.13545 153
62.15556 128
62.17568 146
62.19579 136
62.2159 115
62.23602 129
62.25613 113
62.27624 133
62.29636 141
62.31647 136
62.33659 100
62.3567 113
62.37681 139
62.39693 119
62.41704 125
62.43715 128
62.45727 123
62.47738 110
62.49749 105
62.51761 141
62.53772 140
62.55784 104
62.57795 117
62.59806 119
62.61818 106
62.63829 132
62.6584 140
62.67852 124
62.69863 110
62.71875 115
62.73886 116
62.75897 106
62.77909 124
62.7992 110
62.81931 128
62.83943 89
62.85954 122
62.87965 118
62.89977 113
62.91988 129
62.94 108
62.96011 119
62.98022 116
63.00034 107
63.02045 129
63.04056 139
63.06068 104
63.08079 116
63.10091 117
63.12102 111
63.14113 116
63.16125 99
63.18136 141
63.20147 113
63.22159 115
63.2417 90
63.26182 120
63.28193 112
63.30204 127
63.32216 121
63.34227 108
63.36238 126
63.3825 115
63.40261 122
63.42272 110
63.44284 124
63.46295 102
63.48307 123
63.50318 128
63.52329 124
63.54341 148
63.56352 112
63.58363 136
63.60375 129
63.62386 148
63.64398 141
63.66409 129
63.6842 131
63.70432 141
63.72443 169
63.74454 199
63.76466 179
63.78477 222
63.80489 256
63.825 252
63.84511 252
63.86523 320
63.88534 377
63.90545 405
63.92557 430
63.94568 468
63.96579 478
63.98591 524
64.00602 497
64.02614 449
64.04625 412
64.06636 356
64.08648 295
64.10659 304
64.1267 294
64.14682 297
64.16693 304
64.18705 262
64.20716 238
64.22727 209
64.24739 178
64.2675 162
64.28761 145
64.30773 136
64.32784 144
64.34796 115
64.36807 130
64.38818 128
64.4083 111
64.42841 129
64.44852 118
64.46864 137
64.48875 118
64.50886 115
64.52898 102
64.54909 124
64.56921 102
64.58932 109
64.60943 126
64.62955 118
64.64966 126
64.66977 123
64.68989 87
64.71 119
64.73012 116
64.75023 114
64.77034 118
64.79046 117
64.81057 124
64.83068 127
64.8508 113
64.87091 106
64.89102 117
64.91114 101
64.93125 103
64.95137 101
64.97148 112
64.99159 147
65.01171 110
65.03182 118
65.05193 123
65.07205 116
65.09216 114
65.11228 134
65.13239 121
65.1525 116
65.17262 103
65.19273 140
65.21284 123
65.23296 110
65.25307 107
65.27319 123
65.2933 131
65.31341 110
65.33353 103
65.35364 133
65.37375 107
65.39387 126
65.41398 134
65.43409 142
65.45421 119
65.47432 141
65.49444 145
65.51455 150
65.53466 148
65.55478 163
65.57489 152
65.595 185
65.61512 186
65.63523 196
65.65535 203
65.67546 228
65.69557 243
65.71569 237
65.7358 241
65.75591 232
65.77603 221
65.79614 197
65.81626 190
65.83637 165
65.85648 169
65.8766 172
65.89671 195
65.91682 166
65.93694 166
65.95705 186
65.97716 142
65.99728 153
66.01739 157
66.03751 138
66.05762 127
66.07773 131
66.09785 137
66.11796 145
66.13807 106
66.15819 126
66.1783 116
66.19842 123
66.21853 114
66.23864 136
66.25876 110
66.27887 149
66.29898 130
66.3191 124
66.33921 128
66.35933 122
66.37944 129
66.39955 121
66.41967 135
66.43978 142
66.45989 114
66.48001 124
66.50012 136
66.52023 134
66.54035 128
66.56046 132
66.58058 114
66.60069 132
66.6208 135
66.64092 149
66.66103 125
66.68114 131
66.70126 129
66.72137 135
66.74149 130
66.7616 130
66.78171 125
66.80183 134
66.82194 145
66.84205 131
66.86217 141
66.88228 133
66.90239 138
66.92251 153
66.94262 143
66.96274 146
66.98285 145
67.00296 147
67.02308 148
67.04319 148
67.0633 157
67.08342 133
67.10353 142
67.12365 165
67.14376 170
67.16387 170
67.18399 174
67.2041 168
67.22421 180
67.24433 190
67.26444 201
67.28456 181
67.30467 201
67.32478 203
67.3449 236
67.36501 249
67.38512 231
67.40524 305
67.42535 355
67.44546 360
67.46558 332
67.48569 456
67.50581 507
67.52592 551
67.54603 655
67.56615 744
67.58626 885
67.60637 1038
67.62649 1190
67.6466 1264
67.66672 1406
67.68683 1463
67.70694 1446
67.72706 1359
67.74717 1139
67.76728 1023
67.7874 909
67.80751 892
67.82763 863
67.84774 1000
67.86785 1024
67.88797 1185
67.90808 1130
67.92819 1153
67.94831 1093
67.96842 1156
67.98853 1177
68.00865 1334
68.02876 1577
68.04888 1597
68.06899 1891
68.0891 2024
68.10922 2069
68.12933 1909
68.14944 1719
68.16956 1630
68.18967 1528
68.20979 1522
68.2299 1627
68.25001 1702
68.27013 1869
68.29024 1768
68.31035 1552
68.33047 1257
68.35058 976
68.3707 886
68.39081 743
68.41092 691
68.43104 679
68.45115 657
68.47126 576
68.49138 536
68.51149 464
68.5316 358
68.55172 295
68.57183 268
68.59195 235
68.61206 220
68.63217 201
68.65229 192
68.6724 202
68.69251 168
68.71263 190
68.73274 184
68.75286 140
68.77297 145
68.79308 138
68.8132 153
68.83331 144
68.85342 144
68.87354 150
68.89365 134
68.91376 132
68.93388 142
68.95399 137
68.97411 126
68.99422 128
69.01433 140
69.03445 153
69.05456 134
69.07467 125
69.09479 129
69.1149 129
69.13502 128
69.15513 126
69.17524 129
69.19536 135
69.21547 135
69.23558 131
69.2557 127
69.27581 122
69.29593 124
69.31604 141
69.33615 111
69.35627 135
69.37638 126
69.39649 119
69.41661 126
69.43672 126
69.45683 149
69.47695 95
69.49706 128
69.51718 90
69.53729 111
69.5574 132
69.57752 110
69.59763 127
69.61774 122
69.63786 134
69.65797 133
69.67809 109
69.6982 128
69.71831 126
69.73843 114
69.75854 116
69.77865 119
69.79877 120
69.81888 130
69.839 115
69.85911 118
69.87922 127
69.89934 130
69.91945 106
69.93956 134
69.95968 131
69.97979 115
69.9999 112
70.02002 112
70.04013 125
70.06025 103
70.08036 119
70.10047 139
70.12059 148
70.1407 162
70.16081 107
70.18093 121
70.20104 100
70.22116 130
70.24127 109
70.26138 100
70.2815 94
70.30161 115
70.32172 105
70.34184 131
70.36195 129
70.38207 113
70.40218 115
70.42229 106
70.44241 121
70.46252 103
70.48263 119
70.50275 111
70.52286 104
70.54297 121
70.56309 122
70.5832 119
70.60332 110
70.62343 92
70.64354 130
70.66366 118
70.68377 138
70.70388 121
70.724 127
70.74411 108
70.76423 94
70.78434 111
70.80445 116
70.82457 105
70.84468 108
70.86479 115
70.88491 122
70.90502 112
70.92513 110
70.94525 111
70.96536 111
70.98548 110
71.00559 112
71.0257 116
71.04582 127
71.06593 104
71.08604 120
71.10616 130
71.12627 116
71.14639 106
71.1665 116
71.18661 126
71.20673 120
71.22684 110
71.24695 100
71.26707 123
71.28718 109
71.3073 109
71.32741 113
71.34752 114
71.36764 104
71.38775 96
71.40786 113
71.42798 117
71.44809 115
71.4682 110
71.48832 136
71.50843 119
71.52855 127
71.54866 107
71.56877 101
71.58889 107
71.609 130
71.62911 110
71.64923 92
71.66934 95
71.68946 101
71.70957 137
71.72968 104
71.7498 114
71.76991 122
71.79002 115
71.81014 147
71.83025 103
71.85037 95
71.87048 109
71.89059 111
71.91071 121
71.93082 113
71.95093 125
71.97105 119
71.99116 109
72.01127 101
72.03139 120
72.0515 112
72.07162 117
72.09173 112
72.11184 100
72.13196 114
72.15207 115
72.17218 105
72.1923 115
72.21241 118
72.23253 109
72.25264 126
72.27275 135
72.29287 109
72.31298 116
72.33309 103
72.35321 105
72.37332 100
72.39344 111
72.41355 132
72.43366 110
72.45378 120
72.47389 91
72.494 125
72.51412 122
72.53423 104
72.55434 122
72.57446 129
72.59457 113
72.61469 123
72.6348 135
72.65491 121
72.67503 124
72.69514 107
72.71525 114
72.73537 112
72.75548 121
72.7756 121
72.79571 103
72.81582 117
72.83594 120
72.85605 121
72.87616 141
72.89628 112
72.91639 99
72.9365 115
72.95662 114
72.97673 141
72.99685 109
73.01696 145
73.03707 130
73.05719 131
73.0773 159
73.09741 144
73.11753 156
73.13764 169
73.15776 164
73.17787 188
73.19798 195
73.2181 221
73.23821 236
73.25832 288
73.27844 291
73.29855 343
73.31867 369
73.33878 418
73.35889 508
73.37901 529
73.39912 531
73.41923 559
73.43935 514
73.45946 506
73.47957 402
73.49969 344
73.5198 312
73.53992 285
73.56003 292
73.58014 310
73.60026 338
73.62037 316
73.64048 325
73.6606 310
73.68071 247
73.70083 222
73.72094 187
73.74105 176
73.76117 148
73.78128 138
73.80139 137
73.82151 131
73.84162 114
73.86174 126
73.88185 134
73.90196 106
73.92208 123
73.94219 107
73.9623 115
73.98242 120
74.00253 97
74.02264 111
74.04276 109
74.06287 103
74.08299 133
74.1031 113
74.12321 94
74.14333 113
74.16344 110
74.18355 96
74.20367 110
74.22378 95
74.2439 111
74.26401 96
74.28412 113
74.30424 115
74.32435 97
74.34446 116
74.36458 117
74.38469 120
74.40481 142
74.42492 123
74.44503 115
74.46515 103
74.48526 131
74.50537 116
74.52549 129
74.5456 114
74.56571 110
74.58583 101
74.60594 120
74.62606 113
74.64617 116
74.66628 136
74.6864 119
74.70651 90
74.72662 126
74.74674 119
74.76685 120
74.78697 112
74.80708 113
74.82719 125
74.84731 123
74.86742 103
74.88753 123
74.90765 120
74.92776 109
74.94787 127
74.96799 108
74.9881 103
75.00822 108
