3.00117 20228
3.02128 19397
3.0414 19448
3.06151 18484
3.08162 18187
3.10174 17555
3.12185 17173
3.14197 16559
3.16208 15962
3.18219 15832
3.20231 15407
3.22242 14520
3.24253 14459
3.26265 13870
3.28276 13380
3.30288 13049
3.32299 12283
3.3431 12289
3.36322 11677
3.38333 11446
3.40344 10878
3.42356 10582
3.44367 10379
3.46379 10041
3.4839 9567
3.50401 9229
3.52413 8763
3.54424 8642
3.56435 8126
3.58447 7988
3.60458 7603
3.62469 7141
3.64481 7098
3.66492 6672
3.68504 6617
3.70515 6398
3.72526 5844
3.74538 5860
3.76549 5512
3.7856 5333
3.80572 5238
3.82583 4721
3.84595 4642
3.86606 4374
3.88617 4292
3.90629 4208
3.9264 3710
3.94651 3618
3.96663 3397
3.98674 3394
4.00686 3393
4.02697 3044
4.04708 2979
4.0672 2748
4.08731 2583
4.10742 2552
4.12754 2363
4.14765 2364
4.16776 2176
4.18788 2201
4.20799 2140
4.22811 1843
4.24822 1829
4.26833 1748
4.28845 1750
4.30856 1811
4.32867 1575
4.34879 1602
4.3689 1567
4.38902 1518
4.40913 1525
4.42924 1363
4.44936 1345
4.46947 1304
4.48958 1300
4.5097 1384
4.52981 1116
4.54992 1140
4.57004 1130
4.59015 1136
4.61027 1185
4.63038 1084
4.65049 1017
4.67061 1023
4.69072 1015
4.71083 983
4.73095 936
4.75106 852
4.77118 910
4.79129 879
4.8114 881
4.83152 803
4.85163 796
4.87174 787
4.89186 803
4.91197 776
4.93209 709
4.9522 688
4.97231 711
4.99243 686
5.01254 638
5.03265 578
5.05277 616
5.07288 621
5.09299 589
5.11311 544
5.13322 538
5.15334 522
5.17345 506
5.19356 494
5.21368 512
5.23379 478
5.2539 478
5.27402 461
5.29413 503
5.31425 424
5.33436 438
5.35447 406
5.37459 440
5.3947 411
5.41481 404
5.43493 421
5.45504 371
5.47516 355
5.49527 363
5.51538 354
5.5355 339
5.55561 342
5.57572 354
5.59584 325
5.61595 316
5.63606 301
5.65618 290
5.67629 328
5.69641 315
5.71652 274
5.73663 282
5.75675 255
5.77686 283
5.79697 261
5.81709 251
5.8372 258
5.85732 231
5.87743 272
5.89754 237
5.91766 225
5.93777 225
5.95788 217
5.978 246
5.99811 219
6.01823 190
6.03834 204
6.05845 204
6.07857 247
6.09868 207
6.11879 199
6.13891 188
6.15902 213
6.17913 216
6.19925 254
6.21936 209
6.23948 220
6.25959 182
6.2797 175
6.29982 191
6.31993 202
6.34004 185
6.36016 192
6.38027 190
6.40039 191
6.4205 189
6.44061 182
6.46073 188
6.48084 183
6.50095 210
6.52107 214
6.54118 162
6.56129 172
6.58141 149
6.60152 189
6.62164 187
6.64175 155
6.66186 172
6.68198 197
6.70209 167
6.7222 168
6.74232 152
6.76243 175
6.78255 182
6.80266 178
6.82277 168
6.84289 185
6.863 188
6.88311 184
6.90323 190
6.92334 205
6.94346 176
6.96357 171
6.98368 177
7.0038 178
7.02391 181
7.04402 191
7.06414 181
7.08425 195
7.10436 166
7.12448 178
7.14459 156
7.16471 177
7.18482 161
7.20493 185
7.22505 201
7.24516 202
7.26527 164
7.28539 173
7.3055 200
7.32562 166
7.34573 176
7.36584 204
7.38596 187
7.40607 157
7.42618 170
7.4463 199
7.46641 170
7.48653 186
7.50664 189
7.52675 199
7.54687 197
7.56698 190
7.58709 193
7.60721 172
7.62732 159
7.64743 211
7.66755 193
7.68766 187
7.70778 182
7.72789 199
7.748 209
7.76812 202
7.78823 178
7.80834 210
7.82846 193
7.84857 195
7.86869 181
7.8888 228
7.90891 200
7.92903 185
7.94914 180
7.96925 177
7.98937 204
8.00948 214
8.0296 198
8.04971 198
8.06982 195
8.08994 246
8.11005 193
8.13016 216
8.15028 202
8.17039 182
8.1905 196
8.21062 214
8.23073 239
8.25085 199
8.27096 198
8.29107 216
8.31119 207
8.3313 215
8.35141 211
8.37153 199
8.39164 241
8.41176 197
8.43187 207
8.45198 188
8.4721 204
8.49221 201
8.51232 190
8.53244 218
8.55255 223
8.57266 233
8.59278 199
8.61289 219
8.63301 207
8.65312 195
8.67323 200
8.69335 186
8.71346 236
8.73357 233
8.75369 201
8.7738 226
8.79392 209
8.81403 215
8.83414 215
8.85426 213
8.87437 199
8.89448 227
8.9146 223
8.93471 222
8.95483 218
8.97494 226
8.99505 214
9.01517 188
9.03528 225
9.05539 220
9.07551 207
9.09562 227
9.11573 213
9.13585 216
9.15596 214
9.17608 202
9.19619 226
9.2163 191
9.23642 213
9.25653 254
9.27664 216
9.29676 227
9.31687 195
9.33699 175
9.3571 203
9.37721 197
9.39733 231
9.41744 183
9.43755 196
9.45767 208
9.47778 201
9.4979 205
9.51801 210
9.53812 219
9.55824 222
9.57835 225
9.59846 246
9.61858 231
9.63869 228
9.6588 231
9.67892 207
9.69903 244
9.71915 200
9.73926 196
9.75937 210
9.77949 226
9.7996 234
9.81971 215
9.83983 209
9.85994 209
9.88006 200
9.90017 198
9.92028 238
9.9404 216
9.96051 221
9.98062 218
10.00074 215
10.02085 217
10.04097 244
10.06108 177
10.08119 210
10.10131 182
10.12142 208
10.14153 242
10.16165 191
10.18176 202
10.20187 229
10.22199 195
10.2421 223
10.26222 205
10.28233 203
10.30244 196
10.32256 204
10.34267 209
10.36278 187
10.3829 230
10.40301 212
10.42313 232
10.44324 224
10.46335 209
10.48347 231
10.50358 206
10.52369 199
10.54381 241
10.56392 200
10.58403 208
10.60415 201
10.62426 216
10.64438 224
10.66449 212
10.6846 242
10.70472 225
10.72483 222
10.74494 231
10.76506 227
10.78517 219
10.80529 208
10.8254 229
10.84551 238
10.86563 215
10.88574 234
10.90585 220
10.92597 226
10.94608 192
10.9662 206
10.98631 196
11.00642 191
11.02654 233
11.04665 196
11.06676 200
11.08688 230
11.10699 241
11.1271 219
11.14722 218
11.16733 206
11.18745 224
11.20756 206
11.22767 242
11.24779 226
11.2679 231
11.28801 221
11.30813 202
11.32824 208
11.34836 204
11.36847 212
11.38858 201
11.4087 200
11.42881 194
11.44892 195
11.46904 221
11.48915 236
11.50927 215
11.52938 246
11.54949 218
11.56961 228
11.58972 261
11.60983 193
11.62995 202
11.65006 205
11.67017 209
11.69029 221
11.7104 216
11.73052 237
11.75063 222
11.77074 219
11.79086 233
11.81097 253
11.83108 215
11.8512 247
11.87131 242
11.89143 219
11.91154 242
11.93165 220
11.95177 229
11.97188 212
11.99199 237
12.01211 205
12.03222 254
12.05234 242
12.07245 252
12.09256 235
12.11268 228
12.13279 247
12.1529 235
12.17302 225
12.19313 237
12.21324 242
12.23336 216
12.25347 234
12.27359 235
12.2937 234
12.31381 233
12.33393 263
12.35404 249
12.37415 226
12.39427 203
12.41438 226
12.4345 230
12.45461 210
12.47472 242
12.49484 205
12.51495 198
12.53506 199
12.55518 235
12.57529 197
12.5954 232
12.61552 194
12.63563 180
12.65575 205
12.67586 197
12.69597 208
12.71609 216
12.7362 202
12.75631 198
12.77643 216
12.79654 222
12.81666 242
12.83677 219
12.85688 209
12.877 204
12.89711 187
12.91722 222
12.93734 211
12.95745 184
12.97757 189
12.99768 217
13.01779 193
13.03791 209
13.05802 179
13.07813 196
13.09825 205
13.11836 181
13.13847 183
13.15859 202
13.1787 194
13.19882 184
13.21893 224
13.23904 210
13.25916 210
13.27927 184
13.29938 195
13.3195 190
13.33961 172
13.35973 181
13.37984 192
13.39995 182
13.42007 176
13.44018 188
13.46029 188
13.48041 188
13.50052 186
13.52064 216
13.54075 205
13.56086 192
13.58098 167
13.60109 221
13.6212 206
13.64132 196
13.66143 204
13.68154 174
13.70166 170
13.72177 166
13.74189 211
13.762 161
13.78211 212
13.80223 196
13.82234 189
13.84245 175
13.86257 180
13.88268 179
13.9028 209
13.92291 193
13.94302 201
13.96314 188
13.98325 162
14.00336 197
14.02348 193
14.04359 204
14.06371 163
14.08382 186
14.10393 164
14.12405 187
14.14416 159
14.16427 180
14.18439 175
14.2045 168
14.22461 175
14.24473 178
14.26484 173
14.28496 186
14.30507 202
14.32518 173
14.3453 179
14.36541 175
14.38552 184
14.40564 172
14.42575 158
14.44587 154
14.46598 157
14.48609 179
14.50621 174
14.52632 155
14.54643 175
14.56655 170
14.58666 179
14.60677 172
14.62689 158
14.647 176
14.66712 181
14.68723 161
14.70734 137
14.72746 140
14.74757 164
14.76768 160
14.7878 171
14.80791 151
14.82803 162
14.84814 176
14.86825 174
14.88837 160
14.90848 162
14.92859 162
14.94871 182
14.96882 174
14.98894 165
15.00905 156
15.02916 153
15.04928 180
15.06939 166
15.0895 159
15.10962 159
15.12973 164
15.14984 164
15.16996 187
15.19007 140
15.21019 162
15.2303 195
15.25041 157
15.27053 155
15.29064 172
15.31075 165
15.33087 165
15.35098 162
15.3711 181
15.39121 169
15.41132 166
15.43144 150
15.45155 169
15.47166 149
15.49178 167
15.51189 161
15.53201 180
15.55212 162
15.57223 149
15.59235 147
15.61246 163
15.63257 175
15.65269 170
15.6728 171
15.69291 148
15.71303 185
15.73314 171
15.75326 174
15.77337 167
15.79348 169
15.8136 169
15.83371 152
15.85382 138
15.87394 157
15.89405 174
15.91417 159
15.93428 163
15.95439 138
15.97451 173
15.99462 151
16.01473 163
16.03485 162
16.05496 124
16.07508 154
16.09519 150
16.1153 157
16.13542 171
16.15553 157
16.17564 157
16.19576 143
16.21587 167
16.23598 165
16.2561 167
16.27621 166
16.29633 182
16.31644 139
16.33655 154
16.35667 149
16.37678 148
16.39689 160
16.41701 165
16.43712 173
16.45724 116
16.47735 141
16.49746 154
16.51758 157
16.53769 167
16.5578 162
16.57792 139
16.59803 169
16.61814 133
16.63826 171
16.65837 155
16.67849 165
16.6986 142
16.71871 145
16.73883 179
16.75894 148
16.77905 157
16.79917 138
16.81928 164
16.8394 148
16.85951 153
16.87962 168
16.89974 157
16.91985 154
16.93996 155
16.96008 129
16.98019 142
17.00031 165
17.02042 186
17.04053 144
17.06065 186
17.08076 145
17.10087 143
17.12099 186
17.1411 151
17.16121 178
17.18133 147
17.20144 156
17.22156 165
17.24167 163
17.26178 149
17.2819 154
17.30201 163
17.32212 162
17.34224 147
17.36235 143
17.38247 197
17.40258 135
17.42269 139
17.44281 164
17.46292 141
17.48303 164
17.50315 154
17.52326 169
17.54338 160
17.56349 145
17.5836 150
17.60372 159
17.62383 148
17.64394 164
17.66406 188
17.68417 164
17.70428 170
17.7244 180
17.74451 153
17.76463 167
17.78474 140
17.80485 173
17.82497 189
17.84508 144
17.86519 138
17.88531 153
17.90542 168
17.92554 144
17.94565 146
17.96576 144
17.98588 148
18.00599 136
18.0261 146
18.04622 170
18.06633 154
18.08645 162
18.10656 153
18.12667 171
18.14679 142
18.1669 146
18.18701 173
18.20713 142
18.22724 170
18.24735 162
18.26747 164
18.28758 155
18.3077 148
18.32781 139
18.34792 157
18.36804 161
18.38815 135
18.40826 161
18.42838 155
18.44849 146
18.46861 166
18.48872 153
18.50883 159
18.52895 144
18.54906 136
18.56917 159
18.58929 159
18.6094 165
18.62951 161
18.64963 148
18.66974 136
18.68986 160
18.70997 168
18.73008 154
18.7502 172
18.77031 161
18.79042 143
18.81054 181
18.83065 156
18.85077 178
18.87088 156
18.89099 173
18.91111 184
18.93122 131
18.95133 146
18.97145 150
18.99156 148
19.01168 180
19.03179 172
19.0519 173
19.07202 148
19.09213 159
19.11224 161
19.13236 162
19.15247 146
19.17258 174
19.1927 180
19.21281 165
19.23293 166
19.25304 182
19.27315 135
19.29327 160
19.31338 167
19.33349 159
19.35361 152
19.37372 166
19.39384 165
19.41395 146
19.43406 148
19.45418 195
19.47429 159
19.4944 154
19.51452 179
19.53463 189
19.55475 141
19.57486 161
19.59497 181
19.61509 195
19.6352 184
19.65531 208
19.67543 185
19.69554 206
19.71565 237
19.73577 222
19.75588 232
19.776 224
19.79611 212
19.81622 232
19.83634 246
19.85645 245
19.87656 247
19.89668 264
19.91679 254
19.93691 230
19.95702 278
19.97713 267
19.99725 279
20.01736 262
20.03747 269
20.05759 238
20.0777 243
20.09782 282
20.11793 238
20.13804 250
20.15816 268
20.17827 310
20.19838 288
20.2185 291
20.23861 264
20.25872 287
20.27884 319
20.29895 304
20.31907 277
20.33918 289
20.35929 303
20.37941 328
20.39952 332
20.41963 302
20.43975 337
20.45986 353
20.47998 352
20.50009 380
20.5202 393
20.54032 409
20.56043 417
20.58054 437
20.60066 491
20.62077 569
20.64088 611
20.661 818
20.68111 1056
20.70123 1441
20.72134 2062
20.74145 2798
20.76157 3988
20.78168 5172
20.80179 6812
20.82191 8027
20.84202 8668
20.86214 8361
20.88225 7283
20.90236 5401
20.92248 3628
20.94259 2288
20.9627 1343
20.98282 872
21.00293 658
21.02305 541
21.04316 488
21.06327 493
21.08339 425
21.1035 448
21.12361 378
21.14373 363
21.16384 381
21.18395 320
21.20407 306
21.22418 243
21.2443 263
21.26441 263
21.28452 274
21.30464 265
21.32475 250
21.34486 251
21.36498 257
21.38509 229
21.40521 237
21.42532 239
21.44543 259
21.46555 225
21.48566 243
21.50577 241
21.52589 246
21.546 240
21.56612 248
21.58623 197
21.60634 231
21.62646 222
21.64657 206
21.66668 210
21.6868 217
21.70691 233
21.72702 213
21.74714 207
21.76725 209
21.78737 209
21.80748 229
21.82759 211
21.84771 224
21.86782 220
21.88793 250
21.90805 205
21.92816 188
21.94828 235
21.96839 219
21.9885 220
22.00862 240
22.02873 223
22.04884 211
22.06896 225
22.08907 217
22.10919 209
22.1293 198
22.14941 183
22.16953 219
22.18964 212
22.20975 200
22.22987 209
22.24998 223
22.27009 197
22.29021 213
22.31032 221
22.33044 199
22.35055 202
22.37066 181
22.39078 209
22.41089 197
22.431 206
22.45112 202
22.47123 190
22.49135 210
22.51146 198
22.53157 216
22.55169 201
22.5718 192
22.59191 178
22.61203 220
22.63214 200
22.65225 206
22.67237 208
22.69248 193
22.7126 212
22.73271 182
22.75282 210
22.77294 185
22.79305 183
22.81316 198
22.83328 190
22.85339 181
22.87351 208
22.89362 180
22.91373 183
22.93385 187
22.95396 194
22.97407 192
22.99419 213
23.0143 193
23.03442 188
23.05453 215
23.07464 187
23.09476 204
23.11487 215
23.13498 194
23.1551 184
23.17521 199
23.19532 233
23.21544 223
23.23555 213
23.25567 216
23.27578 182
23.29589 199
23.31601 197
23.33612 212
23.35623 199
23.37635 182
23.39646 195
23.41658 195
23.43669 185
23.4568 212
23.47692 207
23.49703 197
23.51714 202
23.53726 188
23.55737 216
23.57749 206
23.5976 204
23.61771 218
23.63783 194
23.65794 181
23.67805 188
23.69817 188
23.71828 188
23.73839 198
23.75851 193
23.77862 232
23.79874 184
23.81885 212
23.83896 201
23.85908 238
23.87919 214
23.8993 220
23.91942 225
23.93953 242
23.95965 275
23.97976 258
23.99987 267
24.01999 280
24.0401 271
24.06021 263
24.08033 194
24.10044 238
24.12056 253
24.14067 192
24.16078 218
24.1809 193
24.20101 185
24.22112 173
24.24124 182
24.26135 185
24.28146 196
24.30158 188
24.32169 193
24.34181 199
24.36192 196
24.38203 175
24.40215 198
24.42226 220
24.44237 182
24.46249 193
24.4826 201
24.50272 238
24.52283 205
24.54294 182
24.56306 190
24.58317 192
24.60328 194
24.6234 204
24.64351 237
24.66362 187
24.68374 193
24.70385 208
24.72397 215
24.74408 228
24.76419 205
24.78431 205
24.80442 226
24.82453 186
24.84465 218
24.86476 214
24.88488 215
24.90499 210
24.9251 206
24.94522 217
24.96533 216
24.98544 212
25.00556 242
25.02567 228
25.04579 187
25.0659 211
25.08601 214
25.10613 192
25.12624 208
25.14635 219
25.16647 209
25.18658 207
25.20669 216
25.22681 217
25.24692 247
25.26704 241
25.28715 252
25.30726 220
25.32738 212
25.34749 209
25.3676 198
25.38772 217
25.40783 203
25.42795 236
25.44806 221
25.46817 221
25.48829 285
25.5084 243
25.52851 227
25.54863 289
25.56874 281
25.58886 296
25.60897 306
25.62908 303
25.6492 360
25.66931 354
25.68942 408
25.70954 417
25.72965 412
25.74976 439
25.76988 418
25.78999 406
25.81011 432
25.83022 442
25.85033 453
25.87045 481
25.89056 451
25.91067 465
25.93079 458
25.9509 465
25.97102 494
25.99113 444
26.01124 500
26.03136 464
26.05147 542
26.07158 514
26.0917 606
26.11181 619
26.13193 674
26.15204 721
26.17215 747
26.19227 846
26.21238 854
26.23249 1016
26.25261 937
26.27272 1088
26.29283 1232
26.31295 1327
26.33306 1504
26.35318 1683
26.37329 1930
26.3934 2342
26.41352 2961
26.43363 3932
26.45374 5296
26.47386 7093
26.49397 9842
26.51409 13645
26.5342 18560
26.55431 24358
26.57443 30554
26.59454 36534
26.61465 38775
26.63477 38216
26.65488 33267
26.67499 26341
26.69511 20008
26.71522 14216
26.73534 8900
26.75545 5117
26.77556 3201
26.79568 2224
26.81579 1821
26.8359 1652
26.85602 1381
26.87613 1288
26.89625 1202
26.91636 1085
26.93647 988
26.95659 893
26.9767 810
26.99681 772
27.01693 700
27.03704 641
27.05716 581
27.07727 582
27.09738 573
27.1175 459
27.13761 472
27.15772 480
27.17784 441
27.19795 443
27.21806 461
27.23818 409
27.25829 417
27.27841 416
27.29852 406
27.31863 413
27.33875 404
27.35886 468
27.37897 454
27.39909 418
27.4192 440
27.43932 409
27.45943 499
27.47954 463
27.49966 414
27.51977 398
27.53988 389
27.56 352
27.58011 376
27.60023 348
27.62034 335
27.64045 311
27.66057 295
27.68068 312
27.70079 280
27.72091 308
27.74102 311
27.76113 266
27.78125 304
27.80136 300
27.82148 267
27.84159 288
27.8617 263
27.88182 293
27.90193 274
27.92204 289
27.94216 294
27.96227 268
27.98239 294
28.0025 272
28.02261 245
28.04273 261
28.06284 262
28.08295 280
28.10307 229
28.12318 255
28.1433 268
28.16341 240
28.18352 260
28.20364 252
28.22375 255
28.24386 228
28.26398 247
28.28409 252
28.3042 270
28.32432 233
28.34443 226
28.36455 240
28.38466 255
28.40477 254
28.42489 241
28.445 242
28.46511 254
28.48523 231
28.50534 235
28.52546 246
28.54557 253
28.56568 259
28.5858 240
28.60591 240
28.62602 222
28.64614 220
28.66625 245
28.68636 246
28.70648 252
28.72659 258
28.74671 231
28.76682 239
28.78693 212
28.80705 230
28.82716 196
28.84727 217
28.86739 236
28.8875 227
28.90762 203
28.92773 213
28.94784 221
28.96796 221
28.98807 225
29.00818 256
29.0283 198
29.04841 246
29.06853 214
29.08864 225
29.10875 194
29.12887 225
29.14898 205
29.16909 222
29.18921 218
29.20932 219
29.22943 216
29.24955 201
29.26966 176
29.28978 226
29.30989 219
29.33 214
29.35012 194
29.37023 225
29.39034 204
29.41046 228
29.43057 229
29.45069 216
29.4708 228
29.49091 214
29.51103 202
29.53114 210
29.55125 211
29.57137 214
29.59148 237
29.6116 221
29.63171 219
29.65182 199
29.67194 214
29.69205 218
29.71216 217
29.73228 218
29.75239 245
29.7725 216
29.79262 228
29.81273 219
29.83285 221
29.85296 196
29.87307 211
29.89319 228
29.9133 185
29.93341 212
29.95353 189
29.97364 242
29.99376 221
30.01387 225
30.03398 202
30.0541 200
30.07421 192
30.09432 240
30.11444 209
30.13455 195
30.15467 232
30.17478 189
30.19489 201
30.21501 202
30.23512 189
30.25523 201
30.27535 195
30.29546 194
30.31557 187
30.33569 201
30.3558 205
30.37592 185
30.39603 197
30.41614 197
30.43626 203
30.45637 189
30.47648 190
30.4966 202
30.51671 207
30.53683 207
30.55694 186
30.57705 187
30.59717 194
30.61728 194
30.63739 162
30.65751 191
30.67762 181
30.69773 182
30.71785 201
30.73796 220
30.75808 205
30.77819 205
30.7983 224
30.81842 226
30.83853 208
30.85864 182
30.87876 208
30.89887 199
30.91899 178
30.9391 170
30.95921 197
30.97933 176
30.99944 188
31.01955 179
31.03967 164
31.05978 159
31.0799 161
31.10001 195
31.12012 156
31.14024 147
31.16035 187
31.18046 178
31.20058 182
31.22069 163
31.2408 160
31.26092 169
31.28103 164
31.30115 171
31.32126 154
31.34137 168
31.36149 179
31.3816 155
31.40171 173
31.42183 157
31.44194 163
31.46206 177
31.48217 177
31.50228 157
31.5224 147
31.54251 167
31.56262 146
31.58274 179
31.60285 151
31.62297 144
31.64308 170
31.66319 172
31.68331 166
31.70342 153
31.72353 157
31.74365 154
31.76376 175
31.78387 151
31.80399 152
31.8241 161
31.84422 155
31.86433 156
31.88444 139
31.90456 150
31.92467 162
31.94478 159
31.9649 151
31.98501 183
32.00513 159
32.02524 186
32.04535 143
32.06547 153
32.08558 156
32.10569 144
32.12581 149
32.14592 162
32.16604 156
32.18615 158
32.20626 145
32.22638 155
32.24649 170
32.2666 157
32.28672 138
32.30683 136
32.32694 149
32.34706 187
32.36717 156
32.38729 154
32.4074 166
32.42751 160
32.44763 156
32.46774 182
32.48785 136
32.50797 138
32.52808 151
32.5482 169
32.56831 128
32.58842 131
32.60854 146
32.62865 156
32.64876 151
32.66888 143
32.68899 155
32.7091 152
32.72922 159
32.74933 148
32.76945 132
32.78956 134
32.80967 134
32.82979 155
32.8499 141
32.87001 160
32.89013 142
32.91024 167
32.93036 158
32.95047 146
32.97058 148
32.9907 135
33.01081 172
33.03092 137
33.05104 154
33.07115 144
33.09127 159
33.11138 149
33.13149 144
33.15161 147
33.17172 140
33.19183 127
33.21195 159
33.23206 146
33.25217 131
33.27229 136
33.2924 164
33.31252 164
33.33263 150
33.35274 135
33.37286 147
33.39297 148
33.41308 137
33.4332 133
33.45331 140
33.47343 120
33.49354 133
33.51365 155
33.53377 146
33.55388 149
33.57399 136
33.59411 132
33.61422 107
33.63434 122
33.65445 116
33.67456 132
33.69468 132
33.71479 128
33.7349 146
33.75502 162
33.77513 119
33.79524 138
33.81536 151
33.83547 122
33.85559 161
33.8757 137
33.89581 142
33.91593 147
33.93604 130
33.95615 146
33.97627 134
33.99638 145
34.0165 153
34.03661 159
34.05672 163
34.07684 136
34.09695 146
34.11706 121
34.13718 126
34.15729 141
34.17741 141
34.19752 137
34.21763 164
34.23775 148
34.25786 153
34.27797 149
34.29809 140
34.3182 158
34.33831 145
34.35843 146
34.37854 151
34.39866 154
34.41877 135
34.43888 143
34.459 156
34.47911 142
34.49922 143
34.51934 171
34.53945 159
34.55957 174
34.57968 152
34.59979 164
34.61991 147
34.64002 150
34.66013 178
34.68025 190
34.70036 189
34.72047 143
34.74059 161
34.7607 168
34.78082 162
34.80093 167
34.82104 195
34.84116 159
34.86127 200
34.88138 161
34.9015 187
34.92161 184
34.94173 176
34.96184 167
34.98195 176
35.00207 184
35.02218 160
35.04229 174
35.06241 170
35.08252 170
35.10264 165
35.12275 160
35.14286 167
35.16298 158
35.18309 180
35.2032 175
35.22332 182
35.24343 199
35.26354 176
35.28366 171
35.30377 184
35.32389 197
35.344 185
35.36411 188
35.38423 207
35.40434 185
35.42445 177
35.44457 190
35.46468 197
35.4848 197
35.50491 191
35.52502 192
35.54514 177
35.56525 168
35.58536 193
35.60548 187
35.62559 163
35.64571 173
35.66582 176
35.68593 190
35.70605 170
35.72616 181
35.74627 204
35.76639 169
35.7865 161
35.80661 169
35.82673 169
35.84684 179
35.86696 198
35.88707 191
35.90718 181
35.9273 152
35.94741 167
35.96752 223
35.98764 183
36.00775 182
36.02787 179
36.04798 184
36.06809 217
36.08821 220
36.10832 241
36.12843 209
36.14855 223
36.16866 235
36.18878 250
36.20889 256
36.229 282
36.24912 288
36.26923 305
36.28934 362
36.30946 418
36.32957 515
36.34968 630
36.3698 763
36.38991 970
36.41003 1269
36.43014 1501
36.45025 1860
36.47037 2215
36.49048 2521
36.51059 2534
36.53071 2620
36.55082 2234
36.57094 1868
36.59105 1535
36.61116 1324
36.63128 1107
36.65139 851
36.6715 589
36.69162 394
36.71173 329
36.73184 281
36.75196 243
36.77207 278
36.79219 226
36.8123 216
36.83241 209
36.85253 204
36.87264 204
36.89275 188
36.91287 202
36.93298 213
36.9531 182
36.97321 207
36.99332 200
37.01344 183
37.03355 181
37.05366 166
37.07378 173
37.09389 188
37.11401 194
37.13412 176
37.15423 166
37.17435 184
37.19446 182
37.21457 164
37.23469 164
37.2548 154
37.27491 165
37.29503 152
37.31514 161
37.33526 166
37.35537 166
37.37548 179
37.3956 150
37.41571 145
37.43582 160
37.45594 167
37.47605 169
37.49617 161
37.51628 152
37.53639 125
37.55651 176
37.57662 157
37.59673 154
37.61685 159
37.63696 159
37.65708 154
37.67719 182
37.6973 162
37.71742 147
37.73753 162
37.75764 141
37.77776 146
37.79787 155
37.81798 165
37.8381 172
37.85821 180
37.87833 175
37.89844 157
37.91855 172
37.93867 178
37.95878 160
37.97889 205
37.99901 164
38.01912 169
38.03924 166
38.05935 163
38.07946 175
38.09958 160
38.11969 142
38.1398 194
38.15992 176
38.18003 164
38.20015 161
38.22026 172
38.24037 151
38.26049 148
38.2806 163
38.30071 155
38.32083 174
38.34094 167
38.36105 175
38.38117 157
38.40128 165
38.4214 178
38.44151 191
38.46162 174
38.48174 156
38.50185 150
38.52196 181
38.54208 169
38.56219 198
38.58231 154
38.60242 179
38.62253 158
38.64265 153
38.66276 187
38.68287 176
38.70299 169
38.7231 174
38.74321 158
38.76333 161
38.78344 170
38.80356 168
38.82367 147
38.84378 179
38.8639 163
38.88401 182
38.90412 151
38.92424 186
38.94435 180
38.96447 208
38.98458 213
39.00469 187
39.02481 179
39.04492 213
39.06503 232
39.08515 221
39.10526 217
39.12538 250
39.14549 280
39.1656 270
39.18572 284
39.20583 351
39.22594 391
39.24606 481
39.26617 552
39.28628 728
39.3064 928
39.32651 1076
39.34663 1372
39.36674 1689
39.38685 1934
39.40697 2227
39.42708 2413
39.44719 2401
39.46731 2206
39.48742 1874
39.50754 1513
39.52765 1304
39.54776 1161
39.56788 970
39.58799 754
39.6081 493
39.62822 347
39.64833 297
39.66845 252
39.68856 261
39.70867 242
39.72879 214
39.7489 216
39.76901 204
39.78913 236
39.80924 209
39.82935 199
39.84947 204
39.86958 226
39.8897 190
39.90981 222
39.92992 198
39.95004 232
39.97015 217
39.99026 239
40.01038 266
40.03049 282
40.05061 281
40.07072 375
40.09083 391
40.11095 475
40.13106 538
40.15117 654
40.17129 793
40.1914 905
40.21152 1059
40.23163 1125
40.25174 1283
40.27186 1178
40.29197 1097
40.31208 973
40.3322 799
40.35231 690
40.37242 647
40.39254 556
40.41265 420
40.43277 296
40.45288 227
40.47299 219
40.49311 177
40.51322 193
40.53333 202
40.55345 161
40.57356 180
40.59368 193
40.61379 181
40.6339 166
40.65402 162
40.67413 175
40.69424 171
40.71436 150
40.73447 159
40.75458 155
40.7747 173
40.79481 157
40.81493 154
40.83504 153
40.85515 167
40.87527 134
40.89538 151
40.91549 176
40.93561 166
40.95572 204
40.97584 133
40.99595 169
41.01606 143
41.03618 182
41.05629 194
41.0764 179
41.09652 145
41.11663 156
41.13675 157
41.15686 172
41.17697 149
41.19709 158
41.2172 163
41.23731 141
41.25743 161
41.27754 132
41.29765 158
41.31777 153
41.33788 155
41.358 178
41.37811 151
41.39822 159
41.41834 167
41.43845 164
41.45856 147
41.47868 176
41.49879 141
41.51891 168
41.53902 159
41.55913 160
41.57925 170
41.59936 166
41.61947 173
41.63959 176
41.6597 164
41.67982 155
41.69993 186
41.72004 173
41.74016 181
41.76027 154
41.78038 179
41.8005 212
41.82061 179
41.84072 177
41.86084 168
41.88095 192
41.90107 159
41.92118 201
41.94129 152
41.96141 169
41.98152 181
42.00163 173
42.02175 213
42.04186 178
42.06198 197
42.08209 195
42.1022 220
42.12232 219
42.14243 242
42.16254 273
42.18266 296
42.20277 303
42.22289 376
42.243 476
42.26311 572
42.28323 667
42.30334 837
42.32345 1026
42.34357 1189
42.36368 1443
42.38379 1748
42.40391 1768
42.42402 1732
42.44414 1598
42.46425 1393
42.48436 1194
42.50448 1038
42.52459 1042
42.5447 807
42.56482 687
42.58493 468
42.60505 351
42.62516 275
42.64527 218
42.66539 228
42.6855 201
42.70561 190
42.72573 191
42.74584 203
42.76595 200
42.78607 164
42.80618 154
42.8263 191
42.84641 153
42.86652 185
42.88664 169
42.90675 138
42.92686 157
42.94698 170
42.96709 162
42.98721 159
43.00732 140
43.02743 143
43.04755 156
43.06766 159
43.08777 136
43.10789 147
43.128 146
43.14812 158
43.16823 151
43.18834 136
43.20846 130
43.22857 138
43.24868 126
43.2688 155
43.28891 152
43.30902 147
43.32914 144
43.34925 139
43.36937 135
43.38948 120
43.40959 125
43.42971 155
43.44982 133
43.46993 131
43.49005 148
43.51016 141
43.53028 139
43.55039 147
43.5705 136
43.59062 126
43.61073 162
43.63084 149
43.65096 145
43.67107 158
43.69119 161
43.7113 148
43.73141 147
43.75153 164
43.77164 133
43.79175 161
43.81187 130
43.83198 139
43.85209 138
43.87221 139
43.89232 155
43.91244 146
43.93255 134
43.95266 161
43.97278 118
43.99289 150
44.013 149
44.03312 131
44.05323 136
44.07335 160
44.09346 144
44.11357 116
44.13369 115
44.1538 152
44.17391 139
44.19403 134
44.21414 135
44.23426 154
44.25437 139
44.27448 139
44.2946 148
44.31471 152
44.33482 148
44.35494 130
44.37505 141
44.39516 138
44.41528 132
44.43539 141
44.45551 150
44.47562 127
44.49573 155
44.51585 144
44.53596 147
44.55607 120
44.57619 143
44.5963 135
44.61642 146
44.63653 130
44.65664 124
44.67676 144
44.69687 125
44.71698 158
44.7371 121
44.75721 150
44.77732 143
44.79744 149
44.81755 154
44.83767 157
44.85778 153
44.87789 133
44.89801 152
44.91812 137
44.93823 125
44.95835 154
44.97846 142
44.99858 151
45.01869 151
45.0388 153
45.05892 151
45.07903 148
45.09914 136
45.11926 158
45.13937 132
45.15949 160
45.1796 142
45.19971 152
45.21983 151
45.23994 151
45.26005 168
45.28017 147
45.30028 158
45.32039 164
45.34051 162
45.36062 197
45.38074 164
45.40085 167
45.42096 194
45.44108 202
45.46119 186
45.4813 213
45.50142 243
45.52153 261
45.54165 263
45.56176 299
45.58187 323
45.60199 437
45.6221 457
45.64221 544
45.66233 698
45.68244 773
45.70256 934
45.72267 1087
45.74278 1189
45.7629 1198
45.78301 1122
45.80312 1003
45.82324 812
45.84335 744
45.86346 644
45.88358 618
45.90369 544
45.92381 455
45.94392 314
45.96403 269
45.98415 207
46.00426 184
46.02437 180
46.04449 188
46.0646 163
46.08472 166
46.10483 152
46.12494 149
46.14506 162
46.16517 151
46.18528 143
46.2054 152
46.22551 127
46.24563 131
46.26574 135
46.28585 141
46.30597 136
46.32608 141
46.34619 143
46.36631 129
46.38642 141
46.40653 129
46.42665 121
46.44676 100
46.46688 131
46.48699 116
46.5071 140
46.52722 119
46.54733 133
46.56744 140
46.58756 144
46.60767 144
46.62779 140
46.6479 140
46.66801 132
46.68813 135
46.70824 151
46.72835 156
46.74847 133
46.76858 133
46.78869 141
46.80881 138
46.82892 128
46.84904 135
46.86915 130
46.88926 133
46.90938 145
46.92949 150
46.9496 118
46.96972 136
46.98983 147
47.00995 160
47.03006 122
47.05017 139
47.07029 130
47.0904 118
47.11051 124
47.13063 146
47.15074 131
47.17086 139
47.19097 135
47.21108 140
47.2312 146
47.25131 133
47.27142 128
47.29154 143
47.31165 146
47.33176 133
47.35188 154
47.37199 129
47.39211 135
47.41222 138
47.43233 132
47.45245 146
47.47256 123
47.49267 122
47.51279 130
47.5329 137
47.55302 108
47.57313 151
47.59324 120
47.61336 132
47.63347 120
47.65358 124
47.6737 121
47.69381 137
47.71393 105
47.73404 129
47.75415 121
47.77427 136
47.79438 127
47.81449 138
47.83461 121
47.85472 147
47.87483 138
47.89495 140
47.91506 134
47.93518 119
47.95529 138
47.9754 124
47.99552 133
48.01563 127
48.03574 122
48.05586 127
48.07597 124
48.09609 141
48.1162 123
48.13631 126
48.15643 121
48.17654 110
48.19665 135
48.21677 156
48.23688 139
48.257 140
48.27711 150
48.29722 145
48.31734 163
48.33745 154
48.35756 127
48.37768 138
48.39779 134
48.4179 154
48.43802 136
48.45813 130
48.47825 122
48.49836 125
48.51847 147
48.53859 142
48.5587 149
48.57881 117
48.59893 136
48.61904 136
48.63916 141
48.65927 143
48.67938 130
48.6995 162
48.71961 130
48.73972 141
48.75984 132
48.77995 149
48.80006 148
48.82018 139
48.84029 144
48.86041 146
48.88052 139
48.90063 150
48.92075 143
48.94086 159
48.96097 156
48.98109 165
49.0012 148
49.02132 156
49.04143 143
49.06154 157
49.08166 153
49.10177 167
49.12188 148
49.142 145
49.16211 146
49.18223 167
49.20234 157
49.22245 154
49.24257 158
49.26268 145
49.28279 133
49.30291 151
49.32302 150
49.34313 171
49.36325 142
49.38336 152
49.40348 165
49.42359 137
49.4437 173
49.46382 157
49.48393 182
49.50404 160
49.52416 187
49.54427 157
49.56439 192
49.5845 209
49.60461 217
49.62473 205
49.64484 228
49.66495 229
49.68507 225
49.70518 251
49.7253 266
49.74541 270
49.76552 323
49.78564 380
49.80575 378
49.82586 487
49.84598 545
49.86609 609
49.8862 659
49.90632 852
49.92643 1010
49.94655 1137
49.96666 1498
49.98677 1810
50.00689 2293
50.027 2761
50.04711 3224
50.06723 3657
50.08734 3868
50.10746 3892
50.12757 3467
50.14768 3050
50.1678 2531
50.18791 2098
50.20802 2173
50.22814 2009
50.24825 1796
50.26837 1485
50.28848 1057
50.30859 677
50.32871 512
50.34882 410
50.36893 353
50.38905 305
50.40916 285
50.42927 281
50.44939 292
50.4695 258
50.48962 269
50.50973 268
50.52984 277
50.54996 272
50.57007 255
50.59018 262
50.6103 257
50.63041 216
50.65053 209
50.67064 234
50.69075 225
50.71087 241
50.73098 195
50.75109 181
50.77121 180
50.79132 172
50.81143 164
50.83155 166
50.85166 162
50.87178 158
50.89189 144
50.912 162
50.93212 155
50.95223 134
50.97234 135
50.99246 152
51.01257 130
51.03269 145
51.0528 163
51.07291 132
51.09303 140
51.11314 139
51.13325 143
51.15337 143
51.17348 144
51.1936 152
51.21371 145
51.23382 139
51.25394 125
51.27405 130
51.29416 136
51.31428 140
51.33439 115
51.3545 146
51.37462 131
51.39473 115
51.41485 137
51.43496 125
51.45507 139
51.47519 123
51.4953 121
51.51541 110
51.53553 130
51.55564 140
51.57576 116
51.59587 121
51.61598 121
51.6361 111
51.65621 129
51.67632 119
51.69644 117
51.71655 122
51.73667 133
51.75678 127
51.77689 132
51.79701 125
51.81712 128
51.83723 123
51.85735 146
51.87746 123
51.89757 130
51.91769 121
51.9378 118
51.95792 129
51.97803 114
51.99814 116
52.01826 120
52.03837 118
52.05848 134
52.0786 136
52.09871 130
52.11883 126
52.13894 135
52.15905 115
52.17917 130
52.19928 117
52.21939 116
52.23951 121
52.25962 109
52.27974 138
52.29985 121
52.31996 129
52.34008 120
52.36019 123
52.3803 100
52.40042 143
52.42053 114
52.44064 120
52.46076 109
52.48087 110
52.50099 131
52.5211 123
52.54121 128
52.56133 134
52.58144 129
52.60155 114
52.62167 145
52.64178 121
52.6619 134
52.68201 141
52.70212 124
52.72224 130
52.74235 120
52.76246 105
52.78258 142
52.80269 128
52.8228 129
52.84292 135
52.86303 136
52.88315 115
52.90326 102
52.92337 122
52.94349 124
52.9636 143
52.98371 119
53.00383 126
53.02394 133
53.04406 141
53.06417 129
53.08428 136
53.1044 130
53.12451 116
53.14462 123
53.16474 122
53.18485 144
53.20497 144
53.22508 155
53.24519 150
53.26531 128
53.28542 117
53.30553 133
53.32565 124
53.34576 142
53.36587 135
53.38599 131
53.4061 146
53.42622 136
53.44633 143
53.46644 131
53.48656 131
53.50667 141
53.52678 129
53.5469 150
53.56701 132
53.58713 134
53.60724 165
53.62735 136
53.64747 133
53.66758 135
53.68769 115
53.70781 141
53.72792 158
53.74804 110
53.76815 140
53.78826 141
53.80838 151
53.82849 136
53.8486 138
53.86872 157
53.88883 120
53.90894 130
53.92906 137
53.94917 151
53.96929 159
53.9894 142
54.00951 162
54.02963 120
54.04974 140
54.06985 150
54.08997 153
54.11008 149
54.1302 145
54.15031 133
54.17042 140
54.19054 142
54.21065 149
54.23076 144
54.25088 165
54.27099 162
54.29111 134
54.31122 166
54.33133 170
54.35145 175
54.37156 172
54.39167 156
54.41179 171
54.4319 187
54.45201 164
54.47213 204
54.49224 213
54.51236 229
54.53247 225
54.55258 242
54.5727 250
54.59281 256
54.61292 303
54.63304 357
54.65315 376
54.67327 430
54.69338 539
54.71349 579
54.73361 685
54.75372 841
54.77383 937
54.79395 1105
54.81406 1159
54.83417 1135
54.85429 1221
54.8744 1009
54.89452 881
54.91463 750
54.93474 685
54.95486 652
54.97497 649
54.99508 650
55.0152 566
55.03531 473
55.05543 366
55.07554 287
55.09565 303
55.11577 314
55.13588 353
55.15599 360
55.17611 404
55.19622 424
55.21634 483
55.23645 531
55.25656 558
55.27668 593
55.29679 615
55.3169 610
55.33702 488
55.35713 423
55.37724 427
55.39736 363
55.41747 400
55.43759 350
55.4577 361
55.47781 315
55.49793 236
55.51804 207
55.53815 174
55.55827 170
55.57838 154
55.5985 149
55.61861 132
55.63872 165
55.65884 162
55.67895 142
55.69906 130
55.71918 148
55.73929 124
55.75941 133
55.77952 115
55.79963 124
55.81975 129
55.83986 146
55.85997 141
55.88009 128
55.9002 131
55.92031 112
55.94043 146
55.96054 129
55.98066 134
56.00077 140
56.02088 119
56.041 119
56.06111 124
56.08122 131
56.10134 127
56.12145 132
56.14157 122
56.16168 122
56.18179 131
56.20191 120
56.22202 117
56.24213 151
56.26225 124
56.28236 149
56.30248 132
56.32259 111
56.3427 133
56.36282 119
56.38293 115
56.40304 114
56.42316 109
56.44327 136
56.46338 133
56.4835 147
56.50361 137
56.52373 130
56.54384 114
56.56395 125
56.58407 132
56.60418 141
56.62429 123
56.64441 146
56.66452 124
56.68464 146
56.70475 111
56.72486 130
56.74498 127
56.76509 130
56.7852 123
56.80532 127
56.82543 132
56.84554 133
56.86566 146
56.88577 136
56.90589 132
56.926 133
56.94611 140
56.96623 159
56.98634 135
57.00645 141
57.02657 123
57.04668 146
57.0668 147
57.08691 154
57.10702 157
57.12714 160
57.14725 165
57.16736 175
57.18748 183
57.20759 180
57.22771 186
57.24782 149
57.26793 135
57.28805 120
57.30816 145
57.32827 158
57.34839 159
57.3685 147
57.38861 138
57.40873 134
57.42884 142
57.44896 132
57.46907 136
57.48918 114
57.5093 118
57.52941 142
57.54952 132
57.56964 132
57.58975 130
57.60987 124
57.62998 113
57.65009 122
57.67021 110
57.69032 114
57.71043 140
57.73055 135
57.75066 126
57.77078 114
57.79089 129
57.811 137
57.83112 123
57.85123 123
57.87134 123
57.89146 143
57.91157 129
57.93168 140
57.9518 127
57.97191 119
57.99203 116
58.01214 125
58.03225 128
58.05237 126
58.07248 118
58.09259 118
58.11271 137
58.13282 130
58.15294 134
58.17305 135
58.19316 123
58.21328 125
58.23339 132
58.2535 145
58.27362 131
58.29373 128
58.31385 123
58.33396 135
58.35407 113
58.37419 131
58.3943 122
58.41441 126
58.43453 129
58.45464 115
58.47475 124
58.49487 134
58.51498 121
58.5351 122
58.55521 121
58.57532 132
58.59544 125
58.61555 107
58.63566 110
58.65578 144
58.67589 149
58.69601 148
58.71612 166
58.73623 103
58.75635 125
58.77646 140
58.79657 145
58.81669 139
58.8368 139
58.85691 148
58.87703 137
58.89714 110
58.91726 132
58.93737 116
58.95748 140
58.9776 151
58.99771 122
59.01782 139
59.03794 147
59.05805 116
59.07817 137
59.09828 126
59.11839 154
59.13851 140
59.15862 148
59.17873 115
59.19885 139
59.21896 147
59.23908 169
59.25919 135
59.2793 146
59.29942 172
59.31953 142
59.33964 164
59.35976 163
59.37987 164
59.39998 176
59.4201 182
59.44021 198
59.46033 232
59.48044 240
59.50055 230
59.52067 244
59.54078 263
59.56089 275
59.58101 297
59.60112 325
59.62124 324
59.64135 389
59.66146 465
59.68158 501
59.70169 575
59.7218 673
59.74192 789
59.76203 930
59.78215 1204
59.80226 1378
59.82237 1585
59.84249 1859
59.8626 2129
59.88271 2398
59.90283 2440
59.92294 2429
59.94305 2155
59.96317 1905
59.98328 1540
60.0034 1374
60.02351 1372
60.04362 1323
60.06374 1314
60.08385 1192
60.10396 1077
60.12408 911
60.14419 638
60.16431 446
60.18442 347
60.20453 291
60.22465 261
60.24476 230
60.26487 230
60.28499 205
60.3051 220
60.32522 180
60.34533 179
60.36544 174
60.38556 185
60.40567 178
60.42578 159
60.4459 154
60.46601 146
60.48612 160
60.50624 142
60.52635 148
60.54647 155
60.56658 126
60.58669 152
60.60681 136
60.62692 157
60.64703 141
60.66715 131
60.68726 132
60.70738 130
60.72749 150
60.7476 122
60.76772 148
60.78783 138
60.80794 146
60.82806 131
60.84817 120
60.86828 148
60.8884 125
60.90851 135
60.92863 131
60.94874 145
60.96885 133
60.98897 131
61.00908 136
61.02919 128
61.04931 110
61.06942 143
61.08954 118
61.10965 136
61.12976 135
61.14988 125
61.16999 113
61.1901 144
61.21022 120
61.23033 132
61.25045 123
61.27056 127
61.29067 124
61.31079 137
61.3309 129
61.35101 129
61.37113 128
61.39124 134
61.41135 122
61.43147 113
61.45158 117
61.4717 122
61.49181 125
61.51192 125
61.53204 116
61.55215 116
61.57226 134
61.59238 137
61.61249 114
61.63261 123
61.65272 141
61.67283 130
61.69295 139
61.71306 160
61.73317 144
61.75329 112
61.7734 137
61.79352 133
61.81363 136
61.83374 139
61.85386 130
61.87397 123
61.89408 113
61.9142 136
61.93431 137
61.95442 151
61.97454 132
61.99465 129
62.01477 159
62.03488 129
62.05499 151
62.07511 163
62.09522 139
62.11533 126
62.13545 141
62.15556 142
62.17568 118
62.19579 137
62.2159 130
62.23602 161
62.25613 141
62.27624 130
62.29636 131
62.31647 129
62.33659 124
62.3567 123
62.37681 145
62.39693 118
62.41704 131
62.43715 118
62.45727 124
62.47738 125
62.49749 116
62.51761 135
62.53772 124
62.55784 126
62.57795 134
62.59806 145
62.61818 128
62.63829 138
62.6584 129
62.67852 125
62.69863 140
62.71875 135
62.73886 124
62.75897 120
62.77909 124
62.7992 129
62.81931 115
62.83943 129
62.85954 141
62.87965 113
62.89977 126
62.91988 132
62.94 119
62.96011 116
62.98022 132
63.00034 138
63.02045 132
63.04056 110
63.06068 124
63.08079 114
63.10091 137
63.12102 120
63.14113 132
63.16125 134
63.18136 106
63.20147 122
63.22159 129
63.2417 100
63.26182 116
63.28193 143
63.30204 112
63.32216 131
63.34227 110
63.36238 146
63.3825 131
63.40261 132
63.42272 131
63.44284 126
63.46295 131
63.48307 134
63.50318 119
63.52329 152
63.54341 135
63.56352 136
63.58363 126
63.60375 151
63.62386 124
63.64398 144
63.66409 145
63.6842 170
63.70432 151
63.72443 165
63.74454 184
63.76466 183
63.78477 203
63.80489 220
63.825 257
63.84511 315
63.86523 307
63.88534 356
63.90545 439
63.92557 480
63.94568 514
63.96579 496
63.98591 540
64.00602 524
64.02614 465
64.04625 405
64.06636 353
64.08648 332
64.10659 321
64.1267 326
64.14682 332
64.16693 306
64.18705 287
64.20716 283
64.22727 227
64.24739 192
64.2675 157
64.28761 156
64.30773 141
64.32784 130
64.34796 135
64.36807 130
64.38818 130
64.4083 152
64.42841 106
64.44852 133
64.46864 150
64.48875 130
64.50886 133
64.52898 122
64.54909 127
64.56921 117
64.58932 119
64.60943 131
64.62955 113
64.64966 129
64.66977 134
64.68989 111
64.71 122
64.73012 130
64.75023 124
64.77034 125
64.79046 125
64.81057 117
64.83068 113
64.8508 138
64.87091 124
64.89102 99
64.91114 113
64.93125 106
64.95137 136
64.97148 114
64.99159 117
65.01171 130
65.03182 110
65.05193 120
65.07205 117
65.09216 102
65.11228 113
65.13239 126
65.1525 124
65.17262 125
65.19273 141
65.21284 119
65.23296 128
65.25307 134
65.27319 123
65.2933 116
65.31341 140
65.33353 143
65.35364 145
65.37375 146
65.39387 129
65.41398 161
65.43409 125
65.45421 135
65.47432 144
65.49444 160
65.51455 144
65.53466 131
65.55478 173
65.57489 178
65.595 141
65.61512 164
65.63523 198
65.65535 199
65.67546 231
65.69557 215
65.71569 244
65.7358 231
65.75591 265
65.77603 195
65.79614 189
65.81626 199
65.83637 176
65.85648 185
65.8766 170
65.89671 193
65.91682 204
65.93694 174
65.95705 183
65.97716 145
65.99728 155
66.01739 138
66.03751 162
66.05762 128
66.07773 126
66.09785 154
66.11796 149
66.13807 121
66.15819 116
66.1783 135
66.19842 138
66.21853 151
66.23864 118
66.25876 110
66.27887 117
66.29898 150
66.3191 118
66.33921 114
66.35933 125
66.37944 141
66.39955 134
66.41967 155
66.43978 138
66.45989 152
66.48001 139
66.50012 118
66.52023 122
66.54035 128
66.56046 118
66.58058 131
66.60069 140
66.6208 133
66.64092 142
66.66103 148
66.68114 133
66.70126 118
66.72137 140
66.74149 125
66.7616 134
66.78171 131
66.80183 135
66.82194 136
66.84205 145
66.86217 163
66.88228 147
66.90239 147
66.92251 133
66.94262 141
66.96274 152
66.98285 166
67.00296 155
67.02308 146
67.04319 143
67.0633 155
67.08342 157
67.10353 155
67.12365 161
67.14376 182
67.16387 150
67.18399 179
67.2041 167
67.22421 190
67.24433 174
67.26444 198
67.28456 208
67.30467 217
67.32478 267
67.3449 211
67.36501 236
67.38512 269
67.40524 313
67.42535 325
67.44546 340
67.46558 427
67.48569 432
67.50581 527
67.52592 561
67.54603 663
67.56615 805
67.58626 856
67.60637 1037
67.62649 1224
67.6466 1362
67.66672 1455
67.68683 1568
67.70694 1513
67.72706 1361
67.74717 1232
67.76728 1088
67.7874 986
67.80751 968
67.82763 980
67.84774 1043
67.86785 1113
67.88797 1146
67.90808 1151
67.92819 1178
67.94831 1162
67.96842 1178
67.98853 1264
68.00865 1474
68.02876 1590
68.04888 1792
68.06899 1998
68.0891 2131
68.10922 2105
68.12933 2008
68.14944 1835
68.16956 1633
68.18967 1676
68.20979 1727
68.2299 1814
68.25001 1886
68.27013 1996
68.29024 1812
68.31035 1694
68.33047 1387
68.35058 1057
68.3707 890
68.39081 807
68.41092 740
68.43104 717
68.45115 740
68.47126 703
68.49138 601
68.51149 498
68.5316 363
68.55172 310
68.57183 278
68.59195 243
68.61206 209
68.63217 220
68.65229 192
68.6724 187
68.69251 170
68.71263 163
68.73274 166
68.75286 168
68.77297 150
68.79308 155
68.8132 164
68.83331 182
68.85342 139
68.87354 179
68.89365 152
68.91376 162
68.93388 155
68.95399 157
68.97411 163
68.99422 139
69.01433 140
69.03445 151
69.05456 139
69.07467 145
69.09479 144
69.1149 135
69.13502 129
69.15513 133
69.17524 135
69.19536 109
69.21547 158
69.23558 115
69.2557 121
69.27581 135
69.29593 128
69.31604 132
69.33615 135
69.35627 120
69.37638 138
69.39649 154
69.41661 123
69.43672 137
69.45683 126
69.47695 110
69.49706 125
69.51718 123
69.53729 130
69.5574 138
69.57752 103
69.59763 123
69.61774 114
69.63786 151
69.65797 116
69.67809 110
69.6982 113
69.71831 124
69.73843 114
69.75854 131
69.77865 128
69.79877 108
69.81888 121
69.839 131
69.85911 119
69.87922 120
69.89934 106
69.91945 132
69.93956 115
69.95968 116
69.97979 123
69.9999 110
70.02002 128
70.04013 124
70.06025 131
70.08036 110
70.10047 125
70.12059 119
70.1407 129
70.16081 111
70.18093 114
70.20104 122
70.22116 140
70.24127 110
70.26138 131
70.2815 101
70.30161 125
70.32172 107
70.34184 143
70.36195 106
70.38207 91
70.40218 108
70.42229 130
70.44241 133
70.46252 111
70.48263 112
70.50275 98
70.52286 120
70.54297 120
70.56309 107
70.5832 115
70.60332 120
70.62343 107
70.64354 97
70.66366 113
70.68377 121
70.70388 116
70.724 126
70.74411 100
70.76423 115
70.78434 110
70.80445 97
70.82457 143
70.84468 129
70.86479 125
70.88491 100
70.90502 117
70.92513 123
70.94525 131
70.96536 126
70.98548 128
71.00559 124
71.0257 122
71.04582 119
71.06593 118
71.08604 123
71.10616 133
71.12627 110
71.14639 106
71.1665 113
71.18661 133
71.20673 99
71.22684 118
71.24695 101
71.26707 103
71.28718 111
71.3073 138
71.32741 114
71.34752 95
71.36764 106
71.38775 105
71.40786 136
71.42798 115
71.44809 117
71.4682 100
71.48832 132
71.50843 116
71.52855 124
71.54866 123
71.56877 113
71.58889 96
71.609 121
71.62911 122
71.64923 109
71.66934 103
71.68946 111
71.70957 133
71.72968 123
71.7498 105
71.76991 110
71.79002 124
71.81014 130
71.83025 129
71.85037 107
71.87048 124
71.89059 92
71.91071 116
71.93082 115
71.95093 122
71.97105 135
71.99116 110
72.01127 114
72.03139 116
72.0515 122
72.07162 127
72.09173 108
72.11184 103
72.13196 101
72.15207 108
72.17218 128
72.1923 125
72.21241 116
72.23253 103
72.25264 110
72.27275 126
72.29287 112
72.31298 122
72.33309 111
72.35321 103
72.37332 112
72.39344 113
72.41355 117
72.43366 110
72.45378 114
72.47389 131
72.494 116
72.51412 120
72.53423 117
72.55434 111
72.57446 127
72.59457 100
72.61469 115
72.6348 132
72.65491 137
72.67503 105
72.69514 109
72.71525 120
72.73537 126
72.75548 106
72.7756 104
72.79571 113
72.81582 126
72.83594 119
72.85605 137
72.87616 141
72.89628 122
72.91639 123
72.9365 137
72.95662 129
72.97673 120
72.99685 141
73.01696 132
73.03707 144
73.05719 145
73.0773 151
73.09741 149
73.11753 181
73.13764 177
73.15776 168
73.17787 199
73.19798 218
73.2181 227
73.23821 238
73.25832 265
73.27844 337
73.29855 340
73.31867 408
73.33878 423
73.35889 522
73.37901 534
73.39912 598
73.41923 631
73.43935 531
73.45946 506
73.47957 429
73.49969 384
73.5198 328
73.53992 330
73.56003 329
73.58014 306
73.60026 341
73.62037 333
73.64048 347
73.6606 349
73.68071 315
73.70083 240
73.72094 187
73.74105 154
73.76117 161
73.78128 140
73.80139 136
73.82151 133
73.84162 136
73.86174 133
73.88185 128
73.90196 140
73.92208 118
73.94219 122
73.9623 133
73.98242 136
74.00253 129
74.02264 118
74.04276 121
74.06287 130
74.08299 135
74.1031 137
74.12321 119
74.14333 127
74.16344 112
74.18355 133
74.20367 123
74.22378 112
74.2439 133
74.26401 124
74.28412 109
74.30424 96
74.32435 119
74.34446 123
74.36458 125
74.38469 115
74.40481 119
74.42492 126
74.44503 112
74.46515 115
74.48526 115
74.50537 112
74.52549 110
74.5456 98
74.56571 128
74.58583 106
74.60594 124
74.62606 129
74.64617 133
74.66628 112
74.6864 105
74.70651 114
74.72662 126
74.74674 125
74.76685 115
74.78697 108
74.80708 115
74.82719 121
74.84731 120
74.86742 124
74.88753 118
74.90765 117
74.92776 116
74.94787 113
74.96799 133
74.9881 124
75.00822 124
