3.00117 20438
3.02128 19633
3.0414 19193
3.06151 18590
3.08162 18101
3.10174 17911
3.12185 17123
3.14197 16655
3.16208 16348
3.18219 15551
3.20231 15358
3.22242 14825
3.24253 14478
3.26265 14129
3.28276 13403
3.30288 13123
3.32299 12749
3.3431 12426
3.36322 12119
3.38333 11434
3.40344 11317
3.42356 10739
3.44367 10371
3.46379 10190
3.4839 9631
3.50401 9528
3.52413 9052
3.54424 8792
3.56435 8458
3.58447 7873
3.60458 8118
3.62469 7717
3.64481 7360
3.66492 7016
3.68504 6839
3.70515 6664
3.72526 6229
3.74538 6141
3.76549 5719
3.7856 5559
3.80572 5383
3.82583 5141
3.84595 4833
3.86606 4713
3.88617 4315
3.90629 4364
3.9264 4137
3.94651 3957
3.96663 3750
3.98674 3472
4.00686 3558
4.02697 3229
4.04708 3159
4.0672 3081
4.08731 2864
4.10742 2816
4.12754 2738
4.14765 2547
4.16776 2510
4.18788 2248
4.20799 2247
4.22811 2434
4.24822 2006
4.26833 2120
4.28845 1947
4.30856 2035
4.32867 2023
4.34879 1708
4.3689 1801
4.38902 1683
4.40913 1616
4.42924 1727
4.44936 1636
4.46947 1491
4.48958 1566
4.5097 1451
4.52981 1554
4.54992 1372
4.57004 1459
4.59015 1301
4.61027 1319
4.63038 1320
4.65049 1195
4.67061 1325
4.69072 1179
4.71083 1193
4.73095 1226
4.75106 1156
4.77118 1152
4.79129 1096
4.8114 1121
4.83152 1144
4.85163 975
4.87174 1095
4.89186 1037
4.91197 1048
4.93209 1064
4.9522 1003
4.97231 956
4.99243 905
5.01254 900
5.03265 909
5.05277 891
5.07288 916
5.09299 826
5.11311 855
5.13322 802
5.15334 786
5.17345 798
5.19356 830
5.21368 784
5.23379 813
5.2539 754
5.27402 732
5.29413 732
5.31425 717
5.33436 739
5.35447 695
5.37459 692
5.3947 724
5.41481 621
5.43493 688
5.45504 650
5.47516 630
5.49527 671
5.51538 708
5.5355 658
5.55561 664
5.57572 588
5.59584 661
5.61595 585
5.63606 590
5.65618 584
5.67629 600
5.69641 574
5.71652 575
5.73663 575
5.75675 559
5.77686 559
5.79697 623
5.81709 545
5.8372 553
5.85732 592
5.87743 532
5.89754 547
5.91766 505
5.93777 516
5.95788 513
5.978 587
5.99811 517
6.01823 523
6.03834 529
6.05845 511
6.07857 498
6.09868 536
6.11879 545
6.13891 523
6.15902 541
6.17913 517
6.19925 497
6.21936 498
6.23948 464
6.25959 457
6.2797 509
6.29982 455
6.31993 454
6.34004 455
6.36016 469
6.38027 435
6.40039 434
6.4205 392
6.44061 472
6.46073 473
6.48084 394
6.50095 433
6.52107 458
6.54118 437
6.56129 413
6.58141 399
6.60152 426
6.62164 414
6.64175 430
6.66186 429
6.68198 392
6.70209 427
6.7222 389
6.74232 407
6.76243 402
6.78255 401
6.80266 407
6.82277 407
6.84289 392
6.863 344
6.88311 356
6.90323 372
6.92334 358
6.94346 396
6.96357 417
6.98368 371
7.0038 378
7.02391 370
7.04402 384
7.06414 365
7.08425 370
7.10436 350
7.12448 385
7.14459 380
7.16471 360
7.18482 366
7.20493 400
7.22505 354
7.24516 386
7.26527 375
7.28539 394
7.3055 389
7.32562 408
7.34573 378
7.36584 368
7.38596 390
7.40607 386
7.42618 392
7.4463 360
7.46641 366
7.48653 353
7.50664 376
7.52675 332
7.54687 345
7.56698 395
7.58709 353
7.60721 340
7.62732 366
7.64743 347
7.66755 318
7.68766 394
7.70778 324
7.72789 369
7.748 398
7.76812 336
7.78823 375
7.80834 380
7.82846 352
7.84857 377
7.86869 347
7.8888 349
7.90891 340
7.92903 342
7.94914 326
7.96925 349
7.98937 333
8.00948 331
8.0296 343
8.04971 326
8.06982 346
8.08994 390
8.11005 346
8.13016 373
8.15028 337
8.17039 322
8.1905 373
8.21062 358
8.23073 359
8.25085 325
8.27096 404
8.29107 380
8.31119 365
8.3313 335
8.35141 328
8.37153 324
8.39164 379
8.41176 381
8.43187 341
8.45198 328
8.4721 342
8.49221 387
8.51232 407
8.53244 362
8.55255 358
8.57266 340
8.59278 361
8.61289 357
8.63301 348
8.65312 361
8.67323 314
8.69335 377
8.71346 347
8.73357 384
8.75369 413
8.7738 386
8.79392 394
8.81403 334
8.83414 377
8.85426 349
8.87437 377
8.89448 329
8.9146 354
8.93471 315
8.95483 343
8.97494 355
8.99505 321
9.01517 319
9.03528 371
9.05539 323
9.07551 332
9.09562 362
9.11573 346
9.13585 345
9.15596 341
9.17608 359
9.19619 358
9.2163 342
9.23642 347
9.25653 344
9.27664 392
9.29676 350
9.31687 352
9.33699 352
9.3571 349
9.37721 389
9.39733 356
9.41744 359
9.43755 331
9.45767 363
9.47778 344
9.4979 352
9.51801 340
9.53812 326
9.55824 348
9.57835 324
9.59846 303
9.61858 331
9.63869 363
9.6588 334
9.67892 333
9.69903 346
9.71915 305
9.73926 314
9.75937 326
9.77949 346
9.7996 331
9.81971 313
9.83983 317
9.85994 346
9.88006 312
9.90017 343
9.92028 326
9.9404 345
9.96051 359
9.98062 319
10.00074 311
10.02085 324
10.04097 340
10.06108 346
10.08119 334
10.10131 296
10.12142 310
10.14153 332
10.16165 318
10.18176 323
10.20187 352
10.22199 356
10.2421 328
10.26222 337
10.28233 314
10.30244 321
10.32256 303
10.34267 328
10.36278 335
10.3829 322
10.40301 294
10.42313 332
10.44324 351
10.46335 339
10.48347 304
10.50358 325
10.52369 342
10.54381 347
10.56392 286
10.58403 310
10.60415 322
10.62426 329
10.64438 308
10.66449 321
10.6846 313
10.70472 304
10.72483 345
10.74494 306
10.76506 331
10.78517 309
10.80529 339
10.8254 300
10.84551 310
10.86563 302
10.88574 360
10.90585 325
10.92597 348
10.94608 323
10.9662 312
10.98631 332
11.00642 324
11.02654 327
11.04665 299
11.06676 284
11.08688 342
11.10699 316
11.1271 310
11.14722 300
11.16733 321
11.18745 300
11.20756 340
11.22767 301
11.24779 322
11.2679 334
11.28801 287
11.30813 308
11.32824 336
11.34836 272
11.36847 322
11.38858 328
11.4087 335
11.42881 329
11.44892 327
11.46904 329
11.48915 314
11.50927 335
11.52938 306
11.54949 319
11.56961 302
11.58972 317
11.60983 318
11.62995 304
11.65006 297
11.67017 313
11.69029 351
11.7104 333
11.73052 336
11.75063 302
11.77074 334
11.79086 316
11.81097 321
11.83108 325
11.8512 335
11.87131 304
11.89143 297
11.91154 303
11.93165 301
11.95177 296
11.97188 314
11.99199 315
12.01211 346
12.03222 296
12.05234 335
12.07245 294
12.09256 332
12.11268 303
12.13279 301
12.1529 307
12.17302 335
12.19313 342
12.21324 363
12.23336 305
12.25347 294
12.27359 333
12.2937 282
12.31381 316
12.33393 334
12.35404 321
12.37415 335
12.39427 323
12.41438 328
12.4345 363
12.45461 371
12.47472 319
12.49484 313
12.51495 329
12.53506 326
12.55518 331
12.57529 351
12.5954 308
12.61552 300
12.63563 295
12.65575 334
12.67586 340
12.69597 318
12.71609 298
12.7362 325
12.75631 314
12.77643 321
12.79654 290
12.81666 315
12.83677 283
12.85688 314
12.877 305
12.89711 348
12.91722 301
12.93734 317
12.95745 277
12.97757 310
12.99768 317
13.01779 291
13.03791 325
13.05802 302
13.07813 311
13.09825 283
13.11836 329
13.13847 310
13.15859 316
13.1787 318
13.19882 326
13.21893 308
13.23904 285
13.25916 307
13.27927 280
13.29938 318
13.3195 282
13.33961 262
13.35973 305
13.37984 302
13.39995 300
13.42007 276
13.44018 304
13.46029 337
13.48041 335
13.50052 327
13.52064 340
13.54075 363
13.56086 350
13.58098 316
13.60109 321
13.6212 385
13.64132 369
13.66143 361
13.68154 375
13.70166 393
13.72177 374
13.74189 341
13.762 359
13.78211 337
13.80223 363
13.82234 336
13.84245 357
13.86257 340
13.88268 309
13.9028 328
13.92291 325
13.94302 320
13.96314 299
13.98325 285
14.00336 341
14.02348 314
14.04359 323
14.06371 289
14.08382 311
14.10393 315
14.12405 274
14.14416 308
14.16427 269
14.18439 304
14.2045 282
14.22461 276
14.24473 318
14.26484 288
14.28496 305
14.30507 309
14.32518 301
14.3453 303
14.36541 313
14.38552 308
14.40564 293
14.42575 265
14.44587 323
14.46598 309
14.48609 318
14.50621 305
14.52632 281
14.54643 270
14.56655 291
14.58666 281
14.60677 279
14.62689 299
14.647 315
14.66712 338
14.68723 291
14.70734 295
14.72746 299
14.74757 270
14.76768 301
14.7878 291
14.80791 305
14.82803 283
14.84814 296
14.86825 291
14.88837 294
14.90848 289
14.92859 304
14.94871 328
14.96882 302
14.98894 308
15.00905 331
15.02916 344
15.04928 343
15.06939 300
15.0895 309
15.10962 331
15.12973 307
15.14984 372
15.16996 307
15.19007 329
15.21019 327
15.2303 330
15.25041 301
15.27053 298
15.29064 327
15.31075 319
15.33087 256
15.35098 264
15.3711 270
15.39121 285
15.41132 288
15.43144 328
15.45155 286
15.47166 264
15.49178 283
15.51189 260
15.53201 287
15.55212 298
15.57223 312
15.59235 304
15.61246 316
15.63257 324
15.65269 310
15.6728 284
15.69291 274
15.71303 282
15.73314 297
15.75326 342
15.77337 315
15.79348 298
15.8136 283
15.83371 306
15.85382 281
15.87394 274
15.89405 289
15.91417 268
15.93428 285
15.95439 319
15.97451 296
15.99462 293
16.01473 298
16.03485 289
16.05496 276
16.07508 278
16.09519 264
16.1153 310
16.13542 317
16.15553 304
16.17564 290
16.19576 321
16.21587 313
16.23598 279
16.2561 288
16.27621 300
16.29633 362
16.31644 303
16.33655 278
16.35667 256
16.37678 311
16.39689 306
16.41701 271
16.43712 287
16.45724 297
16.47735 280
16.49746 286
16.51758 323
16.53769 288
16.5578 300
16.57792 334
16.59803 303
16.61814 310
16.63826 282
16.65837 296
16.67849 268
16.6986 269
16.71871 318
16.73883 292
16.75894 310
16.77905 259
16.79917 315
16.81928 264
16.8394 308
16.85951 305
16.87962 301
16.89974 340
16.91985 294
16.93996 293
16.96008 302
16.98019 307
17.00031 269
17.02042 317
17.04053 304
17.06065 295
17.08076 272
17.10087 283
17.12099 374
17.1411 328
17.16121 320
17.18133 305
17.20144 305
17.22156 333
17.24167 306
17.26178 283
17.2819 286
17.30201 333
17.32212 300
17.34224 270
17.36235 293
17.38247 305
17.40258 317
17.42269 304
17.44281 302
17.46292 316
17.48303 300
17.50315 313
17.52326 312
17.54338 297
17.56349 302
17.5836 311
17.60372 292
17.62383 309
17.64394 331
17.66406 340
17.68417 277
17.70428 308
17.7244 293
17.74451 357
17.76463 278
17.78474 320
17.80485 304
17.82497 306
17.84508 324
17.86519 283
17.88531 268
17.90542 322
17.92554 277
17.94565 327
17.96576 272
17.98588 313
18.00599 310
18.0261 281
18.04622 289
18.06633 298
18.08645 269
18.10656 306
18.12667 316
18.14679 305
18.1669 301
18.18701 302
18.20713 310
18.22724 305
18.24735 286
18.26747 263
18.28758 279
18.3077 350
18.32781 295
18.34792 327
18.36804 334
18.38815 302
18.40826 311
18.42838 279
18.44849 330
18.46861 331
18.48872 300
18.50883 301
18.52895 310
18.54906 307
18.56917 270
18.58929 303
18.6094 285
18.62951 306
18.64963 306
18.66974 316
18.68986 314
18.70997 304
18.73008 343
18.7502 313
18.77031 329
18.79042 314
18.81054 327
18.83065 339
18.85077 378
18.87088 390
18.89099 388
18.91111 358
18.93122 368
18.95133 388
18.97145 354
18.99156 336
19.01168 335
19.03179 364
19.0519 355
19.07202 317
19.09213 318
19.11224 329
19.13236 334
19.15247 325
19.17258 332
19.1927 304
19.21281 320
19.23293 342
19.25304 373
19.27315 377
19.29327 382
19.31338 371
19.33349 391
19.35361 401
19.37372 371
19.39384 372
19.41395 398
19.43406 386
19.45418 392
19.47429 416
19.4944 373
19.51452 391
19.53463 411
19.55475 481
19.57486 393
19.59497 441
19.61509 433
19.6352 447
19.65531 429
19.67543 489
19.69554 437
19.71565 521
19.73577 479
19.75588 462
19.776 477
19.79611 505
19.81622 505
19.83634 548
19.85645 485
19.87656 491
19.89668 507
19.91679 519
19.93691 483
19.95702 487
19.97713 479
19.99725 445
20.01736 480
20.03747 442
20.05759 475
20.0777 466
20.09782 444
20.11793 455
20.13804 481
20.15816 446
20.17827 482
20.19838 422
20.2185 430
20.23861 447
20.25872 424
20.27884 412
20.29895 421
20.31907 452
20.33918 443
20.35929 437
20.37941 466
20.39952 438
20.41963 428
20.43975 456
20.45986 427
20.47998 463
20.50009 434
20.5202 437
20.54032 464
20.56043 447
20.58054 429
20.60066 470
20.62077 515
20.64088 506
20.661 549
20.68111 679
20.70123 720
20.72134 1007
20.74145 1224
20.76157 1564
20.78168 2046
20.80179 2351
20.82191 2670
20.84202 2684
20.86214 2410
20.88225 2040
20.90236 1507
20.92248 1089
20.94259 818
20.9627 670
20.98282 627
21.00293 564
21.02305 579
21.04316 509
21.06327 517
21.08339 504
21.1035 525
21.12361 462
21.14373 433
21.16384 443
21.18395 403
21.20407 406
21.22418 445
21.2443 401
21.26441 397
21.28452 403
21.30464 405
21.32475 412
21.34486 407
21.36498 399
21.38509 385
21.40521 388
21.42532 395
21.44543 388
21.46555 369
21.48566 431
21.50577 394
21.52589 401
21.546 371
21.56612 390
21.58623 388
21.60634 368
21.62646 393
21.64657 405
21.66668 405
21.6868 416
21.70691 391
21.72702 423
21.74714 369
21.76725 420
21.78737 426
21.80748 448
21.82759 494
21.84771 593
21.86782 613
21.88793 749
21.90805 860
21.92816 940
21.94828 906
21.96839 880
21.9885 840
22.00862 733
22.02873 617
22.04884 568
22.06896 558
22.08907 439
22.10919 421
22.1293 412
22.14941 425
22.16953 371
22.18964 367
22.20975 372
22.22987 400
22.24998 397
22.27009 380
22.29021 373
22.31032 388
22.33044 356
22.35055 420
22.37066 377
22.39078 372
22.41089 388
22.431 369
22.45112 362
22.47123 380
22.49135 365
22.51146 350
22.53157 428
22.55169 386
22.5718 387
22.59191 344
22.61203 433
22.63214 394
22.65225 408
22.67237 430
22.69248 415
22.7126 432
22.73271 468
22.75282 474
22.77294 437
22.79305 483
22.81316 423
22.83328 455
22.85339 401
22.87351 374
22.89362 423
22.91373 378
22.93385 423
22.95396 436
22.97407 354
22.99419 379
23.0143 390
23.03442 404
23.05453 372
23.07464 386
23.09476 355
23.11487 393
23.13498 421
23.1551 410
23.17521 379
23.19532 385
23.21544 384
23.23555 391
23.25567 365
23.27578 415
23.29589 386
23.31601 383
23.33612 391
23.35623 395
23.37635 394
23.39646 421
23.41658 451
23.43669 436
23.4568 454
23.47692 490
23.49703 543
23.51714 588
23.53726 589
23.55737 731
23.57749 714
23.5976 763
23.61771 773
23.63783 798
23.65794 689
23.67805 673
23.69817 625
23.71828 619
23.73839 545
23.75851 505
23.77862 475
23.79874 450
23.81885 466
23.83896 456
23.85908 427
23.87919 463
23.8993 459
23.91942 443
23.93953 449
23.95965 428
23.97976 423
23.99987 443
24.01999 426
24.0401 415
24.06021 408
24.08033 441
24.10044 434
24.12056 422
24.14067 458
24.16078 471
24.1809 475
24.20101 444
24.22112 464
24.24124 497
24.26135 538
24.28146 538
24.30158 536
24.32169 552
24.34181 573
24.36192 608
24.38203 597
24.40215 566
24.42226 615
24.44237 576
24.46249 572
24.4826 511
24.50272 505
24.52283 478
24.54294 496
24.56306 479
24.58317 453
24.60328 386
24.6234 400
24.64351 395
24.66362 412
24.68374 360
24.70385 372
24.72397 360
24.74408 417
24.76419 347
24.78431 377
24.80442 387
24.82453 412
24.84465 383
24.86476 396
24.88488 368
24.90499 384
24.9251 413
24.94522 360
24.96533 392
24.98544 350
25.00556 421
25.02567 392
25.04579 374
25.0659 395
25.08601 389
25.10613 399
25.12624 342
25.14635 350
25.16647 409
25.18658 395
25.20669 376
25.22681 398
25.24692 401
25.26704 361
25.28715 382
25.30726 420
25.32738 375
25.34749 392
25.3676 406
25.38772 413
25.40783 452
25.42795 415
25.44806 436
25.46817 389
25.48829 458
25.5084 494
25.52851 458
25.54863 482
25.56874 545
25.58886 554
25.60897 502
25.62908 544
25.6492 535
25.66931 512
25.68942 506
25.70954 467
25.72965 480
25.74976 492
25.76988 443
25.78999 462
25.81011 460
25.83022 430
25.85033 462
25.87045 464
25.89056 474
25.91067 479
25.93079 460
25.9509 451
25.97102 451
25.99113 480
26.01124 476
26.03136 477
26.05147 492
26.07158 503
26.0917 490
26.11181 503
26.13193 486
26.15204 505
26.17215 507
26.19227 567
26.21238 586
26.23249 598
26.25261 613
26.27272 611
26.29283 672
26.31295 726
26.33306 831
26.35318 917
26.37329 1029
26.3934 1167
26.41352 1308
26.43363 1590
26.45374 1975
26.47386 2611
26.49397 3485
26.51409 4771
26.5342 6340
26.55431 7914
26.57443 9706
26.59454 10917
26.61465 10911
26.63477 9971
26.65488 8479
26.67499 6342
26.69511 4866
26.71522 3291
26.73534 2263
26.75545 1459
26.77556 1055
26.79568 933
26.81579 883
26.8359 829
26.85602 788
26.87613 791
26.89625 751
26.91636 725
26.93647 685
26.95659 658
26.9767 638
26.99681 649
27.01693 617
27.03704 580
27.05716 604
27.07727 609
27.09738 578
27.1175 543
27.13761 560
27.15772 532
27.17784 542
27.19795 514
27.21806 482
27.23818 522
27.25829 509
27.27841 502
27.29852 588
27.31863 580
27.33875 555
27.35886 636
27.37897 623
27.39909 754
27.4192 762
27.43932 759
27.45943 830
27.47954 878
27.49966 826
27.51977 873
27.53988 919
27.56 934
27.58011 948
27.60023 1029
27.62034 1000
27.64045 1086
27.66057 1186
27.68068 1226
27.70079 1478
27.72091 1535
27.74102 1600
27.76113 1552
27.78125 1590
27.80136 1476
27.82148 1422
27.84159 1292
27.8617 1247
27.88182 1220
27.90193 1226
27.92204 1217
27.94216 1279
27.96227 1344
27.98239 1330
28.0025 1250
28.02261 1118
28.04273 961
28.06284 854
28.08295 766
28.10307 647
28.12318 645
28.1433 549
28.16341 555
28.18352 507
28.20364 529
28.22375 521
28.24386 519
28.26398 502
28.28409 568
28.3042 602
28.32432 554
28.34443 603
28.36455 596
28.38466 624
28.40477 621
28.42489 643
28.445 594
28.46511 550
28.48523 476
28.50534 447
28.52546 458
28.54557 444
28.56568 389
28.5858 433
28.60591 389
28.62602 401
28.64614 388
28.66625 339
28.68636 367
28.70648 333
28.72659 345
28.74671 394
28.76682 361
28.78693 382
28.80705 376
28.82716 372
28.84727 369
28.86739 381
28.8875 353
28.90762 354
28.92773 396
28.94784 396
28.96796 377
28.98807 393
29.00818 368
29.0283 379
29.04841 377
29.06853 371
29.08864 355
29.10875 396
29.12887 368
29.14898 376
29.16909 386
29.18921 374
29.20932 392
29.22943 363
29.24955 392
29.26966 390
29.28978 389
29.30989 438
29.33 450
29.35012 440
29.37023 456
29.39034 478
29.41046 474
29.43057 513
29.45069 566
29.4708 555
29.49091 554
29.51103 584
29.53114 632
29.55125 677
29.57137 677
29.59148 684
29.6116 692
29.63171 752
29.65182 788
29.67194 871
29.69205 952
29.71216 936
29.73228 1009
29.75239 1080
29.7725 1065
29.79262 1057
29.81273 1039
29.83285 971
29.85296 883
29.87307 753
29.89319 672
29.9133 631
29.93341 590
29.95353 579
29.97364 592
29.99376 514
30.01387 508
30.03398 503
30.0541 531
30.07421 493
30.09432 503
30.11444 522
30.13455 571
30.15467 626
30.17478 623
30.19489 693
30.21501 734
30.23512 693
30.25523 688
30.27535 733
30.29546 794
30.31557 666
30.33569 729
30.3558 715
30.37592 779
30.39603 724
30.41614 666
30.43626 670
30.45637 618
30.47648 619
30.4966 579
30.51671 568
30.53683 556
30.55694 584
30.57705 550
30.59717 520
30.61728 555
30.63739 588
30.65751 631
30.67762 598
30.69773 628
30.71785 625
30.73796 669
30.75808 662
30.77819 672
30.7983 725
30.81842 694
30.83853 676
30.85864 651
30.87876 638
30.89887 627
30.91899 607
30.9391 554
30.95921 502
30.97933 521
30.99944 486
31.01955 467
31.03967 434
31.05978 441
31.0799 405
31.10001 365
31.12012 421
31.14024 388
31.16035 389
31.18046 340
31.20058 366
31.22069 365
31.2408 377
31.26092 370
31.28103 402
31.30115 368
31.32126 441
31.34137 423
31.36149 427
31.3816 459
31.40171 453
31.42183 487
31.44194 486
31.46206 496
31.48217 419
31.50228 456
31.5224 410
31.54251 472
31.56262 407
31.58274 417
31.60285 375
31.62297 411
31.64308 376
31.66319 377
31.68331 375
31.70342 408
31.72353 380
31.74365 376
31.76376 366
31.78387 373
31.80399 364
31.8241 352
31.84422 363
31.86433 326
31.88444 339
31.90456 351
31.92467 334
31.94478 374
31.9649 375
31.98501 384
32.00513 387
32.02524 336
32.04535 337
32.06547 340
32.08558 363
32.10569 389
32.12581 378
32.14592 363
32.16604 351
32.18615 364
32.20626 394
32.22638 336
32.24649 382
32.2666 357
32.28672 341
32.30683 385
32.32694 392
32.34706 394
32.36717 387
32.38729 366
32.4074 371
32.42751 396
32.44763 402
32.46774 387
32.48785 453
32.50797 453
32.52808 419
32.5482 397
32.56831 404
32.58842 433
32.60854 434
32.62865 412
32.64876 378
32.66888 386
32.68899 375
32.7091 391
32.72922 334
32.74933 346
32.76945 357
32.78956 383
32.80967 351
32.82979 337
32.8499 389
32.87001 370
32.89013 347
32.91024 333
32.93036 344
32.95047 331
32.97058 351
32.9907 361
33.01081 308
33.03092 382
33.05104 387
33.07115 371
33.09127 352
33.11138 368
33.13149 361
33.15161 375
33.17172 338
33.19183 361
33.21195 382
33.23206 358
33.25217 354
33.27229 369
33.2924 337
33.31252 334
33.33263 325
33.35274 369
33.37286 313
33.39297 328
33.41308 334
33.4332 334
33.45331 330
33.47343 346
33.49354 315
33.51365 349
33.53377 379
33.55388 339
33.57399 353
33.59411 368
33.61422 385
33.63434 371
33.65445 421
33.67456 394
33.69468 446
33.71479 431
33.7349 429
33.75502 437
33.77513 418
33.79524 429
33.81536 402
33.83547 369
33.85559 351
33.8757 367
33.89581 368
33.91593 368
33.93604 350
33.95615 347
33.97627 327
33.99638 343
34.0165 365
34.03661 382
34.05672 380
34.07684 341
34.09695 380
34.11706 415
34.13718 350
34.15729 365
34.17741 365
34.19752 370
34.21763 384
34.23775 358
34.25786 378
34.27797 404
34.29809 383
34.3182 363
34.33831 409
34.35843 404
34.37854 390
34.39866 436
34.41877 401
34.43888 395
34.459 424
34.47911 421
34.49922 421
34.51934 401
34.53945 417
34.55957 438
34.57968 421
34.59979 437
34.61991 446
34.64002 429
34.66013 497
34.68025 468
34.70036 435
34.72047 466
34.74059 492
34.7607 534
34.78082 587
34.80093 553
34.82104 593
34.84116 605
34.86127 588
34.88138 648
34.9015 666
34.92161 680
34.94173 666
34.96184 694
34.98195 630
35.00207 623
35.02218 597
35.04229 601
35.06241 563
35.08252 567
35.10264 581
35.12275 540
35.14286 579
35.16298 577
35.18309 559
35.2032 576
35.22332 552
35.24343 592
35.26354 548
35.28366 640
35.30377 648
35.32389 627
35.344 647
35.36411 658
35.38423 671
35.40434 648
35.42445 658
35.44457 691
35.46468 764
35.4848 806
35.50491 803
35.52502 841
35.54514 862
35.56525 836
35.58536 831
35.60548 820
35.62559 798
35.64571 764
35.66582 765
35.68593 726
35.70605 750
35.72616 700
35.74627 725
35.76639 655
35.7865 683
35.80661 619
35.82673 667
35.84684 612
35.86696 567
35.88707 582
35.90718 567
35.9273 528
35.94741 548
35.96752 459
35.98764 475
36.00775 452
36.02787 463
36.04798 452
36.06809 437
36.08821 412
36.10832 432
36.12843 465
36.14855 434
36.16866 478
36.18878 460
36.20889 439
36.229 460
36.24912 513
36.26923 467
36.28934 494
36.30946 524
36.32957 545
36.34968 570
36.3698 671
36.38991 697
36.41003 751
36.43014 865
36.45025 1016
36.47037 1099
36.49048 1031
36.51059 1055
36.53071 1012
36.55082 916
36.57094 836
36.59105 749
36.61116 714
36.63128 578
36.65139 616
36.6715 531
36.69162 491
36.71173 446
36.73184 451
36.75196 447
36.77207 433
36.79219 456
36.8123 397
36.83241 404
36.85253 417
36.87264 419
36.89275 385
36.91287 392
36.93298 435
36.9531 393
36.97321 402
36.99332 414
37.01344 403
37.03355 384
37.05366 398
37.07378 391
37.09389 411
37.11401 414
37.13412 432
37.15423 427
37.17435 405
37.19446 385
37.21457 362
37.23469 377
37.2548 378
37.27491 369
37.29503 386
37.31514 394
37.33526 396
37.35537 357
37.37548 371
37.3956 345
37.41571 381
37.43582 350
37.45594 366
37.47605 370
37.49617 387
37.51628 351
37.53639 409
37.55651 413
37.57662 360
37.59673 400
37.61685 362
37.63696 384
37.65708 399
37.67719 341
37.6973 378
37.71742 377
37.73753 386
37.75764 391
37.77776 381
37.79787 384
37.81798 371
37.8381 374
37.85821 387
37.87833 361
37.89844 361
37.91855 365
37.93867 378
37.95878 320
37.97889 315
37.99901 347
38.01912 333
38.03924 345
38.05935 341
38.07946 348
38.09958 334
38.11969 367
38.1398 368
38.15992 353
38.18003 366
38.20015 363
38.22026 367
38.24037 382
38.26049 311
38.2806 372
38.30071 341
38.32083 325
38.34094 346
38.36105 341
38.38117 318
38.40128 346
38.4214 347
38.44151 373
38.46162 362
38.48174 371
38.50185 329
38.52196 348
38.54208 377
38.56219 356
38.58231 337
38.60242 333
38.62253 337
38.64265 321
38.66276 340
38.68287 379
38.70299 346
38.7231 341
38.74321 337
38.76333 342
38.78344 324
38.80356 329
38.82367 378
38.84378 374
38.8639 384
38.88401 336
38.90412 349
38.92424 378
38.94435 362
38.96447 362
38.98458 378
39.00469 364
39.02481 391
39.04492 375
39.06503 391
39.08515 388
39.10526 370
39.12538 409
39.14549 405
39.1656 424
39.18572 439
39.20583 447
39.22594 438
39.24606 445
39.26617 504
39.28628 519
39.3064 605
39.32651 647
39.34663 812
39.36674 825
39.38685 918
39.40697 948
39.42708 978
39.44719 959
39.46731 896
39.48742 799
39.50754 641
39.52765 690
39.54776 633
39.56788 491
39.58799 475
39.6081 428
39.62822 399
39.64833 407
39.66845 388
39.68856 388
39.70867 382
39.72879 337
39.7489 351
39.76901 352
39.78913 356
39.80924 335
39.82935 364
39.84947 352
39.86958 353
39.8897 349
39.90981 368
39.92992 333
39.95004 346
39.97015 364
39.99026 406
40.01038 347
40.03049 376
40.05061 384
40.07072 385
40.09083 397
40.11095 407
40.13106 468
40.15117 458
40.17129 545
40.1914 605
40.21152 638
40.23163 635
40.25174 633
40.27186 610
40.29197 599
40.31208 606
40.3322 529
40.35231 581
40.37242 514
40.39254 460
40.41265 429
40.43277 440
40.45288 422
40.47299 431
40.49311 410
40.51322 404
40.53333 379
40.55345 383
40.57356 421
40.59368 418
40.61379 425
40.6339 403
40.65402 418
40.67413 396
40.69424 379
40.71436 419
40.73447 395
40.75458 415
40.7747 405
40.79481 388
40.81493 427
40.83504 402
40.85515 386
40.87527 410
40.89538 409
40.91549 392
40.93561 399
40.95572 392
40.97584 361
40.99595 379
41.01606 357
41.03618 388
41.05629 386
41.0764 402
41.09652 368
41.11663 395
41.13675 384
41.15686 387
41.17697 374
41.19709 397
41.2172 358
41.23731 379
41.25743 348
41.27754 363
41.29765 372
41.31777 381
41.33788 334
41.358 328
41.37811 336
41.39822 352
41.41834 344
41.43845 338
41.45856 334
41.47868 356
41.49879 347
41.51891 359
41.53902 363
41.55913 350
41.57925 345
41.59936 364
41.61947 346
41.63959 365
41.6597 409
41.67982 418
41.69993 336
41.72004 355
41.74016 399
41.76027 396
41.78038 390
41.8005 404
41.82061 382
41.84072 377
41.86084 409
41.88095 396
41.90107 403
41.92118 415
41.94129 410
41.96141 436
41.98152 404
42.00163 436
42.02175 423
42.04186 448
42.06198 461
42.08209 491
42.1022 479
42.12232 475
42.14243 556
42.16254 577
42.18266 525
42.20277 552
42.22289 536
42.243 620
42.26311 638
42.28323 655
42.30334 689
42.32345 829
42.34357 821
42.36368 825
42.38379 961
42.40391 914
42.42402 889
42.44414 768
42.46425 761
42.48436 701
42.50448 612
42.52459 622
42.5447 570
42.56482 501
42.58493 454
42.60505 424
42.62516 434
42.64527 417
42.66539 418
42.6855 383
42.70561 397
42.72573 363
42.74584 399
42.76595 377
42.78607 394
42.80618 424
42.8263 406
42.84641 420
42.86652 385
42.88664 395
42.90675 442
42.92686 398
42.94698 377
42.96709 409
42.98721 375
43.00732 347
43.02743 407
43.04755 399
43.06766 358
43.08777 341
43.10789 368
43.128 338
43.14812 349
43.16823 353
43.18834 353
43.20846 325
43.22857 345
43.24868 367
43.2688 336
43.28891 318
43.30902 335
43.32914 313
43.34925 354
43.36937 344
43.38948 328
43.40959 321
43.42971 302
43.44982 283
43.46993 335
43.49005 331
43.51016 338
43.53028 326
43.55039 316
43.5705 327
43.59062 300
43.61073 317
43.63084 318
43.65096 309
43.67107 332
43.69119 315
43.7113 296
43.73141 279
43.75153 299
43.77164 308
43.79175 314
43.81187 301
43.83198 319
43.85209 316
43.87221 303
43.89232 321
43.91244 330
43.93255 297
43.95266 303
43.97278 338
43.99289 307
44.013 297
44.03312 328
44.05323 331
44.07335 317
44.09346 363
44.11357 320
44.13369 342
44.1538 325
44.17391 350
44.19403 349
44.21414 353
44.23426 379
44.25437 337
44.27448 315
44.2946 394
44.31471 380
44.33482 363
44.35494 412
44.37505 393
44.39516 399
44.41528 384
44.43539 376
44.45551 409
44.47562 362
44.49573 400
44.51585 393
44.53596 359
44.55607 371
44.57619 385
44.5963 388
44.61642 359
44.63653 371
44.65664 372
44.67676 397
44.69687 372
44.71698 401
44.7371 348
44.75721 386
44.77732 392
44.79744 388
44.81755 392
44.83767 394
44.85778 400
44.87789 382
44.89801 417
44.91812 399
44.93823 369
44.95835 332
44.97846 347
44.99858 375
45.01869 373
45.0388 401
45.05892 348
45.07903 343
45.09914 380
45.11926 345
45.13937 381
45.15949 357
45.1796 351
45.19971 366
45.21983 365
45.23994 384
45.26005 376
45.28017 398
45.30028 386
45.32039 361
45.34051 346
45.36062 375
45.38074 359
45.40085 379
45.42096 374
45.44108 386
45.46119 374
45.4813 359
45.50142 377
45.52153 349
45.54165 375
45.56176 389
45.58187 397
45.60199 396
45.6221 410
45.64221 495
45.66233 473
45.68244 518
45.70256 540
45.72267 663
45.74278 602
45.7629 596
45.78301 553
45.80312 567
45.82324 496
45.84335 516
45.86346 464
45.88358 462
45.90369 438
45.92381 418
45.94392 364
45.96403 361
45.98415 350
46.00426 367
46.02437 330
46.04449 336
46.0646 317
46.08472 349
46.10483 340
46.12494 326
46.14506 340
46.16517 320
46.18528 298
46.2054 311
46.22551 290
46.24563 328
46.26574 340
46.28585 343
46.30597 340
46.32608 313
46.34619 303
46.36631 300
46.38642 306
46.40653 294
46.42665 309
46.44676 333
46.46688 299
46.48699 309
46.5071 313
46.52722 329
46.54733 319
46.56744 330
46.58756 299
46.60767 295
46.62779 323
46.6479 289
46.66801 362
46.68813 323
46.70824 309
46.72835 308
46.74847 300
46.76858 327
46.78869 314
46.80881 338
46.82892 317
46.84904 318
46.86915 294
46.88926 306
46.90938 326
46.92949 326
46.9496 340
46.96972 332
46.98983 300
47.00995 357
47.03006 330
47.05017 355
47.07029 366
47.0904 356
47.11051 350
47.13063 368
47.15074 341
47.17086 365
47.19097 336
47.21108 376
47.2312 332
47.25131 345
47.27142 331
47.29154 313
47.31165 353
47.33176 293
47.35188 324
47.37199 294
47.39211 314
47.41222 305
47.43233 318
47.45245 303
47.47256 341
47.49267 338
47.51279 261
47.5329 274
47.55302 291
47.57313 304
47.59324 289
47.61336 295
47.63347 304
47.65358 296
47.6737 285
47.69381 313
47.71393 290
47.73404 302
47.75415 273
47.77427 295
47.79438 287
47.81449 296
47.83461 309
47.85472 295
47.87483 292
47.89495 308
47.91506 304
47.93518 317
47.95529 276
47.9754 311
47.99552 305
48.01563 328
48.03574 291
48.05586 298
48.07597 316
48.09609 320
48.1162 299
48.13631 294
48.15643 301
48.17654 350
48.19665 339
48.21677 322
48.23688 321
48.257 337
48.27711 356
48.29722 368
48.31734 364
48.33745 347
48.35756 355
48.37768 333
48.39779 361
48.4179 329
48.43802 356
48.45813 355
48.47825 336
48.49836 335
48.51847 321
48.53859 339
48.5587 340
48.57881 321
48.59893 298
48.61904 341
48.63916 320
48.65927 334
48.67938 359
48.6995 356
48.71961 330
48.73972 318
48.75984 344
48.77995 325
48.80006 326
48.82018 341
48.84029 302
48.86041 312
48.88052 332
48.90063 341
48.92075 309
48.94086 333
48.96097 351
48.98109 338
49.0012 344
49.02132 349
49.04143 312
49.06154 344
49.08166 343
49.10177 331
49.12188 360
49.142 384
49.16211 340
49.18223 381
49.20234 349
49.22245 389
49.24257 378
49.26268 369
49.28279 354
49.30291 381
49.32302 331
49.34313 353
49.36325 343
49.38336 348
49.40348 319
49.42359 374
49.4437 358
49.46382 364
49.48393 389
49.50404 364
49.52416 395
49.54427 381
49.56439 411
49.5845 418
49.60461 403
49.62473 430
49.64484 460
49.66495 431
49.68507 397
49.70518 404
49.7253 448
49.74541 449
49.76552 429
49.78564 402
49.80575 451
49.82586 433
49.84598 471
49.86609 469
49.8862 537
49.90632 518
49.92643 592
49.94655 668
49.96666 694
49.98677 814
50.00689 967
50.027 1082
50.04711 1261
50.06723 1316
50.08734 1356
50.10746 1267
50.12757 1150
50.14768 1041
50.1678 880
50.18791 922
50.20802 913
50.22814 785
50.24825 734
50.26837 659
50.28848 531
50.30859 438
50.32871 423
50.34882 417
50.36893 416
50.38905 370
50.40916 354
50.42927 362
50.44939 364
50.4695 375
50.48962 360
50.50973 376
50.52984 364
50.54996 346
50.57007 399
50.59018 370
50.6103 399
50.63041 409
50.65053 362
50.67064 416
50.69075 405
50.71087 425
50.73098 389
50.75109 399
50.77121 413
50.79132 362
50.81143 349
50.83155 374
50.85166 338
50.87178 355
50.89189 387
50.912 298
50.93212 341
50.95223 324
50.97234 311
50.99246 337
51.01257 318
51.03269 326
51.0528 340
51.07291 323
51.09303 330
51.11314 333
51.13325 329
51.15337 354
51.17348 321
51.1936 372
51.21371 325
51.23382 343
51.25394 334
51.27405 323
51.29416 335
51.31428 343
51.33439 351
51.3545 405
51.37462 410
51.39473 386
51.41485 400
51.43496 433
51.45507 385
51.47519 385
51.4953 396
51.51541 400
51.53553 369
51.55564 315
51.57576 371
51.59587 348
51.61598 303
51.6361 328
51.65621 303
51.67632 336
51.69644 331
51.71655 337
51.73667 311
51.75678 303
51.77689 280
51.79701 311
51.81712 309
51.83723 296
51.85735 323
51.87746 299
51.89757 327
51.91769 298
51.9378 344
51.95792 304
51.97803 321
51.99814 348
52.01826 348
52.03837 323
52.05848 359
52.0786 349
52.09871 384
52.11883 366
52.13894 332
52.15905 384
52.17917 361
52.19928 369
52.21939 371
52.23951 347
52.25962 370
52.27974 383
52.29985 349
52.31996 361
52.34008 322
52.36019 327
52.3803 329
52.40042 343
52.42053 340
52.44064 303
52.46076 315
52.48087 294
52.50099 329
52.5211 296
52.54121 288
52.56133 339
52.58144 309
52.60155 306
52.62167 318
52.64178 335
52.6619 293
52.68201 313
52.70212 291
52.72224 310
52.74235 328
52.76246 285
52.78258 313
52.80269 325
52.8228 298
52.84292 318
52.86303 327
52.88315 330
52.90326 366
52.92337 336
52.94349 328
52.9636 340
52.98371 327
53.00383 348
53.02394 376
53.04406 370
53.06417 384
53.08428 417
53.1044 383
53.12451 373
53.14462 378
53.16474 367
53.18485 334
53.20497 380
53.22508 360
53.24519 390
53.26531 353
53.28542 366
53.30553 357
53.32565 376
53.34576 349
53.36587 365
53.38599 368
53.4061 328
53.42622 351
53.44633 333
53.46644 356
53.48656 320
53.50667 359
53.52678 379
53.5469 341
53.56701 351
53.58713 318
53.60724 348
53.62735 367
53.64747 345
53.66758 297
53.68769 324
53.70781 332
53.72792 308
53.74804 333
53.76815 317
53.78826 321
53.80838 301
53.82849 359
53.8486 342
53.86872 335
53.88883 339
53.90894 361
53.92906 360
53.94917 343
53.96929 315
53.9894 338
54.00951 334
54.02963 341
54.04974 334
54.06985 355
54.08997 332
54.11008 340
54.1302 335
54.15031 359
54.17042 366
54.19054 319
54.21065 308
54.23076 342
54.25088 343
54.27099 339
54.29111 354
54.31122 331
54.33133 340
54.35145 373
54.37156 329
54.39167 384
54.41179 380
54.4319 370
54.45201 361
54.47213 374
54.49224 355
54.51236 382
54.53247 380
54.55258 377
54.5727 337
54.59281 327
54.61292 382
54.63304 396
54.65315 403
54.67327 425
54.69338 437
54.71349 475
54.73361 489
54.75372 539
54.77383 591
54.79395 588
54.81406 644
54.83417 610
54.85429 599
54.8744 570
54.89452 566
54.91463 468
54.93474 483
54.95486 460
54.97497 454
54.99508 474
55.0152 413
55.03531 374
55.05543 404
55.07554 349
55.09565 361
55.11577 389
55.13588 386
55.15599 380
55.17611 409
55.19622 408
55.21634 448
55.23645 431
55.25656 468
55.27668 466
55.29679 453
55.3169 415
55.33702 446
55.35713 368
55.37724 396
55.39736 371
55.41747 379
55.43759 408
55.4577 357
55.47781 352
55.49793 359
55.51804 364
55.53815 338
55.55827 334
55.57838 325
55.5985 345
55.61861 311
55.63872 314
55.65884 327
55.67895 351
55.69906 354
55.71918 356
55.73929 316
55.75941 318
55.77952 302
55.79963 307
55.81975 327
55.83986 283
55.85997 319
55.88009 297
55.9002 329
55.92031 283
55.94043 317
55.96054 324
55.98066 288
56.00077 301
56.02088 281
56.041 315
56.06111 315
56.08122 334
56.10134 332
56.12145 324
56.14157 315
56.16168 331
56.18179 333
56.20191 359
56.22202 331
56.24213 319
56.26225 317
56.28236 359
56.30248 358
56.32259 362
56.3427 372
56.36282 357
56.38293 383
56.40304 384
56.42316 403
56.44327 382
56.46338 394
56.4835 454
56.50361 415
56.52373 438
56.54384 451
56.56395 396
56.58407 447
56.60418 423
56.62429 429
56.64441 405
56.66452 424
56.68464 408
56.70475 424
56.72486 409
56.74498 388
56.76509 411
56.7852 414
56.80532 354
56.82543 396
56.84554 390
56.86566 362
56.88577 364
56.90589 351
56.926 365
56.94611 349
56.96623 367
56.98634 385
57.00645 377
57.02657 364
57.04668 379
57.0668 359
57.08691 369
57.10702 373
57.12714 332
57.14725 355
57.16736 307
57.18748 302
57.20759 359
57.22771 357
57.24782 333
57.26793 334
57.28805 326
57.30816 333
57.32827 318
57.34839 337
57.3685 288
57.38861 312
57.40873 314
57.42884 317
57.44896 280
57.46907 310
57.48918 276
57.5093 292
57.52941 311
57.54952 263
57.56964 308
57.58975 279
57.60987 329
57.62998 318
57.65009 281
57.67021 303
57.69032 305
57.71043 321
57.73055 316
57.75066 311
57.77078 289
57.79089 307
57.811 325
57.83112 300
57.85123 295
57.87134 283
57.89146 340
57.91157 322
57.93168 288
57.9518 285
57.97191 295
57.99203 301
58.01214 270
58.03225 300
58.05237 308
58.07248 346
58.09259 300
58.11271 301
58.13282 303
58.15294 313
58.17305 290
58.19316 296
58.21328 275
58.23339 328
58.2535 350
58.27362 295
58.29373 293
58.31385 293
58.33396 291
58.35407 300
58.37419 311
58.3943 286
58.41441 306
58.43453 282
58.45464 267
58.47475 310
58.49487 237
58.51498 302
58.5351 301
58.55521 312
58.57532 309
58.59544 306
58.61555 310
58.63566 301
58.65578 312
58.67589 334
58.69601 293
58.71612 278
58.73623 298
58.75635 292
58.77646 305
58.79657 312
58.81669 324
58.8368 280
58.85691 301
58.87703 313
58.89714 292
58.91726 280
58.93737 324
58.95748 306
58.9776 309
58.99771 292
59.01782 293
59.03794 295
59.05805 307
59.07817 324
59.09828 299
59.11839 288
59.13851 314
59.15862 330
59.17873 319
59.19885 307
59.21896 312
59.23908 315
59.25919 317
59.2793 288
59.29942 321
59.31953 334
59.33964 322
59.35976 306
59.37987 330
59.39998 321
59.4201 322
59.44021 330
59.46033 344
59.48044 300
59.50055 311
59.52067 334
59.54078 332
59.56089 348
59.58101 377
59.60112 335
59.62124 411
59.64135 403
59.66146 389
59.68158 453
59.70169 424
59.7218 455
59.74192 535
59.76203 558
59.78215 647
59.80226 691
59.82237 769
59.84249 850
59.8626 908
59.88271 971
59.90283 956
59.92294 874
59.94305 860
59.96317 758
59.98328 719
60.0034 677
60.02351 667
60.04362 692
60.06374 666
60.08385 599
60.10396 524
60.12408 446
60.14419 450
60.16431 409
60.18442 381
60.20453 348
60.22465 357
60.24476 321
60.26487 358
60.28499 361
60.3051 368
60.32522 347
60.34533 335
60.36544 355
60.38556 346
60.40567 333
60.42578 379
60.4459 332
60.46601 348
60.48612 331
60.50624 345
60.52635 324
60.54647 339
60.56658 322
60.58669 351
60.60681 311
60.62692 338
60.64703 373
60.66715 317
60.68726 279
60.70738 330
60.72749 319
60.7476 317
60.76772 324
60.78783 340
60.80794 304
60.82806 315
60.84817 317
60.86828 342
60.8884 316
60.90851 338
60.92863 325
60.94874 314
60.96885 287
60.98897 319
61.00908 343
61.02919 313
61.04931 375
61.06942 343
61.08954 324
61.10965 336
61.12976 305
61.14988 350
61.16999 342
61.1901 359
61.21022 334
61.23033 330
61.25045 319
61.27056 327
61.29067 365
61.31079 315
61.3309 353
61.35101 385
61.37113 368
61.39124 343
61.41135 355
61.43147 362
61.45158 389
61.4717 377
61.49181 363
61.51192 365
61.53204 377
61.55215 406
61.57226 394
61.59238 398
61.61249 417
61.63261 392
61.65272 384
61.67283 371
61.69295 407
61.71306 388
61.73317 381
61.75329 373
61.7734 421
61.79352 385
61.81363 402
61.83374 376
61.85386 385
61.87397 349
61.89408 371
61.9142 364
61.93431 376
61.95442 396
61.97454 369
61.99465 387
62.01477 353
62.03488 391
62.05499 385
62.07511 334
62.09522 372
62.11533 369
62.13545 374
62.15556 312
62.17568 379
62.19579 394
62.2159 372
62.23602 378
62.25613 375
62.27624 377
62.29636 385
62.31647 417
62.33659 365
62.3567 388
62.37681 379
62.39693 365
62.41704 348
62.43715 379
62.45727 377
62.47738 385
62.49749 369
62.51761 370
62.53772 385
62.55784 374
62.57795 362
62.59806 328
62.61818 366
62.63829 372
62.6584 322
62.67852 359
62.69863 322
62.71875 341
62.73886 344
62.75897 331
62.77909 334
62.7992 358
62.81931 342
62.83943 315
62.85954 322
62.87965 286
62.89977 361
62.91988 331
62.94 308
62.96011 341
62.98022 328
63.00034 295
63.02045 337
63.04056 346
63.06068 337
63.08079 345
63.10091 337
63.12102 314
63.14113 334
63.16125 351
63.18136 316
63.20147 317
63.22159 325
63.2417 338
63.26182 310
63.28193 309
63.30204 314
63.32216 333
63.34227 332
63.36238 294
63.3825 311
63.40261 346
63.42272 345
63.44284 323
63.46295 326
63.48307 307
63.50318 323
63.52329 329
63.54341 334
63.56352 319
63.58363 316
63.60375 303
63.62386 319
63.64398 318
63.66409 330
63.6842 346
63.70432 335
63.72443 354
63.74454 316
63.76466 348
63.78477 352
63.80489 371
63.825 422
63.84511 382
63.86523 391
63.88534 370
63.90545 430
63.92557 401
63.94568 421
63.96579 429
63.98591 422
64.00602 401
64.02614 395
64.04625 378
64.06636 364
64.08648 399
64.10659 328
64.1267 350
64.14682 375
64.16693 389
64.18705 358
64.20716 366
64.22727 353
64.24739 329
64.2675 319
64.28761 330
64.30773 320
64.32784 300
64.34796 306
64.36807 310
64.38818 301
64.4083 316
64.42841 321
64.44852 284
64.46864 279
64.48875 335
64.50886 290
64.52898 273
64.54909 290
64.56921 340
64.58932 283
64.60943 287
64.62955 296
64.64966 301
64.66977 298
64.68989 305
64.71 280
64.73012 285
64.75023 309
64.77034 281
64.79046 279
64.81057 301
64.83068 337
64.8508 267
64.87091 293
64.89102 296
64.91114 274
64.93125 286
64.95137 283
64.97148 299
64.99159 297
65.01171 323
65.03182 261
65.05193 272
65.07205 294
65.09216 292
65.11228 311
65.13239 313
65.1525 294
65.17262 317
65.19273 298
65.21284 297
65.23296 321
65.25307 313
65.27319 281
65.2933 302
65.31341 335
65.33353 334
65.35364 312
65.37375 308
65.39387 331
65.41398 309
65.43409 329
65.45421 296
65.47432 298
65.49444 311
65.51455 317
65.53466 301
65.55478 295
65.57489 319
65.595 359
65.61512 349
65.63523 363
65.65535 349
65.67546 360
65.69557 339
65.71569 332
65.7358 339
65.75591 327
65.77603 364
65.79614 355
65.81626 367
65.83637 347
65.85648 354
65.8766 357
65.89671 335
65.91682 357
65.93694 354
65.95705 369
65.97716 351
65.99728 327
66.01739 298
66.03751 346
66.05762 323
66.07773 322
66.09785 315
66.11796 339
66.13807 360
66.15819 347
66.1783 320
66.19842 327
66.21853 340
66.23864 325
66.25876 332
66.27887 313
66.29898 329
66.3191 329
66.33921 306
66.35933 345
66.37944 318
66.39955 304
66.41967 295
66.43978 298
66.45989 291
66.48001 300
66.50012 319
66.52023 327
66.54035 270
66.56046 288
66.58058 282
66.60069 294
66.6208 297
66.64092 304
66.66103 297
66.68114 310
66.70126 285
66.72137 301
66.74149 282
66.7616 281
66.78171 258
66.80183 282
66.82194 281
66.84205 283
66.86217 302
66.88228 283
66.90239 303
66.92251 324
66.94262 302
66.96274 288
66.98285 302
67.00296 305
67.02308 255
67.04319 320
67.0633 297
67.08342 313
67.10353 309
67.12365 297
67.14376 300
67.16387 297
67.18399 316
67.2041 319
67.22421 283
67.24433 289
67.26444 273
67.28456 319
67.30467 322
67.32478 323
67.3449 347
67.36501 325
67.38512 375
67.40524 330
67.42535 371
67.44546 368
67.46558 385
67.48569 421
67.50581 427
67.52592 474
67.54603 472
67.56615 505
67.58626 568
67.60637 555
67.62649 614
67.6466 652
67.66672 677
67.68683 721
67.70694 649
67.72706 648
67.74717 561
67.76728 522
67.7874 545
67.80751 534
67.82763 557
67.84774 541
67.86785 565
67.88797 554
67.90808 571
67.92819 558
67.94831 545
67.96842 551
67.98853 575
68.00865 649
68.02876 708
68.04888 738
68.06899 816
68.0891 787
68.10922 764
68.12933 752
68.14944 689
68.16956 678
68.18967 691
68.20979 731
68.2299 790
68.25001 734
68.27013 756
68.29024 712
68.31035 643
68.33047 512
68.35058 516
68.3707 475
68.39081 500
68.41092 476
68.43104 446
68.45115 451
68.47126 431
68.49138 373
68.51149 372
68.5316 356
68.55172 322
68.57183 334
68.59195 312
68.61206 303
68.63217 310
68.65229 312
68.6724 330
68.69251 335
68.71263 302
68.73274 304
68.75286 294
68.77297 277
68.79308 316
68.8132 295
68.83331 319
68.85342 319
68.87354 280
68.89365 327
68.91376 306
68.93388 310
68.95399 320
68.97411 285
68.99422 293
69.01433 323
69.03445 287
69.05456 281
69.07467 288
69.09479 261
69.1149 306
69.13502 305
69.15513 275
69.17524 281
69.19536 273
69.21547 251
69.23558 300
69.2557 295
69.27581 295
69.29593 285
69.31604 283
69.33615 307
69.35627 297
69.37638 319
69.39649 323
69.41661 341
69.43672 316
69.45683 300
69.47695 269
69.49706 321
69.51718 268
69.53729 320
69.5574 306
69.57752 295
69.59763 293
69.61774 294
69.63786 306
69.65797 288
69.67809 288
69.6982 283
69.71831 295
69.73843 277
69.75854 293
69.77865 297
69.79877 277
69.81888 330
69.839 306
69.85911 286
69.87922 314
69.89934 284
69.91945 265
69.93956 302
69.95968 291
69.97979 270
69.9999 296
70.02002 280
70.04013 302
70.06025 274
70.08036 278
70.10047 278
70.12059 279
70.1407 298
70.16081 279
70.18093 272
70.20104 287
70.22116 312
70.24127 302
70.26138 289
70.2815 259
70.30161 268
70.32172 300
70.34184 312
70.36195 288
70.38207 266
70.40218 280
70.42229 264
70.44241 265
70.46252 277
70.48263 285
70.50275 282
70.52286 308
70.54297 263
70.56309 273
70.5832 311
70.60332 275
70.62343 288
70.64354 281
70.66366 296
70.68377 287
70.70388 271
70.724 314
70.74411 288
70.76423 275
70.78434 299
70.80445 279
70.82457 274
70.84468 295
70.86479 305
70.88491 288
70.90502 281
70.92513 292
70.94525 269
70.96536 298
70.98548 304
71.00559 282
71.0257 270
71.04582 303
71.06593 285
71.08604 287
71.10616 315
71.12627 269
71.14639 301
71.1665 272
71.18661 306
71.20673 296
71.22684 284
71.24695 325
71.26707 287
71.28718 321
71.3073 296
71.32741 289
71.34752 326
71.36764 275
71.38775 309
71.40786 308
71.42798 285
71.44809 283
71.4682 295
71.48832 270
71.50843 306
71.52855 298
71.54866 273
71.56877 290
71.58889 292
71.609 280
71.62911 282
71.64923 289
71.66934 313
71.68946 280
71.70957 291
71.72968 297
71.7498 246
71.76991 276
71.79002 292
71.81014 286
71.83025 255
71.85037 317
71.87048 272
71.89059 216
71.91071 280
71.93082 281
71.95093 291
71.97105 269
71.99116 280
72.01127 270
72.03139 289
72.0515 265
72.07162 270
72.09173 257
72.11184 243
72.13196 274
72.15207 282
72.17218 273
72.1923 266
72.21241 278
72.23253 253
72.25264 254
72.27275 270
72.29287 286
72.31298 267
72.33309 259
72.35321 266
72.37332 258
72.39344 293
72.41355 266
72.43366 271
72.45378 265
72.47389 272
72.494 275
72.51412 308
72.53423 262
72.55434 279
72.57446 261
72.59457 268
72.61469 263
72.6348 293
72.65491 277
72.67503 278
72.69514 286
72.71525 293
72.73537 281
72.75548 278
72.7756 294
72.79571 275
72.81582 308
72.83594 308
72.85605 280
72.87616 291
72.89628 278
72.91639 247
72.9365 291
72.95662 287
72.97673 287
72.99685 288
73.01696 304
73.03707 310
73.05719 295
73.0773 286
73.09741 262
73.11753 295
73.13764 293
73.15776 283
73.17787 305
73.19798 318
73.2181 309
73.23821 298
73.25832 321
73.27844 345
73.29855 336
73.31867 365
73.33878 382
73.35889 394
73.37901 407
73.39912 421
73.41923 414
73.43935 421
73.45946 347
73.47957 373
73.49969 309
73.5198 382
73.53992 367
73.56003 344
73.58014 327
73.60026 386
73.62037 334
73.64048 366
73.6606 319
73.68071 302
73.70083 325
73.72094 311
73.74105 312
73.76117 299
73.78128 299
73.80139 308
73.82151 282
73.84162 323
73.86174 306
73.88185 286
73.90196 255
73.92208 311
73.94219 287
73.9623 290
73.98242 294
74.00253 296
74.02264 274
74.04276 302
74.06287 284
74.08299 252
74.1031 292
74.12321 274
74.14333 273
74.16344 290
74.18355 274
74.20367 299
74.22378 295
74.2439 300
74.26401 283
74.28412 273
74.30424 300
74.32435 298
74.34446 298
74.36458 295
74.38469 244
74.40481 287
74.42492 268
74.44503 318
74.46515 280
74.48526 272
74.50537 274
74.52549 328
74.5456 252
74.56571 271
74.58583 291
74.60594 280
74.62606 316
74.64617 306
74.66628 299
74.6864 287
74.70651 301
74.72662 297
74.74674 300
74.76685 302
74.78697 313
74.80708 288
74.82719 297
74.84731 301
74.86742 270
74.88753 284
74.90765 239
74.92776 287
74.94787 296
74.96799 262
74.9881 292
75.00822 286
