3.00117 20616
3.02128 19874
3.0414 19165
3.06151 18914
3.08162 18116
3.10174 17743
3.12185 17142
3.14197 16944
3.16208 16269
3.18219 15871
3.20231 15358
3.22242 14950
3.24253 14412
3.26265 14232
3.28276 13440
3.30288 13216
3.32299 13012
3.3431 12419
3.36322 12134
3.38333 11413
3.40344 11360
3.42356 10981
3.44367 10581
3.46379 10286
3.4839 9740
3.50401 9567
3.52413 9267
3.54424 8831
3.56435 8486
3.58447 8276
3.60458 8023
3.62469 7670
3.64481 7484
3.66492 7120
3.68504 6867
3.70515 6600
3.72526 6370
3.74538 6203
3.76549 5955
3.7856 5470
3.80572 5522
3.82583 5482
3.84595 5072
3.86606 5076
3.88617 4646
3.90629 4395
3.9264 4307
3.94651 4194
3.96663 4120
3.98674 3745
4.00686 3624
4.02697 3530
4.04708 3436
4.0672 3425
4.08731 3073
4.10742 3054
4.12754 3033
4.14765 2860
4.16776 2917
4.18788 2615
4.20799 2516
4.22811 2619
4.24822 2455
4.26833 2506
4.28845 2261
4.30856 2229
4.32867 2319
4.34879 2106
4.3689 2151
4.38902 1997
4.40913 2029
4.42924 2033
4.44936 1958
4.46947 2008
4.48958 1862
4.5097 1848
4.52981 1958
4.54992 1830
4.57004 1742
4.59015 1710
4.61027 1755
4.63038 1732
4.65049 1739
4.67061 1739
4.69072 1604
4.71083 1559
4.73095 1669
4.75106 1593
4.77118 1567
4.79129 1478
4.8114 1550
4.83152 1480
4.85163 1488
4.87174 1500
4.89186 1573
4.91197 1487
4.93209 1509
4.9522 1428
4.97231 1492
4.99243 1423
5.01254 1459
5.03265 1440
5.05277 1455
5.07288 1426
5.09299 1390
5.11311 1405
5.13322 1450
5.15334 1410
5.17345 1355
5.19356 1366
5.21368 1359
5.23379 1305
5.2539 1425
5.27402 1454
5.29413 1404
5.31425 1371
5.33436 1425
5.35447 1324
5.37459 1385
5.3947 1310
5.41481 1311
5.43493 1323
5.45504 1414
5.47516 1364
5.49527 1353
5.51538 1393
5.5355 1300
5.55561 1399
5.57572 1390
5.59584 1427
5.61595 1401
5.63606 1402
5.65618 1371
5.67629 1484
5.69641 1404
5.71652 1477
5.73663 1459
5.75675 1437
5.77686 1391
5.79697 1326
5.81709 1442
5.8372 1418
5.85732 1480
5.87743 1469
5.89754 1433
5.91766 1429
5.93777 1318
5.95788 1360
5.978 1270
5.99811 1311
6.01823 1303
6.03834 1291
6.05845 1298
6.07857 1259
6.09868 1229
6.11879 1170
6.13891 1093
6.15902 1059
6.17913 1081
6.19925 987
6.21936 1068
6.23948 928
6.25959 987
6.2797 1046
6.29982 965
6.31993 918
6.34004 971
6.36016 946
6.38027 860
6.40039 908
6.4205 845
6.44061 799
6.46073 838
6.48084 782
6.50095 789
6.52107 796
6.54118 702
6.56129 727
6.58141 755
6.60152 731
6.62164 739
6.64175 768
6.66186 631
6.68198 684
6.70209 667
6.7222 691
6.74232 695
6.76243 608
6.78255 652
6.80266 687
6.82277 673
6.84289 583
6.863 604
6.88311 624
6.90323 637
6.92334 565
6.94346 596
6.96357 635
6.98368 612
7.0038 572
7.02391 531
7.04402 531
7.06414 575
7.08425 523
7.10436 519
7.12448 529
7.14459 546
7.16471 484
7.18482 554
7.20493 478
7.22505 531
7.24516 489
7.26527 549
7.28539 557
7.3055 537
7.32562 490
7.34573 470
7.36584 470
7.38596 464
7.40607 483
7.42618 517
7.4463 479
7.46641 456
7.48653 460
7.50664 505
7.52675 447
7.54687 449
7.56698 461
7.58709 454
7.60721 454
7.62732 497
7.64743 467
7.66755 494
7.68766 451
7.70778 405
7.72789 434
7.748 486
7.76812 487
7.78823 488
7.80834 461
7.82846 504
7.84857 466
7.86869 454
7.8888 491
7.90891 437
7.92903 434
7.94914 441
7.96925 476
7.98937 456
8.00948 454
8.0296 531
8.04971 528
8.06982 462
8.08994 477
8.11005 541
8.13016 528
8.15028 519
8.17039 548
8.1905 536
8.21062 532
8.23073 528
8.25085 525
8.27096 567
8.29107 536
8.31119 566
8.3313 608
8.35141 591
8.37153 581
8.39164 588
8.41176 570
8.43187 583
8.45198 603
8.4721 597
8.49221 537
8.51232 609
8.53244 595
8.55255 552
8.57266 578
8.59278 532
8.61289 488
8.63301 480
8.65312 509
8.67323 509
8.69335 476
8.71346 487
8.73357 458
8.75369 464
8.7738 501
8.79392 441
8.81403 428
8.83414 434
8.85426 378
8.87437 372
8.89448 373
8.9146 410
8.93471 397
8.95483 344
8.97494 406
8.99505 370
9.01517 406
9.03528 357
9.05539 387
9.07551 359
9.09562 362
9.11573 352
9.13585 376
9.15596 347
9.17608 369
9.19619 415
9.2163 371
9.23642 323
9.25653 341
9.27664 359
9.29676 349
9.31687 346
9.33699 363
9.3571 307
9.37721 299
9.39733 318
9.41744 316
9.43755 341
9.45767 315
9.47778 354
9.4979 342
9.51801 317
9.53812 341
9.55824 356
9.57835 322
9.59846 320
9.61858 346
9.63869 368
9.6588 344
9.67892 326
9.69903 342
9.71915 333
9.73926 347
9.75937 319
9.77949 333
9.7996 315
9.81971 316
9.83983 312
9.85994 324
9.88006 332
9.90017 338
9.92028 307
9.9404 323
9.96051 347
9.98062 327
10.00074 303
10.02085 322
10.04097 280
10.06108 348
10.08119 306
10.10131 339
10.12142 353
10.14153 319
10.16165 312
10.18176 312
10.20187 322
10.22199 335
10.2421 313
10.26222 304
10.28233 308
10.30244 331
10.32256 369
10.34267 280
10.36278 366
10.3829 315
10.40301 324
10.42313 307
10.44324 314
10.46335 326
10.48347 338
10.50358 308
10.52369 298
10.54381 314
10.56392 317
10.58403 302
10.60415 322
10.62426 302
10.64438 305
10.66449 335
10.6846 335
10.70472 316
10.72483 350
10.74494 285
10.76506 322
10.78517 316
10.80529 325
10.8254 279
10.84551 316
10.86563 335
10.88574 319
10.90585 302
10.92597 314
10.94608 340
10.9662 320
10.98631 316
11.00642 316
11.02654 307
11.04665 317
11.06676 288
11.08688 328
11.10699 306
11.1271 326
11.14722 307
11.16733 270
11.18745 273
11.20756 286
11.22767 310
11.24779 282
11.2679 294
11.28801 319
11.30813 294
11.32824 302
11.34836 344
11.36847 302
11.38858 291
11.4087 279
11.42881 290
11.44892 309
11.46904 295
11.48915 322
11.50927 288
11.52938 298
11.54949 287
11.56961 316
11.58972 280
11.60983 309
11.62995 324
11.65006 318
11.67017 305
11.69029 308
11.7104 323
11.73052 303
11.75063 323
11.77074 300
11.79086 331
11.81097 301
11.83108 306
11.8512 279
11.87131 313
11.89143 284
11.91154 283
11.93165 327
11.95177 339
11.97188 291
11.99199 301
12.01211 315
12.03222 295
12.05234 318
12.07245 303
12.09256 288
12.11268 294
12.13279 320
12.1529 343
12.17302 322
12.19313 315
12.21324 323
12.23336 265
12.25347 327
12.27359 309
12.2937 292
12.31381 254
12.33393 308
12.35404 337
12.37415 304
12.39427 299
12.41438 285
12.4345 317
12.45461 315
12.47472 318
12.49484 332
12.51495 297
12.53506 306
12.55518 329
12.57529 270
12.5954 312
12.61552 282
12.63563 304
12.65575 295
12.67586 263
12.69597 283
12.71609 269
12.7362 283
12.75631 293
12.77643 311
12.79654 277
12.81666 312
12.83677 295
12.85688 310
12.877 318
12.89711 306
12.91722 274
12.93734 303
12.95745 301
12.97757 301
12.99768 291
13.01779 287
13.03791 279
13.05802 311
13.07813 292
13.09825 289
13.11836 337
13.13847 287
13.15859 326
13.1787 293
13.19882 263
13.21893 287
13.23904 283
13.25916 265
13.27927 295
13.29938 311
13.3195 275
13.33961 311
13.35973 276
13.37984 295
13.39995 296
13.42007 304
13.44018 308
13.46029 318
13.48041 299
13.50052 300
13.52064 311
13.54075 318
13.56086 313
13.58098 310
13.60109 342
13.6212 281
13.64132 339
13.66143 316
13.68154 332
13.70166 333
13.72177 313
13.74189 297
13.762 311
13.78211 337
13.80223 317
13.82234 345
13.84245 306
13.86257 339
13.88268 297
13.9028 308
13.92291 331
13.94302 321
13.96314 296
13.98325 323
14.00336 311
14.02348 303
14.04359 320
14.06371 293
14.08382 305
14.10393 289
14.12405 310
14.14416 291
14.16427 306
14.18439 323
14.2045 329
14.22461 325
14.24473 300
14.26484 300
14.28496 298
14.30507 288
14.32518 297
14.3453 294
14.36541 285
14.38552 303
14.40564 296
14.42575 280
14.44587 302
14.46598 309
14.48609 296
14.50621 289
14.52632 294
14.54643 307
14.56655 319
14.58666 289
14.60677 276
14.62689 317
14.647 285
14.66712 306
14.68723 257
14.70734 307
14.72746 299
14.74757 291
14.76768 314
14.7878 306
14.80791 294
14.82803 305
14.84814 265
14.86825 299
14.88837 274
14.90848 283
14.92859 295
14.94871 280
14.96882 296
14.98894 280
15.00905 276
15.02916 305
15.04928 292
15.06939 288
15.0895 281
15.10962 278
15.12973 286
15.14984 281
15.16996 308
15.19007 318
15.21019 300
15.2303 299
15.25041 275
15.27053 281
15.29064 263
15.31075 295
15.33087 258
15.35098 291
15.3711 290
15.39121 270
15.41132 281
15.43144 293
15.45155 271
15.47166 281
15.49178 313
15.51189 303
15.53201 273
15.55212 282
15.57223 294
15.59235 290
15.61246 302
15.63257 269
15.65269 278
15.6728 293
15.69291 303
15.71303 285
15.73314 309
15.75326 290
15.77337 294
15.79348 264
15.8136 248
15.83371 304
15.85382 313
15.87394 283
15.89405 291
15.91417 271
15.93428 298
15.95439 284
15.97451 279
15.99462 287
16.01473 313
16.03485 309
16.05496 287
16.07508 287
16.09519 289
16.1153 285
16.13542 333
16.15553 318
16.17564 298
16.19576 301
16.21587 287
16.23598 337
16.2561 294
16.27621 330
16.29633 300
16.31644 299
16.33655 294
16.35667 310
16.37678 294
16.39689 315
16.41701 339
16.43712 323
16.45724 330
16.47735 296
16.49746 305
16.51758 303
16.53769 292
16.5578 297
16.57792 282
16.59803 274
16.61814 311
16.63826 263
16.65837 305
16.67849 313
16.6986 260
16.71871 309
16.73883 289
16.75894 329
16.77905 290
16.79917 295
16.81928 282
16.8394 325
16.85951 305
16.87962 313
16.89974 292
16.91985 256
16.93996 335
16.96008 307
16.98019 304
17.00031 284
17.02042 282
17.04053 309
17.06065 321
17.08076 273
17.10087 322
17.12099 289
17.1411 300
17.16121 265
17.18133 305
17.20144 287
17.22156 277
17.24167 288
17.26178 274
17.2819 316
17.30201 298
17.32212 304
17.34224 319
17.36235 290
17.38247 308
17.40258 303
17.42269 289
17.44281 307
17.46292 318
17.48303 276
17.50315 299
17.52326 293
17.54338 323
17.56349 273
17.5836 301
17.60372 296
17.62383 289
17.64394 286
17.66406 302
17.68417 307
17.70428 320
17.7244 295
17.74451 300
17.76463 341
17.78474 341
17.80485 299
17.82497 298
17.84508 290
17.86519 323
17.88531 311
17.90542 333
17.92554 311
17.94565 296
17.96576 329
17.98588 313
18.00599 296
18.0261 288
18.04622 297
18.06633 279
18.08645 320
18.10656 312
18.12667 303
18.14679 308
18.1669 313
18.18701 298
18.20713 290
18.22724 287
18.24735 302
18.26747 299
18.28758 296
18.3077 278
18.32781 282
18.34792 303
18.36804 277
18.38815 289
18.40826 307
18.42838 277
18.44849 328
18.46861 274
18.48872 294
18.50883 316
18.52895 293
18.54906 289
18.56917 292
18.58929 286
18.6094 269
18.62951 303
18.64963 317
18.66974 319
18.68986 309
18.70997 298
18.73008 306
18.7502 316
18.77031 315
18.79042 324
18.81054 310
18.83065 292
18.85077 307
18.87088 347
18.89099 327
18.91111 327
18.93122 331
18.95133 323
18.97145 354
18.99156 271
19.01168 336
19.03179 307
19.0519 300
19.07202 309
19.09213 326
19.11224 312
19.13236 341
19.15247 408
19.17258 348
19.1927 375
19.21281 380
19.23293 369
19.25304 372
19.27315 407
19.29327 406
19.31338 385
19.33349 420
19.35361 423
19.37372 414
19.39384 456
19.41395 485
19.43406 452
19.45418 522
19.47429 514
19.4944 497
19.51452 529
19.53463 566
19.55475 518
19.57486 631
19.59497 632
19.61509 618
19.6352 636
19.65531 651
19.67543 704
19.69554 640
19.71565 679
19.73577 738
19.75588 681
19.776 717
19.79611 688
19.81622 721
19.83634 665
19.85645 673
19.87656 633
19.89668 697
19.91679 653
19.93691 622
19.95702 627
19.97713 603
19.99725 614
20.01736 602
20.03747 555
20.05759 591
20.0777 597
20.09782 610
20.11793 547
20.13804 521
20.15816 566
20.17827 542
20.19838 548
20.2185 534
20.23861 605
20.25872 561
20.27884 546
20.29895 578
20.31907 526
20.33918 531
20.35929 542
20.37941 531
20.39952 566
20.41963 603
20.43975 549
20.45986 537
20.47998 560
20.50009 538
20.5202 531
20.54032 531
20.56043 559
20.58054 624
20.60066 652
20.62077 697
20.64088 763
20.661 886
20.68111 1035
20.70123 1270
20.72134 1515
20.74145 1766
20.76157 2341
20.78168 2808
20.80179 3152
20.82191 3365
20.84202 3275
20.86214 2919
20.88225 2468
20.90236 1922
20.92248 1444
20.94259 1099
20.9627 796
20.98282 756
21.00293 694
21.02305 596
21.04316 586
21.06327 598
21.08339 528
21.1035 517
21.12361 503
21.14373 468
21.16384 506
21.18395 470
21.20407 479
21.22418 468
21.2443 545
21.26441 486
21.28452 471
21.30464 469
21.32475 437
21.34486 509
21.36498 486
21.38509 442
21.40521 469
21.42532 399
21.44543 475
21.46555 483
21.48566 467
21.50577 455
21.52589 425
21.546 458
21.56612 442
21.58623 450
21.60634 419
21.62646 403
21.64657 399
21.66668 471
21.6868 421
21.70691 405
21.72702 429
21.74714 446
21.76725 436
21.78737 401
21.80748 421
21.82759 445
21.84771 435
21.86782 489
21.88793 483
21.90805 434
21.92816 490
21.94828 473
21.96839 486
21.9885 496
22.00862 469
22.02873 426
22.04884 429
22.06896 449
22.08907 433
22.10919 428
22.1293 378
22.14941 399
22.16953 389
22.18964 410
22.20975 399
22.22987 390
22.24998 408
22.27009 424
22.29021 389
22.31032 372
22.33044 401
22.35055 395
22.37066 396
22.39078 431
22.41089 376
22.431 406
22.45112 428
22.47123 394
22.49135 402
22.51146 420
22.53157 431
22.55169 414
22.5718 367
22.59191 416
22.61203 379
22.63214 403
22.65225 412
22.67237 386
22.69248 386
22.7126 400
22.73271 391
22.75282 385
22.77294 410
22.79305 420
22.81316 403
22.83328 418
22.85339 413
22.87351 423
22.89362 391
22.91373 454
22.93385 399
22.95396 424
22.97407 422
22.99419 509
23.0143 472
23.03442 490
23.05453 513
23.07464 509
23.09476 515
23.11487 437
23.13498 431
23.1551 428
23.17521 435
23.19532 434
23.21544 398
23.23555 406
23.25567 423
23.27578 400
23.29589 407
23.31601 431
23.33612 400
23.35623 387
23.37635 381
23.39646 443
23.41658 392
23.43669 414
23.4568 457
23.47692 432
23.49703 441
23.51714 478
23.53726 465
23.55737 455
23.57749 507
23.5976 415
23.61771 455
23.63783 464
23.65794 433
23.67805 511
23.69817 464
23.71828 429
23.73839 448
23.75851 391
23.77862 421
23.79874 407
23.81885 400
23.83896 457
23.85908 417
23.87919 431
23.8993 424
23.91942 425
23.93953 421
23.95965 436
23.97976 404
23.99987 441
24.01999 477
24.0401 418
24.06021 413
24.08033 439
24.10044 445
24.12056 426
24.14067 438
24.16078 440
24.1809 399
24.20101 412
24.22112 428
24.24124 416
24.26135 417
24.28146 377
24.30158 433
24.32169 418
24.34181 414
24.36192 412
24.38203 423
24.40215 418
24.42226 431
24.44237 418
24.46249 390
24.4826 406
24.50272 427
24.52283 347
24.54294 408
24.56306 410
24.58317 381
24.60328 394
24.6234 399
24.64351 369
24.66362 405
24.68374 396
24.70385 384
24.72397 360
24.74408 394
24.76419 381
24.78431 374
24.80442 404
24.82453 399
24.84465 396
24.86476 373
24.88488 368
24.90499 356
24.9251 390
24.94522 371
24.96533 367
24.98544 386
25.00556 380
25.02567 360
25.04579 405
25.0659 394
25.08601 412
25.10613 380
25.12624 369
25.14635 394
25.16647 358
25.18658 410
25.20669 364
25.22681 396
25.24692 404
25.26704 398
25.28715 430
25.30726 351
25.32738 367
25.34749 375
25.3676 393
25.38772 420
25.40783 398
25.42795 390
25.44806 431
25.46817 400
25.48829 404
25.5084 437
25.52851 435
25.54863 502
25.56874 444
25.58886 466
25.60897 491
25.62908 481
25.6492 508
25.66931 484
25.68942 509
25.70954 494
25.72965 448
25.74976 514
25.76988 518
25.78999 484
25.81011 484
25.83022 473
25.85033 485
25.87045 485
25.89056 489
25.91067 470
25.93079 530
25.9509 510
25.97102 474
25.99113 542
26.01124 553
26.03136 571
26.05147 526
26.07158 556
26.0917 600
26.11181 600
26.13193 623
26.15204 700
26.17215 691
26.19227 682
26.21238 738
26.23249 763
26.25261 799
26.27272 836
26.29283 898
26.31295 1075
26.33306 1180
26.35318 1258
26.37329 1493
26.3934 1847
26.41352 2182
26.43363 2749
26.45374 3587
26.47386 4458
26.49397 5904
26.51409 7470
26.5342 9455
26.55431 11310
26.57443 12995
26.59454 13978
26.61465 13804
26.63477 12578
26.65488 10493
26.67499 8038
26.69511 6038
26.71522 4254
26.73534 2898
26.75545 1928
26.77556 1421
26.79568 1228
26.81579 1082
26.8359 945
26.85602 900
26.87613 855
26.89625 797
26.91636 783
26.93647 733
26.95659 641
26.9767 741
26.99681 720
27.01693 676
27.03704 666
27.05716 631
27.07727 589
27.09738 584
27.1175 595
27.13761 600
27.15772 572
27.17784 518
27.19795 562
27.21806 562
27.23818 512
27.25829 566
27.27841 553
27.29852 556
27.31863 542
27.33875 595
27.35886 568
27.37897 536
27.39909 579
27.4192 627
27.43932 614
27.45943 611
27.47954 646
27.49966 605
27.51977 644
27.53988 600
27.56 612
27.58011 585
27.60023 637
27.62034 597
27.64045 655
27.66057 614
27.68068 663
27.70079 633
27.72091 656
27.74102 633
27.76113 635
27.78125 659
27.80136 639
27.82148 555
27.84159 575
27.8617 635
27.88182 582
27.90193 570
27.92204 565
27.94216 561
27.96227 558
27.98239 560
28.0025 532
28.02261 520
28.04273 537
28.06284 482
28.08295 487
28.10307 449
28.12318 423
28.1433 464
28.16341 459
28.18352 404
28.20364 454
28.22375 423
28.24386 443
28.26398 446
28.28409 451
28.3042 446
28.32432 445
28.34443 470
28.36455 456
28.38466 430
28.40477 431
28.42489 449
28.445 427
28.46511 399
28.48523 442
28.50534 436
28.52546 435
28.54557 431
28.56568 424
28.5858 402
28.60591 415
28.62602 425
28.64614 410
28.66625 390
28.68636 418
28.70648 411
28.72659 415
28.74671 455
28.76682 433
28.78693 407
28.80705 436
28.82716 438
28.84727 436
28.86739 429
28.8875 418
28.90762 439
28.92773 430
28.94784 408
28.96796 458
28.98807 442
29.00818 460
29.0283 448
29.04841 460
29.06853 472
29.08864 447
29.10875 519
29.12887 468
29.14898 573
29.16909 572
29.18921 571
29.20932 603
29.22943 674
29.24955 740
29.26966 859
29.28978 935
29.30989 1127
29.33 1269
29.35012 1242
29.37023 1464
29.39034 1429
29.41046 1500
29.43057 1386
29.45069 1218
29.4708 1148
29.49091 1066
29.51103 918
29.53114 863
29.55125 783
29.57137 759
29.59148 685
29.6116 681
29.63171 644
29.65182 623
29.67194 590
29.69205 593
29.71216 577
29.73228 589
29.75239 584
29.7725 550
29.79262 583
29.81273 585
29.83285 512
29.85296 489
29.87307 489
29.89319 469
29.9133 439
29.93341 451
29.95353 436
29.97364 451
29.99376 452
30.01387 428
30.03398 414
30.0541 448
30.07421 415
30.09432 422
30.11444 440
30.13455 421
30.15467 407
30.17478 449
30.19489 416
30.21501 453
30.23512 443
30.25523 410
30.27535 411
30.29546 444
30.31557 445
30.33569 438
30.3558 437
30.37592 463
30.39603 466
30.41614 466
30.43626 395
30.45637 418
30.47648 410
30.4966 381
30.51671 386
30.53683 402
30.55694 455
30.57705 382
30.59717 425
30.61728 399
30.63739 391
30.65751 421
30.67762 450
30.69773 418
30.71785 446
30.73796 460
30.75808 450
30.77819 443
30.7983 431
30.81842 401
30.83853 402
30.85864 407
30.87876 384
30.89887 391
30.91899 381
30.9391 359
30.95921 390
30.97933 392
30.99944 363
31.01955 360
31.03967 363
31.05978 363
31.0799 334
31.10001 348
31.12012 363
31.14024 368
31.16035 359
31.18046 357
31.20058 325
31.22069 332
31.2408 354
31.26092 323
31.28103 347
31.30115 357
31.32126 359
31.34137 378
31.36149 376
31.3816 358
31.40171 375
31.42183 339
31.44194 370
31.46206 367
31.48217 376
31.50228 337
31.5224 377
31.54251 330
31.56262 340
31.58274 313
31.60285 316
31.62297 315
31.64308 343
31.66319 345
31.68331 325
31.70342 340
31.72353 337
31.74365 342
31.76376 315
31.78387 341
31.80399 325
31.8241 314
31.84422 326
31.86433 293
31.88444 297
31.90456 312
31.92467 330
31.94478 318
31.9649 320
31.98501 340
32.00513 312
32.02524 312
32.04535 287
32.06547 306
32.08558 356
32.10569 324
32.12581 308
32.14592 355
32.16604 318
32.18615 345
32.20626 339
32.22638 349
32.24649 295
32.2666 310
32.28672 332
32.30683 358
32.32694 329
32.34706 343
32.36717 336
32.38729 329
32.4074 351
32.42751 361
32.44763 312
32.46774 313
32.48785 357
32.50797 325
32.52808 339
32.5482 335
32.56831 337
32.58842 320
32.60854 338
32.62865 345
32.64876 328
32.66888 337
32.68899 314
32.7091 299
32.72922 314
32.74933 311
32.76945 320
32.78956 327
32.80967 310
32.82979 336
32.8499 336
32.87001 325
32.89013 337
32.91024 356
32.93036 368
32.95047 339
32.97058 380
32.9907 373
33.01081 351
33.03092 356
33.05104 367
33.07115 348
33.09127 375
33.11138 339
33.13149 371
33.15161 360
33.17172 342
33.19183 338
33.21195 343
33.23206 388
33.25217 321
33.27229 314
33.2924 328
33.31252 319
33.33263 322
33.35274 323
33.37286 338
33.39297 341
33.41308 356
33.4332 296
33.45331 307
33.47343 329
33.49354 311
33.51365 339
33.53377 334
33.55388 306
33.57399 359
33.59411 347
33.61422 322
33.63434 307
33.65445 318
33.67456 311
33.69468 336
33.71479 350
33.7349 361
33.75502 345
33.77513 322
33.79524 322
33.81536 326
33.83547 328
33.85559 338
33.8757 349
33.89581 368
33.91593 351
33.93604 336
33.95615 351
33.97627 369
33.99638 340
34.0165 336
34.03661 344
34.05672 398
34.07684 365
34.09695 344
34.11706 364
34.13718 378
34.15729 347
34.17741 413
34.19752 422
34.21763 398
34.23775 404
34.25786 452
34.27797 408
34.29809 419
34.3182 398
34.33831 423
34.35843 485
34.37854 423
34.39866 441
34.41877 435
34.43888 462
34.459 458
34.47911 480
34.49922 473
34.51934 480
34.53945 457
34.55957 463
34.57968 452
34.59979 468
34.61991 505
34.64002 454
34.66013 482
34.68025 523
34.70036 524
34.72047 519
34.74059 550
34.7607 537
34.78082 498
34.80093 551
34.82104 516
34.84116 533
34.86127 561
34.88138 513
34.9015 536
34.92161 553
34.94173 544
34.96184 533
34.98195 523
35.00207 512
35.02218 500
35.04229 478
35.06241 533
35.08252 528
35.10264 479
35.12275 474
35.14286 527
35.16298 525
35.18309 484
35.2032 517
35.22332 500
35.24343 503
35.26354 510
35.28366 470
35.30377 558
35.32389 572
35.344 533
35.36411 543
35.38423 526
35.40434 545
35.42445 583
35.44457 571
35.46468 559
35.4848 537
35.50491 582
35.52502 554
35.54514 561
35.56525 601
35.58536 591
35.60548 586
35.62559 594
35.64571 600
35.66582 575
35.68593 560
35.70605 550
35.72616 515
35.74627 566
35.76639 542
35.7865 483
35.80661 526
35.82673 569
35.84684 538
35.86696 561
35.88707 537
35.90718 588
35.9273 541
35.94741 593
35.96752 586
35.98764 608
36.00775 563
36.02787 540
36.04798 594
36.06809 556
36.08821 525
36.10832 512
36.12843 497
36.14855 466
36.16866 436
36.18878 470
36.20889 471
36.229 498
36.24912 502
36.26923 492
36.28934 520
36.30946 561
36.32957 656
36.34968 684
36.3698 752
36.38991 785
36.41003 923
36.43014 1044
36.45025 1129
36.47037 1225
36.49048 1263
36.51059 1244
36.53071 1231
36.55082 1094
36.57094 962
36.59105 863
36.61116 698
36.63128 669
36.65139 629
36.6715 471
36.69162 502
36.71173 434
36.73184 437
36.75196 406
36.77207 384
36.79219 409
36.8123 420
36.83241 385
36.85253 393
36.87264 440
36.89275 407
36.91287 399
36.93298 393
36.9531 395
36.97321 369
36.99332 381
37.01344 387
37.03355 411
37.05366 410
37.07378 359
37.09389 372
37.11401 378
37.13412 371
37.15423 374
37.17435 372
37.19446 400
37.21457 373
37.23469 360
37.2548 361
37.27491 369
37.29503 363
37.31514 378
37.33526 381
37.35537 374
37.37548 350
37.3956 355
37.41571 392
37.43582 343
37.45594 355
37.47605 361
37.49617 385
37.51628 373
37.53639 372
37.55651 372
37.57662 351
37.59673 377
37.61685 335
37.63696 374
37.65708 344
37.67719 344
37.6973 375
37.71742 348
37.73753 373
37.75764 374
37.77776 374
37.79787 346
37.81798 387
37.8381 370
37.85821 317
37.87833 343
37.89844 355
37.91855 367
37.93867 339
37.95878 350
37.97889 322
37.99901 340
38.01912 348
38.03924 367
38.05935 357
38.07946 351
38.09958 318
38.11969 337
38.1398 368
38.15992 313
38.18003 321
38.20015 306
38.22026 320
38.24037 330
38.26049 360
38.2806 369
38.30071 348
38.32083 350
38.34094 345
38.36105 354
38.38117 342
38.40128 340
38.4214 349
38.44151 340
38.46162 344
38.48174 338
38.50185 354
38.52196 339
38.54208 327
38.56219 343
38.58231 334
38.60242 311
38.62253 324
38.64265 306
38.66276 330
38.68287 335
38.70299 321
38.7231 357
38.74321 333
38.76333 378
38.78344 350
38.80356 344
38.82367 342
38.84378 338
38.8639 331
38.88401 346
38.90412 345
38.92424 366
38.94435 400
38.96447 377
38.98458 385
39.00469 364
39.02481 320
39.04492 345
39.06503 403
39.08515 360
39.10526 435
39.12538 392
39.14549 411
39.1656 436
39.18572 454
39.20583 499
39.22594 558
39.24606 580
39.26617 653
39.28628 752
39.3064 889
39.32651 1004
39.34663 1028
39.36674 1171
39.38685 1288
39.40697 1343
39.42708 1321
39.44719 1298
39.46731 1202
39.48742 1063
39.50754 954
39.52765 829
39.54776 770
39.56788 638
39.58799 571
39.6081 452
39.62822 483
39.64833 441
39.66845 464
39.68856 402
39.70867 390
39.72879 416
39.7489 376
39.76901 399
39.78913 361
39.80924 357
39.82935 373
39.84947 354
39.86958 386
39.8897 399
39.90981 364
39.92992 356
39.95004 375
39.97015 404
39.99026 409
40.01038 384
40.03049 377
40.05061 442
40.07072 422
40.09083 436
40.11095 523
40.13106 560
40.15117 608
40.17129 613
40.1914 717
40.21152 696
40.23163 730
40.25174 740
40.27186 696
40.29197 631
40.31208 608
40.3322 555
40.35231 508
40.37242 495
40.39254 446
40.41265 445
40.43277 408
40.45288 358
40.47299 399
40.49311 300
40.51322 362
40.53333 333
40.55345 373
40.57356 347
40.59368 352
40.61379 332
40.6339 340
40.65402 346
40.67413 305
40.69424 371
40.71436 376
40.73447 348
40.75458 359
40.7747 361
40.79481 369
40.81493 402
40.83504 363
40.85515 345
40.87527 346
40.89538 342
40.91549 382
40.93561 335
40.95572 342
40.97584 387
40.99595 352
41.01606 364
41.03618 351
41.05629 349
41.0764 312
41.09652 310
41.11663 350
41.13675 329
41.15686 346
41.17697 341
41.19709 318
41.2172 338
41.23731 353
41.25743 319
41.27754 327
41.29765 302
41.31777 304
41.33788 343
41.358 355
41.37811 349
41.39822 346
41.41834 345
41.43845 338
41.45856 327
41.47868 366
41.49879 364
41.51891 376
41.53902 360
41.55913 359
41.57925 305
41.59936 340
41.61947 386
41.63959 341
41.6597 385
41.67982 363
41.69993 348
41.72004 330
41.74016 354
41.76027 353
41.78038 400
41.8005 364
41.82061 341
41.84072 358
41.86084 358
41.88095 327
41.90107 368
41.92118 357
41.94129 354
41.96141 361
41.98152 376
42.00163 372
42.02175 364
42.04186 381
42.06198 336
42.08209 382
42.1022 371
42.12232 415
42.14243 407
42.16254 440
42.18266 437
42.20277 484
42.22289 475
42.243 552
42.26311 579
42.28323 626
42.30334 652
42.32345 770
42.34357 832
42.36368 877
42.38379 926
42.40391 914
42.42402 887
42.44414 842
42.46425 771
42.48436 680
42.50448 627
42.52459 593
42.5447 499
42.56482 492
42.58493 395
42.60505 390
42.62516 369
42.64527 334
42.66539 363
42.6855 355
42.70561 331
42.72573 348
42.74584 369
42.76595 360
42.78607 345
42.80618 345
42.8263 347
42.84641 343
42.86652 362
42.88664 359
42.90675 367
42.92686 393
42.94698 400
42.96709 328
42.98721 313
43.00732 420
43.02743 405
43.04755 386
43.06766 402
43.08777 449
43.10789 447
43.128 460
43.14812 470
43.16823 476
43.18834 468
43.20846 445
43.22857 451
43.24868 400
43.2688 390
43.28891 416
43.30902 388
43.32914 361
43.34925 329
43.36937 370
43.38948 340
43.40959 342
43.42971 320
43.44982 320
43.46993 287
43.49005 315
43.51016 349
43.53028 316
43.55039 296
43.5705 310
43.59062 300
43.61073 293
43.63084 321
43.65096 320
43.67107 297
43.69119 347
43.7113 311
43.73141 318
43.75153 319
43.77164 284
43.79175 317
43.81187 283
43.83198 311
43.85209 300
43.87221 307
43.89232 290
43.91244 298
43.93255 289
43.95266 313
43.97278 323
43.99289 312
44.013 291
44.03312 302
44.05323 292
44.07335 307
44.09346 270
44.11357 323
44.13369 302
44.1538 319
44.17391 336
44.19403 335
44.21414 307
44.23426 297
44.25437 317
44.27448 307
44.2946 329
44.31471 300
44.33482 319
44.35494 316
44.37505 325
44.39516 310
44.41528 287
44.43539 308
44.45551 301
44.47562 318
44.49573 285
44.51585 319
44.53596 317
44.55607 324
44.57619 288
44.5963 319
44.61642 313
44.63653 276
44.65664 315
44.67676 313
44.69687 313
44.71698 320
44.7371 297
44.75721 326
44.77732 313
44.79744 313
44.81755 301
44.83767 325
44.85778 320
44.87789 314
44.89801 286
44.91812 330
44.93823 290
44.95835 289
44.97846 299
44.99858 273
45.01869 297
45.0388 318
45.05892 311
45.07903 285
45.09914 278
45.11926 324
45.13937 323
45.15949 317
45.1796 335
45.19971 317
45.21983 320
45.23994 323
45.26005 307
45.28017 329
45.30028 311
45.32039 310
45.34051 326
45.36062 303
45.38074 299
45.40085 319
45.42096 357
45.44108 343
45.46119 349
45.4813 325
45.50142 357
45.52153 373
45.54165 363
45.56176 401
45.58187 392
45.60199 439
45.6221 470
45.64221 510
45.66233 577
45.68244 576
45.70256 669
45.72267 625
45.74278 609
45.7629 614
45.78301 608
45.80312 585
45.82324 524
45.84335 494
45.86346 427
45.88358 372
45.90369 436
45.92381 387
45.94392 374
45.96403 313
45.98415 321
46.00426 293
46.02437 311
46.04449 318
46.0646 295
46.08472 279
46.10483 288
46.12494 312
46.14506 300
46.16517 271
46.18528 261
46.2054 280
46.22551 274
46.24563 263
46.26574 267
46.28585 307
46.30597 301
46.32608 270
46.34619 275
46.36631 275
46.38642 298
46.40653 289
46.42665 279
46.44676 261
46.46688 282
46.48699 279
46.5071 273
46.52722 305
46.54733 276
46.56744 270
46.58756 258
46.60767 282
46.62779 277
46.6479 279
46.66801 292
46.68813 296
46.70824 295
46.72835 292
46.74847 266
46.76858 288
46.78869 276
46.80881 260
46.82892 282
46.84904 289
46.86915 282
46.88926 295
46.90938 296
46.92949 308
46.9496 345
46.96972 299
46.98983 349
47.00995 321
47.03006 330
47.05017 338
47.07029 354
47.0904 366
47.11051 345
47.13063 333
47.15074 343
47.17086 347
47.19097 351
47.21108 316
47.2312 333
47.25131 345
47.27142 347
47.29154 341
47.31165 334
47.33176 379
47.35188 330
47.37199 348
47.39211 376
47.41222 408
47.43233 418
47.45245 440
47.47256 441
47.49267 469
47.51279 439
47.5329 424
47.55302 436
47.57313 405
47.59324 421
47.61336 380
47.63347 380
47.65358 377
47.6737 356
47.69381 349
47.71393 325
47.73404 331
47.75415 307
47.77427 300
47.79438 298
47.81449 307
47.83461 301
47.85472 287
47.87483 293
47.89495 293
47.91506 298
47.93518 288
47.95529 296
47.9754 292
47.99552 323
48.01563 335
48.03574 324
48.05586 274
48.07597 308
48.09609 294
48.1162 300
48.13631 274
48.15643 308
48.17654 285
48.19665 335
48.21677 336
48.23688 326
48.257 318
48.27711 322
48.29722 335
48.31734 319
48.33745 377
48.35756 366
48.37768 381
48.39779 406
48.4179 389
48.43802 437
48.45813 431
48.47825 470
48.49836 405
48.51847 410
48.53859 427
48.5587 422
48.57881 449
48.59893 377
48.61904 425
48.63916 412
48.65927 377
48.67938 362
48.6995 330
48.71961 339
48.73972 366
48.75984 328
48.77995 314
48.80006 295
48.82018 335
48.84029 292
48.86041 306
48.88052 303
48.90063 309
48.92075 303
48.94086 304
48.96097 329
48.98109 283
49.0012 286
49.02132 322
49.04143 302
49.06154 296
49.08166 261
49.10177 301
49.12188 291
49.142 313
49.16211 321
49.18223 301
49.20234 287
49.22245 298
49.24257 294
49.26268 272
49.28279 308
49.30291 300
49.32302 300
49.34313 290
49.36325 312
49.38336 331
49.40348 297
49.42359 300
49.4437 300
49.46382 288
49.48393 324
49.50404 340
49.52416 314
49.54427 329
49.56439 313
49.5845 309
49.60461 342
49.62473 318
49.64484 345
49.66495 327
49.68507 330
49.70518 373
49.7253 395
49.74541 410
49.76552 398
49.78564 380
49.80575 415
49.82586 449
49.84598 481
49.86609 521
49.8862 587
49.90632 595
49.92643 717
49.94655 833
49.96666 919
49.98677 1051
50.00689 1263
50.027 1382
50.04711 1534
50.06723 1532
50.08734 1576
50.10746 1515
50.12757 1421
50.14768 1183
50.1678 1103
50.18791 976
50.20802 968
50.22814 851
50.24825 797
50.26837 712
50.28848 528
50.30859 462
50.32871 416
50.34882 376
50.36893 358
50.38905 321
50.40916 333
50.42927 330
50.44939 322
50.4695 341
50.48962 362
50.50973 366
50.52984 349
50.54996 334
50.57007 327
50.59018 374
50.6103 342
50.63041 296
50.65053 324
50.67064 297
50.69075 318
50.71087 324
50.73098 317
50.75109 290
50.77121 283
50.79132 300
50.81143 298
50.83155 285
50.85166 285
50.87178 306
50.89189 304
50.912 302
50.93212 264
50.95223 300
50.97234 274
50.99246 275
51.01257 267
51.03269 277
51.0528 285
51.07291 278
51.09303 274
51.11314 280
51.13325 294
51.15337 294
51.17348 293
51.1936 284
51.21371 303
51.23382 277
51.25394 271
51.27405 278
51.29416 269
51.31428 282
51.33439 282
51.3545 286
51.37462 281
51.39473 285
51.41485 269
51.43496 270
51.45507 273
51.47519 289
51.4953 258
51.51541 292
51.53553 274
51.55564 280
51.57576 266
51.59587 288
51.61598 285
51.6361 288
51.65621 278
51.67632 293
51.69644 262
51.71655 274
51.73667 261
51.75678 282
51.77689 249
51.79701 261
51.81712 268
51.83723 281
51.85735 262
51.87746 263
51.89757 256
51.91769 288
51.9378 272
51.95792 281
51.97803 280
51.99814 271
52.01826 286
52.03837 246
52.05848 261
52.0786 286
52.09871 275
52.11883 290
52.13894 304
52.15905 303
52.17917 287
52.19928 248
52.21939 278
52.23951 280
52.25962 287
52.27974 256
52.29985 278
52.31996 271
52.34008 263
52.36019 270
52.3803 252
52.40042 263
52.42053 282
52.44064 278
52.46076 309
52.48087 249
52.50099 303
52.5211 260
52.54121 275
52.56133 283
52.58144 274
52.60155 277
52.62167 268
52.64178 281
52.6619 269
52.68201 269
52.70212 271
52.72224 267
52.74235 288
52.76246 267
52.78258 305
52.80269 268
52.8228 281
52.84292 301
52.86303 304
52.88315 279
52.90326 295
52.92337 273
52.94349 298
52.9636 273
52.98371 297
53.00383 264
53.02394 291
53.04406 323
53.06417 320
53.08428 283
53.1044 314
53.12451 312
53.14462 280
53.16474 275
53.18485 284
53.20497 306
53.22508 290
53.24519 314
53.26531 329
53.28542 284
53.30553 294
53.32565 274
53.34576 290
53.36587 306
53.38599 304
53.4061 343
53.42622 301
53.44633 276
53.46644 319
53.48656 278
53.50667 324
53.52678 314
53.5469 302
53.56701 326
53.58713 306
53.60724 292
53.62735 321
53.64747 326
53.66758 300
53.68769 325
53.70781 315
53.72792 318
53.74804 310
53.76815 309
53.78826 331
53.80838 314
53.82849 318
53.8486 335
53.86872 298
53.88883 340
53.90894 327
53.92906 320
53.94917 324
53.96929 321
53.9894 334
54.00951 315
54.02963 325
54.04974 329
54.06985 306
54.08997 343
54.11008 315
54.1302 314
54.15031 312
54.17042 300
54.19054 362
54.21065 348
54.23076 338
54.25088 332
54.27099 311
54.29111 331
54.31122 342
54.33133 320
54.35145 327
54.37156 331
54.39167 318
54.41179 316
54.4319 327
54.45201 297
54.47213 350
54.49224 345
54.51236 350
54.53247 365
54.55258 379
54.5727 394
54.59281 421
54.61292 359
54.63304 433
54.65315 420
54.67327 497
54.69338 493
54.71349 542
54.73361 568
54.75372 662
54.77383 619
54.79395 704
54.81406 710
54.83417 661
54.85429 664
54.8744 646
54.89452 578
54.91463 533
54.93474 510
54.95486 517
54.97497 497
54.99508 456
55.0152 448
55.03531 404
55.05543 383
55.07554 389
55.09565 374
55.11577 365
55.13588 372
55.15599 413
55.17611 393
55.19622 411
55.21634 463
55.23645 463
55.25656 466
55.27668 468
55.29679 433
55.3169 455
55.33702 413
55.35713 378
55.37724 377
55.39736 410
55.41747 376
55.43759 371
55.4577 395
55.47781 343
55.49793 324
55.51804 316
55.53815 326
55.55827 311
55.57838 279
55.5985 324
55.61861 314
55.63872 327
55.65884 292
55.67895 311
55.69906 283
55.71918 297
55.73929 279
55.75941 270
55.77952 271
55.79963 297
55.81975 284
55.83986 280
55.85997 301
55.88009 279
55.9002 294
55.92031 317
55.94043 270
55.96054 275
55.98066 308
56.00077 286
56.02088 279
56.041 282
56.06111 297
56.08122 313
56.10134 274
56.12145 277
56.14157 300
56.16168 272
56.18179 259
56.20191 299
56.22202 304
56.24213 295
56.26225 298
56.28236 323
56.30248 310
56.32259 315
56.3427 295
56.36282 308
56.38293 313
56.40304 295
56.42316 325
56.44327 340
56.46338 317
56.4835 313
56.50361 353
56.52373 359
56.54384 336
56.56395 316
56.58407 322
56.60418 340
56.62429 369
56.64441 321
56.66452 319
56.68464 310
56.70475 312
56.72486 300
56.74498 306
56.76509 338
56.7852 284
56.80532 301
56.82543 315
56.84554 284
56.86566 332
56.88577 318
56.90589 303
56.926 282
56.94611 328
56.96623 272
56.98634 307
57.00645 307
57.02657 311
57.04668 285
57.0668 305
57.08691 339
57.10702 338
57.12714 304
57.14725 321
57.16736 344
57.18748 320
57.20759 323
57.22771 335
57.24782 340
57.26793 338
57.28805 354
57.30816 340
57.32827 365
57.34839 358
57.3685 367
57.38861 339
57.40873 334
57.42884 316
57.44896 350
57.46907 345
57.48918 356
57.5093 326
57.52941 348
57.54952 346
57.56964 303
57.58975 363
57.60987 323
57.62998 296
57.65009 284
57.67021 313
57.69032 300
57.71043 287
57.73055 294
57.75066 308
57.77078 295
57.79089 284
57.811 289
57.83112 308
57.85123 293
57.87134 261
57.89146 280
57.91157 280
57.93168 293
57.9518 259
57.97191 261
57.99203 299
58.01214 291
58.03225 287
58.05237 309
58.07248 314
58.09259 268
58.11271 279
58.13282 264
58.15294 266
58.17305 265
58.19316 295
58.21328 270
58.23339 304
58.2535 306
58.27362 273
58.29373 263
58.31385 270
58.33396 259
58.35407 263
58.37419 269
58.3943 280
58.41441 285
58.43453 282
58.45464 251
58.47475 287
58.49487 266
58.51498 244
58.5351 303
58.55521 275
58.57532 264
58.59544 268
58.61555 280
58.63566 279
58.65578 289
58.67589 290
58.69601 308
58.71612 296
58.73623 268
58.75635 281
58.77646 291
58.79657 299
58.81669 296
58.8368 260
58.85691 264
58.87703 236
58.89714 305
58.91726 273
58.93737 302
58.95748 286
58.9776 289
58.99771 243
59.01782 283
59.03794 291
59.05805 284
59.07817 290
59.09828 277
59.11839 283
59.13851 268
59.15862 273
59.17873 300
59.19885 303
59.21896 257
59.23908 313
59.25919 270
59.2793 264
59.29942 316
59.31953 296
59.33964 310
59.35976 317
59.37987 308
59.39998 316
59.4201 319
59.44021 317
59.46033 350
59.48044 332
59.50055 358
59.52067 350
59.54078 348
59.56089 370
59.58101 395
59.60112 380
59.62124 374
59.64135 420
59.66146 432
59.68158 475
59.70169 509
59.7218 589
59.74192 606
59.76203 679
59.78215 718
59.80226 818
59.82237 900
59.84249 962
59.8626 1057
59.88271 1090
59.90283 1125
59.92294 1081
59.94305 987
59.96317 877
59.98328 797
60.0034 746
60.02351 744
60.04362 726
60.06374 697
60.08385 653
60.10396 626
60.12408 512
60.14419 399
60.16431 374
60.18442 371
60.20453 373
60.22465 340
60.24476 332
60.26487 319
60.28499 378
60.3051 322
60.32522 331
60.34533 297
60.36544 331
60.38556 301
60.40567 344
60.42578 333
60.4459 317
60.46601 315
60.48612 334
60.50624 336
60.52635 306
60.54647 339
60.56658 336
60.58669 309
60.60681 338
60.62692 318
60.64703 343
60.66715 355
60.68726 325
60.70738 341
60.72749 309
60.7476 350
60.76772 332
60.78783 334
60.80794 327
60.82806 324
60.84817 338
60.86828 344
60.8884 321
60.90851 349
60.92863 325
60.94874 334
60.96885 346
60.98897 340
61.00908 340
61.02919 366
61.04931 334
61.06942 359
61.08954 347
61.10965 361
61.12976 352
61.14988 370
61.16999 350
61.1901 355
61.21022 356
61.23033 371
61.25045 361
61.27056 397
61.29067 397
61.31079 392
61.3309 379
61.35101 397
61.37113 393
61.39124 372
61.41135 411
61.43147 379
61.45158 375
61.4717 402
61.49181 400
61.51192 364
61.53204 380
61.55215 402
61.57226 390
61.59238 391
61.61249 384
61.63261 361
61.65272 365
61.67283 391
61.69295 398
61.71306 395
61.73317 403
61.75329 354
61.7734 340
61.79352 373
61.81363 357
61.83374 360
61.85386 318
61.87397 374
61.89408 367
61.9142 375
61.93431 373
61.95442 351
61.97454 325
61.99465 325
62.01477 328
62.03488 352
62.05499 348
62.07511 312
62.09522 330
62.11533 292
62.13545 299
62.15556 301
62.17568 310
62.19579 336
62.2159 305
62.23602 326
62.25613 347
62.27624 305
62.29636 337
62.31647 295
62.33659 320
62.3567 334
62.37681 302
62.39693 304
62.41704 304
62.43715 334
62.45727 282
62.47738 303
62.49749 289
62.51761 286
62.53772 277
62.55784 313
62.57795 293
62.59806 263
62.61818 292
62.63829 241
62.6584 293
62.67852 280
62.69863 288
62.71875 260
62.73886 294
62.75897 277
62.77909 292
62.7992 311
62.81931 280
62.83943 308
62.85954 261
62.87965 284
62.89977 276
62.91988 284
62.94 276
62.96011 295
62.98022 280
63.00034 299
63.02045 281
63.04056 268
63.06068 285
63.08079 295
63.10091 286
63.12102 286
63.14113 282
63.16125 272
63.18136 251
63.20147 316
63.22159 314
63.2417 266
63.26182 274
63.28193 289
63.30204 262
63.32216 264
63.34227 253
63.36238 287
63.3825 286
63.40261 281
63.42272 286
63.44284 266
63.46295 280
63.48307 262
63.50318 294
63.52329 275
63.54341 296
63.56352 277
63.58363 311
63.60375 277
63.62386 310
63.64398 292
63.66409 284
63.6842 284
63.70432 286
63.72443 295
63.74454 304
63.76466 304
63.78477 291
63.80489 324
63.825 345
63.84511 352
63.86523 366
63.88534 378
63.90545 409
63.92557 460
63.94568 420
63.96579 408
63.98591 442
64.00602 402
64.02614 397
64.04625 402
64.06636 347
64.08648 332
64.10659 345
64.1267 349
64.14682 351
64.16693 346
64.18705 310
64.20716 298
64.22727 284
64.24739 272
64.2675 299
64.28761 304
64.30773 294
64.32784 280
64.34796 221
64.36807 292
64.38818 267
64.4083 279
64.42841 320
64.44852 281
64.46864 288
64.48875 309
64.50886 283
64.52898 286
64.54909 310
64.56921 271
64.58932 313
64.60943 298
64.62955 282
64.64966 325
64.66977 323
64.68989 312
64.71 303
64.73012 306
64.75023 305
64.77034 276
64.79046 293
64.81057 278
64.83068 298
64.8508 311
64.87091 284
64.89102 264
64.91114 290
64.93125 293
64.95137 297
64.97148 265
64.99159 302
65.01171 250
65.03182 298
65.05193 263
65.07205 266
65.09216 282
65.11228 261
65.13239 264
65.1525 270
65.17262 250
65.19273 242
65.21284 267
65.23296 259
65.25307 265
65.27319 282
65.2933 272
65.31341 316
65.33353 295
65.35364 286
65.37375 283
65.39387 266
65.41398 292
65.43409 280
65.45421 285
65.47432 303
65.49444 289
65.51455 275
65.53466 296
65.55478 275
65.57489 282
65.595 297
65.61512 335
65.63523 312
65.65535 312
65.67546 322
65.69557 294
65.71569 351
65.7358 309
65.75591 316
65.77603 313
65.79614 307
65.81626 308
65.83637 328
65.85648 323
65.8766 300
65.89671 280
65.91682 302
65.93694 285
65.95705 301
65.97716 276
65.99728 301
66.01739 264
66.03751 305
66.05762 275
66.07773 250
66.09785 268
66.11796 262
66.13807 268
66.15819 275
66.1783 290
66.19842 264
66.21853 280
66.23864 252
66.25876 266
66.27887 240
66.29898 252
66.3191 299
66.33921 271
66.35933 273
66.37944 285
66.39955 272
66.41967 264
66.43978 291
66.45989 251
66.48001 246
66.50012 269
66.52023 271
66.54035 253
66.56046 265
66.58058 277
66.60069 263
66.6208 290
66.64092 271
66.66103 274
66.68114 279
66.70126 252
66.72137 282
66.74149 282
66.7616 288
66.78171 285
66.80183 277
66.82194 261
66.84205 264
66.86217 234
66.88228 237
66.90239 256
66.92251 270
66.94262 248
66.96274 274
66.98285 255
67.00296 253
67.02308 285
67.04319 263
67.0633 278
67.08342 265
67.10353 280
67.12365 265
67.14376 267
67.16387 267
67.18399 278
67.2041 301
67.22421 287
67.24433 291
67.26444 251
67.28456 306
67.30467 304
67.32478 300
67.3449 341
67.36501 326
67.38512 359
67.40524 372
67.42535 361
67.44546 392
67.46558 355
67.48569 411
67.50581 457
67.52592 516
67.54603 521
67.56615 563
67.58626 599
67.60637 688
67.62649 739
67.6466 806
67.66672 765
67.68683 818
67.70694 742
67.72706 756
67.74717 645
67.76728 649
67.7874 639
67.80751 632
67.82763 619
67.84774 637
67.86785 668
67.88797 682
67.90808 677
67.92819 676
67.94831 694
67.96842 705
67.98853 809
68.00865 807
68.02876 912
68.04888 931
68.06899 1063
68.0891 984
68.10922 992
68.12933 932
68.14944 862
68.16956 887
68.18967 878
68.20979 825
68.2299 950
68.25001 924
68.27013 870
68.29024 802
68.31035 759
68.33047 649
68.35058 583
68.3707 511
68.39081 512
68.41092 450
68.43104 497
68.45115 457
68.47126 444
68.49138 404
68.51149 364
68.5316 321
68.55172 299
68.57183 307
68.59195 313
68.61206 283
68.63217 279
68.65229 274
68.6724 295
68.69251 274
68.71263 292
68.73274 289
68.75286 264
68.77297 311
68.79308 262
68.8132 287
68.83331 263
68.85342 273
68.87354 295
68.89365 295
68.91376 267
68.93388 256
68.95399 292
68.97411 277
68.99422 286
69.01433 291
69.03445 296
69.05456 276
69.07467 252
69.09479 287
69.1149 261
69.13502 259
69.15513 269
69.17524 270
69.19536 268
69.21547 235
69.23558 286
69.2557 266
69.27581 263
69.29593 290
69.31604 274
69.33615 277
69.35627 265
69.37638 264
69.39649 258
69.41661 252
69.43672 261
69.45683 238
69.47695 280
69.49706 281
69.51718 229
69.53729 237
69.5574 278
69.57752 272
69.59763 267
69.61774 268
69.63786 286
69.65797 246
69.67809 265
69.6982 266
69.71831 267
69.73843 262
69.75854 256
69.77865 264
69.79877 308
69.81888 234
69.839 261
69.85911 234
69.87922 246
69.89934 271
69.91945 250
69.93956 290
69.95968 283
69.97979 250
69.9999 273
70.02002 270
70.04013 279
70.06025 254
70.08036 266
70.10047 264
70.12059 265
70.1407 266
70.16081 259
70.18093 312
70.20104 297
70.22116 255
70.24127 270
70.26138 288
70.2815 277
70.30161 262
70.32172 254
70.34184 277
70.36195 251
70.38207 274
70.40218 249
70.42229 249
70.44241 280
70.46252 251
70.48263 275
70.50275 260
70.52286 239
70.54297 244
70.56309 252
70.5832 268
70.60332 274
70.62343 286
70.64354 248
70.66366 251
70.68377 267
70.70388 263
70.724 267
70.74411 263
70.76423 237
70.78434 247
70.80445 280
70.82457 242
70.84468 264
70.86479 260
70.88491 239
70.90502 239
70.92513 263
70.94525 246
70.96536 254
70.98548 244
71.00559 254
71.0257 275
71.04582 279
71.06593 254
71.08604 258
71.10616 268
71.12627 248
71.14639 246
71.1665 300
71.18661 275
71.20673 297
71.22684 264
71.24695 272
71.26707 298
71.28718 272
71.3073 261
71.32741 274
71.34752 308
71.36764 270
71.38775 243
71.40786 251
71.42798 244
71.44809 249
71.4682 285
71.48832 287
71.50843 279
71.52855 252
71.54866 252
71.56877 254
71.58889 271
71.609 256
71.62911 247
71.64923 273
71.66934 256
71.68946 268
71.70957 249
71.72968 282
71.7498 246
71.76991 256
71.79002 257
71.81014 263
71.83025 278
71.85037 285
71.87048 245
71.89059 246
71.91071 274
71.93082 261
71.95093 264
71.97105 262
71.99116 305
72.01127 258
72.03139 255
72.0515 280
72.07162 252
72.09173 265
72.11184 252
72.13196 275
72.15207 260
72.17218 260
72.1923 260
72.21241 280
72.23253 289
72.25264 281
72.27275 275
72.29287 252
72.31298 301
72.33309 264
72.35321 298
72.37332 297
72.39344 297
72.41355 296
72.43366 273
72.45378 284
72.47389 281
72.494 280
72.51412 285
72.53423 280
72.55434 281
72.57446 294
72.59457 304
72.61469 284
72.6348 291
72.65491 289
72.67503 276
72.69514 275
72.71525 293
72.73537 278
72.75548 319
72.7756 297
72.79571 313
72.81582 312
72.83594 319
72.85605 295
72.87616 311
72.89628 308
72.91639 300
72.9365 299
72.95662 303
72.97673 306
72.99685 306
73.01696 304
73.03707 304
73.05719 315
73.0773 298
73.09741 328
73.11753 321
73.13764 342
73.15776 340
73.17787 375
73.19798 344
73.2181 347
73.23821 334
73.25832 392
73.27844 357
73.29855 369
73.31867 403
73.33878 448
73.35889 440
73.37901 439
73.39912 434
73.41923 435
73.43935 426
73.45946 375
73.47957 373
73.49969 394
73.5198 387
73.53992 359
73.56003 389
73.58014 392
73.60026 390
73.62037 350
73.64048 359
73.6606 317
73.68071 312
73.70083 293
73.72094 299
73.74105 292
73.76117 283
73.78128 296
73.80139 291
73.82151 286
73.84162 304
73.86174 271
73.88185 261
73.90196 251
73.92208 271
73.94219 282
73.9623 267
73.98242 294
74.00253 278
74.02264 251
74.04276 267
74.06287 261
74.08299 287
74.1031 272
74.12321 279
74.14333 270
74.16344 251
74.18355 245
74.20367 266
74.22378 244
74.2439 257
74.26401 247
74.28412 258
74.30424 264
74.32435 277
74.34446 273
74.36458 286
74.38469 277
74.40481 245
74.42492 245
74.44503 246
74.46515 281
74.48526 273
74.50537 279
74.52549 259
74.5456 286
74.56571 250
74.58583 272
74.60594 260
74.62606 274
74.64617 257
74.66628 255
74.6864 237
74.70651 272
74.72662 260
74.74674 275
74.76685 266
74.78697 257
74.80708 258
74.82719 263
74.84731 250
74.86742 260
74.88753 257
74.90765 258
74.92776 269
74.94787 275
74.96799 239
74.9881 259
75.00822 274
