3.00117 20036
3.02128 19070
3.0414 18648
3.06151 18486
3.08162 17579
3.10174 17591
3.12185 16637
3.14197 16174
3.16208 16002
3.18219 15236
3.20231 15001
3.22242 14297
3.24253 14334
3.26265 13740
3.28276 13102
3.30288 12913
3.32299 12211
3.3431 12060
3.36322 11639
3.38333 11081
3.40344 10915
3.42356 10381
3.44367 10178
3.46379 9824
3.4839 9290
3.50401 9156
3.52413 8674
3.54424 8520
3.56435 8180
3.58447 7811
3.60458 7686
3.62469 7158
3.64481 7056
3.66492 6733
3.68504 6364
3.70515 6472
3.72526 5740
3.74538 5814
3.76549 5559
3.7856 5053
3.80572 5295
3.82583 4860
3.84595 4657
3.86606 4468
3.88617 4320
3.90629 4182
3.9264 3714
3.94651 3723
3.96663 3629
3.98674 3542
4.00686 3486
4.02697 2858
4.04708 2953
4.0672 2916
4.08731 2745
4.10742 2623
4.12754 2522
4.14765 2401
4.16776 2331
4.18788 2229
4.20799 2201
4.22811 1931
4.24822 1796
4.26833 1949
4.28845 1854
4.30856 1833
4.32867 1656
4.34879 1654
4.3689 1606
4.38902 1580
4.40913 1624
4.42924 1552
4.44936 1401
4.46947 1483
4.48958 1452
4.5097 1476
4.52981 1179
4.54992 1229
4.57004 1242
4.59015 1245
4.61027 1241
4.63038 1147
4.65049 1094
4.67061 1164
4.69072 1081
4.71083 1096
4.73095 1086
4.75106 1000
4.77118 1020
4.79129 959
4.8114 1018
4.83152 919
4.85163 919
4.87174 919
4.89186 871
4.91197 864
4.93209 813
4.9522 785
4.97231 839
4.99243 775
5.01254 784
5.03265 751
5.05277 734
5.07288 731
5.09299 716
5.11311 660
5.13322 665
5.15334 602
5.17345 670
5.19356 677
5.21368 568
5.23379 602
5.2539 608
5.27402 562
5.29413 597
5.31425 548
5.33436 529
5.35447 495
5.37459 521
5.3947 547
5.41481 517
5.43493 467
5.45504 494
5.47516 452
5.49527 469
5.51538 437
5.5355 476
5.55561 450
5.57572 452
5.59584 425
5.61595 437
5.63606 418
5.65618 402
5.67629 421
5.69641 412
5.71652 413
5.73663 388
5.75675 389
5.77686 398
5.79697 396
5.81709 384
5.8372 350
5.85732 367
5.87743 361
5.89754 373
5.91766 352
5.93777 336
5.95788 358
5.978 345
5.99811 292
6.01823 346
6.03834 365
6.05845 333
6.07857 360
6.09868 337
6.11879 304
6.13891 319
6.15902 330
6.17913 311
6.19925 306
6.21936 317
6.23948 328
6.25959 333
6.2797 319
6.29982 324
6.31993 292
6.34004 322
6.36016 305
6.38027 337
6.40039 294
6.4205 303
6.44061 326
6.46073 313
6.48084 247
6.50095 340
6.52107 317
6.54118 324
6.56129 282
6.58141 280
6.60152 303
6.62164 291
6.64175 263
6.66186 302
6.68198 287
6.70209 323
6.7222 310
6.74232 277
6.76243 305
6.78255 290
6.80266 296
6.82277 271
6.84289 266
6.863 277
6.88311 315
6.90323 313
6.92334 307
6.94346 292
6.96357 273
6.98368 279
7.0038 321
7.02391 282
7.04402 270
7.06414 335
7.08425 278
7.10436 286
7.12448 248
7.14459 313
7.16471 291
7.18482 281
7.20493 283
7.22505 285
7.24516 271
7.26527 316
7.28539 278
7.3055 305
7.32562 295
7.34573 267
7.36584 322
7.38596 275
7.40607 290
7.42618 325
7.4463 285
7.46641 283
7.48653 262
7.50664 306
7.52675 306
7.54687 284
7.56698 261
7.58709 314
7.60721 296
7.62732 305
7.64743 295
7.66755 289
7.68766 280
7.70778 283
7.72789 311
7.748 307
7.76812 309
7.78823 308
7.80834 261
7.82846 255
7.84857 275
7.86869 289
7.8888 282
7.90891 268
7.92903 296
7.94914 298
7.96925 302
7.98937 330
8.00948 321
8.0296 293
8.04971 300
8.06982 314
8.08994 311
8.11005 286
8.13016 306
8.15028 308
8.17039 304
8.1905 288
8.21062 318
8.23073 301
8.25085 330
8.27096 334
8.29107 302
8.31119 328
8.3313 335
8.35141 306
8.37153 315
8.39164 265
8.41176 287
8.43187 316
8.45198 330
8.4721 301
8.49221 290
8.51232 297
8.53244 278
8.55255 326
8.57266 311
8.59278 287
8.61289 260
8.63301 297
8.65312 327
8.67323 328
8.69335 309
8.71346 307
8.73357 338
8.75369 294
8.7738 323
8.79392 283
8.81403 336
8.83414 292
8.85426 287
8.87437 310
8.89448 325
8.9146 328
8.93471 342
8.95483 345
8.97494 318
8.99505 305
9.01517 316
9.03528 282
9.05539 325
9.07551 287
9.09562 305
9.11573 296
9.13585 303
9.15596 304
9.17608 303
9.19619 279
9.2163 297
9.23642 310
9.25653 303
9.27664 299
9.29676 304
9.31687 299
9.33699 295
9.3571 323
9.37721 329
9.39733 299
9.41744 296
9.43755 302
9.45767 315
9.47778 327
9.4979 299
9.51801 282
9.53812 311
9.55824 297
9.57835 305
9.59846 285
9.61858 284
9.63869 313
9.6588 279
9.67892 290
9.69903 272
9.71915 305
9.73926 304
9.75937 317
9.77949 281
9.7996 269
9.81971 312
9.83983 309
9.85994 343
9.88006 319
9.90017 297
9.92028 323
9.9404 306
9.96051 317
9.98062 302
10.00074 299
10.02085 311
10.04097 337
10.06108 293
10.08119 302
10.10131 314
10.12142 239
10.14153 280
10.16165 311
10.18176 325
10.20187 301
10.22199 309
10.2421 296
10.26222 311
10.28233 315
10.30244 299
10.32256 307
10.34267 267
10.36278 263
10.3829 308
10.40301 266
10.42313 286
10.44324 298
10.46335 286
10.48347 335
10.50358 291
10.52369 290
10.54381 307
10.56392 342
10.58403 277
10.60415 295
10.62426 307
10.64438 336
10.66449 301
10.6846 286
10.70472 271
10.72483 325
10.74494 305
10.76506 314
10.78517 330
10.80529 321
10.8254 271
10.84551 291
10.86563 287
10.88574 300
10.90585 269
10.92597 293
10.94608 293
10.9662 279
10.98631 315
11.00642 319
11.02654 328
11.04665 323
11.06676 303
11.08688 331
11.10699 305
11.1271 294
11.14722 322
11.16733 284
11.18745 298
11.20756 304
11.22767 278
11.24779 299
11.2679 294
11.28801 318
11.30813 307
11.32824 306
11.34836 335
11.36847 350
11.38858 337
11.4087 277
11.42881 332
11.44892 306
11.46904 295
11.48915 291
11.50927 330
11.52938 298
11.54949 299
11.56961 307
11.58972 340
11.60983 346
11.62995 344
11.65006 342
11.67017 329
11.69029 317
11.7104 357
11.73052 374
11.75063 331
11.77074 355
11.79086 346
11.81097 372
11.83108 333
11.8512 358
11.87131 358
11.89143 367
11.91154 356
11.93165 362
11.95177 383
11.97188 374
11.99199 429
12.01211 395
12.03222 400
12.05234 416
12.07245 438
12.09256 456
12.11268 478
12.13279 517
12.1529 504
12.17302 597
12.19313 575
12.21324 610
12.23336 674
12.25347 669
12.27359 742
12.2937 698
12.31381 677
12.33393 787
12.35404 713
12.37415 655
12.39427 634
12.41438 567
12.4345 536
12.45461 494
12.47472 479
12.49484 450
12.51495 392
12.53506 395
12.55518 387
12.57529 379
12.5954 349
12.61552 366
12.63563 357
12.65575 339
12.67586 357
12.69597 353
12.71609 323
12.7362 306
12.75631 318
12.77643 342
12.79654 346
12.81666 299
12.83677 311
12.85688 287
12.877 273
12.89711 292
12.91722 288
12.93734 279
12.95745 267
12.97757 294
12.99768 281
13.01779 292
13.03791 293
13.05802 300
13.07813 287
13.09825 331
13.11836 284
13.13847 312
13.15859 269
13.1787 308
13.19882 312
13.21893 265
13.23904 289
13.25916 299
13.27927 280
13.29938 285
13.3195 251
13.33961 270
13.35973 279
13.37984 296
13.39995 311
13.42007 262
13.44018 267
13.46029 290
13.48041 317
13.50052 303
13.52064 304
13.54075 287
13.56086 279
13.58098 301
13.60109 295
13.6212 276
13.64132 282
13.66143 274
13.68154 265
13.70166 268
13.72177 302
13.74189 272
13.762 281
13.78211 268
13.80223 284
13.82234 272
13.84245 291
13.86257 290
13.88268 248
13.9028 265
13.92291 269
13.94302 258
13.96314 310
13.98325 256
14.00336 251
14.02348 290
14.04359 274
14.06371 282
14.08382 256
14.10393 277
14.12405 292
14.14416 287
14.16427 241
14.18439 253
14.2045 253
14.22461 256
14.24473 279
14.26484 275
14.28496 272
14.30507 275
14.32518 268
14.3453 282
14.36541 302
14.38552 276
14.40564 320
14.42575 226
14.44587 275
14.46598 255
14.48609 265
14.50621 260
14.52632 246
14.54643 246
14.56655 249
14.58666 287
14.60677 274
14.62689 235
14.647 270
14.66712 274
14.68723 253
14.70734 273
14.72746 305
14.74757 285
14.76768 271
14.7878 245
14.80791 268
14.82803 253
14.84814 256
14.86825 245
14.88837 253
14.90848 287
14.92859 266
14.94871 263
14.96882 270
14.98894 274
15.00905 253
15.02916 279
15.04928 267
15.06939 264
15.0895 271
15.10962 265
15.12973 255
15.14984 288
15.16996 287
15.19007 272
15.21019 216
15.2303 283
15.25041 239
15.27053 248
15.29064 270
15.31075 257
15.33087 283
15.35098 249
15.3711 248
15.39121 264
15.41132 257
15.43144 261
15.45155 261
15.47166 255
15.49178 230
15.51189 223
15.53201 264
15.55212 266
15.57223 257
15.59235 285
15.61246 272
15.63257 271
15.65269 274
15.6728 275
15.69291 261
15.71303 284
15.73314 262
15.75326 258
15.77337 253
15.79348 277
15.8136 293
15.83371 249
15.85382 258
15.87394 266
15.89405 257
15.91417 268
15.93428 235
15.95439 234
15.97451 290
15.99462 265
16.01473 260
16.03485 228
16.05496 262
16.07508 275
16.09519 246
16.1153 268
16.13542 249
16.15553 272
16.17564 217
16.19576 235
16.21587 280
16.23598 244
16.2561 273
16.27621 252
16.29633 280
16.31644 259
16.33655 243
16.35667 269
16.37678 254
16.39689 252
16.41701 256
16.43712 265
16.45724 236
16.47735 237
16.49746 265
16.51758 234
16.53769 247
16.5578 239
16.57792 290
16.59803 236
16.61814 250
16.63826 255
16.65837 211
16.67849 246
16.6986 263
16.71871 253
16.73883 286
16.75894 239
16.77905 238
16.79917 249
16.81928 233
16.8394 305
16.85951 275
16.87962 244
16.89974 254
16.91985 278
16.93996 270
16.96008 252
16.98019 244
17.00031 269
17.02042 260
17.04053 270
17.06065 242
17.08076 272
17.10087 258
17.12099 256
17.1411 263
17.16121 252
17.18133 274
17.20144 257
17.22156 258
17.24167 263
17.26178 265
17.2819 279
17.30201 246
17.32212 282
17.34224 265
17.36235 260
17.38247 253
17.40258 215
17.42269 259
17.44281 238
17.46292 259
17.48303 295
17.50315 274
17.52326 241
17.54338 239
17.56349 241
17.5836 258
17.60372 258
17.62383 250
17.64394 281
17.66406 278
17.68417 272
17.70428 272
17.7244 278
17.74451 267
17.76463 285
17.78474 286
17.80485 254
17.82497 270
17.84508 266
17.86519 282
17.88531 280
17.90542 275
17.92554 263
17.94565 280
17.96576 250
17.98588 284
18.00599 277
18.0261 253
18.04622 274
18.06633 289
18.08645 270
18.10656 262
18.12667 283
18.14679 259
18.1669 254
18.18701 294
18.20713 260
18.22724 262
18.24735 238
18.26747 279
18.28758 256
18.3077 262
18.32781 245
18.34792 254
18.36804 236
18.38815 259
18.40826 272
18.42838 243
18.44849 241
18.46861 240
18.48872 250
18.50883 270
18.52895 278
18.54906 269
18.56917 227
18.58929 257
18.6094 271
18.62951 261
18.64963 274
18.66974 226
18.68986 283
18.70997 252
18.73008 269
18.7502 232
18.77031 256
18.79042 248
18.81054 268
18.83065 275
18.85077 256
18.87088 276
18.89099 249
18.91111 282
18.93122 254
18.95133 258
18.97145 270
18.99156 237
19.01168 265
19.03179 283
19.0519 232
19.07202 266
19.09213 250
19.11224 258
19.13236 269
19.15247 233
19.17258 255
19.1927 272
19.21281 288
19.23293 255
19.25304 260
19.27315 258
19.29327 243
19.31338 277
19.33349 283
19.35361 254
19.37372 279
19.39384 284
19.41395 279
19.43406 266
19.45418 258
19.47429 307
19.4944 304
19.51452 268
19.53463 308
19.55475 302
19.57486 299
19.59497 296
19.61509 325
19.6352 320
19.65531 365
19.67543 361
19.69554 345
19.71565 386
19.73577 422
19.75588 432
19.776 495
19.79611 485
19.81622 454
19.83634 544
19.85645 548
19.87656 522
19.89668 529
19.91679 467
19.93691 517
19.95702 514
19.97713 479
19.99725 464
20.01736 450
20.03747 448
20.05759 503
20.0777 439
20.09782 488
20.11793 523
20.13804 454
20.15816 520
20.17827 484
20.19838 506
20.2185 516
20.23861 517
20.25872 522
20.27884 515
20.29895 519
20.31907 486
20.33918 513
20.35929 553
20.37941 537
20.39952 511
20.41963 557
20.43975 526
20.45986 585
20.47998 530
20.50009 598
20.5202 530
20.54032 548
20.56043 555
20.58054 616
20.60066 607
20.62077 686
20.64088 746
20.661 964
20.68111 1109
20.70123 1421
20.72134 2013
20.74145 2720
20.76157 3805
20.78168 4778
20.80179 5833
20.82191 6295
20.84202 6011
20.86214 5149
20.88225 3998
20.90236 2789
20.92248 1804
20.94259 1243
20.9627 922
20.98282 777
21.00293 694
21.02305 660
21.04316 613
21.06327 603
21.08339 620
21.1035 616
21.12361 610
21.14373 606
21.16384 587
21.18395 634
21.20407 635
21.22418 601
21.2443 542
21.26441 597
21.28452 590
21.30464 633
21.32475 556
21.34486 579
21.36498 585
21.38509 582
21.40521 548
21.42532 546
21.44543 541
21.46555 469
21.48566 455
21.50577 485
21.52589 498
21.546 502
21.56612 483
21.58623 488
21.60634 505
21.62646 430
21.64657 433
21.66668 432
21.6868 398
21.70691 390
21.72702 375
21.74714 394
21.76725 389
21.78737 383
21.80748 388
21.82759 370
21.84771 388
21.86782 399
21.88793 369
21.90805 373
21.92816 389
21.94828 374
21.96839 400
21.9885 424
22.00862 420
22.02873 370
22.04884 362
22.06896 362
22.08907 404
22.10919 343
22.1293 365
22.14941 394
22.16953 355
22.18964 337
22.20975 380
22.22987 374
22.24998 341
22.27009 372
22.29021 370
22.31032 355
22.33044 331
22.35055 349
22.37066 360
22.39078 356
22.41089 337
22.431 341
22.45112 324
22.47123 385
22.49135 353
22.51146 347
22.53157 322
22.55169 379
22.5718 343
22.59191 333
22.61203 338
22.63214 312
22.65225 344
22.67237 318
22.69248 345
22.7126 344
22.73271 326
22.75282 347
22.77294 361
22.79305 353
22.81316 374
22.83328 351
22.85339 383
22.87351 365
22.89362 348
22.91373 357
22.93385 373
22.95396 313
22.97407 320
22.99419 319
23.0143 330
23.03442 342
23.05453 351
23.07464 328
23.09476 335
23.11487 314
23.13498 368
23.1551 373
23.17521 337
23.19532 355
23.21544 310
23.23555 352
23.25567 344
23.27578 329
23.29589 354
23.31601 313
23.33612 340
23.35623 358
23.37635 347
23.39646 321
23.41658 343
23.43669 303
23.4568 317
23.47692 347
23.49703 318
23.51714 334
23.53726 319
23.55737 323
23.57749 312
23.5976 322
23.61771 327
23.63783 355
23.65794 292
23.67805 320
23.69817 335
23.71828 332
23.73839 378
23.75851 356
23.77862 327
23.79874 311
23.81885 346
23.83896 346
23.85908 329
23.87919 350
23.8993 367
23.91942 392
23.93953 361
23.95965 432
23.97976 440
23.99987 467
24.01999 396
24.0401 411
24.06021 351
24.08033 375
24.10044 351
24.12056 358
24.14067 368
24.16078 318
24.1809 289
24.20101 387
24.22112 336
24.24124 373
24.26135 319
24.28146 407
24.30158 354
24.32169 350
24.34181 359
24.36192 336
24.38203 341
24.40215 345
24.42226 369
24.44237 315
24.46249 403
24.4826 344
24.50272 384
24.52283 392
24.54294 388
24.56306 432
24.58317 407
24.60328 449
24.6234 461
24.64351 457
24.66362 449
24.68374 492
24.70385 534
24.72397 468
24.74408 566
24.76419 619
24.78431 632
24.80442 628
24.82453 650
24.84465 628
24.86476 624
24.88488 609
24.90499 663
24.9251 591
24.94522 532
24.96533 526
24.98544 477
25.00556 498
25.02567 456
25.04579 436
25.0659 417
25.08601 421
25.10613 451
25.12624 407
25.14635 462
25.16647 412
25.18658 393
25.20669 427
25.22681 423
25.24692 393
25.26704 409
25.28715 434
25.30726 422
25.32738 397
25.34749 377
25.3676 421
25.38772 352
25.40783 363
25.42795 364
25.44806 370
25.46817 361
25.48829 362
25.5084 362
25.52851 347
25.54863 360
25.56874 376
25.58886 372
25.60897 382
25.62908 412
25.6492 396
25.66931 462
25.68942 476
25.70954 430
25.72965 446
25.74976 488
25.76988 440
25.78999 470
25.81011 507
25.83022 506
25.85033 480
25.87045 493
25.89056 489
25.91067 522
25.93079 527
25.9509 524
25.97102 495
25.99113 532
26.01124 521
26.03136 525
26.05147 603
26.07158 558
26.0917 589
26.11181 614
26.13193 615
26.15204 613
26.17215 726
26.19227 697
26.21238 800
26.23249 905
26.25261 882
26.27272 919
26.29283 983
26.31295 1054
26.33306 1185
26.35318 1305
26.37329 1576
26.3934 1692
26.41352 2215
26.43363 2954
26.45374 3893
26.47386 5813
26.49397 8099
26.51409 11359
26.5342 15872
26.55431 20589
26.57443 25165
26.59454 27837
26.61465 27403
26.63477 23771
26.65488 18837
26.67499 14160
26.69511 10291
26.71522 6696
26.73534 3843
26.75545 2286
26.77556 1649
26.79568 1407
26.81579 1261
26.8359 1166
26.85602 1095
26.87613 912
26.89625 906
26.91636 877
26.93647 782
26.95659 691
26.9767 660
26.99681 648
27.01693 593
27.03704 531
27.05716 574
27.07727 523
27.09738 509
27.1175 488
27.13761 486
27.15772 457
27.17784 502
27.19795 469
27.21806 441
27.23818 447
27.25829 508
27.27841 469
27.29852 460
27.31863 481
27.33875 437
27.35886 460
27.37897 423
27.39909 478
27.4192 416
27.43932 435
27.45943 416
27.47954 449
27.49966 407
27.51977 405
27.53988 407
27.56 412
27.58011 429
27.60023 439
27.62034 353
27.64045 364
27.66057 375
27.68068 377
27.70079 389
27.72091 409
27.74102 386
27.76113 342
27.78125 387
27.80136 367
27.82148 420
27.84159 395
27.8617 354
27.88182 381
27.90193 342
27.92204 370
27.94216 375
27.96227 308
27.98239 377
28.0025 331
28.02261 352
28.04273 364
28.06284 381
28.08295 344
28.10307 346
28.12318 344
28.1433 319
28.16341 348
28.18352 349
28.20364 338
28.22375 343
28.24386 341
28.26398 317
28.28409 362
28.3042 330
28.32432 334
28.34443 301
28.36455 341
28.38466 371
28.40477 357
28.42489 314
28.445 335
28.46511 322
28.48523 319
28.50534 318
28.52546 346
28.54557 363
28.56568 309
28.5858 312
28.60591 314
28.62602 352
28.64614 320
28.66625 302
28.68636 338
28.70648 325
28.72659 340
28.74671 324
28.76682 315
28.78693 305
28.80705 322
28.82716 301
28.84727 328
28.86739 308
28.8875 329
28.90762 347
28.92773 299
28.94784 318
28.96796 324
28.98807 300
29.00818 308
29.0283 307
29.04841 315
29.06853 342
29.08864 326
29.10875 342
29.12887 310
29.14898 353
29.16909 298
29.18921 330
29.20932 303
29.22943 309
29.24955 307
29.26966 294
29.28978 342
29.30989 296
29.33 285
29.35012 288
29.37023 323
29.39034 293
29.41046 302
29.43057 308
29.45069 327
29.4708 300
29.49091 321
29.51103 303
29.53114 332
29.55125 295
29.57137 277
29.59148 308
29.6116 306
29.63171 280
29.65182 287
29.67194 287
29.69205 309
29.71216 295
29.73228 294
29.75239 296
29.7725 316
29.79262 295
29.81273 313
29.83285 276
29.85296 296
29.87307 309
29.89319 270
29.9133 292
29.93341 280
29.95353 308
29.97364 304
29.99376 290
30.01387 303
30.03398 264
30.0541 288
30.07421 284
30.09432 294
30.11444 286
30.13455 318
30.15467 294
30.17478 296
30.19489 311
30.21501 313
30.23512 335
30.25523 285
30.27535 278
30.29546 315
30.31557 295
30.33569 322
30.3558 286
30.37592 316
30.39603 287
30.41614 316
30.43626 299
30.45637 291
30.47648 263
30.4966 307
30.51671 292
30.53683 306
30.55694 291
30.57705 300
30.59717 303
30.61728 315
30.63739 269
30.65751 265
30.67762 287
30.69773 286
30.71785 298
30.73796 294
30.75808 293
30.77819 287
30.7983 283
30.81842 288
30.83853 274
30.85864 300
30.87876 296
30.89887 304
30.91899 304
30.9391 269
30.95921 287
30.97933 279
30.99944 282
31.01955 285
31.03967 289
31.05978 304
31.0799 303
31.10001 296
31.12012 293
31.14024 334
31.16035 281
31.18046 298
31.20058 279
31.22069 288
31.2408 277
31.26092 288
31.28103 274
31.30115 308
31.32126 294
31.34137 276
31.36149 277
31.3816 301
31.40171 280
31.42183 275
31.44194 306
31.46206 295
31.48217 275
31.50228 300
31.5224 277
31.54251 283
31.56262 273
31.58274 273
31.60285 277
31.62297 267
31.64308 246
31.66319 295
31.68331 296
31.70342 300
31.72353 301
31.74365 232
31.76376 249
31.78387 275
31.80399 286
31.8241 295
31.84422 273
31.86433 290
31.88444 258
31.90456 284
31.92467 294
31.94478 280
31.9649 311
31.98501 302
32.00513 260
32.02524 303
32.04535 267
32.06547 279
32.08558 272
32.10569 292
32.12581 267
32.14592 266
32.16604 306
32.18615 297
32.20626 290
32.22638 279
32.24649 286
32.2666 301
32.28672 310
32.30683 284
32.32694 279
32.34706 280
32.36717 280
32.38729 282
32.4074 309
32.42751 288
32.44763 305
32.46774 308
32.48785 303
32.50797 274
32.52808 307
32.5482 291
32.56831 301
32.58842 291
32.60854 298
32.62865 313
32.64876 327
32.66888 285
32.68899 306
32.7091 284
32.72922 311
32.74933 306
32.76945 299
32.78956 314
32.80967 299
32.82979 342
32.8499 290
32.87001 310
32.89013 328
32.91024 333
32.93036 316
32.95047 326
32.97058 309
32.9907 312
33.01081 334
33.03092 336
33.05104 348
33.07115 340
33.09127 351
33.11138 333
33.13149 334
33.15161 373
33.17172 380
33.19183 372
33.21195 338
33.23206 356
33.25217 342
33.27229 380
33.2924 340
33.31252 373
33.33263 373
33.35274 368
33.37286 346
33.39297 336
33.41308 324
33.4332 329
33.45331 353
33.47343 343
33.49354 347
33.51365 334
33.53377 334
33.55388 282
33.57399 310
33.59411 306
33.61422 313
33.63434 321
33.65445 312
33.67456 303
33.69468 326
33.71479 326
33.7349 274
33.75502 280
33.77513 335
33.79524 275
33.81536 329
33.83547 284
33.85559 303
33.8757 285
33.89581 265
33.91593 288
33.93604 256
33.95615 279
33.97627 244
33.99638 268
34.0165 267
34.03661 319
34.05672 298
34.07684 281
34.09695 266
34.11706 283
34.13718 247
34.15729 283
34.17741 265
34.19752 255
34.21763 274
34.23775 276
34.25786 271
34.27797 275
34.29809 287
34.3182 268
34.33831 292
34.35843 291
34.37854 307
34.39866 258
34.41877 275
34.43888 284
34.459 276
34.47911 278
34.49922 328
34.51934 329
34.53945 307
34.55957 270
34.57968 328
34.59979 325
34.61991 369
34.64002 339
34.66013 362
34.68025 347
34.70036 362
34.72047 381
34.74059 370
34.7607 382
34.78082 381
34.80093 394
34.82104 408
34.84116 421
34.86127 434
34.88138 398
34.9015 478
34.92161 410
34.94173 473
34.96184 425
34.98195 412
35.00207 433
35.02218 408
35.04229 431
35.06241 419
35.08252 359
35.10264 408
35.12275 401
35.14286 378
35.16298 387
35.18309 383
35.2032 378
35.22332 363
35.24343 344
35.26354 399
35.28366 376
35.30377 370
35.32389 408
35.344 405
35.36411 388
35.38423 422
35.40434 389
35.42445 396
35.44457 352
35.46468 386
35.4848 412
35.50491 405
35.52502 391
35.54514 413
35.56525 437
35.58536 407
35.60548 409
35.62559 390
35.64571 448
35.66582 420
35.68593 447
35.70605 462
35.72616 421
35.74627 494
35.76639 441
35.7865 444
35.80661 431
35.82673 468
35.84684 442
35.86696 444
35.88707 463
35.90718 431
35.9273 415
35.94741 447
35.96752 425
35.98764 429
36.00775 406
36.02787 395
36.04798 405
36.06809 399
36.08821 399
36.10832 381
36.12843 393
36.14855 378
36.16866 361
36.18878 403
36.20889 403
36.229 403
36.24912 429
36.26923 465
36.28934 452
36.30946 506
36.32957 556
36.34968 669
36.3698 798
36.38991 906
36.41003 1138
36.43014 1424
36.45025 1706
36.47037 2032
36.49048 2044
36.51059 2049
36.53071 1849
36.55082 1642
36.57094 1443
36.59105 1224
36.61116 1081
36.63128 870
36.65139 655
36.6715 573
36.69162 504
36.71173 457
36.73184 426
36.75196 442
36.77207 435
36.79219 425
36.8123 464
36.83241 440
36.85253 407
36.87264 422
36.89275 427
36.91287 395
36.93298 400
36.9531 386
36.97321 376
36.99332 385
37.01344 366
37.03355 387
37.05366 363
37.07378 344
37.09389 346
37.11401 335
37.13412 320
37.15423 380
37.17435 330
37.19446 315
37.21457 325
37.23469 318
37.2548 343
37.27491 282
37.29503 323
37.31514 341
37.33526 360
37.35537 313
37.37548 332
37.3956 348
37.41571 313
37.43582 316
37.45594 314
37.47605 303
37.49617 308
37.51628 326
37.53639 313
37.55651 325
37.57662 354
37.59673 347
37.61685 297
37.63696 344
37.65708 318
37.67719 349
37.6973 313
37.71742 348
37.73753 316
37.75764 327
37.77776 339
37.79787 360
37.81798 345
37.8381 343
37.85821 306
37.87833 323
37.89844 321
37.91855 334
37.93867 335
37.95878 323
37.97889 326
37.99901 316
38.01912 369
38.03924 346
38.05935 314
38.07946 366
38.09958 358
38.11969 387
38.1398 367
38.15992 399
38.18003 412
38.20015 364
38.22026 379
38.24037 383
38.26049 403
38.2806 417
38.30071 427
38.32083 409
38.34094 408
38.36105 440
38.38117 448
38.40128 442
38.4214 452
38.44151 458
38.46162 465
38.48174 407
38.50185 420
38.52196 379
38.54208 399
38.56219 409
38.58231 387
38.60242 367
38.62253 353
38.64265 364
38.66276 335
38.68287 331
38.70299 341
38.7231 346
38.74321 377
38.76333 314
38.78344 342
38.80356 344
38.82367 366
38.84378 336
38.8639 351
38.88401 352
38.90412 344
38.92424 362
38.94435 315
38.96447 359
38.98458 343
39.00469 356
39.02481 375
39.04492 403
39.06503 383
39.08515 391
39.10526 379
39.12538 412
39.14549 442
39.1656 479
39.18572 472
39.20583 491
39.22594 535
39.24606 577
39.26617 638
39.28628 704
39.3064 875
39.32651 1078
39.34663 1371
39.36674 1538
39.38685 1718
39.40697 1939
39.42708 1932
39.44719 1797
39.46731 1495
39.48742 1310
39.50754 1136
39.52765 1067
39.54776 899
39.56788 721
39.58799 524
39.6081 451
39.62822 394
39.64833 307
39.66845 353
39.68856 330
39.70867 341
39.72879 322
39.7489 345
39.76901 360
39.78913 341
39.80924 342
39.82935 354
39.84947 331
39.86958 347
39.8897 345
39.90981 327
39.92992 318
39.95004 359
39.97015 325
39.99026 343
40.01038 366
40.03049 375
40.05061 365
40.07072 420
40.09083 467
40.11095 534
40.13106 573
40.15117 645
40.17129 805
40.1914 913
40.21152 1029
40.23163 1111
40.25174 1108
40.27186 1027
40.29197 878
40.31208 785
40.3322 728
40.35231 692
40.37242 602
40.39254 493
40.41265 418
40.43277 373
40.45288 365
40.47299 310
40.49311 282
40.51322 325
40.53333 308
40.55345 298
40.57356 296
40.59368 308
40.61379 300
40.6339 315
40.65402 345
40.67413 318
40.69424 311
40.71436 324
40.73447 305
40.75458 326
40.7747 292
40.79481 308
40.81493 306
40.83504 301
40.85515 305
40.87527 345
40.89538 304
40.91549 322
40.93561 335
40.95572 319
40.97584 311
40.99595 359
41.01606 322
41.03618 288
41.05629 330
41.0764 330
41.09652 311
41.11663 316
41.13675 325
41.15686 328
41.17697 320
41.19709 323
41.2172 309
41.23731 350
41.25743 314
41.27754 314
41.29765 285
41.31777 333
41.33788 286
41.358 318
41.37811 286
41.39822 304
41.41834 291
41.43845 301
41.45856 290
41.47868 317
41.49879 315
41.51891 320
41.53902 333
41.55913 312
41.57925 276
41.59936 286
41.61947 293
41.63959 280
41.6597 301
41.67982 279
41.69993 291
41.72004 293
41.74016 286
41.76027 303
41.78038 302
41.8005 281
41.82061 303
41.84072 267
41.86084 316
41.88095 297
41.90107 304
41.92118 269
41.94129 312
41.96141 278
41.98152 301
42.00163 287
42.02175 285
42.04186 273
42.06198 307
42.08209 306
42.1022 295
42.12232 344
42.14243 327
42.16254 303
42.18266 382
42.20277 389
42.22289 449
42.243 459
42.26311 503
42.28323 628
42.30334 750
42.32345 940
42.34357 1160
42.36368 1283
42.38379 1452
42.40391 1441
42.42402 1308
42.44414 1161
42.46425 1007
42.48436 933
42.50448 839
42.52459 800
42.5447 719
42.56482 486
42.58493 398
42.60505 365
42.62516 306
42.64527 292
42.66539 300
42.6855 298
42.70561 287
42.72573 279
42.74584 266
42.76595 277
42.78607 266
42.80618 260
42.8263 272
42.84641 265
42.86652 273
42.88664 269
42.90675 237
42.92686 267
42.94698 289
42.96709 266
42.98721 272
43.00732 275
43.02743 272
43.04755 264
43.06766 267
43.08777 258
43.10789 257
43.128 245
43.14812 272
43.16823 260
43.18834 256
43.20846 259
43.22857 267
43.24868 254
43.2688 262
43.28891 257
43.30902 273
43.32914 261
43.34925 250
43.36937 222
43.38948 263
43.40959 257
43.42971 258
43.44982 214
43.46993 254
43.49005 258
43.51016 244
43.53028 272
43.55039 261
43.5705 255
43.59062 265
43.61073 263
43.63084 253
43.65096 239
43.67107 286
43.69119 264
43.7113 257
43.73141 265
43.75153 269
43.77164 247
43.79175 229
43.81187 235
43.83198 245
43.85209 280
43.87221 244
43.89232 242
43.91244 239
43.93255 249
43.95266 250
43.97278 273
43.99289 239
44.013 245
44.03312 242
44.05323 262
44.07335 237
44.09346 253
44.11357 256
44.13369 253
44.1538 234
44.17391 239
44.19403 253
44.21414 240
44.23426 274
44.25437 249
44.27448 232
44.2946 253
44.31471 272
44.33482 240
44.35494 253
44.37505 251
44.39516 250
44.41528 227
44.43539 270
44.45551 254
44.47562 249
44.49573 248
44.51585 251
44.53596 246
44.55607 258
44.57619 267
44.5963 262
44.61642 268
44.63653 260
44.65664 272
44.67676 243
44.69687 266
44.71698 257
44.7371 252
44.75721 258
44.77732 248
44.79744 234
44.81755 280
44.83767 276
44.85778 269
44.87789 229
44.89801 237
44.91812 262
44.93823 266
44.95835 247
44.97846 269
44.99858 284
45.01869 276
45.0388 261
45.05892 280
45.07903 288
45.09914 273
45.11926 269
45.13937 250
45.15949 277
45.1796 269
45.19971 297
45.21983 291
45.23994 290
45.26005 300
45.28017 289
45.30028 281
45.32039 285
45.34051 342
45.36062 294
45.38074 299
45.40085 342
45.42096 325
45.44108 323
45.46119 356
45.4813 294
45.50142 362
45.52153 381
45.54165 389
45.56176 410
45.58187 408
45.60199 456
45.6221 565
45.64221 642
45.66233 692
45.68244 794
45.70256 944
45.72267 1032
45.74278 1004
45.7629 1062
45.78301 814
45.80312 713
45.82324 697
45.84335 668
45.86346 661
45.88358 597
45.90369 499
45.92381 389
45.94392 352
45.96403 306
45.98415 294
46.00426 299
46.02437 295
46.04449 277
46.0646 269
46.08472 297
46.10483 278
46.12494 308
46.14506 277
46.16517 293
46.18528 265
46.2054 258
46.22551 277
46.24563 271
46.26574 273
46.28585 240
46.30597 265
46.32608 267
46.34619 286
46.36631 268
46.38642 275
46.40653 239
46.42665 262
46.44676 273
46.46688 258
46.48699 252
46.5071 252
46.52722 268
46.54733 270
46.56744 241
46.58756 282
46.60767 292
46.62779 264
46.6479 253
46.66801 287
46.68813 264
46.70824 294
46.72835 273
46.74847 291
46.76858 266
46.78869 288
46.80881 234
46.82892 223
46.84904 254
46.86915 260
46.88926 242
46.90938 256
46.92949 251
46.9496 267
46.96972 242
46.98983 264
47.00995 260
47.03006 254
47.05017 236
47.07029 229
47.0904 253
47.11051 288
47.13063 234
47.15074 280
47.17086 238
47.19097 248
47.21108 243
47.2312 230
47.25131 277
47.27142 227
47.29154 217
47.31165 248
47.33176 260
47.35188 272
47.37199 276
47.39211 239
47.41222 269
47.43233 283
47.45245 274
47.47256 249
47.49267 279
47.51279 259
47.5329 269
47.55302 269
47.57313 241
47.59324 246
47.61336 262
47.63347 258
47.65358 269
47.6737 263
47.69381 250
47.71393 279
47.73404 274
47.75415 290
47.77427 272
47.79438 254
47.81449 259
47.83461 280
47.85472 273
47.87483 284
47.89495 260
47.91506 251
47.93518 266
47.95529 249
47.9754 253
47.99552 267
48.01563 254
48.03574 249
48.05586 271
48.07597 294
48.09609 258
48.1162 263
48.13631 263
48.15643 277
48.17654 260
48.19665 266
48.21677 248
48.23688 261
48.257 263
48.27711 281
48.29722 255
48.31734 276
48.33745 245
48.35756 252
48.37768 236
48.39779 246
48.4179 256
48.43802 259
48.45813 242
48.47825 262
48.49836 246
48.51847 268
48.53859 288
48.5587 228
48.57881 242
48.59893 279
48.61904 240
48.63916 240
48.65927 275
48.67938 260
48.6995 251
48.71961 257
48.73972 253
48.75984 272
48.77995 262
48.80006 233
48.82018 279
48.84029 272
48.86041 273
48.88052 291
48.90063 296
48.92075 255
48.94086 291
48.96097 247
48.98109 279
49.0012 309
49.02132 267
49.04143 319
49.06154 277
49.08166 302
49.10177 238
49.12188 291
49.142 273
49.16211 268
49.18223 278
49.20234 290
49.22245 257
49.24257 268
49.26268 262
49.28279 266
49.30291 250
49.32302 288
49.34313 271
49.36325 302
49.38336 296
49.40348 307
49.42359 285
49.4437 306
49.46382 303
49.48393 308
49.50404 284
49.52416 318
49.54427 332
49.56439 281
49.5845 306
49.60461 314
49.62473 319
49.64484 325
49.66495 339
49.68507 344
49.70518 307
49.7253 338
49.74541 364
49.76552 366
49.78564 382
49.80575 437
49.82586 452
49.84598 471
49.86609 552
49.8862 622
49.90632 694
49.92643 770
49.94655 980
49.96666 1204
49.98677 1486
50.00689 1824
50.027 2168
50.04711 2544
50.06723 2849
50.08734 2893
50.10746 2712
50.12757 2347
50.14768 1925
50.1678 1641
50.18791 1549
50.20802 1674
50.22814 1516
50.24825 1243
50.26837 1035
50.28848 667
50.30859 544
50.32871 418
50.34882 400
50.36893 347
50.38905 386
50.40916 357
50.42927 370
50.44939 322
50.4695 346
50.48962 322
50.50973 361
50.52984 345
50.54996 318
50.57007 362
50.59018 302
50.6103 336
50.63041 324
50.65053 324
50.67064 307
50.69075 306
50.71087 337
50.73098 319
50.75109 310
50.77121 274
50.79132 294
50.81143 253
50.83155 305
50.85166 296
50.87178 258
50.89189 280
50.912 293
50.93212 278
50.95223 278
50.97234 255
50.99246 270
51.01257 278
51.03269 263
51.0528 286
51.07291 282
51.09303 260
51.11314 275
51.13325 284
51.15337 270
51.17348 258
51.1936 260
51.21371 244
51.23382 260
51.25394 240
51.27405 238
51.29416 255
51.31428 253
51.33439 270
51.3545 236
51.37462 251
51.39473 253
51.41485 249
51.43496 241
51.45507 230
51.47519 241
51.4953 258
51.51541 291
51.53553 247
51.55564 241
51.57576 229
51.59587 251
51.61598 271
51.6361 238
51.65621 270
51.67632 225
51.69644 250
51.71655 255
51.73667 223
51.75678 244
51.77689 228
51.79701 248
51.81712 223
51.83723 233
51.85735 245
51.87746 254
51.89757 254
51.91769 228
51.9378 258
51.95792 202
51.97803 229
51.99814 219
52.01826 225
52.03837 248
52.05848 256
52.0786 236
52.09871 246
52.11883 241
52.13894 238
52.15905 233
52.17917 264
52.19928 252
52.21939 252
52.23951 261
52.25962 267
52.27974 229
52.29985 232
52.31996 248
52.34008 246
52.36019 261
52.3803 255
52.40042 246
52.42053 265
52.44064 266
52.46076 233
52.48087 251
52.50099 263
52.5211 247
52.54121 243
52.56133 252
52.58144 251
52.60155 247
52.62167 212
52.64178 255
52.6619 257
52.68201 257
52.70212 249
52.72224 233
52.74235 239
52.76246 266
52.78258 257
52.80269 241
52.8228 249
52.84292 237
52.86303 249
52.88315 243
52.90326 267
52.92337 229
52.94349 269
52.9636 248
52.98371 275
53.00383 249
53.02394 251
53.04406 263
53.06417 257
53.08428 270
53.1044 290
53.12451 252
53.14462 288
53.16474 294
53.18485 293
53.20497 307
53.22508 302
53.24519 275
53.26531 288
53.28542 282
53.30553 298
53.32565 309
53.34576 276
53.36587 336
53.38599 282
53.4061 306
53.42622 277
53.44633 271
53.46644 284
53.48656 312
53.50667 315
53.52678 303
53.5469 288
53.56701 309
53.58713 297
53.60724 284
53.62735 276
53.64747 304
53.66758 301
53.68769 309
53.70781 309
53.72792 305
53.74804 294
53.76815 298
53.78826 312
53.80838 300
53.82849 273
53.8486 301
53.86872 313
53.88883 302
53.90894 341
53.92906 314
53.94917 297
53.96929 292
53.9894 311
54.00951 306
54.02963 321
54.04974 318
54.06985 341
54.08997 323
54.11008 305
54.1302 316
54.15031 334
54.17042 329
54.19054 340
54.21065 321
54.23076 327
54.25088 317
54.27099 286
54.29111 288
54.31122 325
54.33133 327
54.35145 322
54.37156 326
54.39167 323
54.41179 321
54.4319 334
54.45201 383
54.47213 316
54.49224 378
54.51236 330
54.53247 328
54.55258 355
54.5727 371
54.59281 385
54.61292 399
54.63304 437
54.65315 446
54.67327 526
54.69338 554
54.71349 640
54.73361 753
54.75372 796
54.77383 1040
54.79395 961
54.81406 999
54.83417 996
54.85429 915
54.8744 815
54.89452 722
54.91463 712
54.93474 731
54.95486 680
54.97497 667
54.99508 611
55.0152 529
55.03531 506
55.05543 410
55.07554 418
55.09565 390
55.11577 370
55.13588 469
55.15599 472
55.17611 480
55.19622 544
55.21634 569
55.23645 618
55.25656 668
55.27668 591
55.29679 604
55.3169 523
55.33702 505
55.35713 464
55.37724 431
55.39736 489
55.41747 467
55.43759 398
55.4577 444
55.47781 358
55.49793 337
55.51804 294
55.53815 324
55.55827 302
55.57838 303
55.5985 296
55.61861 295
55.63872 287
55.65884 306
55.67895 275
55.69906 287
55.71918 318
55.73929 277
55.75941 257
55.77952 284
55.79963 289
55.81975 295
55.83986 278
55.85997 285
55.88009 271
55.9002 281
55.92031 267
55.94043 248
55.96054 249
55.98066 248
56.00077 274
56.02088 257
56.041 264
56.06111 284
56.08122 277
56.10134 289
56.12145 275
56.14157 263
56.16168 275
56.18179 256
56.20191 266
56.22202 282
56.24213 286
56.26225 260
56.28236 261
56.30248 277
56.32259 261
56.3427 235
56.36282 255
56.38293 267
56.40304 262
56.42316 261
56.44327 258
56.46338 271
56.4835 281
56.50361 266
56.52373 282
56.54384 254
56.56395 241
56.58407 264
56.60418 246
56.62429 269
56.64441 248
56.66452 268
56.68464 278
56.70475 260
56.72486 257
56.74498 256
56.76509 247
56.7852 258
56.80532 265
56.82543 278
56.84554 261
56.86566 252
56.88577 272
56.90589 260
56.926 247
56.94611 252
56.96623 276
56.98634 252
57.00645 277
57.02657 238
57.04668 256
57.0668 264
57.08691 274
57.10702 306
57.12714 259
57.14725 266
57.16736 279
57.18748 293
57.20759 301
57.22771 292
57.24782 277
57.26793 266
57.28805 263
57.30816 269
57.32827 274
57.34839 292
57.3685 248
57.38861 271
57.40873 259
57.42884 248
57.44896 259
57.46907 241
57.48918 244
57.5093 261
57.52941 258
57.54952 236
57.56964 273
57.58975 258
57.60987 244
57.62998 281
57.65009 261
57.67021 255
57.69032 272
57.71043 248
57.73055 262
57.75066 251
57.77078 271
57.79089 251
57.811 258
57.83112 232
57.85123 275
57.87134 276
57.89146 260
57.91157 290
57.93168 262
57.9518 261
57.97191 282
57.99203 233
58.01214 243
58.03225 243
58.05237 270
58.07248 242
58.09259 257
58.11271 246
58.13282 266
58.15294 242
58.17305 267
58.19316 262
58.21328 244
58.23339 244
58.2535 231
58.27362 222
58.29373 265
58.31385 231
58.33396 269
58.35407 252
58.37419 214
58.3943 237
58.41441 260
58.43453 240
58.45464 236
58.47475 256
58.49487 217
58.51498 258
58.5351 253
58.55521 243
58.57532 247
58.59544 257
58.61555 233
58.63566 249
58.65578 245
58.67589 258
58.69601 247
58.71612 244
58.73623 256
58.75635 231
58.77646 250
58.79657 239
58.81669 243
58.8368 234
58.85691 279
58.87703 256
58.89714 267
58.91726 285
58.93737 269
58.95748 284
58.9776 268
58.99771 255
59.01782 271
59.03794 243
59.05805 255
59.07817 270
59.09828 273
59.11839 281
59.13851 262
59.15862 277
59.17873 233
59.19885 251
59.21896 274
59.23908 273
59.25919 275
59.2793 303
59.29942 308
59.31953 280
59.33964 272
59.35976 288
59.37987 275
59.39998 297
59.4201 278
59.44021 311
59.46033 279
59.48044 322
59.50055 337
59.52067 314
59.54078 362
59.56089 354
59.58101 352
59.60112 356
59.62124 354
59.64135 408
59.66146 482
59.68158 506
59.70169 535
59.7218 620
59.74192 689
59.76203 838
59.78215 972
59.80226 1164
59.82237 1395
59.84249 1662
59.8626 1814
59.88271 1908
59.90283 1911
59.92294 1675
59.94305 1441
59.96317 1237
59.98328 1167
60.0034 1127
60.02351 1069
60.04362 1067
60.06374 1025
60.08385 942
60.10396 826
60.12408 612
60.14419 506
60.16431 381
60.18442 393
60.20453 304
60.22465 350
60.24476 297
60.26487 284
60.28499 280
60.3051 275
60.32522 281
60.34533 275
60.36544 262
60.38556 211
60.40567 291
60.42578 267
60.4459 241
60.46601 273
60.48612 259
60.50624 274
60.52635 274
60.54647 250
60.56658 246
60.58669 242
60.60681 260
60.62692 235
60.64703 265
60.66715 254
60.68726 252
60.70738 244
60.72749 263
60.7476 227
60.76772 289
60.78783 262
60.80794 272
60.82806 257
60.84817 247
60.86828 264
60.8884 244
60.90851 227
60.92863 251
60.94874 258
60.96885 220
60.98897 256
61.00908 245
61.02919 229
61.04931 237
61.06942 251
61.08954 225
61.10965 235
61.12976 246
61.14988 225
61.16999 244
61.1901 260
61.21022 260
61.23033 255
61.25045 228
61.27056 262
61.29067 243
61.31079 234
61.3309 264
61.35101 251
61.37113 255
61.39124 248
61.41135 247
61.43147 255
61.45158 240
61.4717 274
61.49181 243
61.51192 264
61.53204 274
61.55215 259
61.57226 282
61.59238 279
61.61249 274
61.63261 288
61.65272 260
61.67283 270
61.69295 260
61.71306 287
61.73317 277
61.75329 288
61.7734 280
61.79352 280
61.81363 310
61.83374 267
61.85386 258
61.87397 260
61.89408 286
61.9142 282
61.93431 318
61.95442 302
61.97454 312
61.99465 297
62.01477 286
62.03488 291
62.05499 284
62.07511 320
62.09522 327
62.11533 310
62.13545 363
62.15556 365
62.17568 362
62.19579 362
62.2159 374
62.23602 368
62.25613 339
62.27624 358
62.29636 350
62.31647 349
62.33659 350
62.3567 325
62.37681 322
62.39693 308
62.41704 324
62.43715 318
62.45727 296
62.47738 284
62.49749 324
62.51761 303
62.53772 318
62.55784 291
62.57795 263
62.59806 281
62.61818 277
62.63829 267
62.6584 265
62.67852 261
62.69863 285
62.71875 262
62.73886 203
62.75897 283
62.77909 258
62.7992 263
62.81931 248
62.83943 241
62.85954 261
62.87965 254
62.89977 245
62.91988 276
62.94 269
62.96011 251
62.98022 284
63.00034 269
63.02045 263
63.04056 213
63.06068 235
63.08079 255
63.10091 242
63.12102 288
63.14113 250
63.16125 234
63.18136 255
63.20147 241
63.22159 251
63.2417 268
63.26182 255
63.28193 257
63.30204 269
63.32216 278
63.34227 252
63.36238 261
63.3825 273
63.40261 258
63.42272 248
63.44284 234
63.46295 255
63.48307 251
63.50318 244
63.52329 247
63.54341 269
63.56352 289
63.58363 284
63.60375 249
63.62386 252
63.64398 282
63.66409 302
63.6842 294
63.70432 274
63.72443 279
63.74454 305
63.76466 298
63.78477 314
63.80489 331
63.825 349
63.84511 349
63.86523 395
63.88534 450
63.90545 477
63.92557 500
63.94568 527
63.96579 545
63.98591 565
64.00602 562
64.02614 463
64.04625 441
64.06636 377
64.08648 426
64.10659 420
64.1267 414
64.14682 406
64.16693 427
64.18705 380
64.20716 359
64.22727 285
64.24739 266
64.2675 304
64.28761 261
64.30773 245
64.32784 272
64.34796 290
64.36807 287
64.38818 260
64.4083 258
64.42841 249
64.44852 256
64.46864 255
64.48875 264
64.50886 239
64.52898 246
64.54909 274
64.56921 242
64.58932 247
64.60943 230
64.62955 225
64.64966 235
64.66977 258
64.68989 241
64.71 236
64.73012 267
64.75023 232
64.77034 242
64.79046 222
64.81057 226
64.83068 241
64.8508 241
64.87091 243
64.89102 254
64.91114 225
64.93125 253
64.95137 239
64.97148 255
64.99159 222
65.01171 244
65.03182 234
65.05193 236
65.07205 224
65.09216 241
65.11228 237
65.13239 239
65.1525 227
65.17262 225
65.19273 223
65.21284 223
65.23296 263
65.25307 253
65.27319 242
65.2933 236
65.31341 244
65.33353 201
65.35364 210
65.37375 243
65.39387 194
65.41398 227
65.43409 235
65.45421 245
65.47432 222
65.49444 226
65.51455 251
65.53466 256
65.55478 243
65.57489 258
65.595 270
65.61512 241
65.63523 287
65.65535 277
65.67546 303
65.69557 305
65.71569 312
65.7358 310
65.75591 290
65.77603 260
65.79614 254
65.81626 284
65.83637 261
65.85648 257
65.8766 287
65.89671 289
65.91682 268
65.93694 271
65.95705 251
65.97716 254
65.99728 244
66.01739 217
66.03751 252
66.05762 237
66.07773 252
66.09785 237
66.11796 262
66.13807 227
66.15819 232
66.1783 231
66.19842 240
66.21853 227
66.23864 238
66.25876 243
66.27887 249
66.29898 212
66.3191 229
66.33921 227
66.35933 232
66.37944 227
66.39955 279
66.41967 244
66.43978 251
66.45989 252
66.48001 232
66.50012 242
66.52023 247
66.54035 231
66.56046 233
66.58058 233
66.60069 264
66.6208 256
66.64092 239
66.66103 215
66.68114 253
66.70126 218
66.72137 224
66.74149 211
66.7616 247
66.78171 247
66.80183 231
66.82194 225
66.84205 216
66.86217 229
66.88228 234
66.90239 228
66.92251 210
66.94262 213
66.96274 268
66.98285 223
67.00296 247
67.02308 225
67.04319 267
67.0633 242
67.08342 257
67.10353 260
67.12365 264
67.14376 247
67.16387 268
67.18399 281
67.2041 247
67.22421 285
67.24433 261
67.26444 267
67.28456 305
67.30467 272
67.32478 269
67.3449 275
67.36501 300
67.38512 340
67.40524 329
67.42535 324
67.44546 367
67.46558 391
67.48569 377
67.50581 455
67.52592 494
67.54603 570
67.56615 637
67.58626 757
67.60637 867
67.62649 1014
67.6466 1126
67.66672 1216
67.68683 1175
67.70694 1046
67.72706 974
67.74717 846
67.76728 763
67.7874 727
67.80751 761
67.82763 760
67.84774 782
67.86785 820
67.88797 876
67.90808 907
67.92819 827
67.94831 899
67.96842 904
67.98853 979
68.00865 1111
68.02876 1288
68.04888 1342
68.06899 1555
68.0891 1511
68.10922 1430
68.12933 1340
68.14944 1320
68.16956 1211
68.18967 1258
68.20979 1375
68.2299 1333
68.25001 1463
68.27013 1371
68.29024 1194
68.31035 1098
68.33047 894
68.35058 791
68.3707 640
68.39081 647
68.41092 629
68.43104 652
68.45115 601
68.47126 547
68.49138 491
68.51149 438
68.5316 397
68.55172 325
68.57183 319
68.59195 268
68.61206 287
68.63217 295
68.65229 273
68.6724 249
68.69251 264
68.71263 265
68.73274 261
68.75286 247
68.77297 273
68.79308 246
68.8132 261
68.83331 281
68.85342 257
68.87354 234
68.89365 262
68.91376 223
68.93388 271
68.95399 252
68.97411 254
68.99422 238
69.01433 257
69.03445 272
69.05456 220
69.07467 245
69.09479 247
69.1149 252
69.13502 265
69.15513 232
69.17524 219
69.19536 259
69.21547 224
69.23558 237
69.2557 261
69.27581 215
69.29593 235
69.31604 213
69.33615 238
69.35627 228
69.37638 254
69.39649 250
69.41661 226
69.43672 240
69.45683 252
69.47695 224
69.49706 246
69.51718 249
69.53729 219
69.5574 239
69.57752 224
69.59763 220
69.61774 232
69.63786 250
69.65797 218
69.67809 257
69.6982 250
69.71831 253
69.73843 243
69.75854 246
69.77865 230
69.79877 233
69.81888 264
69.839 226
69.85911 241
69.87922 238
69.89934 271
69.91945 251
69.93956 224
69.95968 227
69.97979 244
69.9999 241
70.02002 232
70.04013 247
70.06025 222
70.08036 211
70.10047 240
70.12059 235
70.1407 209
70.16081 205
70.18093 218
70.20104 269
70.22116 256
70.24127 214
70.26138 233
70.2815 222
70.30161 267
70.32172 219
70.34184 210
70.36195 214
70.38207 233
70.40218 234
70.42229 219
70.44241 217
70.46252 197
70.48263 245
70.50275 235
70.52286 241
70.54297 198
70.56309 205
70.5832 247
70.60332 210
70.62343 219
70.64354 236
70.66366 245
70.68377 223
70.70388 208
70.724 211
70.74411 215
70.76423 224
70.78434 211
70.80445 242
70.82457 209
70.84468 220
70.86479 197
70.88491 207
70.90502 230
70.92513 222
70.94525 207
70.96536 217
70.98548 198
71.00559 216
71.0257 198
71.04582 233
71.06593 219
71.08604 226
71.10616 214
71.12627 242
71.14639 233
71.1665 216
71.18661 186
71.20673 205
71.22684 219
71.24695 218
71.26707 215
71.28718 201
71.3073 232
71.32741 205
71.34752 220
71.36764 233
71.38775 227
71.40786 198
71.42798 213
71.44809 225
71.4682 205
71.48832 230
71.50843 222
71.52855 237
71.54866 199
71.56877 239
71.58889 250
71.609 210
71.62911 229
71.64923 230
71.66934 188
71.68946 230
71.70957 212
71.72968 224
71.7498 240
71.76991 228
71.79002 228
71.81014 231
71.83025 220
71.85037 246
71.87048 236
71.89059 248
71.91071 192
71.93082 240
71.95093 219
71.97105 231
71.99116 242
72.01127 235
72.03139 258
72.0515 247
72.07162 246
72.09173 212
72.11184 235
72.13196 238
72.15207 238
72.17218 238
72.1923 234
72.21241 218
72.23253 241
72.25264 232
72.27275 239
72.29287 229
72.31298 249
72.33309 232
72.35321 212
72.37332 208
72.39344 210
72.41355 253
72.43366 255
72.45378 231
72.47389 225
72.494 200
72.51412 219
72.53423 243
72.55434 207
72.57446 230
72.59457 221
72.61469 204
72.6348 190
72.65491 224
72.67503 220
72.69514 202
72.71525 233
72.73537 242
72.75548 232
72.7756 186
72.79571 215
72.81582 205
72.83594 236
72.85605 232
72.87616 241
72.89628 216
72.91639 234
72.9365 220
72.95662 245
72.97673 233
72.99685 242
73.01696 241
73.03707 232
73.05719 244
73.0773 237
73.09741 237
73.11753 243
73.13764 258
73.15776 257
73.17787 253
73.19798 268
73.2181 276
73.23821 320
73.25832 322
73.27844 327
73.29855 368
73.31867 425
73.33878 477
73.35889 498
73.37901 529
73.39912 560
73.41923 547
73.43935 504
73.45946 451
73.47957 397
73.49969 399
73.5198 333
73.53992 357
73.56003 396
73.58014 386
73.60026 375
73.62037 416
73.64048 379
73.6606 378
73.68071 310
73.70083 303
73.72094 276
73.74105 234
73.76117 260
73.78128 244
73.80139 261
73.82151 240
73.84162 244
73.86174 220
73.88185 223
73.90196 221
73.92208 229
73.94219 233
73.9623 222
73.98242 216
74.00253 248
74.02264 255
74.04276 203
74.06287 211
74.08299 220
74.1031 246
74.12321 233
74.14333 188
74.16344 231
74.18355 216
74.20367 208
74.22378 211
74.2439 217
74.26401 205
74.28412 231
74.30424 232
74.32435 211
74.34446 231
74.36458 209
74.38469 232
74.40481 228
74.42492 214
74.44503 206
74.46515 199
74.48526 213
74.50537 233
74.52549 217
74.5456 215
74.56571 223
74.58583 227
74.60594 241
74.62606 252
74.64617 215
74.66628 196
74.6864 193
74.70651 213
74.72662 224
74.74674 208
74.76685 205
74.78697 255
74.80708 197
74.82719 238
74.84731 226
74.86742 223
74.88753 212
74.90765 209
74.92776 230
74.94787 227
74.96799 227
74.9881 239
75.00822 212
