3.00117 19507
3.02128 19035
3.0414 18381
3.06151 18511
3.08162 17413
3.10174 17178
3.12185 16534
3.14197 15912
3.16208 15756
3.18219 15160
3.20231 14957
3.22242 14416
3.24253 13669
3.26265 13686
3.28276 12971
3.30288 12767
3.32299 12245
3.3431 11784
3.36322 11444
3.38333 11102
3.40344 10663
3.42356 10199
3.44367 9999
3.46379 9751
3.4839 9194
3.50401 9175
3.52413 8533
3.54424 8321
3.56435 8133
3.58447 7693
3.60458 7502
3.62469 7180
3.64481 6783
3.66492 6543
3.68504 6428
3.70515 6199
3.72526 5744
3.74538 5535
3.76549 5394
3.7856 5167
3.80572 5103
3.82583 4745
3.84595 4435
3.86606 4462
3.88617 3936
3.90629 4144
3.9264 3711
3.94651 3456
3.96663 3536
3.98674 3377
4.00686 3262
4.02697 2991
4.04708 2823
4.0672 2850
4.08731 2702
4.10742 2544
4.12754 2460
4.14765 2359
4.16776 2298
4.18788 2178
4.20799 2045
4.22811 1968
4.24822 1824
4.26833 1960
4.28845 1763
4.30856 1727
4.32867 1653
4.34879 1567
4.3689 1615
4.38902 1526
4.40913 1478
4.42924 1362
4.44936 1347
4.46947 1348
4.48958 1388
4.5097 1286
4.52981 1173
4.54992 1147
4.57004 1273
4.59015 1140
4.61027 1137
4.63038 1098
4.65049 1057
4.67061 1029
4.69072 1088
4.71083 992
4.73095 933
4.75106 953
4.77118 967
4.79129 942
4.8114 878
4.83152 874
4.85163 847
4.87174 791
4.89186 842
4.91197 768
4.93209 766
4.9522 708
4.97231 700
4.99243 813
5.01254 713
5.03265 703
5.05277 696
5.07288 626
5.09299 631
5.11311 608
5.13322 624
5.15334 596
5.17345 585
5.19356 578
5.21368 503
5.23379 547
5.2539 512
5.27402 558
5.29413 477
5.31425 485
5.33436 482
5.35447 464
5.37459 396
5.3947 515
5.41481 453
5.43493 388
5.45504 467
5.47516 445
5.49527 425
5.51538 362
5.5355 414
5.55561 420
5.57572 387
5.59584 370
5.61595 365
5.63606 335
5.65618 339
5.67629 391
5.69641 359
5.71652 380
5.73663 320
5.75675 357
5.77686 315
5.79697 338
5.81709 294
5.8372 336
5.85732 321
5.87743 317
5.89754 289
5.91766 364
5.93777 315
5.95788 281
5.978 296
5.99811 306
6.01823 302
6.03834 312
6.05845 251
6.07857 303
6.09868 305
6.11879 280
6.13891 306
6.15902 295
6.17913 278
6.19925 240
6.21936 279
6.23948 283
6.25959 291
6.2797 292
6.29982 308
6.31993 302
6.34004 258
6.36016 248
6.38027 257
6.40039 277
6.4205 255
6.44061 255
6.46073 247
6.48084 271
6.50095 226
6.52107 267
6.54118 265
6.56129 246
6.58141 268
6.60152 277
6.62164 260
6.64175 271
6.66186 244
6.68198 240
6.70209 247
6.7222 267
6.74232 253
6.76243 254
6.78255 211
6.80266 267
6.82277 217
6.84289 237
6.863 252
6.88311 229
6.90323 220
6.92334 205
6.94346 221
6.96357 253
6.98368 247
7.0038 247
7.02391 254
7.04402 253
7.06414 238
7.08425 252
7.10436 229
7.12448 249
7.14459 256
7.16471 245
7.18482 269
7.20493 212
7.22505 244
7.24516 224
7.26527 241
7.28539 254
7.3055 229
7.32562 290
7.34573 222
7.36584 277
7.38596 289
7.40607 275
7.42618 277
7.4463 270
7.46641 246
7.48653 237
7.50664 245
7.52675 235
7.54687 271
7.56698 233
7.58709 257
7.60721 279
7.62732 283
7.64743 246
7.66755 249
7.68766 263
7.70778 247
7.72789 253
7.748 241
7.76812 260
7.78823 230
7.80834 235
7.82846 281
7.84857 228
7.86869 262
7.8888 257
7.90891 257
7.92903 260
7.94914 266
7.96925 242
7.98937 257
8.00948 267
8.0296 242
8.04971 281
8.06982 268
8.08994 289
8.11005 265
8.13016 262
8.15028 246
8.17039 238
8.1905 276
8.21062 239
8.23073 272
8.25085 250
8.27096 242
8.29107 259
8.31119 258
8.3313 252
8.35141 272
8.37153 265
8.39164 258
8.41176 248
8.43187 233
8.45198 264
8.4721 249
8.49221 277
8.51232 305
8.53244 242
8.55255 279
8.57266 263
8.59278 258
8.61289 301
8.63301 289
8.65312 264
8.67323 255
8.69335 272
8.71346 248
8.73357 264
8.75369 272
8.7738 286
8.79392 275
8.81403 271
8.83414 248
8.85426 254
8.87437 288
8.89448 279
8.9146 269
8.93471 265
8.95483 256
8.97494 277
8.99505 236
9.01517 258
9.03528 264
9.05539 241
9.07551 262
9.09562 278
9.11573 266
9.13585 233
9.15596 235
9.17608 235
9.19619 234
9.2163 237
9.23642 234
9.25653 257
9.27664 251
9.29676 298
9.31687 269
9.33699 222
9.3571 263
9.37721 261
9.39733 318
9.41744 279
9.43755 262
9.45767 272
9.47778 278
9.4979 264
9.51801 247
9.53812 281
9.55824 242
9.57835 257
9.59846 300
9.61858 264
9.63869 239
9.6588 265
9.67892 280
9.69903 238
9.71915 231
9.73926 281
9.75937 259
9.77949 269
9.7996 261
9.81971 285
9.83983 264
9.85994 274
9.88006 268
9.90017 270
9.92028 292
9.9404 296
9.96051 291
9.98062 257
10.00074 259
10.02085 249
10.04097 275
10.06108 263
10.08119 271
10.10131 250
10.12142 276
10.14153 269
10.16165 264
10.18176 282
10.20187 261
10.22199 267
10.2421 273
10.26222 271
10.28233 261
10.30244 282
10.32256 256
10.34267 275
10.36278 252
10.3829 282
10.40301 250
10.42313 266
10.44324 252
10.46335 272
10.48347 258
10.50358 256
10.52369 268
10.54381 251
10.56392 269
10.58403 253
10.60415 254
10.62426 280
10.64438 262
10.66449 269
10.6846 267
10.70472 295
10.72483 302
10.74494 262
10.76506 273
10.78517 250
10.80529 273
10.8254 255
10.84551 263
10.86563 274
10.88574 269
10.90585 236
10.92597 297
10.94608 303
10.9662 260
10.98631 268
11.00642 247
11.02654 250
11.04665 223
11.06676 261
11.08688 253
11.10699 252
11.1271 278
11.14722 259
11.16733 272
11.18745 278
11.20756 244
11.22767 263
11.24779 264
11.2679 244
11.28801 249
11.30813 277
11.32824 252
11.34836 268
11.36847 257
11.38858 253
11.4087 272
11.42881 270
11.44892 261
11.46904 301
11.48915 246
11.50927 280
11.52938 271
11.54949 246
11.56961 263
11.58972 255
11.60983 246
11.62995 302
11.65006 266
11.67017 268
11.69029 280
11.7104 290
11.73052 278
11.75063 310
11.77074 272
11.79086 286
11.81097 310
11.83108 305
11.8512 314
11.87131 273
11.89143 271
11.91154 314
11.93165 310
11.95177 353
11.97188 304
11.99199 300
12.01211 260
12.03222 334
12.05234 324
12.07245 347
12.09256 344
12.11268 372
12.13279 390
12.1529 392
12.17302 411
12.19313 385
12.21324 486
12.23336 503
12.25347 511
12.27359 540
12.2937 552
12.31381 545
12.33393 597
12.35404 531
12.37415 561
12.39427 503
12.41438 486
12.4345 441
12.45461 431
12.47472 390
12.49484 362
12.51495 335
12.53506 313
12.55518 314
12.57529 333
12.5954 308
12.61552 287
12.63563 282
12.65575 301
12.67586 256
12.69597 263
12.71609 250
12.7362 278
12.75631 259
12.77643 223
12.79654 251
12.81666 277
12.83677 277
12.85688 276
12.877 234
12.89711 244
12.91722 243
12.93734 252
12.95745 271
12.97757 269
12.99768 255
13.01779 263
13.03791 239
13.05802 270
13.07813 249
13.09825 227
13.11836 266
13.13847 238
13.15859 253
13.1787 263
13.19882 250
13.21893 259
13.23904 214
13.25916 247
13.27927 249
13.29938 276
13.3195 219
13.33961 220
13.35973 237
13.37984 225
13.39995 255
13.42007 253
13.44018 234
13.46029 253
13.48041 237
13.50052 237
13.52064 259
13.54075 278
13.56086 223
13.58098 270
13.60109 257
13.6212 233
13.64132 247
13.66143 221
13.68154 256
13.70166 243
13.72177 224
13.74189 249
13.762 214
13.78211 242
13.80223 253
13.82234 250
13.84245 264
13.86257 240
13.88268 248
13.9028 243
13.92291 254
13.94302 225
13.96314 235
13.98325 237
14.00336 212
14.02348 249
14.04359 217
14.06371 227
14.08382 233
14.10393 243
14.12405 212
14.14416 230
14.16427 244
14.18439 210
14.2045 213
14.22461 224
14.24473 219
14.26484 239
14.28496 242
14.30507 243
14.32518 234
14.3453 250
14.36541 233
14.38552 210
14.40564 223
14.42575 231
14.44587 212
14.46598 234
14.48609 241
14.50621 244
14.52632 238
14.54643 237
14.56655 220
14.58666 218
14.60677 239
14.62689 229
14.647 219
14.66712 236
14.68723 217
14.70734 230
14.72746 224
14.74757 237
14.76768 199
14.7878 234
14.80791 208
14.82803 212
14.84814 217
14.86825 221
14.88837 241
14.90848 227
14.92859 212
14.94871 235
14.96882 241
14.98894 234
15.00905 222
15.02916 243
15.04928 220
15.06939 238
15.0895 238
15.10962 227
15.12973 210
15.14984 251
15.16996 212
15.19007 219
15.21019 236
15.2303 206
15.25041 203
15.27053 213
15.29064 189
15.31075 265
15.33087 216
15.35098 219
15.3711 203
15.39121 224
15.41132 227
15.43144 234
15.45155 215
15.47166 206
15.49178 226
15.51189 250
15.53201 204
15.55212 202
15.57223 234
15.59235 243
15.61246 227
15.63257 217
15.65269 233
15.6728 203
15.69291 195
15.71303 228
15.73314 237
15.75326 189
15.77337 211
15.79348 205
15.8136 229
15.83371 241
15.85382 185
15.87394 217
15.89405 225
15.91417 221
15.93428 200
15.95439 219
15.97451 230
15.99462 220
16.01473 212
16.03485 211
16.05496 197
16.07508 228
16.09519 215
16.1153 200
16.13542 214
16.15553 215
16.17564 230
16.19576 228
16.21587 199
16.23598 221
16.2561 216
16.27621 234
16.29633 215
16.31644 201
16.33655 210
16.35667 231
16.37678 242
16.39689 199
16.41701 208
16.43712 207
16.45724 201
16.47735 203
16.49746 225
16.51758 241
16.53769 224
16.5578 193
16.57792 195
16.59803 187
16.61814 209
16.63826 210
16.65837 226
16.67849 221
16.6986 192
16.71871 221
16.73883 224
16.75894 230
16.77905 205
16.79917 205
16.81928 224
16.8394 211
16.85951 212
16.87962 206
16.89974 223
16.91985 209
16.93996 231
16.96008 231
16.98019 197
17.00031 223
17.02042 214
17.04053 213
17.06065 206
17.08076 230
17.10087 196
17.12099 184
17.1411 221
17.16121 204
17.18133 221
17.20144 211
17.22156 235
17.24167 204
17.26178 200
17.2819 178
17.30201 184
17.32212 221
17.34224 193
17.36235 203
17.38247 197
17.40258 221
17.42269 223
17.44281 212
17.46292 222
17.48303 228
17.50315 216
17.52326 213
17.54338 213
17.56349 205
17.5836 213
17.60372 205
17.62383 224
17.64394 211
17.66406 248
17.68417 226
17.70428 200
17.7244 235
17.74451 236
17.76463 247
17.78474 218
17.80485 232
17.82497 235
17.84508 223
17.86519 206
17.88531 259
17.90542 246
17.92554 251
17.94565 221
17.96576 223
17.98588 242
18.00599 217
18.0261 208
18.04622 225
18.06633 221
18.08645 225
18.10656 204
18.12667 223
18.14679 208
18.1669 236
18.18701 222
18.20713 208
18.22724 211
18.24735 241
18.26747 206
18.28758 204
18.3077 221
18.32781 219
18.34792 215
18.36804 222
18.38815 211
18.40826 207
18.42838 232
18.44849 221
18.46861 194
18.48872 216
18.50883 220
18.52895 230
18.54906 231
18.56917 211
18.58929 192
18.6094 219
18.62951 221
18.64963 193
18.66974 194
18.68986 220
18.70997 230
18.73008 217
18.7502 235
18.77031 195
18.79042 271
18.81054 225
18.83065 199
18.85077 211
18.87088 219
18.89099 227
18.91111 220
18.93122 229
18.95133 215
18.97145 213
18.99156 221
19.01168 216
19.03179 232
19.0519 251
19.07202 217
19.09213 201
19.11224 231
19.13236 218
19.15247 215
19.17258 208
19.1927 214
19.21281 220
19.23293 202
19.25304 222
19.27315 236
19.29327 216
19.31338 247
19.33349 176
19.35361 248
19.37372 223
19.39384 223
19.41395 218
19.43406 222
19.45418 245
19.47429 229
19.4944 254
19.51452 225
19.53463 276
19.55475 246
19.57486 242
19.59497 265
19.61509 225
19.6352 261
19.65531 283
19.67543 296
19.69554 321
19.71565 291
19.73577 306
19.75588 345
19.776 344
19.79611 345
19.81622 412
19.83634 362
19.85645 410
19.87656 420
19.89668 421
19.91679 401
19.93691 402
19.95702 431
19.97713 425
19.99725 404
20.01736 444
20.03747 393
20.05759 411
20.0777 379
20.09782 420
20.11793 427
20.13804 389
20.15816 427
20.17827 366
20.19838 428
20.2185 445
20.23861 453
20.25872 400
20.27884 429
20.29895 463
20.31907 468
20.33918 437
20.35929 421
20.37941 444
20.39952 426
20.41963 421
20.43975 524
20.45986 436
20.47998 451
20.50009 499
20.5202 506
20.54032 469
20.56043 499
20.58054 552
20.60066 508
20.62077 590
20.64088 623
20.661 709
20.68111 791
20.70123 1002
20.72134 1370
20.74145 1925
20.76157 2762
20.78168 3998
20.80179 5587
20.82191 7157
20.84202 8031
20.86214 7640
20.88225 6437
20.90236 4572
20.92248 3116
20.94259 1991
20.9627 1154
20.98282 778
21.00293 686
21.02305 611
21.04316 631
21.06327 581
21.08339 567
21.1035 546
21.12361 501
21.14373 525
21.16384 509
21.18395 497
21.20407 491
21.22418 441
21.2443 474
21.26441 431
21.28452 437
21.30464 465
21.32475 471
21.34486 503
21.36498 444
21.38509 452
21.40521 427
21.42532 441
21.44543 373
21.46555 395
21.48566 392
21.50577 378
21.52589 382
21.546 347
21.56612 392
21.58623 312
21.60634 370
21.62646 374
21.64657 336
21.66668 348
21.6868 340
21.70691 360
21.72702 302
21.74714 366
21.76725 322
21.78737 338
21.80748 314
21.82759 339
21.84771 344
21.86782 309
21.88793 318
21.90805 290
21.92816 341
21.94828 297
21.96839 321
21.9885 309
22.00862 306
22.02873 297
22.04884 344
22.06896 333
22.08907 312
22.10919 297
22.1293 307
22.14941 301
22.16953 293
22.18964 301
22.20975 312
22.22987 318
22.24998 309
22.27009 265
22.29021 290
22.31032 292
22.33044 305
22.35055 299
22.37066 295
22.39078 312
22.41089 279
22.431 297
22.45112 278
22.47123 294
22.49135 274
22.51146 302
22.53157 284
22.55169 291
22.5718 265
22.59191 298
22.61203 289
22.63214 261
22.65225 283
22.67237 299
22.69248 272
22.7126 271
22.73271 274
22.75282 264
22.77294 269
22.79305 267
22.81316 279
22.83328 287
22.85339 281
22.87351 281
22.89362 269
22.91373 293
22.93385 306
22.95396 289
22.97407 272
22.99419 261
23.0143 275
23.03442 278
23.05453 273
23.07464 279
23.09476 324
23.11487 263
23.13498 274
23.1551 310
23.17521 308
23.19532 299
23.21544 306
23.23555 335
23.25567 266
23.27578 276
23.29589 291
23.31601 284
23.33612 252
23.35623 252
23.37635 263
23.39646 281
23.41658 301
23.43669 243
23.4568 272
23.47692 251
23.49703 271
23.51714 299
23.53726 294
23.55737 296
23.57749 288
23.5976 266
23.61771 290
23.63783 299
23.65794 285
23.67805 301
23.69817 284
23.71828 299
23.73839 265
23.75851 288
23.77862 274
23.79874 310
23.81885 293
23.83896 317
23.85908 297
23.87919 292
23.8993 335
23.91942 352
23.93953 357
23.95965 324
23.97976 388
23.99987 371
24.01999 376
24.0401 353
24.06021 358
24.08033 321
24.10044 335
24.12056 288
24.14067 279
24.16078 274
24.1809 293
24.20101 278
24.22112 287
24.24124 334
24.26135 312
24.28146 310
24.30158 299
24.32169 280
24.34181 273
24.36192 291
24.38203 359
24.40215 310
24.42226 293
24.44237 338
24.46249 284
24.4826 304
24.50272 307
24.52283 345
24.54294 289
24.56306 332
24.58317 329
24.60328 319
24.6234 343
24.64351 352
24.66362 353
24.68374 392
24.70385 368
24.72397 407
24.74408 439
24.76419 408
24.78431 435
24.80442 467
24.82453 491
24.84465 430
24.86476 520
24.88488 460
24.90499 479
24.9251 472
24.94522 414
24.96533 400
24.98544 404
25.00556 393
25.02567 353
25.04579 332
25.0659 335
25.08601 329
25.10613 300
25.12624 336
25.14635 332
25.16647 319
25.18658 312
25.20669 339
25.22681 408
25.24692 378
25.26704 377
25.28715 372
25.30726 372
25.32738 350
25.34749 347
25.3676 340
25.38772 322
25.40783 317
25.42795 321
25.44806 342
25.46817 310
25.48829 341
25.5084 322
25.52851 324
25.54863 358
25.56874 303
25.58886 343
25.60897 360
25.62908 402
25.6492 399
25.66931 420
25.68942 432
25.70954 427
25.72965 457
25.74976 463
25.76988 427
25.78999 447
25.81011 469
25.83022 477
25.85033 497
25.87045 445
25.89056 449
25.91067 496
25.93079 484
25.9509 461
25.97102 503
25.99113 462
26.01124 514
26.03136 503
26.05147 517
26.07158 567
26.0917 538
26.11181 563
26.13193 625
26.15204 683
26.17215 650
26.19227 678
26.21238 791
26.23249 838
26.25261 891
26.27272 972
26.29283 1014
26.31295 1098
26.33306 1079
26.35318 1224
26.37329 1348
26.3934 1564
26.41352 1903
26.43363 2313
26.45374 2928
26.47386 3945
26.49397 5418
26.51409 7934
26.5342 11531
26.55431 16720
26.57443 23799
26.59454 31236
26.61465 36287
26.63477 35630
26.65488 30031
26.67499 22897
26.69511 18151
26.71522 12811
26.73534 7347
26.75545 3807
26.77556 2488
26.79568 1794
26.81579 1642
26.8359 1394
26.85602 1267
26.87613 1242
26.89625 1116
26.91636 1059
26.93647 924
26.95659 896
26.9767 770
26.99681 725
27.01693 570
27.03704 644
27.05716 620
27.07727 608
27.09738 514
27.1175 541
27.13761 499
27.15772 520
27.17784 482
27.19795 458
27.21806 441
27.23818 489
27.25829 428
27.27841 423
27.29852 426
27.31863 453
27.33875 477
27.35886 442
27.37897 463
27.39909 475
27.4192 458
27.43932 480
27.45943 490
27.47954 455
27.49966 456
27.51977 424
27.53988 408
27.56 373
27.58011 403
27.60023 370
27.62034 374
27.64045 344
27.66057 346
27.68068 355
27.70079 388
27.72091 355
27.74102 365
27.76113 375
27.78125 340
27.80136 337
27.82148 327
27.84159 347
27.8617 348
27.88182 365
27.90193 343
27.92204 354
27.94216 340
27.96227 321
27.98239 300
28.0025 326
28.02261 318
28.04273 317
28.06284 323
28.08295 297
28.10307 303
28.12318 303
28.1433 332
28.16341 343
28.18352 309
28.20364 335
28.22375 268
28.24386 337
28.26398 297
28.28409 295
28.3042 254
28.32432 306
28.34443 294
28.36455 309
28.38466 307
28.40477 285
28.42489 267
28.445 309
28.46511 277
28.48523 262
28.50534 276
28.52546 298
28.54557 272
28.56568 271
28.5858 309
28.60591 305
28.62602 338
28.64614 279
28.66625 296
28.68636 298
28.70648 278
28.72659 248
28.74671 276
28.76682 290
28.78693 285
28.80705 303
28.82716 285
28.84727 268
28.86739 283
28.8875 266
28.90762 269
28.92773 251
28.94784 306
28.96796 285
28.98807 274
29.00818 241
29.0283 265
29.04841 304
29.06853 272
29.08864 272
29.10875 289
29.12887 249
29.14898 289
29.16909 287
29.18921 281
29.20932 271
29.22943 301
29.24955 246
29.26966 254
29.28978 253
29.30989 272
29.33 300
29.35012 235
29.37023 266
29.39034 279
29.41046 287
29.43057 282
29.45069 281
29.4708 266
29.49091 268
29.51103 260
29.53114 265
29.55125 283
29.57137 275
29.59148 306
29.6116 248
29.63171 278
29.65182 268
29.67194 246
29.69205 270
29.71216 252
29.73228 256
29.75239 263
29.7725 277
29.79262 246
29.81273 262
29.83285 231
29.85296 236
29.87307 267
29.89319 273
29.9133 263
29.93341 260
29.95353 270
29.97364 289
29.99376 262
30.01387 272
30.03398 247
30.0541 269
30.07421 280
30.09432 256
30.11444 250
30.13455 284
30.15467 259
30.17478 290
30.19489 273
30.21501 253
30.23512 272
30.25523 279
30.27535 283
30.29546 245
30.31557 246
30.33569 252
30.3558 237
30.37592 278
30.39603 262
30.41614 257
30.43626 282
30.45637 263
30.47648 274
30.4966 268
30.51671 241
30.53683 244
30.55694 268
30.57705 265
30.59717 242
30.61728 265
30.63739 242
30.65751 265
30.67762 250
30.69773 251
30.71785 272
30.73796 267
30.75808 260
30.77819 240
30.7983 268
30.81842 255
30.83853 264
30.85864 267
30.87876 236
30.89887 251
30.91899 274
30.9391 231
30.95921 267
30.97933 272
30.99944 242
31.01955 207
31.03967 236
31.05978 235
31.0799 235
31.10001 240
31.12012 265
31.14024 237
31.16035 260
31.18046 220
31.20058 228
31.22069 228
31.2408 223
31.26092 246
31.28103 231
31.30115 238
31.32126 213
31.34137 234
31.36149 214
31.3816 200
31.40171 206
31.42183 218
31.44194 237
31.46206 234
31.48217 235
31.50228 215
31.5224 211
31.54251 229
31.56262 250
31.58274 215
31.60285 206
31.62297 243
31.64308 223
31.66319 241
31.68331 220
31.70342 209
31.72353 218
31.74365 223
31.76376 239
31.78387 237
31.80399 238
31.8241 233
31.84422 227
31.86433 231
31.88444 215
31.90456 233
31.92467 217
31.94478 241
31.9649 243
31.98501 194
32.00513 224
32.02524 211
32.04535 225
32.06547 244
32.08558 225
32.10569 236
32.12581 234
32.14592 243
32.16604 227
32.18615 205
32.20626 218
32.22638 244
32.24649 215
32.2666 225
32.28672 209
32.30683 242
32.32694 222
32.34706 207
32.36717 215
32.38729 234
32.4074 233
32.42751 237
32.44763 248
32.46774 238
32.48785 274
32.50797 228
32.52808 245
32.5482 260
32.56831 264
32.58842 246
32.60854 256
32.62865 246
32.64876 249
32.66888 241
32.68899 233
32.7091 219
32.72922 239
32.74933 224
32.76945 232
32.78956 211
32.80967 245
32.82979 272
32.8499 239
32.87001 266
32.89013 238
32.91024 239
32.93036 279
32.95047 270
32.97058 223
32.9907 265
33.01081 260
33.03092 291
33.05104 272
33.07115 320
33.09127 241
33.11138 282
33.13149 270
33.15161 265
33.17172 271
33.19183 238
33.21195 295
33.23206 274
33.25217 265
33.27229 271
33.2924 265
33.31252 270
33.33263 271
33.35274 280
33.37286 269
33.39297 284
33.41308 258
33.4332 250
33.45331 249
33.47343 267
33.49354 284
33.51365 251
33.53377 245
33.55388 234
33.57399 220
33.59411 223
33.61422 237
33.63434 217
33.65445 240
33.67456 254
33.69468 236
33.71479 270
33.7349 243
33.75502 247
33.77513 224
33.79524 227
33.81536 230
33.83547 212
33.85559 248
33.8757 203
33.89581 234
33.91593 235
33.93604 194
33.95615 225
33.97627 216
33.99638 222
34.0165 209
34.03661 218
34.05672 206
34.07684 201
34.09695 211
34.11706 227
34.13718 208
34.15729 218
34.17741 241
34.19752 241
34.21763 216
34.23775 235
34.25786 229
34.27797 231
34.29809 200
34.3182 231
34.33831 221
34.35843 224
34.37854 217
34.39866 226
34.41877 221
34.43888 256
34.459 228
34.47911 227
34.49922 230
34.51934 235
34.53945 224
34.55957 263
34.57968 224
34.59979 247
34.61991 265
34.64002 264
34.66013 253
34.68025 268
34.70036 262
34.72047 271
34.74059 281
34.7607 270
34.78082 269
34.80093 311
34.82104 284
34.84116 283
34.86127 345
34.88138 298
34.9015 356
34.92161 334
34.94173 331
34.96184 324
34.98195 343
35.00207 298
35.02218 297
35.04229 339
35.06241 320
35.08252 326
35.10264 321
35.12275 277
35.14286 294
35.16298 276
35.18309 267
35.2032 275
35.22332 274
35.24343 310
35.26354 302
35.28366 295
35.30377 288
35.32389 272
35.344 273
35.36411 291
35.38423 277
35.40434 305
35.42445 339
35.44457 275
35.46468 342
35.4848 352
35.50491 346
35.52502 383
35.54514 352
35.56525 351
35.58536 349
35.60548 326
35.62559 320
35.64571 311
35.66582 320
35.68593 362
35.70605 319
35.72616 342
35.74627 358
35.76639 345
35.7865 334
35.80661 369
35.82673 327
35.84684 322
35.86696 304
35.88707 330
35.90718 321
35.9273 323
35.94741 336
35.96752 338
35.98764 340
36.00775 276
36.02787 290
36.04798 339
36.06809 307
36.08821 318
36.10832 331
36.12843 307
36.14855 355
36.16866 349
36.18878 341
36.20889 354
36.229 366
36.24912 332
36.26923 349
36.28934 371
36.30946 392
36.32957 427
36.34968 491
36.3698 559
36.38991 654
36.41003 890
36.43014 1086
36.45025 1394
36.47037 1825
36.49048 2265
36.51059 2615
36.53071 2644
36.55082 2140
36.57094 1740
36.59105 1529
36.61116 1414
36.63128 1281
36.65139 969
36.6715 671
36.69162 462
36.71173 423
36.73184 382
36.75196 342
36.77207 386
36.79219 345
36.8123 348
36.83241 338
36.85253 349
36.87264 335
36.89275 311
36.91287 396
36.93298 334
36.9531 329
36.97321 278
36.99332 317
37.01344 292
37.03355 260
37.05366 265
37.07378 291
37.09389 273
37.11401 277
37.13412 278
37.15423 288
37.17435 284
37.19446 259
37.21457 272
37.23469 246
37.2548 276
37.27491 263
37.29503 249
37.31514 250
37.33526 230
37.35537 236
37.37548 260
37.3956 258
37.41571 273
37.43582 223
37.45594 271
37.47605 258
37.49617 271
37.51628 273
37.53639 287
37.55651 247
37.57662 273
37.59673 259
37.61685 278
37.63696 283
37.65708 268
37.67719 247
37.6973 261
37.71742 263
37.73753 240
37.75764 249
37.77776 273
37.79787 291
37.81798 266
37.8381 253
37.85821 253
37.87833 283
37.89844 254
37.91855 247
37.93867 268
37.95878 240
37.97889 240
37.99901 268
38.01912 262
38.03924 258
38.05935 252
38.07946 268
38.09958 258
38.11969 283
38.1398 278
38.15992 311
38.18003 285
38.20015 255
38.22026 287
38.24037 261
38.26049 273
38.2806 307
38.30071 280
38.32083 282
38.34094 333
38.36105 318
38.38117 319
38.40128 328
38.4214 322
38.44151 323
38.46162 308
38.48174 329
38.50185 295
38.52196 309
38.54208 290
38.56219 283
38.58231 294
38.60242 303
38.62253 308
38.64265 269
38.66276 306
38.68287 282
38.70299 288
38.7231 289
38.74321 262
38.76333 274
38.78344 286
38.80356 211
38.82367 272
38.84378 276
38.8639 266
38.88401 285
38.90412 272
38.92424 252
38.94435 287
38.96447 285
38.98458 270
39.00469 318
39.02481 292
39.04492 279
39.06503 270
39.08515 296
39.10526 309
39.12538 299
39.14549 338
39.1656 351
39.18572 329
39.20583 350
39.22594 382
39.24606 400
39.26617 467
39.28628 502
39.3064 628
39.32651 759
39.34663 959
39.36674 1211
39.38685 1527
39.40697 1917
39.42708 2279
39.44719 2232
39.46731 2051
39.48742 1636
39.50754 1369
39.52765 1302
39.54776 1186
39.56788 1057
39.58799 765
39.6081 527
39.62822 376
39.64833 342
39.66845 329
39.68856 295
39.70867 302
39.72879 311
39.7489 269
39.76901 269
39.78913 311
39.80924 255
39.82935 249
39.84947 247
39.86958 248
39.8897 281
39.90981 272
39.92992 240
39.95004 262
39.97015 271
39.99026 269
40.01038 286
40.03049 313
40.05061 308
40.07072 342
40.09083 352
40.11095 333
40.13106 459
40.15117 505
40.17129 621
40.1914 720
40.21152 867
40.23163 1063
40.25174 1247
40.27186 1241
40.29197 1082
40.31208 916
40.3322 769
40.35231 756
40.37242 741
40.39254 654
40.41265 526
40.43277 441
40.45288 329
40.47299 283
40.49311 266
40.51322 264
40.53333 259
40.55345 248
40.57356 257
40.59368 244
40.61379 231
40.6339 255
40.65402 219
40.67413 239
40.69424 252
40.71436 234
40.73447 250
40.75458 241
40.7747 216
40.79481 264
40.81493 236
40.83504 209
40.85515 222
40.87527 267
40.89538 269
40.91549 269
40.93561 260
40.95572 257
40.97584 252
40.99595 266
41.01606 226
41.03618 238
41.05629 237
41.0764 265
41.09652 233
41.11663 260
41.13675 259
41.15686 197
41.17697 260
41.19709 247
41.2172 259
41.23731 249
41.25743 244
41.27754 260
41.29765 244
41.31777 266
41.33788 240
41.358 247
41.37811 243
41.39822 230
41.41834 230
41.43845 246
41.45856 215
41.47868 241
41.49879 221
41.51891 245
41.53902 244
41.55913 245
41.57925 221
41.59936 234
41.61947 212
41.63959 263
41.6597 235
41.67982 246
41.69993 254
41.72004 257
41.74016 222
41.76027 262
41.78038 248
41.8005 252
41.82061 220
41.84072 226
41.86084 258
41.88095 254
41.90107 234
41.92118 230
41.94129 235
41.96141 225
41.98152 240
42.00163 251
42.02175 242
42.04186 249
42.06198 226
42.08209 261
42.1022 264
42.12232 281
42.14243 269
42.16254 303
42.18266 287
42.20277 323
42.22289 316
42.243 367
42.26311 405
42.28323 498
42.30334 603
42.32345 726
42.34357 927
42.36368 1131
42.38379 1370
42.40391 1594
42.42402 1715
42.44414 1646
42.46425 1261
42.48436 1041
42.50448 1002
42.52459 979
42.5447 919
42.56482 761
42.58493 488
42.60505 369
42.62516 315
42.64527 264
42.66539 271
42.6855 256
42.70561 258
42.72573 257
42.74584 238
42.76595 243
42.78607 217
42.80618 237
42.8263 227
42.84641 205
42.86652 220
42.88664 211
42.90675 227
42.92686 217
42.94698 212
42.96709 206
42.98721 204
43.00732 210
43.02743 212
43.04755 197
43.06766 202
43.08777 231
43.10789 223
43.128 198
43.14812 206
43.16823 209
43.18834 218
43.20846 211
43.22857 208
43.24868 206
43.2688 217
43.28891 207
43.30902 197
43.32914 181
43.34925 185
43.36937 192
43.38948 200
43.40959 207
43.42971 198
43.44982 188
43.46993 188
43.49005 207
43.51016 215
43.53028 192
43.55039 200
43.5705 197
43.59062 209
43.61073 183
43.63084 215
43.65096 206
43.67107 219
43.69119 219
43.7113 206
43.73141 200
43.75153 223
43.77164 221
43.79175 201
43.81187 208
43.83198 193
43.85209 191
43.87221 198
43.89232 216
43.91244 206
43.93255 208
43.95266 184
43.97278 179
43.99289 219
44.013 197
44.03312 193
44.05323 216
44.07335 219
44.09346 214
44.11357 209
44.13369 205
44.1538 193
44.17391 229
44.19403 216
44.21414 201
44.23426 177
44.25437 190
44.27448 183
44.2946 208
44.31471 206
44.33482 187
44.35494 217
44.37505 202
44.39516 219
44.41528 207
44.43539 190
44.45551 199
44.47562 187
44.49573 213
44.51585 183
44.53596 197
44.55607 214
44.57619 213
44.5963 206
44.61642 198
44.63653 199
44.65664 179
44.67676 213
44.69687 201
44.71698 195
44.7371 201
44.75721 175
44.77732 196
44.79744 221
44.81755 206
44.83767 215
44.85778 189
44.87789 207
44.89801 200
44.91812 219
44.93823 219
44.95835 228
44.97846 206
44.99858 229
45.01869 208
45.0388 208
45.05892 219
45.07903 175
45.09914 227
45.11926 220
45.13937 210
45.15949 224
45.1796 241
45.19971 241
45.21983 224
45.23994 230
45.26005 235
45.28017 209
45.30028 203
45.32039 205
45.34051 225
45.36062 201
45.38074 222
45.40085 232
45.42096 236
45.44108 265
45.46119 262
45.4813 269
45.50142 292
45.52153 281
45.54165 266
45.56176 281
45.58187 313
45.60199 388
45.6221 419
45.64221 427
45.66233 571
45.68244 680
45.70256 771
45.72267 975
45.74278 1134
45.7629 1164
45.78301 1115
45.80312 915
45.82324 777
45.84335 703
45.86346 715
45.88358 694
45.90369 611
45.92381 500
45.94392 371
45.96403 313
45.98415 301
46.00426 290
46.02437 252
46.04449 227
46.0646 233
46.08472 222
46.10483 217
46.12494 230
46.14506 219
46.16517 210
46.18528 199
46.2054 210
46.22551 215
46.24563 213
46.26574 227
46.28585 194
46.30597 219
46.32608 217
46.34619 241
46.36631 203
46.38642 197
46.40653 197
46.42665 218
46.44676 212
46.46688 191
46.48699 225
46.5071 203
46.52722 187
46.54733 213
46.56744 221
46.58756 197
46.60767 209
46.62779 203
46.6479 184
46.66801 212
46.68813 228
46.70824 190
46.72835 191
46.74847 213
46.76858 192
46.78869 191
46.80881 203
46.82892 182
46.84904 193
46.86915 201
46.88926 203
46.90938 233
46.92949 212
46.9496 196
46.96972 179
46.98983 197
47.00995 197
47.03006 199
47.05017 180
47.07029 179
47.0904 198
47.11051 194
47.13063 206
47.15074 173
47.17086 191
47.19097 193
47.21108 221
47.2312 182
47.25131 166
47.27142 209
47.29154 186
47.31165 171
47.33176 210
47.35188 200
47.37199 197
47.39211 198
47.41222 205
47.43233 201
47.45245 206
47.47256 215
47.49267 199
47.51279 188
47.5329 168
47.55302 213
47.57313 177
47.59324 208
47.61336 208
47.63347 204
47.65358 194
47.6737 198
47.69381 212
47.71393 189
47.73404 211
47.75415 189
47.77427 195
47.79438 190
47.81449 204
47.83461 182
47.85472 223
47.87483 203
47.89495 203
47.91506 181
47.93518 198
47.95529 225
47.9754 193
47.99552 185
48.01563 211
48.03574 174
48.05586 190
48.07597 202
48.09609 236
48.1162 229
48.13631 190
48.15643 213
48.17654 199
48.19665 199
48.21677 190
48.23688 199
48.257 210
48.27711 178
48.29722 210
48.31734 195
48.33745 217
48.35756 219
48.37768 196
48.39779 179
48.4179 216
48.43802 181
48.45813 209
48.47825 193
48.49836 212
48.51847 207
48.53859 196
48.5587 209
48.57881 232
48.59893 225
48.61904 185
48.63916 179
48.65927 200
48.67938 219
48.6995 217
48.71961 205
48.73972 238
48.75984 218
48.77995 212
48.80006 196
48.82018 224
48.84029 209
48.86041 213
48.88052 207
48.90063 196
48.92075 182
48.94086 222
48.96097 219
48.98109 233
49.0012 208
49.02132 244
49.04143 207
49.06154 226
49.08166 219
49.10177 239
49.12188 227
49.142 247
49.16211 208
49.18223 211
49.20234 202
49.22245 218
49.24257 191
49.26268 225
49.28279 222
49.30291 210
49.32302 241
49.34313 217
49.36325 235
49.38336 249
49.40348 221
49.42359 230
49.4437 244
49.46382 224
49.48393 253
49.50404 256
49.52416 253
49.54427 272
49.56439 240
49.5845 236
49.60461 218
49.62473 227
49.64484 231
49.66495 266
49.68507 279
49.70518 311
49.7253 310
49.74541 313
49.76552 313
49.78564 301
49.80575 327
49.82586 352
49.84598 375
49.86609 445
49.8862 498
49.90632 517
49.92643 544
49.94655 747
49.96666 912
49.98677 1127
50.00689 1495
50.027 1828
50.04711 2319
50.06723 2878
50.08734 3444
50.10746 3493
50.12757 3406
50.14768 2776
50.1678 2104
50.18791 1778
50.20802 1863
50.22814 1944
50.24825 1839
50.26837 1563
50.28848 1107
50.30859 724
50.32871 514
50.34882 432
50.36893 414
50.38905 368
50.40916 301
50.42927 294
50.44939 295
50.4695 326
50.48962 306
50.50973 312
50.52984 308
50.54996 307
50.57007 312
50.59018 307
50.6103 289
50.63041 283
50.65053 287
50.67064 290
50.69075 278
50.71087 244
50.73098 255
50.75109 237
50.77121 247
50.79132 255
50.81143 249
50.83155 258
50.85166 237
50.87178 221
50.89189 211
50.912 234
50.93212 212
50.95223 233
50.97234 206
50.99246 213
51.01257 251
51.03269 224
51.0528 199
51.07291 207
51.09303 236
51.11314 240
51.13325 222
51.15337 218
51.17348 192
51.1936 172
51.21371 187
51.23382 200
51.25394 162
51.27405 193
51.29416 188
51.31428 206
51.33439 192
51.3545 196
51.37462 200
51.39473 173
51.41485 205
51.43496 208
51.45507 200
51.47519 183
51.4953 173
51.51541 187
51.53553 203
51.55564 187
51.57576 207
51.59587 202
51.61598 190
51.6361 192
51.65621 183
51.67632 192
51.69644 183
51.71655 214
51.73667 202
51.75678 227
51.77689 171
51.79701 184
51.81712 189
51.83723 193
51.85735 193
51.87746 194
51.89757 191
51.91769 213
51.9378 214
51.95792 188
51.97803 198
51.99814 172
52.01826 196
52.03837 176
52.05848 197
52.0786 186
52.09871 182
52.11883 185
52.13894 166
52.15905 168
52.17917 208
52.19928 199
52.21939 207
52.23951 177
52.25962 187
52.27974 179
52.29985 178
52.31996 214
52.34008 185
52.36019 200
52.3803 182
52.40042 198
52.42053 190
52.44064 204
52.46076 176
52.48087 177
52.50099 189
52.5211 159
52.54121 213
52.56133 193
52.58144 212
52.60155 186
52.62167 179
52.64178 184
52.6619 178
52.68201 190
52.70212 190
52.72224 176
52.74235 199
52.76246 174
52.78258 196
52.80269 197
52.8228 194
52.84292 197
52.86303 195
52.88315 193
52.90326 190
52.92337 221
52.94349 200
52.9636 182
52.98371 199
53.00383 201
53.02394 184
53.04406 193
53.06417 211
53.08428 176
53.1044 211
53.12451 195
53.14462 228
53.16474 193
53.18485 212
53.20497 212
53.22508 207
53.24519 205
53.26531 238
53.28542 226
53.30553 215
53.32565 231
53.34576 199
53.36587 224
53.38599 211
53.4061 248
53.42622 205
53.44633 269
53.46644 242
53.48656 212
53.50667 234
53.52678 235
53.5469 238
53.56701 221
53.58713 227
53.60724 220
53.62735 240
53.64747 239
53.66758 230
53.68769 232
53.70781 222
53.72792 236
53.74804 209
53.76815 245
53.78826 244
53.80838 235
53.82849 237
53.8486 222
53.86872 234
53.88883 230
53.90894 214
53.92906 242
53.94917 222
53.96929 238
53.9894 226
54.00951 273
54.02963 224
54.04974 222
54.06985 223
54.08997 211
54.11008 202
54.1302 244
54.15031 243
54.17042 244
54.19054 212
54.21065 257
54.23076 234
54.25088 257
54.27099 241
54.29111 245
54.31122 246
54.33133 264
54.35145 269
54.37156 257
54.39167 258
54.41179 248
54.4319 299
54.45201 244
54.47213 294
54.49224 261
54.51236 253
54.53247 287
54.55258 273
54.5727 262
54.59281 291
54.61292 352
54.63304 343
54.65315 335
54.67327 380
54.69338 435
54.71349 507
54.73361 596
54.75372 657
54.77383 782
54.79395 940
54.81406 1009
54.83417 1125
54.85429 1105
54.8744 965
54.89452 793
54.91463 674
54.93474 624
54.95486 684
54.97497 673
54.99508 692
55.0152 634
55.03531 485
55.05543 427
55.07554 382
55.09565 358
55.11577 336
55.13588 338
55.15599 381
55.17611 373
55.19622 391
55.21634 446
55.23645 540
55.25656 541
55.27668 609
55.29679 585
55.3169 581
55.33702 507
55.35713 458
55.37724 404
55.39736 394
55.41747 465
55.43759 409
55.4577 410
55.47781 354
55.49793 315
55.51804 314
55.53815 231
55.55827 220
55.57838 232
55.5985 246
55.61861 221
55.63872 238
55.65884 220
55.67895 248
55.69906 233
55.71918 214
55.73929 229
55.75941 213
55.77952 195
55.79963 203
55.81975 215
55.83986 235
55.85997 184
55.88009 216
55.9002 198
55.92031 185
55.94043 214
55.96054 223
55.98066 209
56.00077 218
56.02088 193
56.041 189
56.06111 232
56.08122 190
56.10134 188
56.12145 236
56.14157 209
56.16168 213
56.18179 204
56.20191 193
56.22202 220
56.24213 221
56.26225 216
56.28236 192
56.30248 196
56.32259 174
56.3427 187
56.36282 215
56.38293 170
56.40304 201
56.42316 184
56.44327 187
56.46338 198
56.4835 195
56.50361 223
56.52373 209
56.54384 205
56.56395 221
56.58407 174
56.60418 211
56.62429 197
56.64441 219
56.66452 215
56.68464 191
56.70475 172
56.72486 187
56.74498 188
56.76509 194
56.7852 192
56.80532 203
56.82543 172
56.84554 197
56.86566 197
56.88577 218
56.90589 206
56.926 203
56.94611 188
56.96623 183
56.98634 204
57.00645 223
57.02657 215
57.04668 172
57.0668 189
57.08691 197
57.10702 231
57.12714 232
57.14725 236
57.16736 255
57.18748 262
57.20759 235
57.22771 239
57.24782 240
57.26793 194
57.28805 230
57.30816 231
57.32827 241
57.34839 190
57.3685 217
57.38861 220
57.40873 199
57.42884 188
57.44896 202
57.46907 209
57.48918 190
57.5093 203
57.52941 176
57.54952 190
57.56964 184
57.58975 201
57.60987 189
57.62998 197
57.65009 187
57.67021 181
57.69032 202
57.71043 211
57.73055 188
57.75066 189
57.77078 200
57.79089 202
57.811 179
57.83112 184
57.85123 195
57.87134 200
57.89146 201
57.91157 194
57.93168 168
57.9518 204
57.97191 164
57.99203 182
58.01214 190
58.03225 197
58.05237 192
58.07248 167
58.09259 184
58.11271 175
58.13282 195
58.15294 190
58.17305 188
58.19316 179
58.21328 187
58.23339 179
58.2535 193
58.27362 202
58.29373 170
58.31385 184
58.33396 186
58.35407 191
58.37419 185
58.3943 208
58.41441 198
58.43453 172
58.45464 169
58.47475 168
58.49487 196
58.51498 189
58.5351 181
58.55521 184
58.57532 189
58.59544 163
58.61555 198
58.63566 178
58.65578 178
58.67589 216
58.69601 191
58.71612 187
58.73623 193
58.75635 212
58.77646 203
58.79657 205
58.81669 190
58.8368 206
58.85691 184
58.87703 181
58.89714 185
58.91726 192
58.93737 170
58.95748 206
58.9776 179
58.99771 213
59.01782 180
59.03794 215
59.05805 189
59.07817 207
59.09828 209
59.11839 208
59.13851 201
59.15862 196
59.17873 215
59.19885 205
59.21896 242
59.23908 245
59.25919 207
59.2793 224
59.29942 202
59.31953 219
59.33964 253
59.35976 196
59.37987 204
59.39998 234
59.4201 214
59.44021 231
59.46033 231
59.48044 200
59.50055 242
59.52067 256
59.54078 274
59.56089 267
59.58101 290
59.60112 311
59.62124 301
59.64135 316
59.66146 356
59.68158 343
59.70169 447
59.7218 494
59.74192 518
59.76203 668
59.78215 752
59.80226 922
59.82237 1131
59.84249 1439
59.8626 1720
59.88271 1934
59.90283 2118
59.92294 2180
59.94305 1968
59.96317 1616
59.98328 1262
60.0034 1181
60.02351 1089
60.04362 1119
60.06374 1192
60.08385 1243
60.10396 1110
60.12408 843
60.14419 654
60.16431 504
60.18442 358
60.20453 329
60.22465 307
60.24476 268
60.26487 268
60.28499 238
60.3051 235
60.32522 246
60.34533 214
60.36544 220
60.38556 221
60.40567 210
60.42578 191
60.4459 218
60.46601 205
60.48612 200
60.50624 196
60.52635 206
60.54647 200
60.56658 189
60.58669 170
60.60681 191
60.62692 200
60.64703 189
60.66715 179
60.68726 190
60.70738 223
60.72749 194
60.7476 180
60.76772 205
60.78783 187
60.80794 190
60.82806 201
60.84817 181
60.86828 182
60.8884 198
60.90851 207
60.92863 183
60.94874 190
60.96885 171
60.98897 188
61.00908 172
61.02919 172
61.04931 204
61.06942 185
61.08954 192
61.10965 195
61.12976 199
61.14988 195
61.16999 200
61.1901 180
61.21022 188
61.23033 171
61.25045 192
61.27056 172
61.29067 198
61.31079 188
61.3309 174
61.35101 178
61.37113 185
61.39124 188
61.41135 196
61.43147 183
61.45158 191
61.4717 198
61.49181 183
61.51192 211
61.53204 197
61.55215 195
61.57226 192
61.59238 210
61.61249 188
61.63261 193
61.65272 205
61.67283 215
61.69295 189
61.71306 201
61.73317 198
61.75329 206
61.7734 191
61.79352 215
61.81363 184
61.83374 192
61.85386 215
61.87397 222
61.89408 205
61.9142 198
61.93431 197
61.95442 206
61.97454 216
61.99465 195
62.01477 219
62.03488 215
62.05499 194
62.07511 214
62.09522 223
62.11533 230
62.13545 249
62.15556 250
62.17568 255
62.19579 261
62.2159 270
62.23602 283
62.25613 257
62.27624 250
62.29636 264
62.31647 235
62.33659 236
62.3567 258
62.37681 254
62.39693 250
62.41704 243
62.43715 252
62.45727 216
62.47738 246
62.49749 226
62.51761 218
62.53772 217
62.55784 231
62.57795 197
62.59806 208
62.61818 216
62.63829 204
62.6584 204
62.67852 192
62.69863 219
62.71875 187
62.73886 185
62.75897 177
62.77909 196
62.7992 191
62.81931 190
62.83943 178
62.85954 167
62.87965 205
62.89977 177
62.91988 202
62.94 207
62.96011 191
62.98022 182
63.00034 177
63.02045 185
63.04056 199
63.06068 198
63.08079 177
63.10091 182
63.12102 181
63.14113 185
63.16125 187
63.18136 205
63.20147 175
63.22159 189
63.2417 194
63.26182 198
63.28193 189
63.30204 182
63.32216 180
63.34227 181
63.36238 191
63.3825 187
63.40261 193
63.42272 189
63.44284 194
63.46295 211
63.48307 194
63.50318 183
63.52329 188
63.54341 186
63.56352 201
63.58363 200
63.60375 208
63.62386 198
63.64398 202
63.66409 215
63.6842 196
63.70432 206
63.72443 204
63.74454 221
63.76466 214
63.78477 213
63.80489 232
63.825 277
63.84511 284
63.86523 289
63.88534 321
63.90545 359
63.92557 464
63.94568 431
63.96579 525
63.98591 545
64.00602 546
64.02614 495
64.04625 423
64.06636 364
64.08648 346
64.10659 350
64.1267 335
64.14682 372
64.16693 351
64.18705 379
64.20716 316
64.22727 325
64.24739 229
64.2675 227
64.28761 196
64.30773 219
64.32784 196
64.34796 203
64.36807 213
64.38818 187
64.4083 197
64.42841 157
64.44852 201
64.46864 183
64.48875 182
64.50886 183
64.52898 193
64.54909 177
64.56921 185
64.58932 156
64.60943 203
64.62955 162
64.64966 194
64.66977 185
64.68989 189
64.71 157
64.73012 174
64.75023 195
64.77034 175
64.79046 184
64.81057 177
64.83068 187
64.8508 160
64.87091 175
64.89102 158
64.91114 180
64.93125 169
64.95137 181
64.97148 190
64.99159 173
65.01171 164
65.03182 158
65.05193 161
65.07205 168
65.09216 209
65.11228 168
65.13239 185
65.1525 158
65.17262 172
65.19273 156
65.21284 167
65.23296 180
65.25307 179
65.27319 198
65.2933 171
65.31341 170
65.33353 174
65.35364 188
65.37375 174
65.39387 168
65.41398 179
65.43409 167
65.45421 188
65.47432 177
65.49444 179
65.51455 179
65.53466 192
65.55478 181
65.57489 188
65.595 198
65.61512 232
65.63523 236
65.65535 224
65.67546 251
65.69557 240
65.71569 276
65.7358 258
65.75591 241
65.77603 243
65.79614 220
65.81626 239
65.83637 221
65.85648 214
65.8766 202
65.89671 222
65.91682 226
65.93694 217
65.95705 230
65.97716 189
65.99728 203
66.01739 189
66.03751 175
66.05762 194
66.07773 199
66.09785 177
66.11796 194
66.13807 175
66.15819 189
66.1783 179
66.19842 186
66.21853 181
66.23864 180
66.25876 184
66.27887 188
66.29898 166
66.3191 195
66.33921 154
66.35933 175
66.37944 162
66.39955 175
66.41967 180
66.43978 176
66.45989 163
66.48001 153
66.50012 177
66.52023 187
66.54035 183
66.56046 164
66.58058 169
66.60069 166
66.6208 171
66.64092 184
66.66103 181
66.68114 190
66.70126 180
66.72137 175
66.74149 204
66.7616 196
66.78171 189
66.80183 180
66.82194 190
66.84205 202
66.86217 200
66.88228 180
66.90239 195
66.92251 187
66.94262 199
66.96274 199
66.98285 180
67.00296 174
67.02308 178
67.04319 186
67.0633 184
67.08342 216
67.10353 190
67.12365 206
67.14376 197
67.16387 222
67.18399 195
67.2041 214
67.22421 230
67.24433 200
67.26444 219
67.28456 225
67.30467 210
67.32478 228
67.3449 210
67.36501 238
67.38512 275
67.40524 257
67.42535 269
67.44546 269
67.46558 356
67.48569 377
67.50581 355
67.52592 416
67.54603 449
67.56615 520
67.58626 630
67.60637 741
67.62649 906
67.6466 955
67.66672 1171
67.68683 1252
67.70694 1294
67.72706 1154
67.74717 1018
67.76728 837
67.7874 705
67.80751 719
67.82763 746
67.84774 806
67.86785 887
67.88797 950
67.90808 914
67.92819 912
67.94831 820
67.96842 834
67.98853 941
68.00865 1009
68.02876 1166
68.04888 1293
68.06899 1446
68.0891 1686
68.10922 1685
68.12933 1624
68.14944 1523
68.16956 1250
68.18967 1223
68.20979 1240
68.2299 1367
68.25001 1442
68.27013 1608
68.29024 1541
68.31035 1408
68.33047 1225
68.35058 936
68.3707 789
68.39081 631
68.41092 628
68.43104 641
68.45115 638
68.47126 661
68.49138 570
68.51149 464
68.5316 395
68.55172 345
68.57183 309
68.59195 246
68.61206 248
68.63217 224
68.65229 229
68.6724 215
68.69251 214
68.71263 224
68.73274 206
68.75286 194
68.77297 190
68.79308 203
68.8132 199
68.83331 218
68.85342 210
68.87354 201
68.89365 214
68.91376 178
68.93388 192
68.95399 198
68.97411 200
68.99422 192
69.01433 202
69.03445 188
69.05456 188
69.07467 194
69.09479 186
69.1149 172
69.13502 199
69.15513 183
69.17524 174
69.19536 177
69.21547 181
69.23558 192
69.2557 163
69.27581 151
69.29593 183
69.31604 165
69.33615 171
69.35627 180
69.37638 184
69.39649 162
69.41661 174
69.43672 176
69.45683 179
69.47695 164
69.49706 189
69.51718 199
69.53729 183
69.5574 155
69.57752 176
69.59763 168
69.61774 161
69.63786 187
69.65797 188
69.67809 190
69.6982 151
69.71831 171
69.73843 174
69.75854 181
69.77865 195
69.79877 161
69.81888 184
69.839 174
69.85911 174
69.87922 171
69.89934 182
69.91945 198
69.93956 168
69.95968 171
69.97979 145
69.9999 189
70.02002 171
70.04013 182
70.06025 163
70.08036 168
70.10047 138
70.12059 180
70.1407 177
70.16081 161
70.18093 182
70.20104 207
70.22116 182
70.24127 176
70.26138 170
70.2815 161
70.30161 178
70.32172 167
70.34184 156
70.36195 152
70.38207 157
70.40218 165
70.42229 173
70.44241 159
70.46252 172
70.48263 176
70.50275 182
70.52286 157
70.54297 184
70.56309 167
70.5832 195
70.60332 164
70.62343 173
70.64354 159
70.66366 166
70.68377 181
70.70388 173
70.724 147
70.74411 179
70.76423 164
70.78434 165
70.80445 175
70.82457 173
70.84468 172
70.86479 186
70.88491 178
70.90502 168
70.92513 154
70.94525 161
70.96536 157
70.98548 155
71.00559 161
71.0257 155
71.04582 163
71.06593 140
71.08604 140
71.10616 161
71.12627 160
71.14639 149
71.1665 158
71.18661 188
71.20673 156
71.22684 157
71.24695 170
71.26707 155
71.28718 170
71.3073 189
71.32741 141
71.34752 150
71.36764 157
71.38775 164
71.40786 199
71.42798 173
71.44809 173
71.4682 169
71.48832 153
71.50843 185
71.52855 174
71.54866 177
71.56877 192
71.58889 175
71.609 181
71.62911 167
71.64923 163
71.66934 159
71.68946 180
71.70957 174
71.72968 184
71.7498 167
71.76991 178
71.79002 166
71.81014 184
71.83025 197
71.85037 193
71.87048 171
71.89059 172
71.91071 156
71.93082 199
71.95093 166
71.97105 161
71.99116 160
72.01127 156
72.03139 164
72.0515 180
72.07162 158
72.09173 169
72.11184 191
72.13196 155
72.15207 193
72.17218 178
72.1923 158
72.21241 165
72.23253 158
72.25264 160
72.27275 168
72.29287 158
72.31298 164
72.33309 173
72.35321 180
72.37332 167
72.39344 157
72.41355 176
72.43366 172
72.45378 157
72.47389 154
72.494 170
72.51412 139
72.53423 169
72.55434 183
72.57446 172
72.59457 165
72.61469 154
72.6348 139
72.65491 155
72.67503 166
72.69514 178
72.71525 158
72.73537 185
72.75548 145
72.7756 164
72.79571 170
72.81582 164
72.83594 186
72.85605 152
72.87616 145
72.89628 147
72.91639 153
72.9365 151
72.95662 165
72.97673 173
72.99685 156
73.01696 193
73.03707 164
73.05719 164
73.0773 191
73.09741 180
73.11753 168
73.13764 195
73.15776 207
73.17787 210
73.19798 214
73.2181 227
73.23821 231
73.25832 250
73.27844 263
73.29855 297
73.31867 335
73.33878 368
73.35889 407
73.37901 463
73.39912 517
73.41923 512
73.43935 525
73.45946 502
73.47957 436
73.49969 390
73.5198 304
73.53992 321
73.56003 329
73.58014 336
73.60026 329
73.62037 324
73.64048 365
73.6606 351
73.68071 329
73.70083 271
73.72094 217
73.74105 228
73.76117 169
73.78128 194
73.80139 204
73.82151 187
73.84162 177
73.86174 187
73.88185 171
73.90196 157
73.92208 161
73.94219 170
73.9623 155
73.98242 158
74.00253 173
74.02264 171
74.04276 161
74.06287 164
74.08299 178
74.1031 174
74.12321 157
74.14333 153
74.16344 168
74.18355 150
74.20367 191
74.22378 168
74.2439 162
74.26401 157
74.28412 158
74.30424 190
74.32435 176
74.34446 160
74.36458 169
74.38469 171
74.40481 165
74.42492 152
74.44503 180
74.46515 150
74.48526 187
74.50537 150
74.52549 166
74.5456 171
74.56571 189
74.58583 176
74.60594 170
74.62606 168
74.64617 181
74.66628 141
74.6864 177
74.70651 161
74.72662 163
74.74674 166
74.76685 138
74.78697 160
74.80708 177
74.82719 162
74.84731 177
74.86742 141
74.88753 157
74.90765 176
74.92776 180
74.94787 179
74.96799 171
74.9881 171
75.00822 159
