3.00117 18696
3.02128 18280
3.0414 17544
3.06151 17106
3.08162 16477
3.10174 16224
3.12185 15643
3.14197 14997
3.16208 14910
3.18219 14491
3.20231 13862
3.22242 13726
3.24253 12692
3.26265 12692
3.28276 12202
3.30288 11759
3.32299 11637
3.3431 11226
3.36322 10811
3.38333 10395
3.40344 9930
3.42356 9819
3.44367 9157
3.46379 9091
3.4839 8719
3.50401 8411
3.52413 8161
3.54424 7676
3.56435 7656
3.58447 7401
3.60458 7056
3.62469 6903
3.64481 6472
3.66492 6135
3.68504 5841
3.70515 5664
3.72526 5529
3.74538 5059
3.76549 4917
3.7856 5012
3.80572 4576
3.82583 4499
3.84595 4023
3.86606 4080
3.88617 3782
3.90629 3704
3.9264 3497
3.94651 3263
3.96663 3349
3.98674 3045
4.00686 2857
4.02697 2853
4.04708 2528
4.0672 2634
4.08731 2375
4.10742 2290
4.12754 2337
4.14765 2047
4.16776 1956
4.18788 2001
4.20799 1834
4.22811 1909
4.24822 1608
4.26833 1690
4.28845 1587
4.30856 1466
4.32867 1576
4.34879 1407
4.3689 1411
4.38902 1388
4.40913 1382
4.42924 1298
4.44936 1116
4.46947 1185
4.48958 1176
4.5097 1160
4.52981 1179
4.54992 1029
4.57004 1080
4.59015 1106
4.61027 1074
4.63038 1037
4.65049 876
4.67061 902
4.69072 931
4.71083 913
4.73095 881
4.75106 812
4.77118 821
4.79129 831
4.8114 754
4.83152 830
4.85163 720
4.87174 699
4.89186 737
4.91197 702
4.93209 720
4.9522 658
4.97231 630
4.99243 616
5.01254 602
5.03265 627
5.05277 581
5.07288 547
5.09299 585
5.11311 552
5.13322 585
5.15334 509
5.17345 539
5.19356 522
5.21368 511
5.23379 461
5.2539 532
5.27402 415
5.29413 399
5.31425 465
5.33436 404
5.35447 385
5.37459 405
5.3947 409
5.41481 392
5.43493 336
5.45504 420
5.47516 366
5.49527 362
5.51538 380
5.5355 284
5.55561 314
5.57572 341
5.59584 342
5.61595 318
5.63606 288
5.65618 331
5.67629 283
5.69641 307
5.71652 306
5.73663 263
5.75675 286
5.77686 263
5.79697 241
5.81709 291
5.8372 249
5.85732 259
5.87743 265
5.89754 254
5.91766 235
5.93777 208
5.95788 255
5.978 214
5.99811 244
6.01823 233
6.03834 224
6.05845 231
6.07857 230
6.09868 214
6.11879 232
6.13891 226
6.15902 213
6.17913 237
6.19925 228
6.21936 208
6.23948 207
6.25959 200
6.2797 215
6.29982 266
6.31993 218
6.34004 197
6.36016 178
6.38027 212
6.40039 207
6.4205 189
6.44061 201
6.46073 203
6.48084 193
6.50095 178
6.52107 188
6.54118 198
6.56129 223
6.58141 200
6.60152 197
6.62164 177
6.64175 200
6.66186 202
6.68198 201
6.70209 225
6.7222 170
6.74232 191
6.76243 187
6.78255 189
6.80266 210
6.82277 182
6.84289 223
6.863 203
6.88311 212
6.90323 161
6.92334 208
6.94346 218
6.96357 200
6.98368 188
7.0038 219
7.02391 206
7.04402 188
7.06414 240
7.08425 219
7.10436 173
7.12448 159
7.14459 183
7.16471 170
7.18482 178
7.20493 205
7.22505 197
7.24516 220
7.26527 190
7.28539 208
7.3055 206
7.32562 197
7.34573 226
7.36584 174
7.38596 199
7.40607 197
7.42618 233
7.4463 209
7.46641 217
7.48653 214
7.50664 202
7.52675 219
7.54687 180
7.56698 219
7.58709 189
7.60721 217
7.62732 230
7.64743 175
7.66755 184
7.68766 206
7.70778 188
7.72789 203
7.748 188
7.76812 191
7.78823 234
7.80834 181
7.82846 209
7.84857 185
7.86869 226
7.8888 190
7.90891 212
7.92903 234
7.94914 207
7.96925 202
7.98937 218
8.00948 221
8.0296 199
8.04971 226
8.06982 202
8.08994 218
8.11005 174
8.13016 200
8.15028 242
8.17039 213
8.1905 212
8.21062 207
8.23073 213
8.25085 244
8.27096 221
8.29107 208
8.31119 215
8.3313 220
8.35141 200
8.37153 241
8.39164 206
8.41176 206
8.43187 241
8.45198 229
8.4721 232
8.49221 228
8.51232 235
8.53244 212
8.55255 239
8.57266 210
8.59278 221
8.61289 231
8.63301 193
8.65312 223
8.67323 228
8.69335 226
8.71346 238
8.73357 255
8.75369 208
8.7738 227
8.79392 241
8.81403 246
8.83414 231
8.85426 249
8.87437 197
8.89448 214
8.9146 243
8.93471 215
8.95483 220
8.97494 230
8.99505 262
9.01517 229
9.03528 196
9.05539 234
9.07551 223
9.09562 200
9.11573 231
9.13585 205
9.15596 211
9.17608 221
9.19619 224
9.2163 233
9.23642 249
9.25653 248
9.27664 240
9.29676 250
9.31687 233
9.33699 237
9.3571 241
9.37721 222
9.39733 233
9.41744 223
9.43755 206
9.45767 229
9.47778 229
9.4979 246
9.51801 220
9.53812 238
9.55824 254
9.57835 219
9.59846 255
9.61858 232
9.63869 207
9.6588 224
9.67892 229
9.69903 241
9.71915 217
9.73926 209
9.75937 242
9.77949 223
9.7996 214
9.81971 224
9.83983 212
9.85994 244
9.88006 232
9.90017 236
9.92028 213
9.9404 233
9.96051 240
9.98062 248
10.00074 255
10.02085 231
10.04097 234
10.06108 230
10.08119 247
10.10131 227
10.12142 216
10.14153 218
10.16165 247
10.18176 233
10.20187 233
10.22199 214
10.2421 228
10.26222 232
10.28233 226
10.30244 222
10.32256 246
10.34267 229
10.36278 243
10.3829 254
10.40301 224
10.42313 246
10.44324 200
10.46335 227
10.48347 234
10.50358 215
10.52369 228
10.54381 235
10.56392 214
10.58403 213
10.60415 224
10.62426 231
10.64438 231
10.66449 225
10.6846 226
10.70472 218
10.72483 241
10.74494 209
10.76506 200
10.78517 235
10.80529 232
10.8254 237
10.84551 203
10.86563 234
10.88574 232
10.90585 211
10.92597 228
10.94608 230
10.9662 215
10.98631 241
11.00642 248
11.02654 247
11.04665 248
11.06676 214
11.08688 225
11.10699 251
11.1271 202
11.14722 233
11.16733 246
11.18745 200
11.20756 203
11.22767 224
11.24779 233
11.2679 210
11.28801 196
11.30813 239
11.32824 245
11.34836 221
11.36847 223
11.38858 234
11.4087 255
11.42881 220
11.44892 240
11.46904 221
11.48915 223
11.50927 258
11.52938 237
11.54949 227
11.56961 244
11.58972 279
11.60983 222
11.62995 205
11.65006 265
11.67017 238
11.69029 234
11.7104 225
11.73052 229
11.75063 234
11.77074 235
11.79086 237
11.81097 271
11.83108 258
11.8512 231
11.87131 228
11.89143 243
11.91154 244
11.93165 243
11.95177 257
11.97188 237
11.99199 249
12.01211 250
12.03222 229
12.05234 255
12.07245 234
12.09256 221
12.11268 220
12.13279 245
12.1529 251
12.17302 230
12.19313 251
12.21324 227
12.23336 241
12.25347 249
12.27359 239
12.2937 275
12.31381 239
12.33393 241
12.35404 215
12.37415 252
12.39427 212
12.41438 241
12.4345 234
12.45461 232
12.47472 227
12.49484 234
12.51495 219
12.53506 224
12.55518 244
12.57529 234
12.5954 248
12.61552 226
12.63563 216
12.65575 208
12.67586 213
12.69597 209
12.71609 226
12.7362 213
12.75631 239
12.77643 236
12.79654 227
12.81666 225
12.83677 246
12.85688 235
12.877 240
12.89711 209
12.91722 205
12.93734 203
12.95745 215
12.97757 222
12.99768 215
13.01779 243
13.03791 205
13.05802 229
13.07813 207
13.09825 198
13.11836 203
13.13847 215
13.15859 210
13.1787 220
13.19882 194
13.21893 206
13.23904 220
13.25916 212
13.27927 218
13.29938 260
13.3195 242
13.33961 219
13.35973 234
13.37984 240
13.39995 232
13.42007 244
13.44018 238
13.46029 211
13.48041 228
13.50052 227
13.52064 194
13.54075 242
13.56086 223
13.58098 250
13.60109 251
13.6212 244
13.64132 251
13.66143 326
13.68154 283
13.70166 276
13.72177 234
13.74189 252
13.762 249
13.78211 219
13.80223 218
13.82234 212
13.84245 206
13.86257 217
13.88268 211
13.9028 212
13.92291 219
13.94302 218
13.96314 204
13.98325 241
14.00336 184
14.02348 215
14.04359 210
14.06371 181
14.08382 190
14.10393 236
14.12405 200
14.14416 219
14.16427 199
14.18439 194
14.2045 205
14.22461 210
14.24473 187
14.26484 197
14.28496 206
14.30507 204
14.32518 212
14.3453 196
14.36541 199
14.38552 167
14.40564 193
14.42575 197
14.44587 213
14.46598 199
14.48609 199
14.50621 186
14.52632 175
14.54643 209
14.56655 195
14.58666 197
14.60677 211
14.62689 193
14.647 217
14.66712 199
14.68723 210
14.70734 190
14.72746 189
14.74757 190
14.76768 163
14.7878 187
14.80791 170
14.82803 198
14.84814 196
14.86825 218
14.88837 223
14.90848 188
14.92859 200
14.94871 214
14.96882 218
14.98894 205
15.00905 230
15.02916 242
15.04928 239
15.06939 256
15.0895 262
15.10962 268
15.12973 253
15.14984 268
15.16996 248
15.19007 222
15.21019 215
15.2303 197
15.25041 207
15.27053 200
15.29064 201
15.31075 212
15.33087 168
15.35098 167
15.3711 173
15.39121 189
15.41132 213
15.43144 188
15.45155 189
15.47166 175
15.49178 204
15.51189 185
15.53201 202
15.55212 166
15.57223 161
15.59235 165
15.61246 174
15.63257 193
15.65269 184
15.6728 187
15.69291 175
15.71303 202
15.73314 177
15.75326 197
15.77337 200
15.79348 216
15.8136 169
15.83371 202
15.85382 169
15.87394 191
15.89405 170
15.91417 191
15.93428 168
15.95439 204
15.97451 183
15.99462 169
16.01473 181
16.03485 179
16.05496 197
16.07508 184
16.09519 191
16.1153 192
16.13542 201
16.15553 185
16.17564 156
16.19576 213
16.21587 201
16.23598 186
16.2561 174
16.27621 192
16.29633 193
16.31644 181
16.33655 200
16.35667 194
16.37678 203
16.39689 206
16.41701 183
16.43712 176
16.45724 175
16.47735 184
16.49746 190
16.51758 173
16.53769 202
16.5578 208
16.57792 196
16.59803 167
16.61814 177
16.63826 180
16.65837 175
16.67849 198
16.6986 178
16.71871 172
16.73883 187
16.75894 184
16.77905 192
16.79917 175
16.81928 175
16.8394 171
16.85951 201
16.87962 185
16.89974 177
16.91985 184
16.93996 179
16.96008 198
16.98019 208
17.00031 165
17.02042 193
17.04053 189
17.06065 173
17.08076 173
17.10087 198
17.12099 213
17.1411 199
17.16121 185
17.18133 176
17.20144 156
17.22156 183
17.24167 167
17.26178 177
17.2819 156
17.30201 157
17.32212 166
17.34224 176
17.36235 194
17.38247 167
17.40258 152
17.42269 204
17.44281 168
17.46292 179
17.48303 170
17.50315 221
17.52326 198
17.54338 173
17.56349 162
17.5836 193
17.60372 194
17.62383 172
17.64394 183
17.66406 198
17.68417 192
17.70428 213
17.7244 170
17.74451 171
17.76463 172
17.78474 190
17.80485 206
17.82497 172
17.84508 189
17.86519 189
17.88531 183
17.90542 194
17.92554 155
17.94565 174
17.96576 169
17.98588 184
18.00599 195
18.0261 194
18.04622 190
18.06633 199
18.08645 155
18.10656 169
18.12667 166
18.14679 156
18.1669 200
18.18701 167
18.20713 191
18.22724 194
18.24735 188
18.26747 167
18.28758 161
18.3077 175
18.32781 174
18.34792 167
18.36804 159
18.38815 188
18.40826 160
18.42838 215
18.44849 176
18.46861 164
18.48872 178
18.50883 189
18.52895 185
18.54906 218
18.56917 169
18.58929 182
18.6094 192
18.62951 197
18.64963 175
18.66974 193
18.68986 186
18.70997 184
18.73008 237
18.7502 199
18.77031 186
18.79042 199
18.81054 200
18.83065 201
18.85077 185
18.87088 195
18.89099 177
18.91111 193
18.93122 173
18.95133 176
18.97145 172
18.99156 189
19.01168 165
19.03179 173
19.0519 160
19.07202 190
19.09213 201
19.11224 164
19.13236 164
19.15247 216
19.17258 192
19.1927 180
19.21281 198
19.23293 197
19.25304 203
19.27315 209
19.29327 199
19.31338 207
19.33349 200
19.35361 217
19.37372 215
19.39384 206
19.41395 200
19.43406 183
19.45418 199
19.47429 204
19.4944 206
19.51452 189
19.53463 174
19.55475 198
19.57486 205
19.59497 193
19.61509 203
19.6352 213
19.65531 233
19.67543 194
19.69554 204
19.71565 231
19.73577 205
19.75588 220
19.776 262
19.79611 203
19.81622 241
19.83634 228
19.85645 250
19.87656 231
19.89668 247
19.91679 290
19.93691 237
19.95702 249
19.97713 267
19.99725 297
20.01736 211
20.03747 267
20.05759 224
20.0777 274
20.09782 237
20.11793 231
20.13804 221
20.15816 224
20.17827 265
20.19838 278
20.2185 275
20.23861 258
20.25872 292
20.27884 253
20.29895 259
20.31907 282
20.33918 296
20.35929 288
20.37941 311
20.39952 284
20.41963 305
20.43975 319
20.45986 344
20.47998 367
20.50009 350
20.5202 376
20.54032 381
20.56043 387
20.58054 357
20.60066 364
20.62077 412
20.64088 468
20.661 569
20.68111 673
20.70123 889
20.72134 1051
20.74145 1514
20.76157 2021
20.78168 2951
20.80179 4090
20.82191 5166
20.84202 6557
20.86214 7407
20.88225 7359
20.90236 6017
20.92248 4345
20.94259 3038
20.9627 1980
20.98282 1268
21.00293 1100
21.02305 1024
21.04316 990
21.06327 912
21.08339 756
21.1035 664
21.12361 501
21.14373 434
21.16384 428
21.18395 386
21.20407 324
21.22418 320
21.2443 307
21.26441 318
21.28452 303
21.30464 332
21.32475 321
21.34486 266
21.36498 288
21.38509 295
21.40521 287
21.42532 277
21.44543 292
21.46555 263
21.48566 244
21.50577 299
21.52589 268
21.546 263
21.56612 297
21.58623 234
21.60634 251
21.62646 222
21.64657 251
21.66668 250
21.6868 233
21.70691 255
21.72702 262
21.74714 243
21.76725 221
21.78737 243
21.80748 259
21.82759 233
21.84771 254
21.86782 225
21.88793 231
21.90805 247
21.92816 233
21.94828 257
21.96839 258
21.9885 288
22.00862 290
22.02873 303
22.04884 262
22.06896 246
22.08907 267
22.10919 260
22.1293 230
22.14941 230
22.16953 237
22.18964 221
22.20975 275
22.22987 218
22.24998 234
22.27009 225
22.29021 230
22.31032 248
22.33044 234
22.35055 250
22.37066 255
22.39078 237
22.41089 269
22.431 311
22.45112 283
22.47123 329
22.49135 339
22.51146 367
22.53157 365
22.55169 381
22.5718 316
22.59191 271
22.61203 277
22.63214 233
22.65225 234
22.67237 225
22.69248 216
22.7126 212
22.73271 207
22.75282 251
22.77294 204
22.79305 212
22.81316 223
22.83328 208
22.85339 212
22.87351 227
22.89362 214
22.91373 224
22.93385 251
22.95396 229
22.97407 256
22.99419 237
23.0143 238
23.03442 234
23.05453 275
23.07464 267
23.09476 269
23.11487 272
23.13498 238
23.1551 258
23.17521 212
23.19532 237
23.21544 242
23.23555 247
23.25567 221
23.27578 239
23.29589 262
23.31601 231
23.33612 255
23.35623 291
23.37635 324
23.39646 331
23.41658 339
23.43669 382
23.4568 383
23.47692 456
23.49703 479
23.51714 525
23.53726 605
23.55737 600
23.57749 648
23.5976 574
23.61771 624
23.63783 540
23.65794 489
23.67805 458
23.69817 413
23.71828 374
23.73839 340
23.75851 343
23.77862 317
23.79874 295
23.81885 288
23.83896 300
23.85908 289
23.87919 302
23.8993 277
23.91942 269
23.93953 267
23.95965 308
23.97976 297
23.99987 308
24.01999 303
24.0401 315
24.06021 275
24.08033 252
24.10044 261
24.12056 224
24.14067 267
24.16078 246
24.1809 207
24.20101 234
24.22112 248
24.24124 235
24.26135 252
24.28146 232
24.30158 253
24.32169 257
24.34181 261
24.36192 236
24.38203 247
24.40215 260
24.42226 252
24.44237 259
24.46249 240
24.4826 268
24.50272 270
24.52283 275
24.54294 277
24.56306 299
24.58317 312
24.60328 284
24.6234 288
24.64351 316
24.66362 259
24.68374 300
24.70385 270
24.72397 240
24.74408 259
24.76419 238
24.78431 266
24.80442 243
24.82453 229
24.84465 256
24.86476 259
24.88488 256
24.90499 235
24.9251 274
24.94522 246
24.96533 238
24.98544 245
25.00556 269
25.02567 260
25.04579 270
25.0659 275
25.08601 283
25.10613 291
25.12624 299
25.14635 297
25.16647 291
25.18658 264
25.20669 278
25.22681 258
25.24692 286
25.26704 296
25.28715 259
25.30726 266
25.32738 247
25.34749 252
25.3676 226
25.38772 248
25.40783 254
25.42795 261
25.44806 255
25.46817 283
25.48829 298
25.5084 332
25.52851 398
25.54863 414
25.56874 490
25.58886 546
25.60897 601
25.62908 650
25.6492 705
25.66931 704
25.68942 627
25.70954 594
25.72965 574
25.74976 508
25.76988 442
25.78999 455
25.81011 409
25.83022 397
25.85033 411
25.87045 397
25.89056 391
25.91067 433
25.93079 436
25.9509 417
25.97102 417
25.99113 462
26.01124 474
26.03136 472
26.05147 490
26.07158 484
26.0917 477
26.11181 504
26.13193 497
26.15204 576
26.17215 606
26.19227 662
26.21238 666
26.23249 716
26.25261 787
26.27272 842
26.29283 947
26.31295 960
26.33306 1089
26.35318 1247
26.37329 1328
26.3934 1621
26.41352 1923
26.43363 2344
26.45374 2835
26.47386 3771
26.49397 5131
26.51409 6789
26.5342 9634
26.55431 13085
26.57443 17762
26.59454 23229
26.61465 28950
26.63477 32924
26.65488 32690
26.67499 26710
26.69511 20581
26.71522 15833
26.73534 11574
26.75545 6651
26.77556 3691
26.79568 2292
26.81579 2033
26.8359 1899
26.85602 1639
26.87613 1625
26.89625 1550
26.91636 1553
26.93647 1400
26.95659 1318
26.9767 1190
26.99681 1186
27.01693 1163
27.03704 1102
27.05716 1141
27.07727 1050
27.09738 1071
27.1175 983
27.13761 857
27.15772 757
27.17784 673
27.19795 590
27.21806 507
27.23818 519
27.25829 483
27.27841 533
27.29852 506
27.31863 464
27.33875 505
27.35886 518
27.37897 624
27.39909 704
27.4192 791
27.43932 930
27.45943 1073
27.47954 1181
27.49966 1263
27.51977 1188
27.53988 1120
27.56 950
27.58011 848
27.60023 693
27.62034 594
27.64045 542
27.66057 436
27.68068 442
27.70079 419
27.72091 424
27.74102 429
27.76113 458
27.78125 408
27.80136 431
27.82148 397
27.84159 385
27.8617 378
27.88182 388
27.90193 357
27.92204 352
27.94216 361
27.96227 334
27.98239 379
28.0025 342
28.02261 334
28.04273 328
28.06284 309
28.08295 323
28.10307 297
28.12318 284
28.1433 286
28.16341 299
28.18352 291
28.20364 273
28.22375 264
28.24386 272
28.26398 258
28.28409 278
28.3042 267
28.32432 284
28.34443 269
28.36455 275
28.38466 267
28.40477 259
28.42489 271
28.445 263
28.46511 224
28.48523 271
28.50534 280
28.52546 303
28.54557 259
28.56568 229
28.5858 278
28.60591 243
28.62602 238
28.64614 252
28.66625 260
28.68636 262
28.70648 277
28.72659 238
28.74671 262
28.76682 252
28.78693 257
28.80705 276
28.82716 244
28.84727 236
28.86739 252
28.8875 246
28.90762 263
28.92773 240
28.94784 238
28.96796 257
28.98807 223
29.00818 257
29.0283 226
29.04841 232
29.06853 237
29.08864 262
29.10875 249
29.12887 214
29.14898 220
29.16909 222
29.18921 239
29.20932 253
29.22943 224
29.24955 214
29.26966 239
29.28978 197
29.30989 247
29.33 246
29.35012 206
29.37023 233
29.39034 233
29.41046 209
29.43057 278
29.45069 221
29.4708 248
29.49091 281
29.51103 257
29.53114 260
29.55125 272
29.57137 283
29.59148 277
29.6116 275
29.63171 274
29.65182 313
29.67194 314
29.69205 355
29.71216 334
29.73228 353
29.75239 413
29.7725 423
29.79262 500
29.81273 532
29.83285 506
29.85296 493
29.87307 494
29.89319 525
29.9133 479
29.93341 417
29.95353 386
29.97364 396
29.99376 338
30.01387 304
30.03398 285
30.0541 267
30.07421 282
30.09432 268
30.11444 262
30.13455 272
30.15467 233
30.17478 239
30.19489 255
30.21501 229
30.23512 254
30.25523 251
30.27535 247
30.29546 247
30.31557 239
30.33569 246
30.3558 251
30.37592 292
30.39603 281
30.41614 262
30.43626 277
30.45637 265
30.47648 280
30.4966 254
30.51671 258
30.53683 286
30.55694 276
30.57705 273
30.59717 264
30.61728 237
30.63739 262
30.65751 252
30.67762 278
30.69773 302
30.71785 306
30.73796 356
30.75808 385
30.77819 417
30.7983 487
30.81842 424
30.83853 412
30.85864 385
30.87876 389
30.89887 357
30.91899 296
30.9391 238
30.95921 251
30.97933 259
30.99944 236
31.01955 231
31.03967 210
31.05978 229
31.0799 192
31.10001 227
31.12012 218
31.14024 199
31.16035 188
31.18046 197
31.20058 183
31.22069 210
31.2408 187
31.26092 212
31.28103 213
31.30115 196
31.32126 179
31.34137 170
31.36149 221
31.3816 196
31.40171 220
31.42183 227
31.44194 184
31.46206 171
31.48217 216
31.50228 217
31.5224 194
31.54251 200
31.56262 189
31.58274 203
31.60285 208
31.62297 216
31.64308 203
31.66319 216
31.68331 212
31.70342 170
31.72353 192
31.74365 162
31.76376 222
31.78387 193
31.80399 176
31.8241 202
31.84422 185
31.86433 196
31.88444 227
31.90456 207
31.92467 198
31.94478 206
31.9649 200
31.98501 200
32.00513 186
32.02524 219
32.04535 197
32.06547 199
32.08558 227
32.10569 219
32.12581 218
32.14592 206
32.16604 231
32.18615 227
32.20626 264
32.22638 266
32.24649 301
32.2666 343
32.28672 302
32.30683 341
32.32694 290
32.34706 303
32.36717 305
32.38729 293
32.4074 264
32.42751 254
32.44763 232
32.46774 230
32.48785 228
32.50797 226
32.52808 212
32.5482 226
32.56831 175
32.58842 233
32.60854 225
32.62865 210
32.64876 202
32.66888 219
32.68899 212
32.7091 175
32.72922 191
32.74933 203
32.76945 217
32.78956 196
32.80967 227
32.82979 199
32.8499 199
32.87001 200
32.89013 193
32.91024 184
32.93036 210
32.95047 192
32.97058 192
32.9907 172
33.01081 185
33.03092 180
33.05104 222
33.07115 217
33.09127 187
33.11138 221
33.13149 200
33.15161 180
33.17172 185
33.19183 208
33.21195 197
33.23206 197
33.25217 190
33.27229 189
33.2924 179
33.31252 201
33.33263 209
33.35274 191
33.37286 169
33.39297 185
33.41308 204
33.4332 192
33.45331 223
33.47343 183
33.49354 221
33.51365 176
33.53377 198
33.55388 183
33.57399 197
33.59411 198
33.61422 187
33.63434 167
33.65445 178
33.67456 209
33.69468 195
33.71479 167
33.7349 208
33.75502 183
33.77513 183
33.79524 164
33.81536 171
33.83547 199
33.85559 178
33.8757 189
33.89581 197
33.91593 196
33.93604 190
33.95615 203
33.97627 218
33.99638 170
34.0165 199
34.03661 177
34.05672 178
34.07684 184
34.09695 192
34.11706 186
34.13718 185
34.15729 190
34.17741 210
34.19752 191
34.21763 219
34.23775 202
34.25786 228
34.27797 224
34.29809 244
34.3182 247
34.33831 255
34.35843 272
34.37854 287
34.39866 319
34.41877 312
34.43888 289
34.459 342
34.47911 269
34.49922 284
34.51934 277
34.53945 238
34.55957 251
34.57968 241
34.59979 244
34.61991 228
34.64002 286
34.66013 297
34.68025 268
34.70036 287
34.72047 316
34.74059 338
34.7607 336
34.78082 335
34.80093 293
34.82104 329
34.84116 349
34.86127 337
34.88138 310
34.9015 335
34.92161 376
34.94173 334
34.96184 317
34.98195 305
35.00207 306
35.02218 313
35.04229 303
35.06241 326
35.08252 292
35.10264 288
35.12275 301
35.14286 312
35.16298 268
35.18309 259
35.2032 260
35.22332 251
35.24343 257
35.26354 232
35.28366 262
35.30377 239
35.32389 258
35.344 255
35.36411 227
35.38423 234
35.40434 244
35.42445 240
35.44457 256
35.46468 249
35.4848 255
35.50491 240
35.52502 254
35.54514 260
35.56525 280
35.58536 259
35.60548 264
35.62559 272
35.64571 284
35.66582 265
35.68593 251
35.70605 277
35.72616 248
35.74627 266
35.76639 236
35.7865 231
35.80661 224
35.82673 236
35.84684 249
35.86696 213
35.88707 233
35.90718 229
35.9273 214
35.94741 236
35.96752 224
35.98764 230
36.00775 243
36.02787 231
36.04798 229
36.06809 246
36.08821 230
36.10832 261
36.12843 254
36.14855 264
36.16866 260
36.18878 258
36.20889 253
36.229 283
36.24912 301
36.26923 272
36.28934 340
36.30946 347
36.32957 387
36.34968 421
36.3698 549
36.38991 628
36.41003 743
36.43014 923
36.45025 1139
36.47037 1405
36.49048 1664
36.51059 1958
36.53071 2229
36.55082 2214
36.57094 1881
36.59105 1454
36.61116 1261
36.63128 1127
36.65139 1042
36.6715 767
36.69162 475
36.71173 332
36.73184 304
36.75196 255
36.77207 257
36.79219 264
36.8123 262
36.83241 231
36.85253 255
36.87264 225
36.89275 255
36.91287 230
36.93298 242
36.9531 264
36.97321 220
36.99332 211
37.01344 228
37.03355 216
37.05366 220
37.07378 225
37.09389 236
37.11401 221
37.13412 230
37.15423 240
37.17435 252
37.19446 253
37.21457 239
37.23469 252
37.2548 239
37.27491 208
37.29503 204
37.31514 227
37.33526 222
37.35537 198
37.37548 201
37.3956 188
37.41571 187
37.43582 200
37.45594 208
37.47605 230
37.49617 195
37.51628 209
37.53639 206
37.55651 203
37.57662 193
37.59673 197
37.61685 193
37.63696 224
37.65708 203
37.67719 195
37.6973 236
37.71742 201
37.73753 207
37.75764 193
37.77776 212
37.79787 232
37.81798 195
37.8381 201
37.85821 206
37.87833 197
37.89844 209
37.91855 188
37.93867 195
37.95878 201
37.97889 161
37.99901 183
38.01912 202
38.03924 203
38.05935 182
38.07946 198
38.09958 190
38.11969 192
38.1398 205
38.15992 205
38.18003 192
38.20015 186
38.22026 194
38.24037 195
38.26049 198
38.2806 209
38.30071 201
38.32083 200
38.34094 218
38.36105 178
38.38117 186
38.40128 202
38.4214 205
38.44151 195
38.46162 213
38.48174 197
38.50185 227
38.52196 209
38.54208 197
38.56219 219
38.58231 204
38.60242 225
38.62253 217
38.64265 236
38.66276 223
38.68287 218
38.70299 225
38.7231 204
38.74321 207
38.76333 208
38.78344 201
38.80356 215
38.82367 176
38.84378 183
38.8639 189
38.88401 198
38.90412 175
38.92424 204
38.94435 188
38.96447 220
38.98458 200
39.00469 189
39.02481 186
39.04492 219
39.06503 240
39.08515 242
39.10526 233
39.12538 244
39.14549 247
39.1656 276
39.18572 290
39.20583 306
39.22594 317
39.24606 375
39.26617 432
39.28628 486
39.3064 592
39.32651 756
39.34663 818
39.36674 1049
39.38685 1171
39.40697 1501
39.42708 1773
39.44719 1944
39.46731 2038
39.48742 1844
39.50754 1436
39.52765 1168
39.54776 1059
39.56788 1041
39.58799 892
39.6081 634
39.62822 433
39.64833 319
39.66845 323
39.68856 278
39.70867 254
39.72879 261
39.7489 252
39.76901 230
39.78913 263
39.80924 252
39.82935 197
39.84947 226
39.86958 203
39.8897 233
39.90981 211
39.92992 231
39.95004 230
39.97015 246
39.99026 243
40.01038 230
40.03049 262
40.05061 268
40.07072 294
40.09083 310
40.11095 338
40.13106 429
40.15117 471
40.17129 549
40.1914 586
40.21152 662
40.23163 789
40.25174 954
40.27186 1086
40.29197 1087
40.31208 1009
40.3322 795
40.35231 690
40.37242 618
40.39254 594
40.41265 534
40.43277 418
40.45288 293
40.47299 248
40.49311 216
40.51322 233
40.53333 240
40.55345 219
40.57356 196
40.59368 213
40.61379 202
40.6339 199
40.65402 210
40.67413 208
40.69424 208
40.71436 207
40.73447 211
40.75458 203
40.7747 205
40.79481 178
40.81493 236
40.83504 191
40.85515 217
40.87527 185
40.89538 216
40.91549 214
40.93561 222
40.95572 210
40.97584 194
40.99595 213
41.01606 191
41.03618 209
41.05629 214
41.0764 191
41.09652 221
41.11663 187
41.13675 216
41.15686 210
41.17697 190
41.19709 194
41.2172 201
41.23731 177
41.25743 210
41.27754 193
41.29765 204
41.31777 210
41.33788 225
41.358 195
41.37811 182
41.39822 188
41.41834 194
41.43845 179
41.45856 190
41.47868 199
41.49879 216
41.51891 213
41.53902 196
41.55913 227
41.57925 227
41.59936 245
41.61947 238
41.63959 228
41.6597 284
41.67982 297
41.69993 331
41.72004 326
41.74016 363
41.76027 341
41.78038 300
41.8005 317
41.82061 292
41.84072 278
41.86084 304
41.88095 246
41.90107 211
41.92118 214
41.94129 223
41.96141 209
41.98152 210
42.00163 217
42.02175 233
42.04186 221
42.06198 210
42.08209 240
42.1022 224
42.12232 249
42.14243 264
42.16254 286
42.18266 320
42.20277 302
42.22289 320
42.243 359
42.26311 428
42.28323 497
42.30334 577
42.32345 677
42.34357 776
42.36368 932
42.38379 1101
42.40391 1314
42.42402 1449
42.44414 1489
42.46425 1377
42.48436 1172
42.50448 941
42.52459 819
42.5447 840
42.56482 788
42.58493 663
42.60505 466
42.62516 351
42.64527 304
42.66539 270
42.6855 267
42.70561 272
42.72573 228
42.74584 248
42.76595 236
42.78607 243
42.80618 227
42.8263 241
42.84641 213
42.86652 195
42.88664 233
42.90675 204
42.92686 188
42.94698 165
42.96709 214
42.98721 176
43.00732 192
43.02743 187
43.04755 183
43.06766 174
43.08777 160
43.10789 177
43.128 178
43.14812 172
43.16823 184
43.18834 159
43.20846 182
43.22857 179
43.24868 173
43.2688 189
43.28891 189
43.30902 165
43.32914 169
43.34925 167
43.36937 156
43.38948 174
43.40959 141
43.42971 159
43.44982 167
43.46993 177
43.49005 147
43.51016 174
43.53028 179
43.55039 170
43.5705 156
43.59062 196
43.61073 207
43.63084 181
43.65096 182
43.67107 203
43.69119 203
43.7113 190
43.73141 191
43.75153 173
43.77164 184
43.79175 198
43.81187 195
43.83198 155
43.85209 202
43.87221 181
43.89232 183
43.91244 163
43.93255 165
43.95266 156
43.97278 178
43.99289 179
44.013 173
44.03312 175
44.05323 170
44.07335 196
44.09346 190
44.11357 177
44.13369 177
44.1538 160
44.17391 170
44.19403 171
44.21414 186
44.23426 198
44.25437 183
44.27448 159
44.2946 196
44.31471 157
44.33482 163
44.35494 159
44.37505 158
44.39516 171
44.41528 154
44.43539 153
44.45551 161
44.47562 149
44.49573 155
44.51585 184
44.53596 169
44.55607 175
44.57619 178
44.5963 159
44.61642 154
44.63653 160
44.65664 154
44.67676 172
44.69687 186
44.71698 174
44.7371 173
44.75721 175
44.77732 191
44.79744 169
44.81755 175
44.83767 175
44.85778 180
44.87789 184
44.89801 183
44.91812 186
44.93823 222
44.95835 206
44.97846 204
44.99858 214
45.01869 202
45.0388 234
45.05892 190
45.07903 188
45.09914 187
45.11926 195
45.13937 206
45.15949 214
45.1796 220
45.19971 229
45.21983 221
45.23994 190
45.26005 203
45.28017 198
45.30028 202
45.32039 233
45.34051 189
45.36062 213
45.38074 220
45.40085 193
45.42096 196
45.44108 218
45.46119 212
45.4813 214
45.50142 224
45.52153 233
45.54165 262
45.56176 263
45.58187 311
45.60199 332
45.6221 370
45.64221 400
45.66233 500
45.68244 555
45.70256 615
45.72267 777
45.74278 837
45.7629 904
45.78301 1029
45.80312 984
45.82324 799
45.84335 621
45.86346 614
45.88358 634
45.90369 636
45.92381 577
45.94392 465
45.96403 395
45.98415 286
46.00426 254
46.02437 241
46.04449 232
46.0646 206
46.08472 191
46.10483 199
46.12494 197
46.14506 192
46.16517 188
46.18528 191
46.2054 174
46.22551 180
46.24563 160
46.26574 186
46.28585 189
46.30597 167
46.32608 170
46.34619 162
46.36631 179
46.38642 182
46.40653 172
46.42665 173
46.44676 179
46.46688 162
46.48699 161
46.5071 157
46.52722 160
46.54733 176
46.56744 165
46.58756 143
46.60767 161
46.62779 152
46.6479 148
46.66801 163
46.68813 143
46.70824 174
46.72835 166
46.74847 173
46.76858 157
46.78869 163
46.80881 160
46.82892 162
46.84904 157
46.86915 174
46.88926 158
46.90938 167
46.92949 164
46.9496 175
46.96972 183
46.98983 183
47.00995 203
47.03006 209
47.05017 184
47.07029 181
47.0904 165
47.11051 208
47.13063 220
47.15074 226
47.17086 237
47.19097 204
47.21108 214
47.2312 198
47.25131 188
47.27142 208
47.29154 203
47.31165 197
47.33176 198
47.35188 207
47.37199 172
47.39211 171
47.41222 178
47.43233 200
47.45245 224
47.47256 189
47.49267 191
47.51279 196
47.5329 195
47.55302 202
47.57313 181
47.59324 192
47.61336 179
47.63347 183
47.65358 175
47.6737 145
47.69381 161
47.71393 171
47.73404 158
47.75415 183
47.77427 166
47.79438 160
47.81449 150
47.83461 178
47.85472 145
47.87483 153
47.89495 164
47.91506 182
47.93518 168
47.95529 146
47.9754 162
47.99552 171
48.01563 158
48.03574 161
48.05586 168
48.07597 178
48.09609 180
48.1162 168
48.13631 171
48.15643 195
48.17654 179
48.19665 185
48.21677 170
48.23688 167
48.257 164
48.27711 163
48.29722 159
48.31734 168
48.33745 183
48.35756 171
48.37768 145
48.39779 175
48.4179 172
48.43802 173
48.45813 157
48.47825 171
48.49836 199
48.51847 171
48.53859 160
48.5587 168
48.57881 172
48.59893 172
48.61904 199
48.63916 176
48.65927 142
48.67938 160
48.6995 188
48.71961 162
48.73972 177
48.75984 198
48.77995 151
48.80006 193
48.82018 174
48.84029 217
48.86041 170
48.88052 167
48.90063 202
48.92075 193
48.94086 205
48.96097 187
48.98109 183
49.0012 188
49.02132 211
49.04143 207
49.06154 197
49.08166 212
49.10177 211
49.12188 205
49.142 194
49.16211 190
49.18223 197
49.20234 176
49.22245 200
49.24257 226
49.26268 203
49.28279 175
49.30291 206
49.32302 184
49.34313 183
49.36325 215
49.38336 173
49.40348 189
49.42359 194
49.4437 179
49.46382 214
49.48393 177
49.50404 208
49.52416 203
49.54427 177
49.56439 191
49.5845 218
49.60461 214
49.62473 219
49.64484 238
49.66495 242
49.68507 277
49.70518 266
49.7253 260
49.74541 253
49.76552 301
49.78564 332
49.80575 348
49.82586 389
49.84598 386
49.86609 480
49.8862 506
49.90632 630
49.92643 709
49.94655 806
49.96666 880
49.98677 1142
50.00689 1389
50.027 1680
50.04711 1923
50.06723 2320
50.08734 2704
50.10746 2983
50.12757 3073
50.14768 2812
50.1678 2374
50.18791 1923
50.20802 1603
50.22814 1627
50.24825 1562
50.26837 1518
50.28848 1203
50.30859 863
50.32871 606
50.34882 464
50.36893 359
50.38905 329
50.40916 318
50.42927 317
50.44939 370
50.4695 298
50.48962 311
50.50973 319
50.52984 347
50.54996 342
50.57007 377
50.59018 437
50.6103 418
50.63041 428
50.65053 381
50.67064 345
50.69075 391
50.71087 352
50.73098 380
50.75109 359
50.77121 305
50.79132 307
50.81143 288
50.83155 283
50.85166 234
50.87178 242
50.89189 214
50.912 227
50.93212 229
50.95223 205
50.97234 199
50.99246 179
51.01257 203
51.03269 159
51.0528 201
51.07291 158
51.09303 200
51.11314 178
51.13325 178
51.15337 191
51.17348 163
51.1936 181
51.21371 161
51.23382 164
51.25394 177
51.27405 179
51.29416 177
51.31428 176
51.33439 181
51.3545 197
51.37462 154
51.39473 175
51.41485 168
51.43496 165
51.45507 194
51.47519 189
51.4953 174
51.51541 167
51.53553 196
51.55564 193
51.57576 179
51.59587 159
51.61598 165
51.6361 166
51.65621 176
51.67632 164
51.69644 170
51.71655 188
51.73667 171
51.75678 149
51.77689 169
51.79701 159
51.81712 190
51.83723 155
51.85735 153
51.87746 152
51.89757 136
51.91769 164
51.9378 148
51.95792 152
51.97803 166
51.99814 139
52.01826 148
52.03837 156
52.05848 143
52.0786 152
52.09871 142
52.11883 144
52.13894 185
52.15905 153
52.17917 159
52.19928 148
52.21939 165
52.23951 158
52.25962 139
52.27974 133
52.29985 168
52.31996 155
52.34008 158
52.36019 160
52.3803 153
52.40042 176
52.42053 160
52.44064 146
52.46076 152
52.48087 158
52.50099 158
52.5211 146
52.54121 165
52.56133 152
52.58144 171
52.60155 165
52.62167 154
52.64178 154
52.6619 146
52.68201 149
52.70212 177
52.72224 156
52.74235 147
52.76246 155
52.78258 153
52.80269 155
52.8228 146
52.84292 166
52.86303 156
52.88315 134
52.90326 152
52.92337 147
52.94349 173
52.9636 162
52.98371 150
53.00383 155
53.02394 174
53.04406 163
53.06417 152
53.08428 164
53.1044 173
53.12451 155
53.14462 183
53.16474 156
53.18485 176
53.20497 172
53.22508 195
53.24519 175
53.26531 191
53.28542 191
53.30553 171
53.32565 162
53.34576 144
53.36587 165
53.38599 170
53.4061 152
53.42622 203
53.44633 175
53.46644 185
53.48656 180
53.50667 169
53.52678 182
53.5469 200
53.56701 178
53.58713 213
53.60724 190
53.62735 192
53.64747 178
53.66758 184
53.68769 175
53.70781 146
53.72792 173
53.74804 159
53.76815 173
53.78826 172
53.80838 166
53.82849 175
53.8486 191
53.86872 206
53.88883 181
53.90894 171
53.92906 166
53.94917 204
53.96929 208
53.9894 170
54.00951 182
54.02963 167
54.04974 165
54.06985 172
54.08997 180
54.11008 192
54.1302 163
54.15031 176
54.17042 181
54.19054 159
54.21065 188
54.23076 178
54.25088 193
54.27099 172
54.29111 185
54.31122 181
54.33133 183
54.35145 186
54.37156 168
54.39167 204
54.41179 199
54.4319 187
54.45201 209
54.47213 195
54.49224 204
54.51236 221
54.53247 205
54.55258 237
54.5727 259
54.59281 244
54.61292 259
54.63304 289
54.65315 323
54.67327 353
54.69338 435
54.71349 452
54.73361 542
54.75372 616
54.77383 629
54.79395 759
54.81406 852
54.83417 912
54.85429 1001
54.8744 926
54.89452 751
54.91463 705
54.93474 613
54.95486 566
54.97497 601
54.99508 573
55.0152 535
55.03531 518
55.05543 380
55.07554 349
55.09565 308
55.11577 289
55.13588 279
55.15599 289
55.17611 339
55.19622 335
55.21634 380
55.23645 395
55.25656 460
55.27668 488
55.29679 516
55.3169 565
55.33702 473
55.35713 410
55.37724 339
55.39736 342
55.41747 301
55.43759 327
55.4577 327
55.47781 331
55.49793 281
55.51804 252
55.53815 228
55.55827 175
55.57838 191
55.5985 202
55.61861 170
55.63872 186
55.65884 175
55.67895 160
55.69906 180
55.71918 165
55.73929 192
55.75941 177
55.77952 152
55.79963 163
55.81975 176
55.83986 156
55.85997 145
55.88009 158
55.9002 177
55.92031 164
55.94043 180
55.96054 150
55.98066 147
56.00077 154
56.02088 153
56.041 152
56.06111 173
56.08122 137
56.10134 144
56.12145 136
56.14157 162
56.16168 162
56.18179 174
56.20191 182
56.22202 154
56.24213 146
56.26225 163
56.28236 163
56.30248 167
56.32259 155
56.3427 176
56.36282 166
56.38293 155
56.40304 144
56.42316 177
56.44327 186
56.46338 152
56.4835 177
56.50361 190
56.52373 187
56.54384 180
56.56395 162
56.58407 156
56.60418 165
56.62429 179
56.64441 189
56.66452 154
56.68464 163
56.70475 165
56.72486 183
56.74498 155
56.76509 183
56.7852 163
56.80532 173
56.82543 171
56.84554 153
56.86566 150
56.88577 162
56.90589 164
56.926 157
56.94611 144
56.96623 151
56.98634 163
57.00645 162
57.02657 163
57.04668 129
57.0668 170
57.08691 174
57.10702 171
57.12714 167
57.14725 192
57.16736 191
57.18748 191
57.20759 195
57.22771 203
57.24782 185
57.26793 167
57.28805 176
57.30816 191
57.32827 165
57.34839 182
57.3685 157
57.38861 159
57.40873 149
57.42884 164
57.44896 163
57.46907 132
57.48918 169
57.5093 182
57.52941 152
57.54952 153
57.56964 165
57.58975 169
57.60987 155
57.62998 168
57.65009 150
57.67021 138
57.69032 156
57.71043 147
57.73055 163
57.75066 149
57.77078 171
57.79089 169
57.811 170
57.83112 160
57.85123 152
57.87134 156
57.89146 162
57.91157 149
57.93168 154
57.9518 161
57.97191 174
57.99203 141
58.01214 134
58.03225 143
58.05237 148
58.07248 155
58.09259 150
58.11271 125
58.13282 152
58.15294 146
58.17305 155
58.19316 145
58.21328 149
58.23339 158
58.2535 154
58.27362 133
58.29373 138
58.31385 183
58.33396 160
58.35407 154
58.37419 170
58.3943 174
58.41441 174
58.43453 148
58.45464 161
58.47475 179
58.49487 188
58.51498 149
58.5351 157
58.55521 163
58.57532 183
58.59544 174
58.61555 159
58.63566 171
58.65578 165
58.67589 181
58.69601 197
58.71612 188
58.73623 174
58.75635 164
58.77646 173
58.79657 193
58.81669 182
58.8368 162
58.85691 161
58.87703 156
58.89714 170
58.91726 168
58.93737 167
58.95748 152
58.9776 152
58.99771 174
59.01782 175
59.03794 172
59.05805 150
59.07817 170
59.09828 165
59.11839 175
59.13851 148
59.15862 164
59.17873 163
59.19885 158
59.21896 150
59.23908 149
59.25919 175
59.2793 162
59.29942 183
59.31953 152
59.33964 170
59.35976 190
59.37987 198
59.39998 173
59.4201 178
59.44021 203
59.46033 197
59.48044 234
59.50055 206
59.52067 212
59.54078 202
59.56089 236
59.58101 253
59.60112 273
59.62124 300
59.64135 309
59.66146 338
59.68158 404
59.70169 426
59.7218 436
59.74192 557
59.76203 623
59.78215 700
59.80226 827
59.82237 997
59.84249 1182
59.8626 1343
59.88271 1574
59.90283 1805
59.92294 1733
59.94305 1770
59.96317 1726
59.98328 1498
60.0034 1078
60.02351 970
60.04362 912
60.06374 998
60.08385 989
60.10396 940
60.12408 888
60.14419 695
60.16431 492
60.18442 357
60.20453 295
60.22465 280
60.24476 253
60.26487 282
60.28499 252
60.3051 231
60.32522 223
60.34533 215
60.36544 210
60.38556 219
60.40567 217
60.42578 220
60.4459 192
60.46601 195
60.48612 201
60.50624 172
60.52635 166
60.54647 182
60.56658 177
60.58669 183
60.60681 164
60.62692 179
60.64703 160
60.66715 179
60.68726 143
60.70738 154
60.72749 177
60.7476 161
60.76772 162
60.78783 168
60.80794 181
60.82806 169
60.84817 192
60.86828 168
60.8884 165
60.90851 144
60.92863 158
60.94874 164
60.96885 189
60.98897 147
61.00908 183
61.02919 156
61.04931 143
61.06942 166
61.08954 159
61.10965 156
61.12976 158
61.14988 172
61.16999 185
61.1901 172
61.21022 140
61.23033 175
61.25045 178
61.27056 186
61.29067 171
61.31079 169
61.3309 151
61.35101 166
61.37113 170
61.39124 147
61.41135 163
61.43147 154
61.45158 190
61.4717 175
61.49181 169
61.51192 164
61.53204 173
61.55215 171
61.57226 166
61.59238 191
61.61249 166
61.63261 156
61.65272 162
61.67283 173
61.69295 180
61.71306 184
61.73317 160
61.75329 198
61.7734 186
61.79352 180
61.81363 176
61.83374 193
61.85386 201
61.87397 187
61.89408 211
61.9142 177
61.93431 206
61.95442 193
61.97454 201
61.99465 196
62.01477 189
62.03488 193
62.05499 196
62.07511 221
62.09522 193
62.11533 191
62.13545 211
62.15556 226
62.17568 204
62.19579 197
62.2159 191
62.23602 161
62.25613 183
62.27624 172
62.29636 186
62.31647 178
62.33659 169
62.3567 169
62.37681 181
62.39693 188
62.41704 182
62.43715 145
62.45727 165
62.47738 168
62.49749 160
62.51761 170
62.53772 171
62.55784 169
62.57795 152
62.59806 172
62.61818 167
62.63829 182
62.6584 163
62.67852 156
62.69863 171
62.71875 158
62.73886 176
62.75897 135
62.77909 167
62.7992 186
62.81931 153
62.83943 151
62.85954 169
62.87965 177
62.89977 145
62.91988 176
62.94 166
62.96011 140
62.98022 165
63.00034 131
63.02045 149
63.04056 153
63.06068 154
63.08079 155
63.10091 145
63.12102 145
63.14113 147
63.16125 149
63.18136 135
63.20147 131
63.22159 148
63.2417 150
63.26182 155
63.28193 157
63.30204 151
63.32216 144
63.34227 173
63.36238 157
63.3825 177
63.40261 163
63.42272 138
63.44284 167
63.46295 145
63.48307 167
63.50318 150
63.52329 152
63.54341 168
63.56352 167
63.58363 179
63.60375 165
63.62386 147
63.64398 173
63.66409 154
63.6842 194
63.70432 170
63.72443 192
63.74454 176
63.76466 198
63.78477 221
63.80489 224
63.825 220
63.84511 237
63.86523 269
63.88534 288
63.90545 323
63.92557 381
63.94568 401
63.96579 458
63.98591 450
64.00602 482
64.02614 491
64.04625 439
64.06636 374
64.08648 326
64.10659 325
64.1267 297
64.14682 314
64.16693 312
64.18705 310
64.20716 302
64.22727 292
64.24739 270
64.2675 212
64.28761 190
64.30773 199
64.32784 186
64.34796 164
64.36807 170
64.38818 173
64.4083 185
64.42841 162
64.44852 180
64.46864 160
64.48875 179
64.50886 178
64.52898 173
64.54909 161
64.56921 165
64.58932 161
64.60943 180
64.62955 180
64.64966 151
64.66977 166
64.68989 163
64.71 181
64.73012 161
64.75023 164
64.77034 175
64.79046 173
64.81057 170
64.83068 180
64.8508 156
64.87091 165
64.89102 179
64.91114 158
64.93125 154
64.95137 148
64.97148 183
64.99159 151
65.01171 145
65.03182 160
65.05193 173
65.07205 136
65.09216 183
65.11228 151
65.13239 184
65.1525 165
65.17262 175
65.19273 160
65.21284 151
65.23296 175
65.25307 163
65.27319 172
65.2933 172
65.31341 181
65.33353 159
65.35364 174
65.37375 166
65.39387 176
65.41398 173
65.43409 146
65.45421 158
65.47432 167
65.49444 161
65.51455 176
65.53466 164
65.55478 165
65.57489 173
65.595 187
65.61512 148
65.63523 188
65.65535 188
65.67546 216
65.69557 214
65.71569 197
65.7358 214
65.75591 218
65.77603 224
65.79614 217
65.81626 193
65.83637 162
65.85648 160
65.8766 166
65.89671 196
65.91682 175
65.93694 184
65.95705 176
65.97716 177
65.99728 187
66.01739 155
66.03751 161
66.05762 164
66.07773 159
66.09785 182
66.11796 150
66.13807 140
66.15819 153
66.1783 178
66.19842 167
66.21853 148
66.23864 142
66.25876 173
66.27887 168
66.29898 172
66.3191 155
66.33921 147
66.35933 177
66.37944 186
66.39955 173
66.41967 172
66.43978 170
66.45989 174
66.48001 169
66.50012 164
66.52023 148
66.54035 176
66.56046 150
66.58058 139
66.60069 171
66.6208 148
66.64092 155
66.66103 139
66.68114 152
66.70126 162
66.72137 140
66.74149 146
66.7616 154
66.78171 167
66.80183 133
66.82194 140
66.84205 143
66.86217 138
66.88228 162
66.90239 151
66.92251 164
66.94262 160
66.96274 177
66.98285 177
67.00296 173
67.02308 162
67.04319 164
67.0633 169
67.08342 200
67.10353 163
67.12365 198
67.14376 178
67.16387 155
67.18399 164
67.2041 172
67.22421 208
67.24433 164
67.26444 200
67.28456 193
67.30467 214
67.32478 226
67.3449 262
67.36501 273
67.38512 242
67.40524 247
67.42535 274
67.44546 300
67.46558 290
67.48569 348
67.50581 422
67.52592 431
67.54603 467
67.56615 550
67.58626 614
67.60637 685
67.62649 782
67.6466 910
67.66672 930
67.68683 1043
67.70694 1138
67.72706 1103
67.74717 1056
67.76728 967
67.7874 752
67.80751 719
67.82763 735
67.84774 739
67.86785 788
67.88797 863
67.90808 891
67.92819 946
67.94831 911
67.96842 874
67.98853 888
68.00865 927
68.02876 1075
68.04888 1205
68.06899 1253
68.0891 1397
68.10922 1460
68.12933 1528
68.14944 1461
68.16956 1380
68.18967 1260
68.20979 1088
68.2299 1201
68.25001 1217
68.27013 1289
68.29024 1365
68.31035 1330
68.33047 1166
68.35058 1025
68.3707 805
68.39081 604
68.41092 551
68.43104 564
68.45115 557
68.47126 539
68.49138 496
68.51149 436
68.5316 390
68.55172 291
68.57183 267
68.59195 225
68.61206 198
68.63217 192
68.65229 200
68.6724 200
68.69251 199
68.71263 188
68.73274 165
68.75286 191
68.77297 164
68.79308 175
68.8132 168
68.83331 158
68.85342 177
68.87354 179
68.89365 190
68.91376 158
68.93388 152
68.95399 154
68.97411 170
68.99422 181
69.01433 147
69.03445 167
69.05456 127
69.07467 158
69.09479 171
69.1149 157
69.13502 142
69.15513 134
69.17524 149
69.19536 139
69.21547 139
69.23558 149
69.2557 142
69.27581 134
69.29593 143
69.31604 153
69.33615 142
69.35627 134
69.37638 151
69.39649 147
69.41661 139
69.43672 145
69.45683 141
69.47695 145
69.49706 147
69.51718 145
69.53729 156
69.5574 155
69.57752 159
69.59763 145
69.61774 143
69.63786 151
69.65797 129
69.67809 135
69.6982 132
69.71831 142
69.73843 136
69.75854 139
69.77865 151
69.79877 141
69.81888 132
69.839 152
69.85911 157
69.87922 152
69.89934 131
69.91945 139
69.93956 149
69.95968 119
69.97979 153
69.9999 156
70.02002 126
70.04013 150
70.06025 114
70.08036 150
70.10047 128
70.12059 139
70.1407 142
70.16081 136
70.18093 149
70.20104 142
70.22116 143
70.24127 161
70.26138 146
70.2815 155
70.30161 173
70.32172 139
70.34184 123
70.36195 143
70.38207 170
70.40218 146
70.42229 128
70.44241 140
70.46252 164
70.48263 137
70.50275 143
70.52286 133
70.54297 158
70.56309 119
70.5832 147
70.60332 137
70.62343 143
70.64354 149
70.66366 130
70.68377 130
70.70388 126
70.724 147
70.74411 132
70.76423 156
70.78434 137
70.80445 148
70.82457 139
70.84468 153
70.86479 138
70.88491 151
70.90502 123
70.92513 148
70.94525 149
70.96536 123
70.98548 133
71.00559 154
71.0257 133
71.04582 147
71.06593 135
71.08604 155
71.10616 126
71.12627 133
71.14639 119
71.1665 154
71.18661 134
71.20673 157
71.22684 135
71.24695 144
71.26707 154
71.28718 122
71.3073 146
71.32741 122
71.34752 118
71.36764 157
71.38775 123
71.40786 129
71.42798 133
71.44809 131
71.4682 117
71.48832 137
71.50843 133
71.52855 149
71.54866 136
71.56877 141
71.58889 157
71.609 134
71.62911 143
71.64923 159
71.66934 144
71.68946 141
71.70957 121
71.72968 148
71.7498 136
71.76991 155
71.79002 145
71.81014 149
71.83025 152
71.85037 167
71.87048 156
71.89059 153
71.91071 143
71.93082 152
71.95093 151
71.97105 145
71.99116 166
72.01127 146
72.03139 169
72.0515 154
72.07162 151
72.09173 138
72.11184 147
72.13196 142
72.15207 140
72.17218 150
72.1923 148
72.21241 140
72.23253 144
72.25264 136
72.27275 124
72.29287 157
72.31298 153
72.33309 148
72.35321 155
72.37332 153
72.39344 144
72.41355 146
72.43366 147
72.45378 162
72.47389 150
72.494 154
72.51412 135
72.53423 143
72.55434 143
72.57446 160
72.59457 146
72.61469 157
72.6348 140
72.65491 149
72.67503 143
72.69514 136
72.71525 153
72.73537 155
72.75548 132
72.7756 168
72.79571 150
72.81582 173
72.83594 150
72.85605 141
72.87616 165
72.89628 152
72.91639 136
72.9365 150
72.95662 162
72.97673 157
72.99685 169
73.01696 171
73.03707 178
73.05719 163
73.0773 145
73.09741 149
73.11753 185
73.13764 189
73.15776 182
73.17787 178
73.19798 201
73.2181 212
73.23821 221
73.25832 236
73.27844 259
73.29855 310
73.31867 323
73.33878 362
73.35889 409
73.37901 415
73.39912 444
73.41923 470
73.43935 514
73.45946 489
73.47957 425
73.49969 401
73.5198 323
73.53992 289
73.56003 298
73.58014 260
73.60026 281
73.62037 285
73.64048 288
73.6606 277
73.68071 291
73.70083 265
73.72094 253
73.74105 189
73.76117 180
73.78128 174
73.80139 160
73.82151 180
73.84162 169
73.86174 160
73.88185 179
73.90196 152
73.92208 163
73.94219 157
73.9623 154
73.98242 152
74.00253 142
74.02264 166
74.04276 163
74.06287 153
74.08299 150
74.1031 134
74.12321 168
74.14333 142
74.16344 154
74.18355 167
74.20367 157
74.22378 174
74.2439 152
74.26401 163
74.28412 156
74.30424 159
74.32435 149
74.34446 164
74.36458 150
74.38469 180
74.40481 138
74.42492 165
74.44503 146
74.46515 148
74.48526 152
74.50537 149
74.52549 165
74.5456 155
74.56571 151
74.58583 129
74.60594 158
74.62606 147
74.64617 155
74.66628 154
74.6864 115
74.70651 138
74.72662 140
74.74674 145
74.76685 144
74.78697 133
74.80708 153
74.82719 142
74.84731 134
74.86742 147
74.88753 143
74.90765 158
74.92776 145
74.94787 150
74.96799 139
74.9881 169
75.00822 144
