3.00117 20978
3.02128 20551
3.0414 19950
3.06151 19791
3.08162 19248
3.10174 18195
3.12185 18112
3.14197 17657
3.16208 16695
3.18219 16726
3.20231 16137
3.22242 15684
3.24253 15416
3.26265 14883
3.28276 14386
3.30288 13943
3.32299 13161
3.3431 13301
3.36322 12482
3.38333 12537
3.40344 11529
3.42356 11483
3.44367 11171
3.46379 10675
3.4839 10369
3.50401 9751
3.52413 9707
3.54424 9466
3.56435 8960
3.58447 8846
3.60458 8340
3.62469 8150
3.64481 7940
3.66492 7393
3.68504 7268
3.70515 6879
3.72526 6754
3.74538 6506
3.76549 5896
3.7856 5928
3.80572 5622
3.82583 5584
3.84595 5369
3.86606 4929
3.88617 4892
3.90629 4661
3.9264 4521
3.94651 4194
3.96663 3987
3.98674 3984
4.00686 3744
4.02697 3613
4.04708 3608
4.0672 3184
4.08731 3139
4.10742 3037
4.12754 2922
4.14765 2901
4.16776 2525
4.18788 2513
4.20799 2409
4.22811 2309
4.24822 2411
4.26833 2216
4.28845 2189
4.30856 2069
4.32867 2017
4.34879 2083
4.3689 1837
4.38902 1813
4.40913 1812
4.42924 1752
4.44936 1725
4.46947 1612
4.48958 1663
4.5097 1619
4.52981 1589
4.54992 1535
4.57004 1320
4.59015 1524
4.61027 1431
4.63038 1377
4.65049 1473
4.67061 1194
4.69072 1275
4.71083 1341
4.73095 1216
4.75106 1223
4.77118 1155
4.79129 1242
4.8114 1163
4.83152 1125
4.85163 1177
4.87174 1092
4.89186 1017
4.91197 1089
4.93209 1047
4.9522 978
4.97231 1006
4.99243 1013
5.01254 971
5.03265 942
5.05277 953
5.07288 840
5.09299 890
5.11311 810
5.13322 908
5.15334 819
5.17345 789
5.19356 818
5.21368 836
5.23379 755
5.2539 770
5.27402 745
5.29413 747
5.31425 765
5.33436 749
5.35447 686
5.37459 678
5.3947 698
5.41481 675
5.43493 708
5.45504 653
5.47516 703
5.49527 676
5.51538 644
5.5355 661
5.55561 657
5.57572 616
5.59584 624
5.61595 572
5.63606 618
5.65618 603
5.67629 582
5.69641 554
5.71652 537
5.73663 602
5.75675 550
5.77686 563
5.79697 504
5.81709 556
5.8372 563
5.85732 539
5.87743 545
5.89754 550
5.91766 523
5.93777 506
5.95788 517
5.978 515
5.99811 546
6.01823 518
6.03834 554
6.05845 534
6.07857 527
6.09868 549
6.11879 580
6.13891 499
6.15902 556
6.17913 487
6.19925 499
6.21936 489
6.23948 503
6.25959 465
6.2797 508
6.29982 479
6.31993 482
6.34004 487
6.36016 518
6.38027 492
6.40039 476
6.4205 497
6.44061 477
6.46073 478
6.48084 463
6.50095 456
6.52107 464
6.54118 462
6.56129 483
6.58141 458
6.60152 474
6.62164 484
6.64175 513
6.66186 462
6.68198 459
6.70209 425
6.7222 501
6.74232 455
6.76243 450
6.78255 409
6.80266 443
6.82277 471
6.84289 488
6.863 463
6.88311 499
6.90323 465
6.92334 485
6.94346 453
6.96357 434
6.98368 463
7.0038 490
7.02391 502
7.04402 467
7.06414 459
7.08425 506
7.10436 520
7.12448 494
7.14459 483
7.16471 509
7.18482 491
7.20493 558
7.22505 492
7.24516 540
7.26527 553
7.28539 514
7.3055 541
7.32562 550
7.34573 551
7.36584 477
7.38596 548
7.40607 512
7.42618 532
7.4463 555
7.46641 557
7.48653 509
7.50664 462
7.52675 476
7.54687 536
7.56698 533
7.58709 491
7.60721 521
7.62732 461
7.64743 519
7.66755 467
7.68766 478
7.70778 507
7.72789 504
7.748 489
7.76812 512
7.78823 501
7.80834 526
7.82846 534
7.84857 473
7.86869 457
7.8888 507
7.90891 502
7.92903 501
7.94914 501
7.96925 527
7.98937 524
8.00948 498
8.0296 479
8.04971 476
8.06982 491
8.08994 502
8.11005 538
8.13016 506
8.15028 518
8.17039 514
8.1905 532
8.21062 538
8.23073 535
8.25085 498
8.27096 467
8.29107 538
8.31119 534
8.3313 515
8.35141 512
8.37153 524
8.39164 490
8.41176 471
8.43187 513
8.45198 502
8.4721 520
8.49221 506
8.51232 463
8.53244 495
8.55255 525
8.57266 516
8.59278 481
8.61289 512
8.63301 568
8.65312 529
8.67323 505
8.69335 503
8.71346 548
8.73357 530
8.75369 561
8.7738 503
8.79392 521
8.81403 470
8.83414 444
8.85426 462
8.87437 489
8.89448 491
8.9146 468
8.93471 508
8.95483 470
8.97494 497
8.99505 468
9.01517 468
9.03528 442
9.05539 470
9.07551 495
9.09562 454
9.11573 464
9.13585 462
9.15596 433
9.17608 496
9.19619 472
9.2163 450
9.23642 468
9.25653 438
9.27664 465
9.29676 435
9.31687 409
9.33699 439
9.3571 461
9.37721 456
9.39733 431
9.41744 471
9.43755 450
9.45767 421
9.47778 463
9.4979 415
9.51801 466
9.53812 413
9.55824 480
9.57835 455
9.59846 436
9.61858 448
9.63869 451
9.6588 472
9.67892 425
9.69903 434
9.71915 430
9.73926 404
9.75937 466
9.77949 390
9.7996 461
9.81971 446
9.83983 407
9.85994 452
9.88006 451
9.90017 424
9.92028 443
9.9404 467
9.96051 436
9.98062 430
10.00074 423
10.02085 382
10.04097 441
10.06108 427
10.08119 468
10.10131 424
10.12142 442
10.14153 427
10.16165 480
10.18176 466
10.20187 423
10.22199 423
10.2421 467
10.26222 437
10.28233 463
10.30244 441
10.32256 453
10.34267 488
10.36278 479
10.3829 506
10.40301 461
10.42313 466
10.44324 462
10.46335 420
10.48347 449
10.50358 459
10.52369 426
10.54381 424
10.56392 444
10.58403 439
10.60415 451
10.62426 414
10.64438 442
10.66449 429
10.6846 453
10.70472 418
10.72483 407
10.74494 463
10.76506 430
10.78517 447
10.80529 471
10.8254 445
10.84551 466
10.86563 469
10.88574 471
10.90585 447
10.92597 469
10.94608 456
10.9662 455
10.98631 493
11.00642 403
11.02654 473
11.04665 451
11.06676 476
11.08688 498
11.10699 443
11.1271 451
11.14722 402
11.16733 471
11.18745 495
11.20756 484
11.22767 457
11.24779 503
11.2679 520
11.28801 498
11.30813 501
11.32824 506
11.34836 506
11.36847 547
11.38858 479
11.4087 565
11.42881 548
11.44892 542
11.46904 523
11.48915 482
11.50927 551
11.52938 531
11.54949 584
11.56961 539
11.58972 518
11.60983 500
11.62995 615
11.65006 556
11.67017 531
11.69029 601
11.7104 587
11.73052 596
11.75063 601
11.77074 615
11.79086 663
11.81097 671
11.83108 639
11.8512 719
11.87131 682
11.89143 716
11.91154 738
11.93165 725
11.95177 715
11.97188 808
11.99199 809
12.01211 717
12.03222 820
12.05234 775
12.07245 832
12.09256 808
12.11268 859
12.13279 827
12.1529 848
12.17302 852
12.19313 806
12.21324 873
12.23336 842
12.25347 799
12.27359 769
12.2937 774
12.31381 734
12.33393 726
12.35404 738
12.37415 648
12.39427 632
12.41438 622
12.4345 655
12.45461 642
12.47472 611
12.49484 576
12.51495 531
12.53506 549
12.55518 546
12.57529 560
12.5954 512
12.61552 485
12.63563 495
12.65575 504
12.67586 476
12.69597 464
12.71609 467
12.7362 458
12.75631 473
12.77643 394
12.79654 431
12.81666 473
12.83677 450
12.85688 432
12.877 416
12.89711 419
12.91722 403
12.93734 442
12.95745 433
12.97757 421
12.99768 435
13.01779 431
13.03791 430
13.05802 423
13.07813 435
13.09825 438
13.11836 423
13.13847 392
13.15859 353
13.1787 410
13.19882 392
13.21893 404
13.23904 449
13.25916 389
13.27927 369
13.29938 402
13.3195 372
13.33961 398
13.35973 400
13.37984 429
13.39995 373
13.42007 404
13.44018 406
13.46029 451
13.48041 456
13.50052 371
13.52064 434
13.54075 428
13.56086 434
13.58098 392
13.60109 424
13.6212 412
13.64132 380
13.66143 403
13.68154 419
13.70166 419
13.72177 386
13.74189 392
13.762 397
13.78211 370
13.80223 417
13.82234 340
13.84245 405
13.86257 383
13.88268 396
13.9028 361
13.92291 357
13.94302 370
13.96314 385
13.98325 394
14.00336 395
14.02348 380
14.04359 371
14.06371 366
14.08382 402
14.10393 434
14.12405 381
14.14416 394
14.16427 371
14.18439 391
14.2045 366
14.22461 390
14.24473 403
14.26484 386
14.28496 371
14.30507 348
14.32518 346
14.3453 421
14.36541 388
14.38552 401
14.40564 420
14.42575 354
14.44587 340
14.46598 393
14.48609 417
14.50621 382
14.52632 366
14.54643 368
14.56655 355
14.58666 394
14.60677 377
14.62689 373
14.647 381
14.66712 395
14.68723 343
14.70734 404
14.72746 374
14.74757 395
14.76768 393
14.7878 368
14.80791 398
14.82803 398
14.84814 395
14.86825 397
14.88837 424
14.90848 353
14.92859 349
14.94871 391
14.96882 431
14.98894 428
15.00905 386
15.02916 385
15.04928 391
15.06939 385
15.0895 395
15.10962 378
15.12973 387
15.14984 367
15.16996 418
15.19007 386
15.21019 375
15.2303 423
15.25041 394
15.27053 340
15.29064 369
15.31075 393
15.33087 369
15.35098 368
15.3711 389
15.39121 341
15.41132 385
15.43144 399
15.45155 357
15.47166 357
15.49178 401
15.51189 428
15.53201 379
15.55212 382
15.57223 357
15.59235 380
15.61246 385
15.63257 370
15.65269 377
15.6728 372
15.69291 386
15.71303 402
15.73314 353
15.75326 380
15.77337 376
15.79348 362
15.8136 347
15.83371 390
15.85382 360
15.87394 384
15.89405 364
15.91417 351
15.93428 395
15.95439 422
15.97451 418
15.99462 366
16.01473 376
16.03485 394
16.05496 383
16.07508 366
16.09519 412
16.1153 370
16.13542 378
16.15553 375
16.17564 403
16.19576 356
16.21587 400
16.23598 372
16.2561 380
16.27621 376
16.29633 409
16.31644 393
16.33655 382
16.35667 415
16.37678 376
16.39689 383
16.41701 382
16.43712 381
16.45724 363
16.47735 369
16.49746 367
16.51758 402
16.53769 380
16.5578 383
16.57792 372
16.59803 355
16.61814 397
16.63826 389
16.65837 361
16.67849 358
16.6986 365
16.71871 404
16.73883 370
16.75894 384
16.77905 391
16.79917 394
16.81928 366
16.8394 378
16.85951 389
16.87962 356
16.89974 375
16.91985 362
16.93996 382
16.96008 372
16.98019 372
17.00031 401
17.02042 396
17.04053 377
17.06065 399
17.08076 352
17.10087 365
17.12099 386
17.1411 378
17.16121 370
17.18133 392
17.20144 373
17.22156 361
17.24167 406
17.26178 362
17.2819 351
17.30201 412
17.32212 405
17.34224 366
17.36235 386
17.38247 386
17.40258 373
17.42269 419
17.44281 397
17.46292 383
17.48303 382
17.50315 385
17.52326 392
17.54338 401
17.56349 378
17.5836 408
17.60372 412
17.62383 430
17.64394 418
17.66406 373
17.68417 366
17.70428 404
17.7244 431
17.74451 429
17.76463 379
17.78474 398
17.80485 405
17.82497 390
17.84508 354
17.86519 396
17.88531 425
17.90542 365
17.92554 392
17.94565 384
17.96576 399
17.98588 385
18.00599 422
18.0261 376
18.04622 423
18.06633 422
18.08645 451
18.10656 404
18.12667 416
18.14679 378
18.1669 423
18.18701 370
18.20713 421
18.22724 406
18.24735 414
18.26747 360
18.28758 416
18.3077 397
18.32781 425
18.34792 396
18.36804 393
18.38815 438
18.40826 377
18.42838 364
18.44849 399
18.46861 381
18.48872 366
18.50883 407
18.52895 391
18.54906 398
18.56917 368
18.58929 385
18.6094 409
18.62951 358
18.64963 412
18.66974 414
18.68986 426
18.70997 438
18.73008 392
18.7502 436
18.77031 388
18.79042 384
18.81054 380
18.83065 426
18.85077 392
18.87088 373
18.89099 435
18.91111 410
18.93122 388
18.95133 404
18.97145 415
18.99156 413
19.01168 414
19.03179 384
19.0519 395
19.07202 432
19.09213 458
19.11224 461
19.13236 421
19.15247 489
19.17258 474
19.1927 481
19.21281 450
19.23293 425
19.25304 500
19.27315 526
19.29327 491
19.31338 479
19.33349 476
19.35361 473
19.37372 489
19.39384 460
19.41395 462
19.43406 485
19.45418 485
19.47429 536
19.4944 526
19.51452 551
19.53463 552
19.55475 594
19.57486 589
19.59497 613
19.61509 642
19.6352 706
19.65531 774
19.67543 776
19.69554 747
19.71565 835
19.73577 837
19.75588 851
19.776 838
19.79611 872
19.81622 861
19.83634 739
19.85645 740
19.87656 817
19.89668 739
19.91679 753
19.93691 766
19.95702 758
19.97713 746
19.99725 754
20.01736 729
20.03747 794
20.05759 791
20.0777 749
20.09782 722
20.11793 789
20.13804 772
20.15816 796
20.17827 808
20.19838 724
20.2185 767
20.23861 824
20.25872 840
20.27884 699
20.29895 754
20.31907 760
20.33918 785
20.35929 816
20.37941 792
20.39952 792
20.41963 757
20.43975 774
20.45986 784
20.47998 803
20.50009 819
20.5202 780
20.54032 848
20.56043 982
20.58054 1080
20.60066 1155
20.62077 1361
20.64088 1639
20.661 1982
20.68111 2224
20.70123 2512
20.72134 2625
20.74145 2735
20.76157 2503
20.78168 2149
20.80179 1774
20.82191 1517
20.84202 1318
20.86214 1201
20.88225 1112
20.90236 986
20.92248 953
20.94259 957
20.9627 861
20.98282 839
21.00293 789
21.02305 797
21.04316 764
21.06327 749
21.08339 757
21.1035 762
21.12361 767
21.14373 753
21.16384 779
21.18395 727
21.20407 800
21.22418 712
21.2443 743
21.26441 738
21.28452 743
21.30464 685
21.32475 696
21.34486 736
21.36498 669
21.38509 662
21.40521 694
21.42532 667
21.44543 635
21.46555 679
21.48566 663
21.50577 627
21.52589 657
21.546 627
21.56612 638
21.58623 632
21.60634 625
21.62646 626
21.64657 624
21.66668 612
21.6868 591
21.70691 636
21.72702 620
21.74714 601
21.76725 592
21.78737 607
21.80748 605
21.82759 630
21.84771 615
21.86782 633
21.88793 662
21.90805 624
21.92816 634
21.94828 636
21.96839 577
21.9885 577
22.00862 530
22.02873 609
22.04884 580
22.06896 622
22.08907 563
22.10919 603
22.1293 607
22.14941 571
22.16953 578
22.18964 628
22.20975 585
22.22987 611
22.24998 618
22.27009 627
22.29021 570
22.31032 551
22.33044 549
22.35055 609
22.37066 589
22.39078 641
22.41089 581
22.431 614
22.45112 605
22.47123 533
22.49135 589
22.51146 541
22.53157 563
22.55169 578
22.5718 541
22.59191 540
22.61203 592
22.63214 558
22.65225 587
22.67237 578
22.69248 568
22.7126 548
22.73271 534
22.75282 552
22.77294 569
22.79305 579
22.81316 602
22.83328 576
22.85339 531
22.87351 598
22.89362 539
22.91373 601
22.93385 591
22.95396 557
22.97407 571
22.99419 524
23.0143 566
23.03442 565
23.05453 581
23.07464 604
23.09476 592
23.11487 625
23.13498 606
23.1551 553
23.17521 584
23.19532 605
23.21544 592
23.23555 646
23.25567 586
23.27578 597
23.29589 635
23.31601 639
23.33612 605
23.35623 623
23.37635 644
23.39646 677
23.41658 650
23.43669 688
23.4568 634
23.47692 638
23.49703 629
23.51714 591
23.53726 677
23.55737 610
23.57749 624
23.5976 594
23.61771 554
23.63783 641
23.65794 599
23.67805 583
23.69817 606
23.71828 572
23.73839 592
23.75851 552
23.77862 614
23.79874 620
23.81885 575
23.83896 657
23.85908 584
23.87919 619
23.8993 581
23.91942 601
23.93953 567
23.95965 613
23.97976 586
23.99987 621
24.01999 608
24.0401 617
24.06021 619
24.08033 622
24.10044 629
24.12056 638
24.14067 657
24.16078 710
24.1809 614
24.20101 695
24.22112 652
24.24124 689
24.26135 690
24.28146 652
24.30158 703
24.32169 703
24.34181 694
24.36192 674
24.38203 705
24.40215 744
24.42226 689
24.44237 766
24.46249 671
24.4826 722
24.50272 710
24.52283 807
24.54294 799
24.56306 767
24.58317 815
24.60328 783
24.6234 831
24.64351 778
24.66362 851
24.68374 893
24.70385 858
24.72397 873
24.74408 818
24.76419 869
24.78431 917
24.80442 895
24.82453 869
24.84465 836
24.86476 880
24.88488 768
24.90499 779
24.9251 789
24.94522 741
24.96533 793
24.98544 736
25.00556 747
25.02567 768
25.04579 717
25.0659 734
25.08601 693
25.10613 769
25.12624 726
25.14635 743
25.16647 723
25.18658 660
25.20669 726
25.22681 656
25.24692 687
25.26704 625
25.28715 724
25.30726 645
25.32738 676
25.34749 668
25.3676 660
25.38772 699
25.40783 700
25.42795 712
25.44806 801
25.46817 781
25.48829 723
25.5084 746
25.52851 763
25.54863 773
25.56874 723
25.58886 724
25.60897 706
25.62908 680
25.6492 700
25.66931 694
25.68942 632
25.70954 665
25.72965 700
25.74976 641
25.76988 640
25.78999 671
25.81011 705
25.83022 725
25.85033 655
25.87045 734
25.89056 667
25.91067 724
25.93079 764
25.9509 704
25.97102 725
25.99113 698
26.01124 737
26.03136 746
26.05147 756
26.07158 775
26.0917 809
26.11181 847
26.13193 900
26.15204 876
26.17215 1002
26.19227 987
26.21238 1020
26.23249 1108
26.25261 1308
26.27272 1359
26.29283 1538
26.31295 1776
26.33306 2142
26.35318 2537
26.37329 3193
26.3934 4119
26.41352 5362
26.43363 6345
26.45374 7778
26.47386 9291
26.49397 10146
26.51409 10196
26.5342 9264
26.55431 7873
26.57443 6366
26.59454 4965
26.61465 3679
26.63477 2661
26.65488 2000
26.67499 1542
26.69511 1293
26.71522 1205
26.73534 1108
26.75545 1007
26.77556 977
26.79568 979
26.81579 931
26.8359 847
26.85602 869
26.87613 861
26.89625 819
26.91636 876
26.93647 873
26.95659 870
26.9767 820
26.99681 791
27.01693 717
27.03704 686
27.05716 729
27.07727 697
27.09738 638
27.1175 624
27.13761 597
27.15772 677
27.17784 651
27.19795 649
27.21806 713
27.23818 754
27.25829 748
27.27841 794
27.29852 839
27.31863 908
27.33875 849
27.35886 939
27.37897 968
27.39909 884
27.4192 857
27.43932 763
27.45943 749
27.47954 685
27.49966 698
27.51977 615
27.53988 604
27.56 608
27.58011 599
27.60023 563
27.62034 628
27.64045 578
27.66057 633
27.68068 555
27.70079 564
27.72091 556
27.74102 571
27.76113 507
27.78125 589
27.80136 515
27.82148 558
27.84159 537
27.8617 521
27.88182 544
27.90193 548
27.92204 478
27.94216 560
27.96227 518
27.98239 497
28.0025 469
28.02261 491
28.04273 493
28.06284 494
28.08295 467
28.10307 502
28.12318 466
28.1433 517
28.16341 469
28.18352 479
28.20364 479
28.22375 428
28.24386 498
28.26398 496
28.28409 494
28.3042 485
28.32432 420
28.34443 491
28.36455 506
28.38466 501
28.40477 498
28.42489 483
28.445 519
28.46511 501
28.48523 522
28.50534 473
28.52546 494
28.54557 491
28.56568 479
28.5858 470
28.60591 494
28.62602 479
28.64614 492
28.66625 497
28.68636 475
28.70648 475
28.72659 498
28.74671 512
28.76682 497
28.78693 452
28.80705 514
28.82716 477
28.84727 484
28.86739 458
28.8875 481
28.90762 479
28.92773 526
28.94784 479
28.96796 495
28.98807 501
29.00818 483
29.0283 473
29.04841 513
29.06853 505
29.08864 432
29.10875 474
29.12887 484
29.14898 466
29.16909 444
29.18921 452
29.20932 462
29.22943 480
29.24955 496
29.26966 504
29.28978 487
29.30989 464
29.33 517
29.35012 484
29.37023 466
29.39034 502
29.41046 501
29.43057 446
29.45069 533
29.4708 485
29.49091 509
29.51103 477
29.53114 498
29.55125 513
29.57137 462
29.59148 507
29.6116 511
29.63171 502
29.65182 552
29.67194 579
29.69205 545
29.71216 554
29.73228 568
29.75239 514
29.7725 554
29.79262 531
29.81273 491
29.83285 552
29.85296 490
29.87307 511
29.89319 538
29.9133 514
29.93341 489
29.95353 503
29.97364 489
29.99376 495
30.01387 501
30.03398 478
30.0541 485
30.07421 513
30.09432 495
30.11444 521
30.13455 511
30.15467 445
30.17478 489
30.19489 507
30.21501 465
30.23512 478
30.25523 488
30.27535 481
30.29546 502
30.31557 451
30.33569 467
30.3558 460
30.37592 487
30.39603 492
30.41614 444
30.43626 471
30.45637 474
30.47648 488
30.4966 532
30.51671 501
30.53683 471
30.55694 506
30.57705 490
30.59717 529
30.61728 513
30.63739 555
30.65751 524
30.67762 536
30.69773 541
30.71785 477
30.73796 516
30.75808 521
30.77819 512
30.7983 480
30.81842 486
30.83853 513
30.85864 473
30.87876 503
30.89887 446
30.91899 482
30.9391 451
30.95921 463
30.97933 437
30.99944 500
31.01955 435
31.03967 422
31.05978 417
31.0799 464
31.10001 429
31.12012 439
31.14024 429
31.16035 452
31.18046 416
31.20058 429
31.22069 430
31.2408 420
31.26092 432
31.28103 430
31.30115 463
31.32126 428
31.34137 430
31.36149 459
31.3816 423
31.40171 432
31.42183 400
31.44194 395
31.46206 434
31.48217 449
31.50228 426
31.5224 416
31.54251 409
31.56262 421
31.58274 437
31.60285 428
31.62297 437
31.64308 443
31.66319 430
31.68331 411
31.70342 439
31.72353 423
31.74365 455
31.76376 401
31.78387 423
31.80399 446
31.8241 444
31.84422 426
31.86433 432
31.88444 438
31.90456 463
31.92467 462
31.94478 442
31.9649 433
31.98501 480
32.00513 441
32.02524 437
32.04535 483
32.06547 433
32.08558 492
32.10569 465
32.12581 486
32.14592 457
32.16604 475
32.18615 457
32.20626 471
32.22638 472
32.24649 480
32.2666 515
32.28672 482
32.30683 493
32.32694 449
32.34706 481
32.36717 464
32.38729 451
32.4074 444
32.42751 458
32.44763 484
32.46774 471
32.48785 479
32.50797 467
32.52808 468
32.5482 454
32.56831 447
32.58842 452
32.60854 483
32.62865 485
32.64876 482
32.66888 421
32.68899 456
32.7091 487
32.72922 474
32.74933 500
32.76945 474
32.78956 451
32.80967 466
32.82979 417
32.8499 450
32.87001 503
32.89013 472
32.91024 453
32.93036 485
32.95047 456
32.97058 458
32.9907 488
33.01081 501
33.03092 462
33.05104 470
33.07115 487
33.09127 464
33.11138 410
33.13149 467
33.15161 451
33.17172 438
33.19183 461
33.21195 451
33.23206 504
33.25217 442
33.27229 461
33.2924 499
33.31252 458
33.33263 496
33.35274 470
33.37286 467
33.39297 467
33.41308 447
33.4332 507
33.45331 448
33.47343 471
33.49354 443
33.51365 472
33.53377 425
33.55388 459
33.57399 476
33.59411 442
33.61422 451
33.63434 528
33.65445 496
33.67456 469
33.69468 488
33.71479 488
33.7349 452
33.75502 458
33.77513 471
33.79524 477
33.81536 505
33.83547 484
33.85559 502
33.8757 474
33.89581 549
33.91593 518
33.93604 529
33.95615 534
33.97627 565
33.99638 516
34.0165 598
34.03661 598
34.05672 596
34.07684 607
34.09695 655
34.11706 604
34.13718 661
34.15729 595
34.17741 644
34.19752 598
34.21763 577
34.23775 587
34.25786 578
34.27797 635
34.29809 583
34.3182 579
34.33831 590
34.35843 521
34.37854 572
34.39866 548
34.41877 567
34.43888 586
34.459 551
34.47911 622
34.49922 618
34.51934 583
34.53945 653
34.55957 635
34.57968 649
34.59979 670
34.61991 705
34.64002 663
34.66013 736
34.68025 683
34.70036 660
34.72047 743
34.74059 730
34.7607 741
34.78082 694
34.80093 743
34.82104 774
34.84116 773
34.86127 703
34.88138 713
34.9015 684
34.92161 776
34.94173 716
34.96184 689
34.98195 729
35.00207 697
35.02218 726
35.04229 689
35.06241 698
35.08252 658
35.10264 703
35.12275 674
35.14286 656
35.16298 671
35.18309 648
35.2032 657
35.22332 645
35.24343 654
35.26354 644
35.28366 646
35.30377 664
35.32389 680
35.344 642
35.36411 620
35.38423 635
35.40434 639
35.42445 679
35.44457 633
35.46468 603
35.4848 643
35.50491 596
35.52502 606
35.54514 576
35.56525 643
35.58536 619
35.60548 643
35.62559 644
35.64571 665
35.66582 651
35.68593 633
35.70605 638
35.72616 639
35.74627 634
35.76639 634
35.7865 645
35.80661 661
35.82673 673
35.84684 637
35.86696 604
35.88707 585
35.90718 582
35.9273 568
35.94741 603
35.96752 576
35.98764 630
36.00775 583
36.02787 593
36.04798 583
36.06809 575
36.08821 560
36.10832 536
36.12843 615
36.14855 607
36.16866 623
36.18878 609
36.20889 585
36.229 638
36.24912 653
36.26923 715
36.28934 777
36.30946 837
36.32957 876
36.34968 999
36.3698 1154
36.38991 1211
36.41003 1199
36.43014 1133
36.45025 1057
36.47037 982
36.49048 946
36.51059 842
36.53071 803
36.55082 768
36.57094 671
36.59105 640
36.61116 596
36.63128 509
36.65139 580
36.6715 604
36.69162 585
36.71173 573
36.73184 598
36.75196 612
36.77207 633
36.79219 625
36.8123 591
36.83241 513
36.85253 620
36.87264 644
36.89275 561
36.91287 595
36.93298 600
36.9531 605
36.97321 604
36.99332 578
37.01344 590
37.03355 539
37.05366 551
37.07378 561
37.09389 553
37.11401 558
37.13412 561
37.15423 519
37.17435 568
37.19446 475
37.21457 540
37.23469 553
37.2548 546
37.27491 534
37.29503 523
37.31514 583
37.33526 534
37.35537 555
37.37548 507
37.3956 557
37.41571 543
37.43582 544
37.45594 574
37.47605 533
37.49617 522
37.51628 561
37.53639 544
37.55651 546
37.57662 518
37.59673 593
37.61685 579
37.63696 568
37.65708 583
37.67719 562
37.6973 570
37.71742 535
37.73753 512
37.75764 539
37.77776 540
37.79787 513
37.81798 509
37.8381 552
37.85821 573
37.87833 549
37.89844 558
37.91855 567
37.93867 578
37.95878 580
37.97889 518
37.99901 559
38.01912 598
38.03924 574
38.05935 622
38.07946 587
38.09958 606
38.11969 628
38.1398 575
38.15992 623
38.18003 643
38.20015 606
38.22026 615
38.24037 611
38.26049 637
38.2806 613
38.30071 637
38.32083 615
38.34094 634
38.36105 613
38.38117 618
38.40128 624
38.4214 635
38.44151 587
38.46162 589
38.48174 629
38.50185 573
38.52196 580
38.54208 608
38.56219 542
38.58231 608
38.60242 531
38.62253 509
38.64265 548
38.66276 500
38.68287 525
38.70299 504
38.7231 536
38.74321 530
38.76333 577
38.78344 521
38.80356 557
38.82367 566
38.84378 513
38.8639 550
38.88401 560
38.90412 560
38.92424 535
38.94435 584
38.96447 566
38.98458 559
39.00469 563
39.02481 602
39.04492 616
39.06503 634
39.08515 600
39.10526 598
39.12538 620
39.14549 638
39.1656 685
39.18572 719
39.20583 749
39.22594 746
39.24606 864
39.26617 912
39.28628 1039
39.3064 1042
39.32651 1074
39.34663 988
39.36674 982
39.38685 913
39.40697 819
39.42708 738
39.44719 744
39.46731 689
39.48742 613
39.50754 587
39.52765 541
39.54776 513
39.56788 506
39.58799 491
39.6081 548
39.62822 514
39.64833 495
39.66845 490
39.68856 456
39.70867 495
39.72879 480
39.7489 513
39.76901 522
39.78913 503
39.80924 482
39.82935 470
39.84947 496
39.86958 473
39.8897 477
39.90981 499
39.92992 498
39.95004 524
39.97015 520
39.99026 577
40.01038 572
40.03049 622
40.05061 623
40.07072 591
40.09083 707
40.11095 774
40.13106 753
40.15117 744
40.17129 753
40.1914 702
40.21152 723
40.23163 653
40.25174 589
40.27186 603
40.29197 575
40.31208 544
40.3322 477
40.35231 485
40.37242 512
40.39254 476
40.41265 499
40.43277 510
40.45288 478
40.47299 466
40.49311 455
40.51322 493
40.53333 478
40.55345 458
40.57356 430
40.59368 482
40.61379 488
40.6339 486
40.65402 451
40.67413 474
40.69424 489
40.71436 474
40.73447 486
40.75458 440
40.7747 490
40.79481 494
40.81493 457
40.83504 506
40.85515 483
40.87527 478
40.89538 447
40.91549 489
40.93561 480
40.95572 481
40.97584 533
40.99595 472
41.01606 459
41.03618 472
41.05629 495
41.0764 463
41.09652 470
41.11663 457
41.13675 484
41.15686 467
41.17697 462
41.19709 488
41.2172 474
41.23731 456
41.25743 465
41.27754 515
41.29765 478
41.31777 503
41.33788 458
41.358 494
41.37811 506
41.39822 488
41.41834 487
41.43845 499
41.45856 492
41.47868 485
41.49879 527
41.51891 475
41.53902 511
41.55913 500
41.57925 547
41.59936 497
41.61947 511
41.63959 550
41.6597 533
41.67982 485
41.69993 497
41.72004 485
41.74016 482
41.76027 496
41.78038 446
41.8005 435
41.82061 479
41.84072 439
41.86084 457
41.88095 403
41.90107 428
41.92118 476
41.94129 420
41.96141 416
41.98152 430
42.00163 468
42.02175 421
42.04186 443
42.06198 477
42.08209 455
42.1022 479
42.12232 515
42.14243 510
42.16254 535
42.18266 557
42.20277 579
42.22289 652
42.243 711
42.26311 734
42.28323 773
42.30334 751
42.32345 832
42.34357 798
42.36368 779
42.38379 696
42.40391 583
42.42402 695
42.44414 610
42.46425 539
42.48436 529
42.50448 454
42.52459 520
42.5447 482
42.56482 421
42.58493 467
42.60505 434
42.62516 416
42.64527 472
42.66539 427
42.6855 435
42.70561 469
42.72573 444
42.74584 456
42.76595 444
42.78607 449
42.80618 451
42.8263 433
42.84641 394
42.86652 423
42.88664 411
42.90675 393
42.92686 405
42.94698 419
42.96709 392
42.98721 396
43.00732 422
43.02743 413
43.04755 404
43.06766 376
43.08777 416
43.10789 410
43.128 416
43.14812 407
43.16823 438
43.18834 397
43.20846 400
43.22857 369
43.24868 407
43.2688 394
43.28891 394
43.30902 397
43.32914 401
43.34925 420
43.36937 392
43.38948 423
43.40959 400
43.42971 391
43.44982 412
43.46993 395
43.49005 405
43.51016 414
43.53028 377
43.55039 422
43.5705 405
43.59062 418
43.61073 410
43.63084 419
43.65096 419
43.67107 412
43.69119 452
43.7113 403
43.73141 406
43.75153 425
43.77164 430
43.79175 419
43.81187 396
43.83198 397
43.85209 367
43.87221 375
43.89232 403
43.91244 451
43.93255 381
43.95266 413
43.97278 389
43.99289 386
44.013 425
44.03312 431
44.05323 397
44.07335 409
44.09346 413
44.11357 403
44.13369 429
44.1538 403
44.17391 422
44.19403 393
44.21414 399
44.23426 377
44.25437 422
44.27448 378
44.2946 394
44.31471 355
44.33482 428
44.35494 391
44.37505 419
44.39516 405
44.41528 394
44.43539 435
44.45551 406
44.47562 384
44.49573 408
44.51585 408
44.53596 419
44.55607 390
44.57619 400
44.5963 437
44.61642 395
44.63653 423
44.65664 428
44.67676 454
44.69687 448
44.71698 458
44.7371 439
44.75721 493
44.77732 449
44.79744 455
44.81755 459
44.83767 503
44.85778 467
44.87789 466
44.89801 477
44.91812 466
44.93823 445
44.95835 465
44.97846 504
44.99858 487
45.01869 438
45.0388 461
45.05892 463
45.07903 476
45.09914 486
45.11926 497
45.13937 495
45.15949 487
45.1796 467
45.19971 495
45.21983 492
45.23994 472
45.26005 468
45.28017 474
45.30028 490
45.32039 471
45.34051 487
45.36062 475
45.38074 523
45.40085 472
45.42096 463
45.44108 514
45.46119 527
45.4813 543
45.50142 562
45.52153 563
45.54165 587
45.56176 572
45.58187 567
45.60199 617
45.6221 644
45.64221 682
45.66233 642
45.68244 685
45.70256 629
45.72267 594
45.74278 589
45.7629 569
45.78301 573
45.80312 567
45.82324 525
45.84335 477
45.86346 464
45.88358 500
45.90369 474
45.92381 445
45.94392 470
45.96403 417
45.98415 459
46.00426 464
46.02437 423
46.04449 412
46.0646 424
46.08472 435
46.10483 407
46.12494 407
46.14506 414
46.16517 423
46.18528 407
46.2054 432
46.22551 415
46.24563 402
46.26574 398
46.28585 431
46.30597 425
46.32608 408
46.34619 429
46.36631 408
46.38642 425
46.40653 402
46.42665 405
46.44676 405
46.46688 434
46.48699 413
46.5071 400
46.52722 397
46.54733 399
46.56744 392
46.58756 398
46.60767 412
46.62779 393
46.6479 401
46.66801 387
46.68813 385
46.70824 406
46.72835 406
46.74847 408
46.76858 421
46.78869 392
46.80881 381
46.82892 400
46.84904 436
46.86915 424
46.88926 403
46.90938 427
46.92949 407
46.9496 465
46.96972 432
46.98983 441
47.00995 458
47.03006 389
47.05017 434
47.07029 416
47.0904 417
47.11051 372
47.13063 434
47.15074 414
47.17086 430
47.19097 437
47.21108 421
47.2312 398
47.25131 407
47.27142 394
47.29154 415
47.31165 455
47.33176 441
47.35188 425
47.37199 425
47.39211 430
47.41222 404
47.43233 400
47.45245 419
47.47256 408
47.49267 429
47.51279 367
47.5329 420
47.55302 417
47.57313 403
47.59324 389
47.61336 427
47.63347 399
47.65358 408
47.6737 410
47.69381 393
47.71393 414
47.73404 413
47.75415 392
47.77427 428
47.79438 387
47.81449 409
47.83461 420
47.85472 420
47.87483 417
47.89495 440
47.91506 424
47.93518 412
47.95529 400
47.9754 426
47.99552 432
48.01563 397
48.03574 385
48.05586 404
48.07597 398
48.09609 403
48.1162 385
48.13631 408
48.15643 432
48.17654 375
48.19665 377
48.21677 375
48.23688 422
48.257 409
48.27711 382
48.29722 420
48.31734 396
48.33745 391
48.35756 405
48.37768 428
48.39779 429
48.4179 394
48.43802 415
48.45813 420
48.47825 415
48.49836 404
48.51847 382
48.53859 429
48.5587 418
48.57881 431
48.59893 393
48.61904 395
48.63916 408
48.65927 427
48.67938 387
48.6995 415
48.71961 431
48.73972 375
48.75984 417
48.77995 438
48.80006 434
48.82018 421
48.84029 419
48.86041 407
48.88052 416
48.90063 415
48.92075 448
48.94086 411
48.96097 390
48.98109 414
49.0012 421
49.02132 436
49.04143 431
49.06154 426
49.08166 404
49.10177 405
49.12188 412
49.142 410
49.16211 426
49.18223 406
49.20234 416
49.22245 402
49.24257 378
49.26268 386
49.28279 390
49.30291 391
49.32302 384
49.34313 382
49.36325 403
49.38336 436
49.40348 437
49.42359 431
49.4437 409
49.46382 401
49.48393 370
49.50404 403
49.52416 452
49.54427 399
49.56439 394
49.5845 429
49.60461 428
49.62473 433
49.64484 498
49.66495 455
49.68507 470
49.70518 450
49.7253 523
49.74541 543
49.76552 541
49.78564 545
49.80575 621
49.82586 625
49.84598 732
49.86609 742
49.8862 811
49.90632 898
49.92643 1056
49.94655 1176
49.96666 1278
49.98677 1344
50.00689 1315
50.027 1265
50.04711 1195
50.06723 1075
50.08734 987
50.10746 908
50.12757 885
50.14768 862
50.1678 800
50.18791 643
50.20802 591
50.22814 561
50.24825 483
50.26837 466
50.28848 447
50.30859 424
50.32871 479
50.34882 461
50.36893 491
50.38905 497
50.40916 489
50.42927 480
50.44939 490
50.4695 553
50.48962 486
50.50973 494
50.52984 489
50.54996 477
50.57007 494
50.59018 454
50.6103 462
50.63041 495
50.65053 472
50.67064 451
50.69075 459
50.71087 497
50.73098 442
50.75109 397
50.77121 391
50.79132 432
50.81143 447
50.83155 443
50.85166 404
50.87178 437
50.89189 405
50.912 374
50.93212 393
50.95223 404
50.97234 382
50.99246 408
51.01257 382
51.03269 403
51.0528 382
51.07291 392
51.09303 354
51.11314 397
51.13325 381
51.15337 372
51.17348 415
51.1936 408
51.21371 395
51.23382 392
51.25394 375
51.27405 352
51.29416 378
51.31428 378
51.33439 385
51.3545 424
51.37462 391
51.39473 397
51.41485 391
51.43496 374
51.45507 390
51.47519 375
51.4953 382
51.51541 380
51.53553 401
51.55564 387
51.57576 380
51.59587 373
51.61598 385
51.6361 372
51.65621 384
51.67632 393
51.69644 377
51.71655 350
51.73667 366
51.75678 393
51.77689 362
51.79701 394
51.81712 376
51.83723 424
51.85735 429
51.87746 372
51.89757 393
51.91769 350
51.9378 387
51.95792 383
51.97803 392
51.99814 390
52.01826 352
52.03837 372
52.05848 394
52.0786 347
52.09871 386
52.11883 386
52.13894 407
52.15905 377
52.17917 384
52.19928 369
52.21939 379
52.23951 386
52.25962 352
52.27974 381
52.29985 395
52.31996 386
52.34008 385
52.36019 375
52.3803 389
52.40042 389
52.42053 398
52.44064 359
52.46076 389
52.48087 408
52.50099 384
52.5211 355
52.54121 408
52.56133 427
52.58144 419
52.60155 392
52.62167 410
52.64178 366
52.6619 399
52.68201 424
52.70212 389
52.72224 444
52.74235 403
52.76246 426
52.78258 427
52.80269 379
52.8228 410
52.84292 403
52.86303 425
52.88315 420
52.90326 439
52.92337 430
52.94349 400
52.9636 420
52.98371 443
53.00383 420
53.02394 423
53.04406 449
53.06417 418
53.08428 400
53.1044 474
53.12451 433
53.14462 425
53.16474 437
53.18485 421
53.20497 404
53.22508 434
53.24519 415
53.26531 439
53.28542 443
53.30553 449
53.32565 460
53.34576 472
53.36587 467
53.38599 488
53.4061 412
53.42622 469
53.44633 414
53.46644 444
53.48656 454
53.50667 422
53.52678 443
53.5469 451
53.56701 433
53.58713 415
53.60724 484
53.62735 398
53.64747 410
53.66758 443
53.68769 447
53.70781 455
53.72792 439
53.74804 467
53.76815 456
53.78826 421
53.80838 437
53.82849 434
53.8486 446
53.86872 429
53.88883 482
53.90894 471
53.92906 448
53.94917 485
53.96929 470
53.9894 494
54.00951 441
54.02963 484
54.04974 463
54.06985 501
54.08997 479
54.11008 507
54.1302 496
54.15031 492
54.17042 530
54.19054 489
54.21065 521
54.23076 515
54.25088 498
54.27099 479
54.29111 520
54.31122 523
54.33133 527
54.35145 504
54.37156 543
54.39167 526
54.41179 544
54.4319 501
54.45201 542
54.47213 508
54.49224 538
54.51236 519
54.53247 571
54.55258 584
54.5727 539
54.59281 613
54.61292 572
54.63304 674
54.65315 705
54.67327 692
54.69338 730
54.71349 775
54.73361 795
54.75372 755
54.77383 760
54.79395 722
54.81406 691
54.83417 716
54.85429 670
54.8744 639
54.89452 616
54.91463 644
54.93474 625
54.95486 605
54.97497 552
54.99508 557
55.0152 549
55.03531 565
55.05543 568
55.07554 560
55.09565 589
55.11577 545
55.13588 558
55.15599 621
55.17611 635
55.19622 580
55.21634 604
55.23645 563
55.25656 578
55.27668 523
55.29679 584
55.3169 570
55.33702 496
55.35713 555
55.37724 551
55.39736 468
55.41747 502
55.43759 474
55.4577 500
55.47781 463
55.49793 462
55.51804 456
55.53815 464
55.55827 430
55.57838 436
55.5985 447
55.61861 418
55.63872 439
55.65884 431
55.67895 430
55.69906 459
55.71918 451
55.73929 410
55.75941 511
55.77952 438
55.79963 432
55.81975 424
55.83986 428
55.85997 455
55.88009 434
55.9002 443
55.92031 435
55.94043 480
55.96054 423
55.98066 430
56.00077 423
56.02088 414
56.041 425
56.06111 419
56.08122 425
56.10134 425
56.12145 395
56.14157 417
56.16168 397
56.18179 469
56.20191 414
56.22202 424
56.24213 430
56.26225 400
56.28236 427
56.30248 455
56.32259 433
56.3427 416
56.36282 434
56.38293 418
56.40304 440
56.42316 445
56.44327 460
56.46338 421
56.4835 427
56.50361 483
56.52373 452
56.54384 410
56.56395 466
56.58407 452
56.60418 458
56.62429 464
56.64441 440
56.66452 435
56.68464 415
56.70475 404
56.72486 434
56.74498 433
56.76509 400
56.7852 395
56.80532 404
56.82543 452
56.84554 413
56.86566 429
56.88577 417
56.90589 399
56.926 408
56.94611 407
56.96623 393
56.98634 373
57.00645 391
57.02657 400
57.04668 443
57.0668 453
57.08691 431
57.10702 389
57.12714 423
57.14725 454
57.16736 422
57.18748 405
57.20759 438
57.22771 403
57.24782 462
57.26793 423
57.28805 409
57.30816 396
57.32827 424
57.34839 410
57.3685 381
57.38861 423
57.40873 384
57.42884 434
57.44896 472
57.46907 414
57.48918 428
57.5093 436
57.52941 412
57.54952 384
57.56964 423
57.58975 425
57.60987 372
57.62998 389
57.65009 393
57.67021 406
57.69032 407
57.71043 414
57.73055 384
57.75066 408
57.77078 396
57.79089 401
57.811 390
57.83112 363
57.85123 415
57.87134 443
57.89146 386
57.91157 421
57.93168 386
57.9518 395
57.97191 383
57.99203 425
58.01214 382
58.03225 380
58.05237 439
58.07248 383
58.09259 398
58.11271 421
58.13282 391
58.15294 407
58.17305 386
58.19316 387
58.21328 438
58.23339 409
58.2535 422
58.27362 413
58.29373 404
58.31385 445
58.33396 387
58.35407 409
58.37419 429
58.3943 388
58.41441 407
58.43453 384
58.45464 451
58.47475 423
58.49487 384
58.51498 403
58.5351 380
58.55521 418
58.57532 429
58.59544 402
58.61555 403
58.63566 382
58.65578 389
58.67589 424
58.69601 372
58.71612 395
58.73623 399
58.75635 437
58.77646 377
58.79657 387
58.81669 392
58.8368 373
58.85691 414
58.87703 408
58.89714 387
58.91726 394
58.93737 405
58.95748 403
58.9776 405
58.99771 412
59.01782 403
59.03794 430
59.05805 402
59.07817 408
59.09828 394
59.11839 403
59.13851 404
59.15862 400
59.17873 405
59.19885 402
59.21896 382
59.23908 425
59.25919 431
59.2793 410
59.29942 415
59.31953 442
59.33964 435
59.35976 431
59.37987 437
59.39998 448
59.4201 458
59.44021 454
59.46033 462
59.48044 452
59.50055 480
59.52067 503
59.54078 504
59.56089 473
59.58101 541
59.60112 542
59.62124 564
59.64135 586
59.66146 611
59.68158 685
59.70169 720
59.7218 793
59.74192 898
59.76203 954
59.78215 967
59.80226 1093
59.82237 1062
59.84249 1059
59.8626 936
59.88271 859
59.90283 787
59.92294 812
59.94305 768
59.96317 745
59.98328 752
60.0034 757
60.02351 714
60.04362 608
60.06374 598
60.08385 554
60.10396 535
60.12408 516
60.14419 563
60.16431 523
60.18442 496
60.20453 511
60.22465 499
60.24476 490
60.26487 491
60.28499 494
60.3051 533
60.32522 512
60.34533 472
60.36544 485
60.38556 441
60.40567 432
60.42578 463
60.4459 467
60.46601 451
60.48612 420
60.50624 447
60.52635 418
60.54647 444
60.56658 422
60.58669 438
60.60681 390
60.62692 445
60.64703 438
60.66715 404
60.68726 441
60.70738 392
60.72749 408
60.7476 401
60.76772 405
60.78783 426
60.80794 418
60.82806 382
60.84817 414
60.86828 429
60.8884 422
60.90851 396
60.92863 420
60.94874 424
60.96885 428
60.98897 422
61.00908 420
61.02919 422
61.04931 454
61.06942 445
61.08954 441
61.10965 410
61.12976 431
61.14988 412
61.16999 443
61.1901 425
61.21022 442
61.23033 434
61.25045 434
61.27056 423
61.29067 412
61.31079 447
61.3309 412
61.35101 436
61.37113 413
61.39124 441
61.41135 418
61.43147 435
61.45158 414
61.4717 454
61.49181 438
61.51192 478
61.53204 446
61.55215 454
61.57226 471
61.59238 446
61.61249 477
61.63261 436
61.65272 456
61.67283 444
61.69295 461
61.71306 482
61.73317 497
61.75329 459
61.7734 465
61.79352 499
61.81363 450
61.83374 506
61.85386 489
61.87397 501
61.89408 484
61.9142 519
61.93431 538
61.95442 520
61.97454 554
61.99465 487
62.01477 541
62.03488 516
62.05499 562
62.07511 551
62.09522 545
62.11533 513
62.13545 542
62.15556 543
62.17568 552
62.19579 533
62.2159 549
62.23602 523
62.25613 518
62.27624 526
62.29636 517
62.31647 527
62.33659 524
62.3567 455
62.37681 503
62.39693 465
62.41704 506
62.43715 505
62.45727 472
62.47738 481
62.49749 482
62.51761 473
62.53772 445
62.55784 440
62.57795 456
62.59806 458
62.61818 446
62.63829 422
62.6584 454
62.67852 437
62.69863 422
62.71875 408
62.73886 434
62.75897 415
62.77909 428
62.7992 405
62.81931 452
62.83943 425
62.85954 438
62.87965 410
62.89977 435
62.91988 427
62.94 404
62.96011 393
62.98022 392
63.00034 453
63.02045 389
63.04056 404
63.06068 410
63.08079 452
63.10091 405
63.12102 412
63.14113 472
63.16125 408
63.18136 418
63.20147 420
63.22159 432
63.2417 381
63.26182 437
63.28193 424
63.30204 413
63.32216 428
63.34227 444
63.36238 420
63.3825 409
63.40261 424
63.42272 427
63.44284 409
63.46295 418
63.48307 418
63.50318 427
63.52329 422
63.54341 460
63.56352 430
63.58363 437
63.60375 445
63.62386 418
63.64398 440
63.66409 450
63.6842 421
63.70432 470
63.72443 466
63.74454 502
63.76466 460
63.78477 462
63.80489 528
63.825 497
63.84511 481
63.86523 482
63.88534 546
63.90545 477
63.92557 566
63.94568 491
63.96579 469
63.98591 477
64.00602 450
64.02614 473
64.04625 487
64.06636 454
64.08648 477
64.10659 466
64.1267 428
64.14682 434
64.16693 412
64.18705 447
64.20716 392
64.22727 431
64.24739 413
64.2675 437
64.28761 399
64.30773 399
64.32784 375
64.34796 420
64.36807 378
64.38818 374
64.4083 423
64.42841 414
64.44852 408
64.46864 407
64.48875 380
64.50886 412
64.52898 389
64.54909 417
64.56921 397
64.58932 402
64.60943 405
64.62955 400
64.64966 389
64.66977 434
64.68989 409
64.71 396
64.73012 378
64.75023 376
64.77034 393
64.79046 370
64.81057 376
64.83068 424
64.8508 404
64.87091 377
64.89102 385
64.91114 383
64.93125 413
64.95137 362
64.97148 366
64.99159 371
65.01171 428
65.03182 382
65.05193 357
65.07205 408
65.09216 397
65.11228 405
65.13239 368
65.1525 363
65.17262 407
65.19273 403
65.21284 415
65.23296 395
65.25307 397
65.27319 376
65.2933 404
65.31341 357
65.33353 374
65.35364 358
65.37375 376
65.39387 392
65.41398 344
65.43409 384
65.45421 398
65.47432 356
65.49444 347
65.51455 364
65.53466 392
65.55478 438
65.57489 426
65.595 371
65.61512 412
65.63523 437
65.65535 362
65.67546 384
65.69557 369
65.71569 407
65.7358 406
65.75591 376
65.77603 371
65.79614 399
65.81626 393
65.83637 395
65.85648 370
65.8766 399
65.89671 400
65.91682 381
65.93694 392
65.95705 356
65.97716 397
65.99728 424
66.01739 393
66.03751 364
66.05762 381
66.07773 404
66.09785 353
66.11796 367
66.13807 381
66.15819 391
66.1783 387
66.19842 408
66.21853 358
66.23864 402
66.25876 412
66.27887 413
66.29898 400
66.3191 369
66.33921 418
66.35933 399
66.37944 367
66.39955 385
66.41967 387
66.43978 405
66.45989 422
66.48001 370
66.50012 392
66.52023 365
66.54035 339
66.56046 362
66.58058 374
66.60069 375
66.6208 370
66.64092 390
66.66103 380
66.68114 361
66.70126 384
66.72137 362
66.74149 409
66.7616 403
66.78171 388
66.80183 361
66.82194 394
66.84205 384
66.86217 386
66.88228 383
66.90239 394
66.92251 403
66.94262 409
66.96274 397
66.98285 385
67.00296 397
67.02308 378
67.04319 406
67.0633 415
67.08342 425
67.10353 387
67.12365 383
67.14376 398
67.16387 416
67.18399 426
67.2041 386
67.22421 397
67.24433 406
67.26444 450
67.28456 381
67.30467 416
67.32478 468
67.3449 444
67.36501 444
67.38512 448
67.40524 473
67.42535 511
67.44546 503
67.46558 552
67.48569 598
67.50581 583
67.52592 593
67.54603 644
67.56615 728
67.58626 771
67.60637 721
67.62649 750
67.6466 719
67.66672 640
67.68683 631
67.70694 635
67.72706 657
67.74717 628
67.76728 669
67.7874 651
67.80751 642
67.82763 691
67.84774 709
67.86785 683
67.88797 692
67.90808 636
67.92819 756
67.94831 780
67.96842 835
67.98853 843
68.00865 894
68.02876 883
68.04888 912
68.06899 755
68.0891 784
68.10922 787
68.12933 808
68.14944 811
68.16956 882
68.18967 844
68.20979 794
68.2299 760
68.25001 665
68.27013 625
68.29024 513
68.31035 555
68.33047 580
68.35058 530
68.3707 530
68.39081 537
68.41092 504
68.43104 495
68.45115 482
68.47126 442
68.49138 445
68.51149 406
68.5316 383
68.55172 417
68.57183 390
68.59195 445
68.61206 374
68.63217 402
68.65229 395
68.6724 415
68.69251 401
68.71263 424
68.73274 363
68.75286 441
68.77297 384
68.79308 409
68.8132 346
68.83331 371
68.85342 420
68.87354 388
68.89365 380
68.91376 384
68.93388 411
68.95399 407
68.97411 362
68.99422 382
69.01433 396
69.03445 369
69.05456 406
69.07467 369
69.09479 362
69.1149 398
69.13502 389
69.15513 408
69.17524 373
69.19536 398
69.21547 415
69.23558 368
69.2557 400
69.27581 375
69.29593 345
69.31604 418
69.33615 369
69.35627 404
69.37638 385
69.39649 376
69.41661 390
69.43672 380
69.45683 400
69.47695 363
69.49706 412
69.51718 396
69.53729 370
69.5574 381
69.57752 396
69.59763 400
69.61774 386
69.63786 362
69.65797 383
69.67809 377
69.6982 388
69.71831 385
69.73843 386
69.75854 393
69.77865 379
69.79877 369
69.81888 396
69.839 384
69.85911 369
69.87922 367
69.89934 369
69.91945 374
69.93956 388
69.95968 391
69.97979 368
69.9999 393
70.02002 409
70.04013 405
70.06025 391
70.08036 393
70.10047 409
70.12059 393
70.1407 388
70.16081 389
70.18093 390
70.20104 392
70.22116 372
70.24127 367
70.26138 372
70.2815 386
70.30161 415
70.32172 361
70.34184 398
70.36195 389
70.38207 380
70.40218 405
70.42229 368
70.44241 373
70.46252 380
70.48263 393
70.50275 403
70.52286 368
70.54297 363
70.56309 377
70.5832 375
70.60332 338
70.62343 361
70.64354 367
70.66366 400
70.68377 381
70.70388 407
70.724 391
70.74411 392
70.76423 383
70.78434 373
70.80445 372
70.82457 365
70.84468 399
70.86479 373
70.88491 395
70.90502 378
70.92513 371
70.94525 371
70.96536 385
70.98548 428
71.00559 386
71.0257 377
71.04582 375
71.06593 387
71.08604 365
71.10616 362
71.12627 386
71.14639 379
71.1665 358
71.18661 384
71.20673 360
71.22684 401
71.24695 398
71.26707 404
71.28718 419
71.3073 364
71.32741 360
71.34752 395
71.36764 386
71.38775 407
71.40786 388
71.42798 362
71.44809 359
71.4682 384
71.48832 396
71.50843 396
71.52855 365
71.54866 370
71.56877 381
71.58889 394
71.609 398
71.62911 356
71.64923 398
71.66934 397
71.68946 388
71.70957 394
71.72968 397
71.7498 413
71.76991 362
71.79002 376
71.81014 401
71.83025 417
71.85037 390
71.87048 382
71.89059 382
71.91071 388
71.93082 370
71.95093 377
71.97105 359
71.99116 377
72.01127 386
72.03139 412
72.0515 388
72.07162 382
72.09173 377
72.11184 420
72.13196 421
72.15207 396
72.17218 380
72.1923 428
72.21241 386
72.23253 428
72.25264 407
72.27275 369
72.29287 418
72.31298 357
72.33309 357
72.35321 396
72.37332 406
72.39344 399
72.41355 405
72.43366 407
72.45378 418
72.47389 370
72.494 389
72.51412 389
72.53423 393
72.55434 410
72.57446 416
72.59457 374
72.61469 400
72.6348 434
72.65491 403
72.67503 405
72.69514 414
72.71525 367
72.73537 378
72.75548 403
72.7756 384
72.79571 393
72.81582 397
72.83594 388
72.85605 424
72.87616 421
72.89628 379
72.91639 394
72.9365 426
72.95662 399
72.97673 418
72.99685 393
73.01696 439
73.03707 388
73.05719 434
73.0773 449
73.09741 429
73.11753 429
73.13764 424
73.15776 440
73.17787 446
73.19798 446
73.2181 491
73.23821 475
73.25832 488
73.27844 497
73.29855 525
73.31867 527
73.33878 508
73.35889 499
73.37901 506
73.39912 462
73.41923 491
73.43935 467
73.45946 481
73.47957 432
73.49969 476
73.5198 485
73.53992 477
73.56003 443
73.58014 420
73.60026 476
73.62037 404
73.64048 394
73.6606 389
73.68071 433
73.70083 415
73.72094 418
73.74105 419
73.76117 395
73.78128 400
73.80139 385
73.82151 388
73.84162 400
73.86174 395
73.88185 353
73.90196 362
73.92208 370
73.94219 398
73.9623 370
73.98242 388
74.00253 387
74.02264 385
74.04276 345
74.06287 357
74.08299 381
74.1031 381
74.12321 382
74.14333 371
74.16344 388
74.18355 380
74.20367 386
74.22378 355
74.2439 401
74.26401 345
74.28412 398
74.30424 346
74.32435 369
74.34446 367
74.36458 368
74.38469 387
74.40481 374
74.42492 395
74.44503 388
74.46515 390
74.48526 401
74.50537 381
74.52549 345
74.5456 348
74.56571 364
74.58583 371
74.60594 382
74.62606 384
74.64617 382
74.66628 376
74.6864 391
74.70651 365
74.72662 406
74.74674 348
74.76685 388
74.78697 369
74.80708 374
74.82719 361
74.84731 382
74.86742 367
74.88753 357
74.90765 374
74.92776 394
74.94787 355
74.96799 381
74.9881 401
75.00822 400
