3.00117 22666.1061765183
3.02128 22043.3821681434
3.0414 21684
3.06151 20901.8154530153
3.08162 20780.4452469445
3.10174 19862.9758410061
3.12185 19882.1916466901
3.14197 19220.6509095837
3.16208 18253.3810282646
3.18219 18158.2727356304
3.20231 17161.6540314164
3.22242 17032.9572855321
3.24253 16615.8515918487
3.26265 15845.9102774789
3.28276 15647.7588749817
3.30288 15061.3868422228
3.32299 14861.2101619493
3.3431 14121
3.36322 13624.6798706227
3.38333 13325.4671370169
3.40344 12928.3261509374
3.42356 12678.4546585356
3.44367 12321.8461413861
3.46379 11723.1827282221
3.4839 11497
3.50401 10866.7737743206
3.52413 10737.9690554826
3.54424 10521.0080232592
3.56435 9928.02473549025
3.58447 9657.6599712511
3.60458 9055.43189364863
3.62469 8939.98698304068
3.64481 8790.76952753424
3.66492 8228.69508162716
3.68504 8124.38708181563
3.70515 7641.44001647973
3.72526 7720.00910694724
3.74538 7405.46332898705
3.76549 6990.1602040714
3.7856 6699
3.80572 6373.9331144218
3.82583 6448.82773440631
3.84595 6055.94471790292
3.86606 5765.46772637188
3.88617 5510.40551559258
3.90629 5270.081154268
3.9264 5212
3.94651 5162.86172119317
3.96663 4772.6487797701
3.98674 4674.51578296271
4.00686 4262.63604594688
4.02697 4173.96563217436
4.04708 4097.26652441862
4.0672 3779
4.08731 3773.92078038135
4.10742 3474.86066676371
4.12754 3517.90493132385
4.14765 3278.64012351035
4.16776 3142.09739262575
4.18788 3086.12297803798
4.20799 2910.07578813597
4.22811 2861.02881277058
4.24822 2878.82836913892
4.26833 2593.74664739197
4.28845 2585.93454247624
4.30856 2474.16733237651
4.32867 2487.89643654564
4.34879 2469.10381954132
4.3689 2171
4.38902 2165.03701876568
4.40913 2146.9462142262
4.42924 2151.12960601527
4.44936 2175.27858222302
4.46947 1940.20589460921
4.48958 1938.02009982084
4.5097 1877
4.52981 2005.05038790757
4.54992 1924.70978701659
4.57004 1662.07257820531
4.59015 1901.81099009018
4.61027 1727.21741925685
4.63038 1754.93505464786
4.65049 1738.0410214538
4.67061 1637.95709459368
4.69072 1596.00156115575
4.71083 1613.00760928638
4.73095 1606.01977827015
4.75106 1592.19751204948
4.77118 1453.06903000513
4.79129 1484.97245722197
4.8114 1481
4.83152 1425.03720697787
4.85163 1477.86538846918
4.87174 1292.85347683098
4.89186 1369.8797708514
4.91197 1338.04945795997
4.93209 1358.98061287654
4.9522 1327
4.97231 1154.98633236306
4.99243 1254.07012738482
5.01254 1193.91161111045
5.03265 1208.01794404107
5.05277 1131.1718716397
5.07288 1054.99105425424
5.09299 1129.9623319049
5.11311 1138.97020929315
5.13322 1074.99882991246
5.15334 1109.95575017503
5.17345 1019.81167094601
5.19356 1000.00876765051
5.21368 996.975236602739
5.23379 1051.96980134035
5.2539 1044
5.27402 902.99941149171
5.29413 1015.06397807042
5.31425 935.819060775027
5.33436 928.024592199191
5.35447 895.995960936735
5.37459 918.014324497192
5.3947 840
5.41481 867.048557447557
5.43493 957.023784491411
5.45504 897.862605485225
5.47516 858.072000869743
5.49527 839.939725852339
5.51538 887.038530210547
5.5355 780
5.55561 801.020198470043
5.57572 813.001442153619
5.59584 807.949337310616
5.61595 778.010954992979
5.63606 794.991503451521
5.65618 789.97662159422
5.67629 827.001181745895
5.69641 766.958770889795
5.71652 718.006969491877
5.73663 742.974652937691
5.75675 690.949353002878
5.77686 716.959234272014
5.79697 711.997923779664
5.81709 732.989131705893
5.8372 730
5.85732 703.027301937359
5.87743 736.919656670962
5.89754 629.936919177486
5.91766 695.886161381353
5.93777 689.030460852038
5.95788 676.035334375644
5.978 639
5.99811 698.025426629141
6.01823 707.984837779965
6.03834 692.949192072628
6.05845 653.129712621228
6.07857 623.958824140311
6.09868 691.941950524282
6.11879 704.010365294702
6.13891 674.98711561684
6.15902 666.010432616891
6.17913 671.962638092362
6.19925 620.886606128609
6.21936 602.004506042515
6.23948 618.951292727297
6.25959 682.975476538095
6.2797 687
6.29982 627.954303169925
6.31993 622.046266228126
6.34004 642.934293853165
6.36016 595.953783995749
6.38027 676.936759895342
6.40039 639.031453530746
6.4205 593
6.44061 588.037630621591
6.46073 678.995129853113
6.48084 589.885689490022
6.50095 617.87598593677
6.52107 615.099666561403
6.54118 541.013258045834
6.56129 598.964330521455
6.58141 629.996758133973
6.60152 607.98143730726
6.62164 606.018349511525
6.64175 616.014472678696
6.66186 618.987244341192
6.68198 630.986617163394
6.70209 641.995630031725
6.7222 625
6.74232 557.002656488048
6.76243 627.09304809641
6.78255 624.87945303437
6.80266 572.065802531297
6.82277 584.908605493587
6.84289 646.993637432053
6.863 604
6.88311 578.000668381538
6.90323 593.025268186038
6.92334 594.96386432658
6.94346 578.972661573899
6.96357 615.96075808297
6.98368 615.010706943177
7.0038 607
7.02391 591.99134805029
7.04402 572.977881681033
7.06414 575.110349185
7.08425 628.08629919404
7.10436 538.055338265834
7.12448 592.96016772615
7.14459 583.99714784636
7.16471 617.004455570704
7.18482 590.979403907728
7.20493 598.025332263813
7.22505 612.039362475561
7.24516 604.12330513923
7.26527 534.002702095115
7.28539 585.992750925226
7.3055 555
7.32562 602.007067197717
7.34573 551.933800891513
7.36584 555.058926783215
7.38596 562.087398157965
7.40607 519.938869564088
7.42618 602.000527382606
7.4463 519
7.46641 567.030224454361
7.48653 579.971801201381
7.50664 568.035421318255
7.52675 590.055393777893
7.54687 541.014398049297
7.56698 573.987523773494
7.58709 556.99620491194
7.60721 594.008378422699
7.62732 564.949087834514
7.64743 538.029703564812
7.66755 577.019340921474
7.68766 566.929092244951
7.70778 624.009476130856
7.72789 541.037404680051
7.748 530
7.76812 557.010121681217
7.78823 564.049299472877
7.80834 608.021588658972
7.82846 568.127327323031
7.84857 536.951681674324
7.86869 593.994039844868
7.8888 557
7.90891 579.01187991847
7.92903 580.994971370223
7.94914 597.086998491939
7.96925 627.083431720945
7.98937 558.039629103527
8.00948 581.995624656366
8.0296 550
8.04971 590.039374958561
8.06982 647.992260967358
8.08994 590.909819870839
8.11005 589.03102036116
8.13016 582.062350490196
8.15028 559.97420566146
8.17039 606.998802863935
8.1905 578
8.21062 631.998171885922
8.23073 560.906429640178
8.25085 541.957392886786
8.27096 521.971561829006
8.29107 572.920892295542
8.31119 601.993155423676
8.3313 605
8.35141 577.981157106465
8.37153 558.033663206259
8.39164 601.033650310803
8.41176 580.047876744413
8.43187 562.056023163354
8.45198 528.978802594988
8.4721 587
8.49221 568.99538549355
8.51232 591.022108729985
8.53244 588.960764980171
8.55255 575.970977375871
8.57266 600.98189589556
8.59278 584.023696228437
8.61289 580.986973436742
8.63301 613.002967781411
8.65312 576.938121022617
8.67323 531.999740460466
8.69335 560.030239971439
8.71346 552.971460732758
8.73357 583.000945752464
8.75369 552.007214543158
8.7738 562
8.79392 550.025913224018
8.81403 593.994574826301
8.83414 544.946434784664
8.85426 556.999316046741
8.87437 540.979681950125
8.89448 593.944368746374
8.9146 605
8.93471 544.989099649117
8.95483 577.073164561726
8.97494 602.999396485202
8.99505 576.125553326222
9.01517 535.002188204262
9.03528 562.983061668876
9.05539 553.006237037298
9.07551 561.013502038549
9.09562 580.988007839503
9.11573 544.959573442559
9.13585 528.911600750946
9.15596 496.949647735025
9.17608 559.972678057135
9.19619 536.008932859797
9.2163 549
9.23642 536.975669647536
9.25653 531.048575474601
9.27664 574.010840353721
9.29676 549.00057351253
9.31687 575.997333595529
9.33699 531.030129222259
9.3571 506
9.37721 566.021577538481
9.39733 566.968435228167
9.41744 543.950600532724
9.43755 525.013276790816
9.45767 526.011372017414
9.47778 511.006092295375
9.4979 520
9.51801 538.015386532325
9.53812 571.015177187005
9.55824 564.977999202263
9.57835 560.997555235646
9.59846 556.023686891157
9.61858 549.984420700691
9.63869 570.004390419309
9.6588 523
9.67892 487.004975454003
9.69903 534.111216835424
9.71915 581.954751416224
9.73926 525.056917389833
9.75937 549.944864866453
9.77949 557.011521495622
9.7996 532
9.81971 564.018395669
9.83983 573.964479347668
9.85994 529.912454990676
9.88006 508.990011743011
9.90017 524.986241565792
9.92028 524.993854447495
9.9404 534
9.96051 519.001848128623
9.98062 548.034018941157
10.00074 559.965013320991
10.02085 525.080907541945
10.04097 509.007447983577
10.06108 517.968788970727
10.08119 554.991336728208
10.10131 540.98409775109
10.12142 528.029372902169
10.14153 567.992529795288
10.16165 524.953188638167
10.18176 551.935872101716
10.20187 562.994286419356
10.22199 567.001244270152
10.2421 549
10.26222 513.986848200212
10.28233 526.029602797101
10.30244 549.077461242903
10.32256 584.00366680844
10.34267 547.05650846394
10.36278 537.984871378205
10.3829 561
10.40301 565.996571456654
10.42313 557.99948454491
10.44324 570.040545740229
10.46335 581.030313810137
10.48347 549.051676179769
10.50358 533.990394292995
10.52369 556.990110569935
10.54381 553.985487534497
10.56392 527.006784708827
10.58403 560.029945254665
10.60415 546.932075190642
10.62426 526.02508177907
10.64438 520.002971617869
10.66449 525.987802220195
10.6846 567
10.70472 588.981061370276
10.72483 550.973327382325
10.74494 546.929669648479
10.76506 501.975089222001
10.78517 563.945421745786
10.80529 544.016144748068
10.8254 541
10.84551 577.016982304507
10.86563 582.947803568974
10.88574 547.031106758113
10.90585 591.009132087971
10.92597 540.032745489274
10.94608 565.98390704121
10.9662 553
10.98631 564.997731584931
11.00642 526.944060647331
11.02654 500.068827466397
11.04665 569.884788077076
11.06676 564.056336037252
11.08688 545.007908955928
11.10699 538.008931192817
11.1271 514
11.14722 525.031670001031
11.16733 559.031232369993
11.18745 567.025774487088
11.20756 577.016721204019
11.22767 559.996744191197
11.24779 592.976383389107
11.2679 620
11.28801 577.978132515654
11.30813 572.065797200023
11.32824 617.975652206332
11.34836 565.031530193071
11.36847 611.913606301025
11.38858 628.026498624566
11.4087 589
11.42881 586.992115329506
11.44892 570.026382351385
11.46904 621.023711604283
11.48915 594.998089607835
11.50927 639.937584231219
11.52938 640.032779711298
11.54949 610.998458952556
11.56961 641.011660620624
11.58972 642.999061762273
11.60983 644.988571148007
11.62995 621.921519958777
11.65006 604.972197421937
11.67017 628.009142882982
11.69029 613.981201487534
11.7104 678
11.73052 616.952032412989
11.75063 643.124460529326
11.77074 709.987515700011
11.79086 652.061628580802
11.81097 669.984278851145
11.83108 661.981158487869
11.8512 713
11.87131 728.004415867333
11.89143 735.986487134238
11.91154 707.934660742528
11.93165 703.889911669287
11.95177 751.022771362591
11.97188 685.039540846146
11.99199 692.001480842767
12.01211 670.003339500679
12.03222 716.048037215758
12.05234 721.912365229721
12.07245 670.981616736781
12.09256 714.895795652866
12.11268 739.995389185926
12.13279 745.988951284375
12.1529 761
12.17302 704.977037886181
12.19313 729.040482662765
12.21324 722.937104355761
12.23336 707.927889542178
12.25347 759.007783198622
12.27359 708.007385791971
12.2937 745
12.31381 739.008764935605
12.33393 769.973079193304
12.35404 715.970410574049
12.37415 730.104906491576
12.39427 645.043214643507
12.41438 689.962684435528
12.4345 680
12.45461 686.007121067808
12.47472 683.970776481515
12.49484 641.942461598479
12.51495 633.019213576869
12.53506 624.982014848092
12.55518 639.010549956674
12.57529 594.02959315001
12.5954 574
12.61552 640.986075708105
12.63563 557.931219634232
12.65575 602.203896438549
12.67586 653.988638564968
12.69597 621.072295823295
12.71609 576.022824318825
12.7362 533
12.75631 526.011999867189
12.77643 561.029236375796
12.79654 557.986721117825
12.81666 553.033412844241
12.83677 533.001565700229
12.85688 539.021043009074
12.877 499
12.89711 521.015871198577
12.91722 541.014462924949
12.93734 541.946006153654
12.95745 509.997098910089
12.97757 545.948414319664
12.99768 560.98645175733
13.01779 564.017415106847
13.03791 506.982361858514
13.05802 502.993971696975
13.07813 492.021882345662
13.09825 527.048722655481
13.11836 517.035930019559
13.13847 499.046783872259
13.15859 477.986802655151
13.1787 542
13.19882 542.952186084692
13.21893 508.053903890974
13.23904 564.940154712316
13.25916 479.004730176289
13.27927 565.935709854049
13.29938 517.055107812516
13.3195 519
13.33961 534.979913112362
13.35973 478.001650958435
13.37984 528.03076814007
13.39995 500.98500194883
13.42007 542.992215807143
13.44018 505.014523162784
13.46029 524.001983787229
13.48041 490.994353277513
13.50052 518.031384275535
13.52064 537.04606166371
13.54075 563.02718699396
13.56086 548.067141744804
13.58098 520.004814602262
13.60109 536.990068205566
13.6212 548
13.64132 547.977209499292
13.66143 519.997880684696
13.68154 531.961679138273
13.70166 486.046076255778
13.72177 515.904230508737
13.74189 564.998361010338
13.762 520
13.78211 465.980402664441
13.80223 458.055073735937
13.82234 512.059741637281
13.84245 495.113948871325
13.86257 468.96378200082
13.88268 510.006568704101
13.9028 464
13.92291 503.017822853148
13.94302 500.9802250895
13.96314 476.931577862757
13.98325 447.01073373798
14.00336 464.968405643255
14.02348 471.984199931718
14.04359 487.006675515318
14.06371 462.003938023669
14.08382 501.023758010148
14.10393 482.939354035292
14.12405 451.979258784059
14.14416 463.966172756183
14.16427 471.999559378878
14.18439 481.98215976295
14.2045 512
14.22461 446.977302948522
14.24473 446.012551565164
14.26484 449.035699317196
14.28496 480.95127797536
14.30507 484.016686371304
14.32518 470.012607216226
14.3453 470
14.36541 500.011569720295
14.38552 501.983150750326
14.40564 483.992956434863
14.42575 489.019467432261
14.44587 463.041825861355
14.46598 455.979218409302
14.48609 492.982919216072
14.50621 503.99292512613
14.52632 464.938792348319
14.54643 430.057254197541
14.56655 505.070761434668
14.58666 470.064127892873
14.60677 474.984351522176
14.62689 476.994381845941
14.647 494
14.66712 469.962556327897
14.68723 455.04819729406
14.70734 507.039245632185
14.72746 462.178311312829
14.74757 400.968569995415
14.76768 468.974389193743
14.7878 441
14.80791 483.015487956456
14.82803 483.007607984368
14.84814 484.909472921303
14.86825 423.006869039057
14.88837 478.942168626524
14.90848 478.984153825616
14.92859 512.001763984558
14.94871 469.985770477376
14.96882 481.024989168716
14.98894 499.030118767303
15.00905 494.891037998829
15.02916 453.949982558345
15.04928 513.00248794797
15.06939 465.989479688709
15.0895 544
15.10962 481.984153434878
15.12973 523.990169277272
15.14984 471.017611364506
15.16996 532.010108579242
15.19007 462.023601129151
15.21019 510.997643197569
15.2303 460
15.25041 504.005292716364
15.27053 457.94089777596
15.29064 463.049951452808
15.31075 478.994790390642
15.33087 482.96074072114
15.35098 514.999452913935
15.3711 485
15.39121 482.996357062559
15.41132 470.006533201017
15.43144 491.010208684989
15.45155 470.066917992061
15.47166 470.915393511805
15.49178 509.026377773858
15.51189 435.021962053329
15.53201 463.032336441135
15.55212 510.00900668347
15.57223 481.933692955708
15.59235 456.016754767276
15.61246 481.965356649039
15.63257 481.002323462584
15.65269 482.005571718518
15.6728 459
15.69291 448.995364959812
15.71303 434.977420524603
15.73314 438.073509225526
15.75326 485.960308559298
15.77337 485.960066259988
15.79348 525.010113216132
15.8136 469
15.83371 470.99767531278
15.85382 441.974515091697
15.87394 443.046278656248
15.89405 464.003806628654
15.91417 448.003376108456
15.93428 467.977660852654
15.95439 468.013690950368
15.97451 450.016792664044
15.99462 504.000579707553
16.01473 452.959112583884
16.03485 480.092970866766
16.05496 487.040157871818
16.07508 475.969003338867
16.09519 515.010256700896
16.1153 451
16.13542 472.98866307251
16.15553 426.995249691821
16.17564 477.072775960448
16.19576 470.028080248163
16.21587 470.001859566963
16.23598 457.01976460207
16.2561 452
16.27621 475.985016763507
16.29633 416.983146446158
16.31644 459.049347155527
16.33655 438.061578130191
16.35667 445.947556123496
16.37678 486.969147839384
16.39689 486.019438091798
16.41701 440.99374362215
16.43712 454.996490812303
16.45724 433.005187647549
16.47735 469.088282500013
16.49746 485.971900365656
16.51758 497.008269740492
16.53769 475.00685333153
16.5578 473
16.57792 453.985303275845
16.59803 460.042992986541
16.61814 489.009190587395
16.63826 478.980786258637
16.65837 501.010807027162
16.67849 468.006670759635
16.6986 486
16.71871 475.987050625167
16.73883 457.001940731681
16.75894 472.017855867265
16.77905 466.025235254555
16.79917 465.979723257087
16.81928 466.044020863072
16.8394 428
16.85951 526.012743269416
16.87962 454.928959285451
16.89974 451.070201966775
16.91985 478.994747386005
16.93996 464.009893797558
16.96008 481.973537789826
16.98019 485.019118490737
17.00031 425.979736435863
17.02042 435.051268872195
17.04053 479.995019728022
17.06065 444.978931214872
17.08076 467.997399272864
17.10087 443.004139215872
17.12099 469.992269468732
17.1411 451
17.16121 438.014947142546
17.18133 487.034668330122
17.20144 477.993520541083
17.22156 502.925461023157
17.24167 520.030986002293
17.26178 482.017051129353
17.2819 482
17.30201 451.011701200865
17.32212 513.02376465553
17.34224 477.92368526797
17.36235 477.938994886142
17.38247 498.995000025966
17.40258 489.004760283816
17.42269 489.007086651892
17.44281 470.002402672184
17.46292 499.02489099535
17.48303 501.986573520997
17.50315 499.027309354093
17.52326 517.97423850646
17.54338 506.041684531657
17.56349 452.021498252197
17.5836 445
17.60372 490.030174871602
17.62383 494.995275354984
17.64394 502.036562471631
17.66406 521.979165965925
17.68417 508.063301515085
17.70428 470.99369897496
17.7244 498
17.74451 459.005184942496
17.76463 502.979900345337
17.78474 441.983936145192
17.80485 494.946494510744
17.82497 456.053633444328
17.84508 470.95013010756
17.86519 518.987908771808
17.88531 516.995394972965
17.90542 504.970881006642
17.92554 462.928844186733
17.94565 464.123397615605
17.96576 520.978050486812
17.98588 494.004190537761
18.00599 518.0016313526
18.0261 480
18.04622 494.029528848953
18.06633 506.98030304117
18.08645 485.997537825363
18.10656 508.954139537711
18.12667 502.064595564547
18.14679 456.004311192451
18.1669 477
18.18701 460.004607008571
18.20713 500.043544514578
18.22724 508.035514026349
18.24735 529.033948475552
18.26747 492.016777405042
18.28758 513.986673154542
18.3077 501
18.32781 489.98786960727
18.34792 469.016699068475
18.36804 519.088427919838
18.38815 522.088406089622
18.40826 489.978898950626
18.42838 519.016247127463
18.44849 469.004018462216
18.46861 505.003214063915
18.48872 475.000068261455
18.50883 514.030574131442
18.52895 491.922128377072
18.54906 486.952734091598
18.56917 510.014272875117
18.58929 481.001598032913
18.6094 505
18.62951 480.986928406688
18.64963 474.007148221189
18.66974 481.014232272342
18.68986 483.012740599021
18.70997 482.963590152457
18.73008 519.980457292296
18.7502 507
18.77031 494.012816681117
18.79042 528.993843640964
18.81054 489.973771653891
18.83065 504.039617500872
18.85077 469.974483663142
18.87088 526.983919190645
18.89099 490.010685761914
18.91111 514.015268613102
18.93122 524.000612006112
18.95133 514.954914648921
18.97145 492.06028961631
18.99156 538.989739638678
19.01168 502.015037256635
19.03179 533.980010933839
19.0519 549
19.07202 530.969473950078
19.09213 501.979603454368
19.11224 510.04480913596
19.13236 531.973392997488
19.15247 527.037652138339
19.17258 522.939706269283
19.1927 604
19.21281 538.966934747545
19.23293 527.03218587605
19.25304 543.99052436685
19.27315 546.857983296203
19.29327 634.926954268053
19.31338 609.066115642173
19.33349 563.998013263842
19.35361 600.011591071121
19.37372 597.001689316885
19.39384 613.017846709996
19.41395 612.018175926053
19.43406 626.992602352332
19.45418 623.986351667623
19.47429 650.993364894005
19.4944 652
19.51452 689.032580330685
19.53463 695.975978178943
19.55475 681.018892365746
19.57486 722.868157784494
19.59497 770.008994160773
19.61509 752.975983358683
19.6352 835
19.65531 778.999313427562
19.67543 863.122313762866
19.69554 903.090022781261
19.71565 970.850224758662
19.73577 989.042863493793
19.75588 956.987092631431
19.776 994
19.79611 964.020831643831
19.81622 1073.07778877418
19.83634 1073.95032493333
19.85645 1063.0203951009
19.87656 1061.95634649415
19.89668 1087.0077252133
19.91679 1056.00433747032
19.93691 1065.98981638501
19.95702 1008.94970322337
19.97713 1010.08194422095
19.99725 1081.11732105128
20.01736 1068.13828695622
20.03747 988.071827615151
20.05759 999.971326841948
20.0777 1041
20.09782 973.958974273471
20.11793 981.013156465323
20.13804 962.945903925149
20.15816 932.092750848716
20.17827 908.922412416064
20.19838 995.970029708775
20.2185 952
20.23861 958.014064526053
20.25872 969.984013577427
20.27884 923.868287987043
20.29895 884.935168242578
20.31907 946.953534587313
20.33918 927.02418265651
20.35929 918.010408564693
20.37941 881.986587344632
20.39952 881.017767101623
20.41963 882.938049041559
20.43975 814.875411905742
20.45986 832.817665117235
20.47998 928.974739148273
20.50009 892.007861608295
20.5202 921
20.54032 911.017712925648
20.56043 944.980878924052
20.58054 888.934418576802
20.60066 914.891841483522
20.62077 938.05598971753
20.64088 878.014794753754
20.661 919
20.68111 935.013475547339
20.70123 996.124014266145
20.72134 1066.06670834448
20.74145 1086.86280886357
20.76157 1141.0443423186
20.78168 1073.97486801145
20.80179 1173.98649067502
20.82191 1116.99773084787
20.84202 1166.97051043857
20.86214 1027.71253536773
20.88225 954.9304878314
20.90236 928.085611145608
20.92248 897.970683753582
20.94259 955.995584157763
20.9627 899
20.98282 874.995488498312
21.00293 871.998453172427
21.02305 876.029155787479
21.04316 890.978093631036
21.06327 866.128042589736
21.08339 783.99423422004
21.1035 868
21.12361 838.986357670539
21.14373 854.033735461658
21.16384 850.945953151641
21.18395 834.927944463974
21.20407 879.007068775382
21.22418 835.00960469761
21.2443 866
21.26441 825.9831999735
21.28452 837.043901014461
21.30464 870.984584804242
21.32475 841.99529092368
21.34486 861.059149982142
21.36498 782.062065959362
21.38509 781.979046091894
21.40521 821.005350569027
21.42532 814.010746330978
21.44543 845.027107794733
21.46555 847.038401360315
21.48566 864.04549025072
21.50577 823.989660378892
21.52589 862.005616339528
21.546 797
21.56612 817.046831042092
21.58623 850.019922076852
21.60634 843.960934060666
21.62646 808.119973447716
21.64657 762.972794758785
21.66668 823.965302203573
21.6868 793
21.70691 741.994655881992
21.72702 768.035400254945
21.74714 766.887057147003
21.76725 712.933809088887
21.78737 787.979932406182
21.80748 727.037689885707
21.82759 742.998565236836
21.84771 717.999711562678
21.86782 738.987601525325
21.88793 714.057187105277
21.90805 800.105985863759
21.92816 773.063514822251
21.94828 774.990082337333
21.96839 775.000996552777
21.9885 783
22.00862 795.976848912021
22.02873 738.908659909059
22.04884 703.984482084416
22.06896 708.001010807186
22.08907 701.994253695164
22.10919 720.988059096187
22.1293 741
22.14941 744.989807394644
22.16953 709.957912627304
22.18964 697.984907820908
22.20975 690.003386086474
22.22987 700.967088461994
22.24998 705.041652345536
22.27009 660.987263501778
22.29021 733.01153218784
22.31032 694.983510144095
22.33044 720.008530815344
22.35055 687.945298748348
22.37066 687.030050050361
22.39078 678.944704491426
22.41089 756.998747109626
22.431 685
22.45112 697.00714246033
22.47123 675.987331386325
22.49135 689.007261015669
22.51146 689.923347405925
22.53157 738.01514901771
22.55169 663.038979512234
22.5718 636
22.59191 686.038238827325
22.61203 732.948936520653
22.63214 649.903374609413
22.65225 672.879870050542
22.67237 699.991921387835
22.69248 690.01866451411
22.7126 679
22.73271 700.011001857897
22.75282 720.027739974177
22.77294 750.032593576077
22.79305 740.082742448898
22.81316 702.054109200402
22.83328 688.014054082052
22.85339 678.992702933111
22.87351 714.016603740905
22.89362 733.013706326998
22.91373 731.948437545083
22.93385 701.070622880687
22.95396 764.960654847558
22.97407 707.134020490048
22.99419 651.999737336629
23.0143 685
23.03442 678.994453093423
23.05453 690.02371908634
23.07464 689.950103826791
23.09476 651.064052966354
23.11487 643.97579331009
23.13498 661.999832139558
23.1551 657
23.17521 709.025849729386
23.19532 726.979943129956
23.21544 695.979285205616
23.23555 701.039864101343
23.25567 659.054076559536
23.27578 647.998140029083
23.29589 654.991697039007
23.31601 689.027043581578
23.33612 731.996855441236
23.35623 712.040506070835
23.37635 775.059458962838
23.39646 740.077073941851
23.41658 741.968077402418
23.43669 769.001368973648
23.4568 765
23.47692 836.011527555149
23.49703 784.948096343829
23.51714 799.03354506007
23.53726 790.034866620633
23.55737 781.001140587788
23.57749 809.959962326314
23.5976 887
23.61771 817.97847350593
23.63783 821.972335755456
23.65794 776.988308129572
23.67805 812.962978878709
23.69817 792.012920649327
23.71828 812.980473576042
23.73839 810.007860387094
23.75851 788.985874071157
23.77862 755.967521974115
23.79874 727.952194628122
23.81885 720.051900552617
23.83896 758.93381648271
23.85908 762.028109732763
23.87919 732.999055001747
23.8993 752
23.91942 726.014852044309
23.93953 769.001430328604
23.95965 721.922557098754
23.97976 740.921327066562
23.99987 759.023864757651
24.01999 734.996673759787
24.0401 760
24.06021 730.004785323134
24.08033 779.039438622368
24.10044 763.972777663623
24.12056 768.009336371974
24.14067 745.036485515371
24.16078 757.927990488501
24.1809 824
24.20101 718.96225709919
24.22112 736.067771488818
24.24124 788.020682159947
24.26135 765.05625367665
24.28146 767.960027055507
24.30158 771.039618717221
24.32169 715.009754988129
24.34181 737.008015758108
24.36192 737.020963567745
24.38203 766.984606462804
24.40215 721.937551472939
24.42226 745.905247245657
24.44237 780.982782984065
24.46249 764.019670596672
24.4826 739
24.50272 788.028532638703
24.52283 777.972173658139
24.54294 778.031810577177
24.56306 786.042274973524
24.58317 757.986679243447
24.60328 806.952036439497
24.6234 822
24.64351 799.984880108691
24.66362 781.008249988414
24.68374 824.1381712327
24.70385 860.122177634266
24.72397 772.043321758126
24.74408 826.934644371907
24.76419 838.017746342097
24.78431 800.999589100231
24.80442 836.03293540889
24.82453 833.951142566755
24.84465 804.004458830255
24.86476 825.002705066783
24.88488 795.02325253859
24.90499 788.008053773234
24.9251 768
24.94522 811.05632066407
24.96533 858.054314325001
24.98544 845.805999581547
25.00556 727.076462355382
25.02567 786.887669178201
25.04579 814.000783995353
25.0659 797
25.08601 775.019896245191
25.10613 842.020728956208
25.12624 788.892226251756
25.14635 774.002531945812
25.16647 764.024416141391
25.18658 754.99057240289
25.20669 787.974954229015
25.22681 826.001032795802
25.24692 788.944509517405
25.26704 764.069949781848
25.28715 811.961525266346
25.30726 736.113158254805
25.32738 725.017447635059
25.34749 709.975632553662
25.3676 790
25.38772 733.957551832396
25.40783 731.970885095987
25.42795 698.031349709129
25.44806 736.037359814219
25.46817 671.027765207845
25.48829 724.970318512341
25.5084 731
25.52851 723.047237022981
25.54863 829.936147229347
25.56874 689.952367922782
25.58886 812.82757593319
25.60897 768.133173339513
25.62908 721.005572824877
25.6492 749
25.66931 794.00344026252
25.68942 782.016796701667
25.70954 802.905580742013
25.72965 717.053671213338
25.74976 772.912193273726
25.76988 748.061213686594
25.78999 716.983022729843
25.81011 763.986441722601
25.83022 681.969821807318
25.85033 702.949068320589
25.87045 632.041158734027
25.89056 728.909116401663
25.91067 673.114457082436
25.93079 647.99101377415
25.9509 667
25.97102 625.971001475696
25.99113 636.056002189972
26.01124 676.058018951678
26.03136 677.061952649617
26.05147 644.001021579845
26.07158 667.993430469829
26.0917 640
26.11181 630.014842667081
26.13193 672.021277025326
26.15204 660.005727967764
26.17215 690.923119564173
26.19227 700.009997884544
26.21238 703.965209912369
26.23249 746.996173272437
26.25261 712.980791383601
26.27272 692.984915707943
26.29283 684.018332779456
26.31295 712.057643905354
26.33306 744.84615507527
26.35318 829.979159054686
26.37329 800.996400732409
26.3934 866
26.41352 934.159048087109
26.43363 1141.19104845717
26.45374 1188.17796470193
26.47386 1393.46191606899
26.49397 1660.63386826641
26.51409 1875.90318690882
26.5342 2038
26.55431 2089.00737398323
26.57443 2058.84497478611
26.59454 1919.78750921459
26.61465 1834.35391107139
26.63477 1623.31804038596
26.65488 1434.20435035807
26.67499 1214.09568616637
26.69511 1066.93711649576
26.71522 941.882469585601
26.73534 841.848705212033
26.75545 802.006444277121
26.77556 800.118976050337
26.79568 708.044868284384
26.81579 729.985124007263
26.8359 734
26.85602 742.995251015439
26.87613 726.991853066486
26.89625 742.0591010923
26.91636 753.023168412712
26.93647 734.001982680004
26.95659 743.006571078873
26.9767 713
26.99681 733.009153844558
27.01693 728.974820290979
27.03704 730.07993331704
27.05716 767.059527423437
27.07727 700.016092769439
27.09738 742.999457911245
27.1175 700
27.13761 754.999895114568
27.15772 692.970872707137
27.17784 722.036961936093
27.19795 714.948324933624
27.21806 763.952172694901
27.23818 746.023399372012
27.25829 751.983058864527
27.27841 796.018514537511
27.29852 831.053802529668
27.31863 911.136782333052
27.33875 964.953006120202
27.35886 920.972617673475
27.37897 996.910502895287
27.39909 1001.00663605667
27.4192 997
27.43932 978.97349734695
27.45943 963.016556959641
27.47954 985.000812809729
27.49966 934.196966865099
27.51977 852.999903952777
27.53988 914.959154782223
27.56 898
27.58011 884.99268808327
27.60023 867.996808206623
27.62034 875.992767346808
27.64045 868.951272768187
27.66057 889.05342427499
27.68068 827.00201771889
27.70079 873.002206449725
27.72091 803.975607122174
27.74102 805.999781310434
27.76113 780.971335003886
27.78125 781.005389605518
27.80136 775.014730197154
27.82148 757.044258948225
27.84159 707.009230267753
27.8617 716
27.88182 668.922496739568
27.90193 620.041904016866
27.92204 688.045883656378
27.94216 644.095451100182
27.96227 630.007394647284
27.98239 616.008081001066
28.0025 604
28.02261 597.99725340826
28.04273 594.000224420237
28.06284 612.093609180699
28.08295 643.102780607253
28.10307 565.033927604935
28.12318 599.000191052289
28.1433 548
28.16341 580.025968600111
28.18352 602.983430599027
28.20364 574.998676017393
28.22375 601.033979468801
28.24386 598.964531635407
28.26398 613.04884725088
28.28409 529.01549728793
28.3042 577
28.32432 604.996943498163
28.34443 582.947233051061
28.36455 551.963899313636
28.38466 554.981098200539
28.40477 559.999155168002
28.42489 555.005832422347
28.445 556
28.46511 588.988196909457
28.48523 531.982850840003
28.50534 579.080049431732
28.52546 580.010957004812
28.54557 590.973779586539
28.56568 585.049486205174
28.5858 522
28.60591 549.021532902617
28.62602 559.96632091723
28.64614 517.998109358439
28.66625 566.855204738363
28.68636 591.026260725311
28.70648 560.025922988461
28.72659 548.005779401036
28.74671 531.994290818572
28.76682 536.021463885142
28.78693 549.96892986815
28.80705 511.973945150512
28.82716 543.911369420803
28.84727 559.040057028443
28.86739 509.020818642413
28.8875 502
28.90762 539.03873141722
28.92773 555.974580451444
28.94784 515.920319615722
28.96796 502.963559752028
28.98807 534.96422070644
29.00818 541.00009769987
29.0283 551
29.04841 556.975262445454
29.06853 483.960351811927
29.08864 521.096605061427
29.10875 534.044003305066
29.12887 521.962738881795
29.14898 560.004395420646
29.16909 524.000526434781
29.18921 560.004228741729
29.20932 520.958076307011
29.22943 507.001723682558
29.24955 518.071220032799
29.26966 563.891010235236
29.28978 592.026110672488
29.30989 537.015182554298
29.33 550
29.35012 563.019459984378
29.37023 567.930585373371
29.39034 504.984520583816
29.41046 543.989029981085
29.43057 509.003611482356
29.45069 562.969760198696
29.4708 595
29.49091 595.984746182987
29.51103 537.902009050577
29.53114 512.082613377097
29.55125 571.996652134766
29.57137 533.971876319515
29.59148 604.978254275626
29.6116 562
29.63171 576.990947951568
29.65182 533.007553887374
29.67194 594.0778034076
29.69205 590.016267850295
29.71216 618.980974080807
29.73228 615.967120565261
29.75239 662.006411178848
29.7725 594
29.79262 611.048994682944
29.81273 636.969044020279
29.83285 595.971395518862
29.85296 615.992331870872
29.87307 596.005834671314
29.89319 612.000198063184
29.9133 598
29.93341 621.992182727484
29.95353 581.000456530915
29.97364 624.041618181128
29.99376 592.100719128046
30.01387 566.983998200192
30.03398 600.965727576041
30.0541 608
30.07421 573.993287194082
30.09432 584.007479801116
30.11444 578.996763505609
30.13455 582.017329727927
30.15467 569.996183610237
30.17478 582.003347608097
30.19489 574.987077264106
30.21501 614.999163509277
30.23512 572.974721972644
30.25523 584.015652127064
30.27535 579.003424255056
30.29546 580.055344392622
30.31557 548.97024755926
30.33569 591.009635865499
30.3558 529
30.37592 587.016538218403
30.39603 553.011160959258
30.41614 606.021618911905
30.43626 561.053001132709
30.45637 574.000143110262
30.47648 562.967037305373
30.4966 611
30.51671 524.969987366428
30.53683 537.061524679833
30.55694 569.054554944606
30.57705 581.04716619053
30.59717 549.017311947624
30.61728 568.970981397275
30.63739 591.988103275227
30.65751 613.00356795628
30.67762 603.983431786805
30.69773 590.990205305091
30.71785 586.979925539185
30.73796 574.023915032152
30.75808 585.947037319351
30.77819 649.986615318644
30.7983 622
30.81842 578.971219268868
30.83853 579.059068415628
30.85864 609.927737780639
30.87876 525.110601107991
30.89887 539.926389930452
30.91899 567.007894423827
30.9391 540
30.95921 574.991399084794
30.97933 535.059541042205
30.99944 625.016553037966
31.01955 543.121134595737
31.03967 562.003504619681
31.05978 505.055420979703
31.0799 513
31.10001 592.002117748873
31.12012 532.964882413112
31.14024 549.016215070376
31.16035 524.059957768718
31.18046 529.937732335082
31.20058 560.990311899626
31.22069 543.015477264215
31.2408 524
31.26092 531.983179873167
31.28103 506.014600801413
31.30115 550.079742469876
31.32126 545.04201304119
31.34137 532.002561095955
31.36149 536.998067923443
31.3816 524
31.40171 498.015153499942
31.42183 554.008958053369
31.44194 514.992170356148
31.46206 561.933637448805
31.48217 538.090550597047
31.50228 496.985583421554
31.5224 545
31.54251 522.985043100108
31.56262 525.036790665004
31.58274 551.93854761534
31.60285 481.111701582436
31.62297 490.958334905606
31.64308 518.953145228077
31.66319 552.016585260753
31.68331 487.996779596076
31.70342 547.04426174889
31.72353 530.936191262197
31.74365 502.986436883294
31.76376 511.984831775393
31.78387 519.961338047032
31.80399 547.003174162046
31.8241 519
31.84422 556.046365664994
31.86433 569.954842119217
31.88444 524.962597862856
31.90456 529.034584873877
31.92467 489.029128399141
31.94478 499.991811425547
31.9649 495
31.98501 523.021006697137
32.00513 551.996112867167
32.02524 539.031910636732
32.04535 585.900484895641
32.06547 586.052763628848
32.08558 547.015278151584
32.10569 560.989243744216
32.12581 564.991462312511
32.14592 534.969145859487
32.16604 523.030439125778
32.18615 564.142125266803
32.20626 604.996452437645
32.22638 577.025580480698
32.24649 568.004952097476
32.2666 545
32.28672 542.053675800575
32.30683 624.077475790099
32.32694 606.86650620674
32.34706 551.004314717538
32.36717 576.024771504862
32.38729 535.988084918849
32.4074 612
32.42751 559.966839393299
32.44763 547.064383659166
32.46774 612.100253099878
32.48785 627.012246279368
32.50797 616.028318749204
32.52808 602.991194800989
32.5482 622
32.56831 587.970318816224
32.58842 550.021154422539
32.60854 599.01547608921
32.62865 573.951563009265
32.64876 624.021513040645
32.66888 566.996504065359
32.68899 628.99429165131
32.7091 571
32.72922 594.032432545782
32.74933 600.995109193888
32.76945 613.093509591175
32.78956 650.000608139574
32.80967 613.054725687721
32.82979 625.962757656746
32.8499 688
32.87001 595.99356878983
32.89013 659.004182137839
32.91024 576.888412095837
32.93036 613.828768380845
32.95047 670.013801568128
32.97058 627.00951777953
32.9907 663
33.01081 656.997237908248
33.03092 652.966122922559
33.05104 612.013357712395
33.07115 666.878675581657
33.09127 687.961453466992
33.11138 711.019967996184
33.13149 666.005634131423
33.15161 685.995134563353
33.17172 625.930593847233
33.19183 597.032776482267
33.21195 644.090026675134
33.23206 647.033621975115
33.25217 633.99819105414
33.27229 648.991085994262
33.2924 649
33.31252 614.991791060613
33.33263 623.979158316123
33.35274 584.94803502322
33.37286 584.99698215157
33.39297 578.996745629727
33.41308 599.965515687634
33.4332 626
33.45331 607.99445708613
33.47343 619.035088915925
33.49354 624.936357942114
33.51365 558.193518112415
33.53377 527.921196492916
33.55388 617.954239679897
33.57399 578.042999647874
33.59411 514.995476886037
33.61422 546.026784492232
33.63434 561.078384469376
33.65445 600.951906679448
33.67456 542.037579634034
33.69468 573.985889399617
33.71479 542.018781656454
33.7349 528
33.75502 543.045190459804
33.77513 580.967918211235
33.79524 517.930621487982
33.81536 537.936647132065
33.83547 554.972409114946
33.85559 567.009350963558
33.8757 528
33.89581 529.000843253952
33.91593 526.017080298481
33.93604 548.01919975476
33.95615 543.990307799085
33.97627 557.993054433361
33.99638 548.010373524225
34.0165 545
34.03661 553.016560776581
34.05672 592.009783383558
34.07684 579.010481838014
34.09695 602.994998995176
34.11706 576.044405905967
34.13718 582.97305001412
34.15729 600.007024323664
34.17741 566.990799777435
34.19752 572.00416401423
34.21763 570.016006193131
34.23775 592.032361852539
34.25786 595.970111108578
34.27797 599.077856177505
34.29809 540.985536388578
34.3182 621
34.33831 561.012085992578
34.35843 662.036237026584
34.37854 582.88782425075
34.39866 610.90454579071
34.41877 628.996243022752
34.43888 627.009879247205
34.459 621
34.47911 651.014404711436
34.49922 659.987942541548
34.51934 628.907254577677
34.53945 602.931220281376
34.55957 663.938732566559
34.57968 677.966854891892
34.59979 720.003180146525
34.61991 676.99475251733
34.64002 718.042575455847
34.66013 737.028791252227
34.68025 751.955213943202
34.70036 726.954972348954
34.72047 784.960357599988
34.74059 768.002744859709
34.7607 780
34.78082 739.999494529243
34.80093 785.054943530455
34.82104 797.047933457728
34.84116 819.062140019735
34.86127 748.069012338402
34.88138 765.943443989645
34.9015 814
34.92161 802.993719999729
34.94173 809.028141255914
34.96184 816.958538637565
34.98195 786.010800593108
35.00207 813.95626785887
35.02218 812.034632785655
35.04229 764.019855780572
35.06241 759.017634380536
35.08252 809.032993625709
35.10264 809.96965415991
35.12275 809.069388249263
35.14286 839.018704570303
35.16298 801.014399533141
35.18309 805.017317365005
35.2032 748
35.22332 801.043286135925
35.24343 778.886269463733
35.26354 735.126021228219
35.28366 843.96575585753
35.30377 776.014979552298
35.32389 829.011295293626
35.344 732
35.36411 806.0387336281
35.38423 830.020089864186
35.40434 858.04857367009
35.42445 859.059845301786
35.44457 831.013678566243
35.46468 844.981544260727
35.4848 856
35.50491 845.972420832255
35.52502 775.971867410197
35.54514 821.186924793137
35.56525 903.911203155755
35.58536 887.078616122278
35.60548 860.009507052738
35.62559 864.994219179552
35.64571 880.011474308543
35.66582 892.980196758188
35.68593 850.954324700387
35.70605 851.041119392187
35.72616 857.034738611613
35.74627 821.054785239924
35.76639 797.007836411082
35.7865 810
35.80661 877.996001027864
35.82673 801.912420595856
35.84684 798.006378656387
35.86696 786.003983005679
35.88707 799.98383913399
35.90718 784.046975736906
35.9273 738
35.94741 756.998731939335
35.96752 734.005914425888
35.98764 760.981819392489
36.00775 715.064940183368
36.02787 731.960126244207
36.04798 741.002784634899
36.06809 731.009182905354
36.08821 707.988884225257
36.10832 697.005837989762
36.12843 723.065655616347
36.14855 734.830784538092
36.16866 646.999165659534
36.18878 732.939412165883
36.20889 720.012366446468
36.229 731
36.24912 736.945726329479
36.26923 667.994702298404
36.28934 720.036358346018
36.30946 678.077982499768
36.32957 703.864829547895
36.34968 787.993469235462
36.3698 736
36.38991 764.001406587981
36.41003 732.999940863132
36.43014 779.085069866423
36.45025 779.08185989179
36.47037 743.028599584678
36.49048 746.986670266456
36.51059 754.000724542915
36.53071 738.984300728176
36.55082 712.001688821972
36.57094 722.953855979741
36.59105 672.934509634516
36.61116 683.976881057072
36.63128 691.96325936601
36.65139 729.012152491149
36.6715 677
36.69162 747.014391010815
36.71173 676.889015402765
36.73184 661.050370793038
36.75196 685.999949489645
36.77207 655.065071979747
36.79219 633.990844118198
36.8123 662
36.83241 624.995598404242
36.85253 659.053183211947
36.87264 663.966360898862
36.89275 659.913474859563
36.91287 699.025882897163
36.93298 646.006971207277
36.9531 677
36.97321 600.97801417524
36.99332 635.071609128888
37.01344 685.016419150498
37.03355 655.111268496973
37.05366 627.006198566678
37.07378 646.967262403396
37.09389 664.008726829264
37.11401 641.009656928762
37.13412 705.062745155602
37.15423 712.916576204491
37.17435 642.93605126974
37.19446 652.047386084793
37.21457 596.029528181108
37.23469 625.987785109177
37.2548 618
37.27491 622.006625506494
37.29503 651.086952821773
37.31514 701.987446919012
37.33526 648.082830176479
37.35537 634.045875128138
37.37548 599.979425535036
37.3956 667
37.41571 667.998283778952
37.43582 680.006144251445
37.45594 663.933603081514
37.47605 641.966669585695
37.49617 667.016563191344
37.51628 624.022614931906
37.53639 649.974703609341
37.55651 671.981704883416
37.57662 608.973301578523
37.59673 655.139523929595
37.61685 721.979676995815
37.63696 659.096735634006
37.65708 658.986057884226
37.67719 673.981364630032
37.6973 699
37.71742 623.988365004501
37.73753 681.0554396998
37.75764 636.804121434919
37.77776 584.863252952332
37.79787 705.953650995265
37.81798 633.047843718747
37.8381 668
37.85821 665.979534502959
37.87833 616.947050187995
37.89844 606.006452311925
37.91855 621.907316155366
37.93867 661.976983767961
37.95878 646.026583812093
37.97889 632.997774351172
37.99901 654.016305392822
38.01912 683.014337567182
38.03924 681.987065518729
38.05935 653.811981703192
38.07946 574.029054269465
38.09958 633.925736969292
38.11969 668.00099951531
38.1398 647
38.15992 620.97112464591
38.18003 609.04423636619
38.20015 654.023979584599
38.22026 629.016493397179
38.24037 640.027484841475
38.26049 596.008338688949
38.2806 624
38.30071 642.002515635708
38.32083 647.01696279896
38.34094 645.923247271513
38.36105 608.927940628837
38.38117 682.949754204402
38.40128 649.043033036688
38.4214 638
38.44151 644.005433527138
38.46162 652.997003170977
38.48174 628.912447017035
38.50185 600.9424926784
38.52196 645.00060949435
38.54208 608.997359466214
38.56219 647.002228975146
38.58231 582.9688682466
38.60242 586.071676767837
38.62253 664.026215055802
38.64265 631.988267468558
38.66276 671.949888595823
38.68287 649.067357385284
38.70299 619.001769873397
38.7231 622
38.74321 578.985297950606
38.76333 592.074729457543
38.78344 649.078416243168
38.80356 641.120458603036
38.82367 569.055516869287
38.84378 585.956272539382
38.8639 615
38.88401 598.998960067824
38.90412 612.000114150887
38.92424 591.961258727764
38.94435 584.015134958861
38.96447 566.050695707541
38.98458 550.957222521627
39.00469 618.98969974572
39.02481 580.982272344509
39.04492 584.016917138244
39.06503 587.982967714535
39.08515 578.026434953185
39.10526 596.014087710439
39.12538 568.012299240132
39.14549 575.003257979697
39.1656 559
39.18572 591.008081942999
39.20583 564.960738083322
39.22594 562.020374008128
39.24606 584.910430348539
39.26617 628.984482724772
39.28628 618.984411400206
39.3064 648
39.32651 605.003643071716
39.34663 670.079240126889
39.36674 663.91415357082
39.38685 634.963817939419
39.40697 664.022163702462
39.42708 617.008780711794
39.44719 652.991587007192
39.46731 621.97823501912
39.48742 604.011142748016
39.50754 615.962129081324
39.52765 565.876955113979
39.54776 554.932372826932
39.56788 594.999295624938
39.58799 554.019702201603
39.6081 554
39.62822 575.966873563762
39.64833 516.980988188285
39.66845 552.031396001333
39.68856 517.07481075795
39.70867 515.955408442531
39.72879 543.002048882921
39.7489 526
39.76901 572.012141140618
39.78913 561.990486648404
39.80924 564.960587017107
39.82935 528.040057122151
39.84947 545.959119800867
39.86958 564.982603009991
39.8897 574
39.90981 544.987970226739
39.92992 539.005072530485
39.95004 550.03748467874
39.97015 561.03598504786
39.99026 534.017909557268
40.01038 555.964986191747
40.03049 579.996926586469
40.05061 577.001574512175
40.07072 579.981268747533
40.09083 549.986645103718
40.11095 582.151571130758
40.13106 621.043777857789
40.15117 566.03183500146
40.17129 604.970684113952
40.1914 630
40.21152 589.986141942691
40.23163 596.969182231123
40.25174 552.970740158556
40.27186 575.967463989006
40.29197 573.981779594971
40.31208 591.020178400571
40.3322 549
40.35231 584.011294964392
40.37242 565.966080786515
40.39254 542.981464830377
40.41265 542.993998792183
40.43277 548.973598590698
40.45288 562.016141178009
40.47299 542.985406131662
40.49311 599.004817674639
40.51322 545.940990543808
40.53333 534.048861160401
40.55345 580.075988688556
40.57356 583.016195042309
40.59368 579.998178897565
40.61379 582.001098184821
40.6339 582
40.65402 596.995147396121
40.67413 573.973691045187
40.69424 581.054821841183
40.71436 606.987631158922
40.73447 597.007001434269
40.75458 606.987589113529
40.7747 608
40.79481 605.015111410921
40.81493 632.948714682072
40.83504 560.949514776798
40.85515 597.92368371041
40.87527 586.033284122407
40.89538 578.99843277892
40.91549 584.9935546401
40.93561 597.000284871229
40.95572 592.00570454168
40.97584 601.983104331723
40.99595 579.980174624186
41.01606 588.003096621827
41.03618 571.01267809968
41.05629 570.999253104481
41.0764 567
41.09652 569.013523777986
41.11663 581.993903899497
41.13675 557.92432777234
41.15686 539.005984762259
41.17697 545.989992736299
41.19709 554.987961816667
41.2172 577
41.23731 548.999976994486
41.25743 578.020558629467
41.27754 563.979505078489
41.29765 568.006355265456
41.31777 558.991625327455
41.33788 561.040748511746
41.358 527
41.37811 633.003494514098
41.39822 529.91851027351
41.41834 538.071606303072
41.43845 557.946087632271
41.45856 570.053729362577
41.47868 530.99430982422
41.49879 591.96523599249
41.51891 610.977469508824
41.53902 545.973362375992
41.55913 585.111524163709
41.57925 628.94218390286
41.59936 560.112182408507
41.61947 554.959300850046
41.63959 577.999453557727
41.6597 570
41.67982 603.020188029797
41.69993 581.912264956697
41.72004 527.979615328842
41.74016 547.010304962933
41.76027 517.00306312968
41.78038 547.983958439049
41.8005 528
41.82061 512.998092775979
41.84072 523.029533152241
41.86084 552.004199581683
41.88095 518.131206110855
41.90107 490.960958835731
41.92118 540.983356392657
41.94129 508.020816698617
41.96141 497.009293500505
41.98152 516.994139217342
42.00163 499.016100659465
42.02175 534.034671697246
42.04186 508.078415008142
42.06198 489.98823704986
42.08209 518.987586609508
42.1022 531
42.12232 539.992521879836
42.14243 522.991943825941
42.16254 532.010401356956
42.18266 523.030636206697
42.20277 518.97404279214
42.22289 531.015085429439
42.243 489
42.26311 536.996151090344
42.28323 497.061102336222
42.30334 599.061016254611
42.32345 542.070669844455
42.34357 586.93013842396
42.36368 598.987858757583
42.38379 616.004290173361
42.40391 580.984270685753
42.42402 576.015118694768
42.44414 578.929915642147
42.46425 531.983605512137
42.48436 554.02630893667
42.50448 504.02429795574
42.52459 515.003094770595
42.5447 500
42.56482 554.976786632468
42.58493 470.953014243363
42.60505 517.089110570312
42.62516 508.996128967992
42.64527 530.007180395003
42.66539 498.00767977861
42.6855 506
42.70561 496.015563213517
42.72573 543.991520028639
42.74584 486.928227434248
42.76595 508.888704098129
42.78607 526.038644707246
42.80618 486.009819713043
42.8263 521
42.84641 542.990116940164
42.86652 498.963412602134
42.88664 494.040016852763
42.90675 511.019175988134
42.92686 485.032508633354
42.94698 488.993153468253
42.96709 488.999606341183
42.98721 496.005449094026
43.00732 505.003371142227
43.02743 502.994720662865
43.04755 515.101665467233
43.06766 549.043833941872
43.08777 497.010494655866
43.10789 539.988711799371
43.128 519
43.14812 516.979304657236
43.16823 481.984780845236
43.18834 502.033513559053
43.20846 499.012261419609
43.22857 497.010807954134
43.24868 484.009775902449
43.2688 485
43.28891 493.998878464469
43.30902 491.016418628504
43.32914 508.962687068839
43.34925 477.95150384081
43.36937 521.034697840024
43.38948 438.045758385998
43.40959 466.977652544506
43.42971 492.014069334437
43.44982 522.006955963613
43.46993 499.951632022099
43.49005 483.014206884951
43.51016 493.022553987352
43.53028 471.993410194511
43.55039 514.974782323459
43.5705 537
43.59062 496.953151638126
43.61073 480.047570525247
43.63084 521.989651739705
43.65096 474.05717295827
43.67107 492.950132428691
43.69119 507.002962170991
43.7113 480
43.73141 451.015980791734
43.75153 507.001561400377
43.77164 461.99244566213
43.79175 515.898690184305
43.81187 505.045166578489
43.83198 495.979688653255
43.85209 514.012198070603
43.87221 466.99544046973
43.89232 499.016259571355
43.91244 479.965449908109
43.93255 482.005703431104
43.95266 491.912624983981
43.97278 532.028019055599
43.99289 469.998479276489
44.013 535
44.03312 484.943253269417
44.05323 486.084632773347
44.07335 538.980847671795
44.09346 501.956518520315
44.11357 564.006891551285
44.13369 476.040141589054
44.1538 451
44.17391 446.018405253022
44.19403 507.047212784354
44.21414 501.002237243737
44.23426 510.053877386407
44.25437 452.059289910491
44.27448 456.973405299166
44.2946 479
44.31471 487.004182557471
44.33482 500.015590556947
44.35494 513.013743967659
44.37505 514.995924342833
44.39516 514.02088928483
44.41528 492.028387406222
44.43539 476.993218185832
44.45551 507.009402433338
44.47562 509.006667379431
44.49573 524.007973804292
44.51585 508.929791565762
44.53596 487.006473405272
44.55607 496.991808623636
44.57619 484.013742916147
44.5963 462
44.61642 486.033219241451
44.63653 512.024419223561
44.65664 519.000171935839
44.67676 501.09827062515
44.69687 458.973638104805
44.71698 518.967912059621
44.7371 501
44.75721 500.997796353575
44.77732 493.014070317413
44.79744 509.949989067573
44.81755 456.060311944843
44.83767 490.902531385205
44.85778 529.018023373325
44.87789 482.009729131512
44.89801 506.013549891182
44.91812 520.024411128758
44.93823 537.956147075642
44.95835 485.977038807897
44.97846 529.916089019902
44.99858 531.024515973977
45.01869 501.015154370749
45.0388 481
45.05892 497.032385285293
45.07903 521.994492256582
45.09914 503.000072502505
45.11926 523.981285268064
45.13937 511.020536758192
45.15949 510.996717649131
45.1796 507
45.19971 476.995058381735
45.21983 488.011104102557
45.23994 481.990169511517
45.26005 489.954759716554
45.28017 507.984938184721
45.30028 513.986563757552
45.32039 528.002059443838
45.34051 511.998570959859
45.36062 523.00068529798
45.38074 505.964240025696
45.40085 491.945849211318
45.42096 485.910651663702
45.44108 544.998912590141
45.46119 502.998998904748
45.4813 543
45.50142 474.97527704778
45.52153 518.059853341427
45.54165 512.945689876437
45.56176 512.936134290814
45.58187 555.966503185907
45.60199 549.006788736061
45.6221 534
45.64221 501.002456536684
45.66233 550.092817848758
45.68244 571.918552466658
45.70256 507.053712081304
45.72267 536.933684953604
45.74278 562.982850888023
45.7629 567
45.78301 539.002053363615
45.80312 554.971003681193
45.82324 499.990681025336
45.84335 549.918844443558
45.86346 539.017833303036
45.88358 542.020774256015
45.90369 514.989768004718
45.92381 563.000701920819
45.94392 518.985675756979
45.96403 539.981157435186
45.98415 494.981724826324
46.00426 532.958242421418
46.02437 509.051767343549
46.04449 494.998128008634
46.0646 510
46.08472 513.963076815463
46.10483 458.959282248395
46.12494 486.1246531889
46.14506 525.050715065389
46.16517 469.018077027955
46.18528 513.959703315763
46.2054 512
46.22551 502.003362482472
46.24563 515.00412838735
46.26574 508.000153515608
46.28585 514.015069540903
46.30597 499.004161195628
46.32608 506.006843120545
46.34619 492.993846420895
46.36631 527.010100701053
46.38642 522.996339071966
46.40653 524.98274694334
46.42665 488.86996807517
46.44676 462.930824560986
46.46688 528.966756138859
46.48699 506.019511363152
46.5071 487
46.52722 495.016092776355
46.54733 511.014630525633
46.56744 509.979171997649
46.58756 496.025440687636
46.60767 477.055490083008
46.62779 445.994215489941
46.6479 502
46.66801 534.996555216393
46.68813 520.024101691869
46.70824 547.963221487328
46.72835 494.049462083183
46.74847 507.036924348657
46.76858 447.021770538845
46.78869 478.986066884926
46.80881 474.996956697475
46.82892 485.014469138231
46.84904 504.069634635928
46.86915 540.026307107168
46.88926 527.016650839279
46.90938 537.983216211478
46.92949 530.024929927891
46.9496 471
46.96972 503.038132964237
46.98983 503.944488381367
47.00995 469.020866691326
47.03006 516.915649546242
47.05017 516.055587060178
47.07029 472.01400850238
47.0904 478
47.11051 518.011324865186
47.13063 524.016525876143
47.15074 525.914284407622
47.17086 467.018577848036
47.19097 496.013493284506
47.21108 460.972336175503
47.2312 541
47.25131 499.979844182201
47.27142 498.000764728633
47.29154 492.026736941241
47.31165 518.979309807057
47.33176 507.003672604695
47.35188 511.02494459997
47.37199 471.002858121397
47.39211 498.004433847298
47.41222 488.020894141931
47.43233 526.991373918981
47.45245 474.907330938228
47.47256 480.966249796088
47.49267 493.96040205488
47.51279 516.009048304544
47.5329 464
47.55302 464.036781483654
47.57313 508.041608470639
47.59324 505.954820523236
47.61336 477.059179069132
47.63347 469.949315000663
47.65358 512.001360180527
47.6737 479
47.69381 511.001604460055
47.71393 481.995892511483
47.73404 512.022093848858
47.75415 486.073205163478
47.77427 481.975096243861
47.79438 502.986532147956
47.81449 504.002375197115
47.83461 503.002777756128
47.85472 510.000442543855
47.87483 511.024821386446
47.89495 525.952831270971
47.91506 489.013274812132
47.93518 517.978262037752
47.95529 507.013270502324
47.9754 494
47.99552 518.008010466976
48.01563 500.963802957336
48.03574 485.986052134329
48.05586 485.98545700125
48.07597 485.037570265863
48.09609 464.984797449233
48.1162 520
48.13631 468.975211723866
48.15643 459.012840141858
48.17654 470.0367209205
48.19665 485.011228347117
48.21677 463.032010691681
48.23688 473.943064790815
48.257 534
48.27711 494.992319949131
48.29722 512.993578994985
48.31734 469.932489968879
48.33745 475.070946169959
48.35756 501.968894168568
48.37768 500.016269888162
48.39779 483.003557281246
48.4179 480
48.43802 484.070212671785
48.45813 574.022422869773
48.47825 511.882367817686
48.49836 529.916078418351
48.51847 540.055603726366
48.53859 484.015313499732
48.5587 492
48.57881 496.000709542056
48.59893 504.020875808191
48.61904 514.999250061546
48.63916 515.953494426404
48.65927 536.044981531924
48.67938 479.013372002247
48.6995 511
48.71961 484.998521756393
48.73972 518.024286926841
48.75984 512.978511647121
48.77995 520.931309141511
48.80006 537.055107015204
48.82018 482.033199192759
48.84029 490.98854248921
48.86041 502.000597613023
48.88052 508.023071611531
48.90063 526.971728219148
48.92075 493.018473927656
48.94086 532.985645471533
48.96097 505.000709024317
48.98109 542.987873095358
49.0012 521
49.02132 478.979911765941
49.04143 490.055164366247
49.06154 519.990814314884
49.08166 513.894127981187
49.10177 585.019849257838
49.12188 501.038099580192
49.142 534
49.16211 499.991441662687
49.18223 525.043022591647
49.20234 519.9237236321
49.22245 498.884669203661
49.24257 568.0047882339
49.26268 494.047707543515
49.28279 518.976235471496
49.30291 544.003385383992
49.32302 542.997019978323
49.34313 545.01223051141
49.36325 547.963158109555
49.38336 515.076845683684
49.40348 494.989429582406
49.42359 516.99902264345
49.4437 508
49.46382 548.008621927474
49.48393 520.975402625966
49.50404 540.066665053967
49.52416 549.066598504778
49.54427 502.020482174796
49.56439 528.986060437414
49.5845 533
49.60461 532.001282308449
49.62473 530.983679643805
49.64484 520.010208229591
49.66495 524.075631104383
49.68507 481.996007566019
49.70518 529.96285031873
49.7253 530
49.74541 534.003152636056
49.76552 538.006515629371
49.78564 541.982988335179
49.80575 527.993892370982
49.82586 542.95770597013
49.84598 544.034470457567
49.86609 507.993789774333
49.8862 543
49.90632 495.02225521689
49.92643 581.064807180015
49.94655 548.91394908203
49.96666 564.906833632563
49.98677 598.008468175591
50.00689 583.983489827026
50.027 652
50.04711 632.987310176885
50.06723 626.988433514979
50.08734 597.903188828603
50.10746 563.972938154718
50.12757 609.954360114901
50.14768 603.018616135797
50.1678 587
50.18791 551.982345237569
50.20802 528.992721478507
50.22814 528.991630045126
50.24825 508.095849629564
50.26837 479.982683033749
50.28848 515.984256763671
50.30859 497.011814809293
50.32871 490.000588582897
50.34882 492.003985491659
50.36893 491.983254258217
50.38905 481.019551024537
50.40916 504.962913770454
50.42927 522.935319669845
50.44939 554.022469316318
50.4695 474
50.48962 532.016922194109
50.50973 492.997094971123
50.52984 537.01226629199
50.54996 498.014947280197
50.57007 538.955219263935
50.59018 529.019220083006
50.6103 525
50.63041 521.988632447492
50.65053 505.039060162817
50.67064 543.968932783075
50.69075 492.006293441988
50.71087 543.96156330214
50.73098 522.010196876264
50.75109 547.98650150852
50.77121 545.986918910663
50.79132 512.973170987681
50.81143 514.0571341263
50.83155 568.097080203281
50.85166 578.999439851357
50.87178 565.049146774689
50.89189 513.998782991474
50.912 560
50.93212 530.950965434706
50.95223 503.0026551972
50.97234 520.018594260302
50.99246 516.000337361469
51.01257 526.981666058707
51.03269 525.010917017299
51.0528 493
51.07291 490.011322552753
51.09303 499.934819294861
51.11314 429.943471819478
51.13325 461.89279544983
51.15337 480.986650386585
51.17348 496.973945800913
51.1936 512
51.21371 475.996917176363
51.23382 491.985664969434
51.25394 451.983496968499
51.27405 479.971355777347
51.29416 463.009492204786
51.31428 476.004609847757
51.33439 448.010751711009
51.3545 450
51.37462 455.993377891399
51.39473 456.047126800255
51.41485 504.060985977253
51.43496 491.049163798605
51.45507 473.027896310043
51.47519 463.990813574784
51.4953 492
51.51541 462.985827861773
51.53553 460.024287900177
51.55564 467.956988633872
51.57576 434.015075462266
51.59587 464.935600962753
51.61598 486.008975559788
51.6361 467
51.65621 480.998809829968
51.67632 457.983483288592
51.69644 468.05955146244
51.71655 487.040204569819
51.73667 452.019896793544
51.75678 465.993727347057
51.77689 460.992454624735
51.79701 492.005444327534
51.81712 461.94419249405
51.83723 422.005128596006
51.85735 456.061267913088
51.87746 454.012140848087
51.89757 462.96923307396
51.91769 491.981315712665
51.9378 499
51.95792 410.971187027614
51.97803 457.079360542849
51.99814 471.998137593366
52.01826 472.008915216688
52.03837 468.98528161874
52.05848 487.987133803011
52.0786 473
52.09871 431.007105905609
52.11883 478.011113323264
52.13894 437.953193608541
52.15905 454.956336805182
52.17917 458.975590383033
52.19928 484.993088138395
52.21939 459.021893308051
52.23951 436.011026843229
52.25962 472.997408645376
52.27974 447.042084463835
52.29985 501.006262334254
52.31996 449.049945387796
52.34008 469.994959408635
52.36019 458.98264855435
52.3803 525
52.40042 479.947216799028
52.42053 462.004631276812
52.44064 481.087150491771
52.46076 515.038762623801
52.48087 468.007756374154
52.50099 507.990628236505
52.5211 487
52.54121 500.004859072015
52.56133 491.983626930438
52.58144 494.032234563707
52.60155 509.007203082347
52.62167 494.006993568505
52.64178 496.017339394959
52.6619 460
52.68201 443.985752732059
52.70212 429.048822009109
52.72224 517.102661263812
52.74235 504.07590483643
52.76246 495.985518583612
52.78258 511.974867611798
52.80269 531.001664347177
52.8228 505
52.84292 488.005605485387
52.86303 495.975098286676
52.88315 461.957590325699
52.90326 471.974231453772
52.92337 482.957850120389
52.94349 510.005993999993
52.9636 480
52.98371 509.983987820454
53.00383 447.027898583994
53.02394 531.042032701461
53.04406 468.079161452531
53.06417 502.919077996876
53.08428 518.026955142007
53.1044 484
53.12451 510.006769604024
53.14462 499.996145781548
53.16474 515.033777787865
53.18485 517.032390789502
53.20497 497.028190062025
53.22508 489.992501654621
53.24519 511.983255076766
53.26531 538.000885525693
53.28542 520.986231394641
53.30553 521.003935225568
53.32565 514.96329111467
53.34576 509.953599365355
53.36587 548.964963374702
53.38599 537.017921482427
53.4061 517
53.42622 573.044914776219
53.44633 571.939513608398
53.46644 538.023652016114
53.48656 577.978574685883
53.50667 542.0644289753
53.52678 523.003110390556
53.5469 525
53.56701 536.011819769504
53.58713 555.99006091805
53.60724 537.011375550407
53.62735 568.943930161245
53.64747 562.031356904051
53.66758 544.013339990332
53.68769 548.982294590845
53.70781 588.001455876138
53.72792 560.98865289501
53.74804 585.067389351049
53.76815 604.012074906662
53.78826 610.951335407378
53.80838 638.000842653532
53.82849 605.019358231268
53.8486 592
53.86872 630.039667335468
53.88883 641.95804806722
53.90894 602.982847189244
53.92906 623.983052912507
53.94917 601.046976415845
53.96929 577.011738393007
53.9894 570
54.00951 637.035928186796
54.02963 666.953924551705
54.04974 596.862413999637
54.06985 570.951021520494
54.08997 616.924425980045
54.11008 641.012139070253
54.1302 618
54.15031 631.989908337807
54.17042 617.076398232858
54.19054 719.954787361513
54.21065 584.209117122374
54.23076 611.929208772787
54.25088 601.007011158504
54.27099 611.005165731372
54.29111 580.99436215002
54.31122 589.992836785279
54.33133 570.010517301893
54.35145 595.992957277798
54.37156 571.979744870115
54.39167 620.944607506399
54.41179 612.019118313875
54.4319 572
54.45201 572.019696394567
54.47213 619.019266451879
54.49224 591.937137833237
54.51236 581.994894722532
54.53247 589.976848051663
54.55258 604.995677624383
54.5727 590
54.59281 559.996007067567
54.61292 567.998975467511
54.63304 566.060017503441
54.65315 612.962549299158
54.67327 590.027791525094
54.69338 603.967818584815
54.71349 624.004384405024
54.73361 587.977611392336
54.75372 575.04172646563
54.77383 624.98265516139
54.79395 564.935656523221
54.81406 606.878801198408
54.83417 619.083373833049
54.85429 556.993512079996
54.8744 632
54.89452 599.946114005937
54.91463 577.013842606866
54.93474 602.04626367192
54.95486 615.971145923604
54.97497 621.036488878496
54.99508 571.051200787768
55.0152 543
55.03531 554.007659999279
55.05543 566.016635213313
55.07554 571.988041213327
55.09565 559.019926737059
55.11577 571.943163975473
55.13588 596.033259828506
55.15599 537.004517496645
55.17611 583.015201464781
55.19622 568.982751147679
55.21634 576.035598394162
55.23645 586.999404834021
55.25656 571.063172538205
55.27668 538.019468057099
55.29679 533.002023988949
55.3169 531
55.33702 559.022595938758
55.35713 559.971952207887
55.37724 543.008777608353
55.39736 555.027496023557
55.41747 539.937666169405
55.43759 604.003345651486
55.4577 520
55.47781 511.013259000345
55.49793 532.006085433736
55.51804 530.027762912723
55.53815 562.918538476512
55.55827 566.05550033166
55.57838 512.036524345839
55.5985 513
55.61861 535.003036804341
55.63872 522.980741949182
55.65884 519.046548468491
55.67895 543.035456745974
55.69906 508.992959449817
55.71918 545.991415610111
55.73929 509.018855218141
55.75941 499.000979746144
55.77952 512.038838764891
55.79963 556.019343330592
55.81975 536.959855560599
55.83986 526.075701089477
55.85997 483.985715277499
55.88009 526.000351583602
55.9002 486
55.92031 521.995712215927
55.94043 473.998644704708
55.96054 531.07920323992
55.98066 523.022545393495
56.00077 523.027757452012
56.02088 495.995168847555
56.041 537
56.06111 541.984681058227
56.08122 502.980276778129
56.10134 499.968480459279
56.12145 471.031309338222
56.14157 485.96370552094
56.16168 501.991777409513
56.18179 502.004639382035
56.20191 493.00103264852
56.22202 512.030923763731
56.24213 545.044234990725
56.26225 550.918393267118
56.28236 512.988679211822
56.30248 543.013612645039
56.32259 495.002370436271
56.3427 530
56.36282 479.985451616458
56.38293 524.070524013945
56.40304 531.962969221156
56.42316 516.987645495153
56.44327 536.986702186994
56.46338 523.023593690097
56.4835 514
56.50361 535.997398068244
56.52373 497.934111494802
56.54384 485.057727887308
56.56395 523.985303329973
56.58407 493.04298663728
56.60418 488.995774615383
56.62429 497.986681079319
56.64441 536.014727536442
56.66452 537.974847597494
56.68464 506.96907873054
56.70475 504.971675742716
56.72486 496.938373478119
56.74498 546.986640811867
56.76509 508.025605015025
56.7852 492
56.80532 536.02537048105
56.82543 526.963175192438
56.84554 501.942576145482
56.86566 490.936108209193
56.88577 534.005173280041
56.90589 483.020790596279
56.926 473
56.94611 457.006567610838
56.96623 494.033723728688
56.98634 497.032295728395
57.00645 525.979471869623
57.02657 497.073588785971
57.04668 468.982039723665
57.0668 510
57.08691 487.987854168584
57.10702 491.024783205594
57.12714 518.029479895855
57.14725 525.94881225475
57.16736 553.978846175287
57.18748 535.035658138254
57.20759 514.992144945668
57.22771 539.993797570599
57.24782 504.000975865819
57.26793 539.008584473831
57.28805 506.962027966739
57.30816 519.009027883619
57.32827 491.021622586304
57.34839 503.991386622721
57.3685 511
57.38861 506.98551514646
57.40873 471.991455012502
57.42884 493.020462693726
57.44896 477.040297579794
57.46907 488.912367427141
57.48918 540.025733083851
57.5093 470
57.52941 522.009477534212
57.54952 487.989471504198
57.56964 508.968954155172
57.58975 469.952721996611
57.60987 534.973925608643
57.62998 490.028341976474
57.65009 514.981934858847
57.67021 527.998608030934
57.69032 507.954074113625
57.71043 473.033478724639
57.73055 525.019209523064
57.75066 485.034506077443
57.77078 504.998273972605
57.79089 481.000758675464
57.811 504
57.83112 476.984426707079
57.85123 492.03805193144
57.87134 515.055101135954
57.89146 530.044433096814
57.91157 482.0559149394
57.93168 478.981080704589
57.9518 489
57.97191 468.009363522143
57.99203 514.026055928906
58.01214 475.870431696144
58.03225 448.880651590187
58.05237 533.929531191007
58.07248 509.056167820555
58.09259 478.993193110715
58.11271 513.006746491283
58.13282 487.959135185576
58.15294 463.00155543796
58.17305 469.960451023677
58.19316 435.041685199594
58.21328 444.97518519268
58.23339 467.989997964551
58.2535 490
58.27362 505.975340177415
58.29373 453.942223296404
58.31385 450.029527870307
58.33396 461.969942276986
58.35407 476.987270775623
58.37419 478.999083136315
58.3943 483
58.41441 489.009820391184
58.43453 514.017817212894
58.45464 502.948901855935
58.47475 477.049601138173
58.49487 472.976546437151
58.51498 494.989112841374
58.5351 494
58.55521 495.988891987041
58.57532 466.001679443103
58.59544 488.98941297127
58.61555 454.040335535504
58.63566 479.913973412265
58.65578 496.030585384586
58.67589 449.006486438463
58.69601 471.003858834531
58.71612 445.973007954757
58.73623 454.074486410137
58.75635 508.033858227549
58.77646 481.04654845306
58.79657 484.983551026168
58.81669 489.996871776213
58.8368 494
58.85691 468.983773311216
58.87703 464.074260467881
58.89714 522.99167358333
58.91726 463.070874261955
58.93737 478.977560301242
58.95748 466.015357728529
58.9776 464
58.99771 477.020731068125
59.01782 512.978720534511
59.03794 450.931649481999
59.05805 472.903788850561
59.07817 494.982655209138
59.09828 497.012994071396
59.11839 473.012587576569
59.13851 461.003123676348
59.15862 474.00318670116
59.17873 473.025190091627
59.19885 495.988426846779
59.21896 477.966980807095
59.23908 520.986826181517
59.25919 485.024072079227
59.2793 474
59.29942 525.010880259368
59.31953 491.956173858525
59.33964 500.063190826218
59.35976 521.021396632479
59.37987 489.032751867576
59.39998 487.003574892394
59.4201 475
59.44021 488.014548489788
59.46033 499.945663103425
59.48044 440.950436125976
59.50055 468.893478369187
59.52067 493.981331790856
59.54078 495.014658971314
59.56089 477.002240426275
59.58101 487.004326605845
59.60112 488.002665962451
59.62124 495.009161668718
59.64135 502.052008162614
59.66146 507.103493329227
59.68158 450.96595914735
59.70169 554.970795290767
59.7218 533
59.74192 548.01180138648
59.76203 547.025878064006
59.78215 570.969756233281
59.80226 538.985556302998
59.82237 594.917627549413
59.84249 602.019347843949
59.8626 554
59.88271 566.010341356485
59.90283 575.003418468254
59.92294 568.958191512533
59.94305 538.071880516855
59.96317 523.997139793813
59.98328 544.958137534301
60.0034 578
60.02351 530.974728507397
60.04362 510.00755489401
60.06374 514.945124815667
60.08385 470.04220058906
60.10396 495.9230830862
60.12408 499.050357160567
60.14419 442.997491595373
60.16431 501.018015461918
60.18442 480.964062143331
60.20453 458.973579582731
60.22465 442.982476020766
60.24476 459.903240436975
60.26487 507.989031643146
60.28499 479.010268291243
60.3051 496
60.32522 509.956846248164
60.34533 452.003134292325
60.36544 499.004810455215
60.38556 443.076258231959
60.40567 471.895331095171
60.42578 524.996405322474
60.4459 480
60.46601 458.018215034321
60.48612 515.018794195763
60.50624 487.955422743669
60.52635 500.928863139428
60.54647 510.038770712953
60.56658 471.014369913151
60.58669 487.991250517217
60.60681 490.000547794214
60.62692 499.010992935473
60.64703 502.990565411837
60.66715 491.983046034945
60.68726 492.99280039295
60.70738 502.974780906321
60.72749 519.013458754001
60.7476 483
60.76772 531.974077948649
60.78783 440.932460650914
60.80794 476.078951367287
60.82806 479.993129059165
60.84817 500.968301004482
60.86828 504.016271518682
60.8884 484
60.90851 495.008083813995
60.92863 505.007022387081
60.94874 500.965905181855
60.96885 482.012497788318
60.98897 487.006905263065
61.00908 480.979525218653
61.02919 510.004384962612
61.04931 480.005892046014
61.06942 524.003561873956
61.08954 479.947474051113
61.10965 496.045892708542
61.12976 498.98114252459
61.14988 515.996557578791
61.16999 502.007085472928
61.1901 501
61.21022 506.995205304704
61.23033 489.966705744709
61.25045 484.06256602093
61.27056 528.923727558797
61.29067 540.016256879791
61.31079 525.003286112341
61.3309 524
61.35101 506.997725197146
61.37113 508.976108023217
61.39124 488.022893165567
61.41135 535.87437643706
61.43147 558.005809922381
61.45158 540.022605048147
61.4717 532
61.49181 560.007746101801
61.51192 554.989928780468
61.53204 544.959999140451
61.55215 532.939077368817
61.57226 575.969947425154
61.59238 549.036306959024
61.61249 538.990103273578
61.63261 566.003884066029
61.65272 558.005786898272
61.67283 565.953671945446
61.69295 514.973027886065
61.71306 558.894118505802
61.73317 578.019749443946
61.75329 552.010465243013
61.7734 549
61.79352 570.033379374765
61.81363 596.999144869113
61.83374 592.068928659785
61.85386 647.970992819059
61.87397 615.03641151112
61.89408 612.024983654135
61.9142 572
61.93431 608.01451190972
61.95442 610.001242307863
61.97454 626.039599087143
61.99465 650.896219926111
62.01477 682.028612854809
62.03488 626.03944456771
62.05499 627.99223766851
62.07511 646.018512428101
62.09522 689.018489819082
62.11533 673.958618019763
62.13545 666.058264850299
62.15556 692.023821082654
62.17568 652.017573519549
62.19579 675.982839731345
62.2159 698
62.23602 719.023755482015
62.25613 724.951886280313
62.27624 685.005790912642
62.29636 716.012874680968
62.31647 649.126921826307
62.33659 611.982770262708
62.3567 679
62.37681 659.982185684684
62.39693 647.016452351643
62.41704 654.953746085856
62.43715 619.004619458
62.45727 651.967502990843
62.47738 627.060764461868
62.49749 577.001171569739
62.51761 610.009609081751
62.53772 596.98503420489
62.55784 592.979867065052
62.57795 583.033500656887
62.59806 607.003583626539
62.61818 569.048095683588
62.63829 551.984987258162
62.6584 588
62.67852 542.001937375783
62.69863 590.020971665308
62.71875 556.966440429448
62.73886 583.956480929729
62.75897 575.029900142433
62.77909 558.009792714365
62.7992 534
62.81931 518.999809214338
62.83943 530.020589246684
62.85954 534.986368556233
62.87965 528.973729361844
62.89977 546.003620881193
62.91988 527.006673943737
62.94 546
62.96011 553.98557397856
62.98022 513.990838979982
63.00034 529.987956831689
63.02045 510.939513857686
63.04056 582.86556442458
63.06068 594.045047402729
63.08079 526.028432498929
63.10091 513.015352818362
63.12102 551.008668607477
63.14113 526.96433249589
63.16125 535.097220292293
63.18136 560.066474105967
63.20147 503.998009868715
63.22159 556.990789504397
63.2417 516
63.26182 513.006899793168
63.28193 511.999346015653
63.30204 513.995690857694
63.32216 512.976026884459
63.34227 526.014971651198
63.36238 503.001737489437
63.3825 526
63.40261 545.029985246008
63.42272 595.952264647952
63.44284 493.956899697586
63.46295 563.904480828814
63.48307 533.022295377392
63.50318 561.984873544915
63.52329 548.000380544971
63.54341 560.992429365327
63.56352 523.989592036615
63.58363 546.018271762292
63.60375 538.008365127159
63.62386 545.056744534186
63.64398 493.024040398156
63.66409 514.982587116821
63.6842 538
63.70432 560.023404183717
63.72443 572.987680565681
63.74454 553.982820356469
63.76466 555.022122518852
63.78477 537.992280071428
63.80489 567.98546891035
63.825 577
63.84511 572.001449291144
63.86523 580.003551793404
63.88534 568.957141562419
63.90545 558.948398842569
63.92557 589.997685122548
63.94568 563.014637976931
63.96579 576.990947397189
63.98591 572.986021313496
64.00602 538.9802839239
64.02614 541.022832327723
64.04625 546.994791672139
64.06636 549.952783206713
64.08648 573.014842377179
64.10659 533.007398420353
64.1267 561
64.14682 572.981591876786
64.16693 545.985975044698
64.18705 556.013037588347
64.20716 542.046643590954
64.22727 529.984182509355
64.24739 552.993104316684
64.2675 539
64.28761 503.997660265633
64.30773 518.996824105353
64.32784 497.99009423847
64.34796 528.897238095234
64.36807 557.037056066754
64.38818 500.03872246475
64.4083 514
64.42841 554.999223926959
64.44852 517.966956247983
64.46864 508.993041607786
64.48875 507.957388360886
64.50886 523.045879424267
64.52898 479.011434490872
64.54909 499.001559595793
64.56921 472.001563073843
64.58932 508.017616458742
64.60943 495.996835244963
64.62955 512.007196119836
64.64966 498.006893054594
64.66977 505.014904149297
64.68989 480.005186499463
64.71 485
64.73012 462.992826639926
64.75023 482.042288888576
64.77034 497.997670018953
64.79046 486.023027902093
64.81057 482.996188879252
64.83068 496.965880190976
64.8508 511
64.87091 427.991094077307
64.89102 487.055391490666
64.91114 491.974134125899
64.93125 483.0386588922
64.95137 461.026288394774
64.97148 462.974211361615
64.99159 496.989142441009
65.01171 482.973533765569
65.03182 432.998995473673
65.05193 486.099328918841
65.07205 508.906841459552
65.09216 452.036849317243
65.11228 482.96623809054
65.13239 488.004588808572
65.1525 491
65.17262 514.982209188789
65.19273 466.958653789949
65.21284 476.023815756477
65.23296 467.039837009561
65.25307 453.996796688437
65.27319 475.980950301532
65.2933 495
65.31341 440.993143591777
65.33353 473.032231850781
65.35364 463.992309479268
65.37375 483.933796427828
65.39387 489.041328058065
65.41398 464.972801262796
65.43409 504.018356489777
65.45421 421.995807806425
65.47432 493.037731797298
65.49444 461.95309006948
65.51455 476.014314707308
65.53466 457.028522531889
65.55478 473.9546295574
65.57489 502.016505095622
65.595 435
65.61512 459.022912001941
65.63523 462.027555547229
65.65535 492.005488862516
65.67546 471.000716327491
65.69557 492.001067716246
65.71569 463.010219871416
65.7358 471
65.75591 466.97658131756
65.77603 415.000650414269
65.79614 465.079227646903
65.81626 463.031297477276
65.83637 462.974750675114
65.85648 469.033840403512
65.8766 424
65.89671 479.027151005935
65.91682 491.98329568492
65.93694 461.923328147797
65.95705 448.895886044596
65.97716 499.035487714839
65.99728 438.999748854264
66.01739 505.981330901963
66.03751 469.971518218043
66.05762 441.999620371544
66.07773 454.016225676099
66.09785 464.056968213946
66.11796 484.024956100049
66.13807 449.02667306837
66.15819 457.997101859182
66.1783 450
66.19842 452.989007916895
66.21853 432.993378235925
66.23864 441.991880911021
66.25876 434.946939791018
66.27887 470.027734248867
66.29898 416.008864839336
66.3191 478
66.33921 507.98665992363
66.35933 456.949731107843
66.37944 463.053443848308
66.39955 485.967540520098
66.41967 490.99301661796
66.43978 490.019639307093
66.45989 454.018219211968
66.48001 450.023012702341
66.50012 501.995630138044
66.52023 453.974674132624
66.54035 476.993909203695
66.56046 435.059763584527
66.58058 440.985270684431
66.60069 449.992160501205
66.6208 467
66.64092 454.998683809673
66.66103 459.976426157963
66.68114 428.972831477226
66.70126 452.902291779446
66.72137 500.95073726012
66.74149 495.027336300917
66.7616 437
66.78171 466.995604863414
66.80183 418.979604320455
66.82194 453.043657401763
66.84205 440.027468713591
66.86217 450.975958462563
66.88228 456.005378516649
66.90239 454.991266755946
66.92251 472.993085969707
66.94262 439.992996607959
66.96274 463.024275885175
66.98285 451.985042594092
67.00296 464.964695577792
67.02308 472.004993689159
67.04319 458.009250726266
67.0633 449
67.08342 462.991954047561
67.10353 440.996756147236
67.12365 453.974873885561
67.14376 433.957281855974
67.16387 486.965309320755
67.18399 458.020940448286
67.2041 444
67.22421 466.000618394918
67.24433 453.008669397017
67.26444 483.053228127333
67.28456 482.051250362269
67.30467 454.016074754334
67.32478 470.964529452278
67.3449 501
67.36501 481.980594537973
67.38512 440.967093099864
67.40524 438.078535935939
67.42535 488.953174657515
67.44546 470.038029270789
67.46558 466.011409597346
67.48569 454.990054481286
67.50581 489.00018493444
67.52592 453.97550880354
67.54603 473.075065317022
67.56615 522.068417058275
67.58626 528.985339006232
67.60637 534.031594483791
67.62649 508.991284548178
67.6466 546
67.66672 491.983659010243
67.68683 526.028415380214
67.70694 500.934252311396
67.72706 492.97182256992
67.74717 517.958914021866
67.76728 524.031065158322
67.7874 482
67.80751 515.022870100147
67.82763 530.960348864864
67.84774 499.024169662458
67.86785 537.010225820671
67.88797 501.980189430501
67.90808 550.010267863511
67.92819 483.014253860859
67.94831 541.048657757864
67.96842 595.976365996365
67.98853 536.97750900809
68.00865 571.023392170653
68.02876 531.080299440183
68.04888 520.997799721201
68.06899 525.991829543912
68.0891 542
68.10922 518.982427338012
68.12933 527.045852956523
68.14944 549.97571415198
68.16956 523.981778415818
68.18967 552.027227959402
68.20979 497.008329931172
68.2299 527
68.25001 500.994076209158
68.27013 523.038147507123
68.29024 515.909364598902
68.31035 458.094082686655
68.33047 469.911526420035
68.35058 523.00455466012
68.3707 479
68.39081 516.018938185856
68.41092 511.960410317742
68.43104 467.954299235158
68.45115 467.999816887586
68.47126 458.013229993862
68.49138 475.949584718921
68.51149 516.01102486489
68.5316 457
68.55172 489.016420278538
68.57183 463.960544618434
68.59195 454.968471906793
68.61206 438.99556941621
68.63217 460.967377322643
68.65229 467.002791363609
68.6724 456
68.69251 450.006024020398
68.71263 466.998404825451
68.73274 454.008015353107
68.75286 470.012125631827
68.77297 445.010026821872
68.79308 456.009151353797
68.8132 430
68.83331 458.010255436216
68.85342 459.00580376532
68.87354 468.978226112583
68.89365 450.965380435173
68.91376 483.999469114192
68.93388 448.02342994924
68.95399 452.001061346444
68.97411 442.007028147888
68.99422 462.97877354067
69.01433 421.01201176228
69.03445 468.011099316922
69.05456 432.980229461864
69.07467 492.954044341715
69.09479 467.015287729306
69.1149 463
69.13502 467.021865485495
69.15513 486.97303724107
69.17524 444.968216503461
69.19536 467.950659675429
69.21547 468.021318781079
69.23558 446.033383990019
69.2557 423
69.27581 473.03002037328
69.29593 499.964101896782
69.31604 455.96935773261
69.33615 472.988411768942
69.35627 455.009138001075
69.37638 475.971435168289
69.39649 480.016769037843
69.41661 433.990179203739
69.43672 446.010731389784
69.45683 438.987340474383
69.47695 444.042845582444
69.49706 454.030647111459
69.51718 426.00961639054
69.53729 447.982114327436
69.5574 476
69.57752 486.014705203309
69.59763 493.968728401187
69.61774 460.987802477098
69.63786 480.987270237122
69.65797 455.055940577931
69.67809 433.000218839089
69.6982 451
69.71831 463.992399222465
69.73843 436.987953916385
69.75854 453.029417689202
69.77865 452.015082163066
69.79877 446.017282629069
69.81888 434.001579816527
69.839 447
69.85911 455.992088668546
69.87922 441.024624224802
69.89934 482.996014083598
69.91945 454.054295510262
69.93956 511.996902648917
69.95968 445.054970587928
69.97979 449.983404834662
69.9999 473
70.02002 456.964861497043
70.04013 437.04115340882
70.06025 487.037944077393
70.08036 450.098362194421
70.10047 435.955793024234
70.12059 480.988250222245
70.1407 477
70.16081 489.00228531775
70.18093 479.987524900965
70.20104 481.00977395916
70.22116 480.022340553872
70.24127 466.007437172074
70.26138 462.022785116815
70.2815 428
70.30161 441.014491950584
70.32172 460.99975623937
70.34184 442.95571335259
70.36195 435.964442793115
70.38207 453.007261860859
70.40218 430.01259803186
70.42229 431.00525234438
70.44241 425.019884492872
70.46252 485.012700599683
70.48263 447.966689909653
70.50275 463.026743767961
70.52286 449.035068421808
70.54297 447.977974710772
70.56309 469.989316267678
70.5832 471
70.60332 443.02414928285
70.62343 489.987734609085
70.64354 430.944543394489
70.66366 460.935358664767
70.68377 460.022589256072
70.70388 440.03467087881
70.724 418
70.74411 462.994723052054
70.76423 407.975748302072
70.78434 462.145671142516
70.80445 486.106002629665
70.82457 423.029718003331
70.84468 446.995113932484
70.86479 420.004277451742
70.88491 441.005672109648
70.90502 438.016832516441
70.92513 464.989563174717
70.94525 430.974696830161
70.96536 452.976694776647
70.98548 449.979819156586
71.00559 486.995493097953
71.0257 457
71.04582 452.027608901987
71.06593 472.958881626038
71.08604 420.978426522102
71.10616 462.919242695862
71.12627 463.038377889744
71.14639 439.004759162617
71.1665 448
71.18661 464.004373006873
71.20673 461.981887928309
71.22684 463.073242605811
71.24695 500.052698002692
71.26707 441.027017825062
71.28718 472.987804816223
71.3073 461
71.32741 508.98941998433
71.34752 431.968797604278
71.36764 467.041827326083
71.38775 442.056226356853
71.40786 444.993280426479
71.42798 441.990907747384
71.44809 460.996012080556
71.4682 450
71.48832 445.012631006534
71.50843 459.994663534629
71.52855 442.988783440534
71.54866 459.957184220371
71.56877 471.992038496539
71.58889 464.015317535023
71.609 433
71.62911 449.992641626104
71.64923 421.033265479687
71.66934 482.04390602659
71.68946 455.016877585089
71.70957 482.977806936572
71.72968 461.032644621525
71.7498 451
71.76991 484.01004619091
71.79002 475.973879803117
71.81014 452.983702938758
71.83025 462.950435233522
71.85037 476.003850479174
71.87048 464.006453230937
71.89059 461.00821298996
71.91071 445.007755937465
71.93082 487.03208403322
71.95093 483.958597454977
71.97105 449.919422663207
71.99116 434.979123001056
72.01127 458.973708150996
72.03139 460.002917283578
72.0515 463
72.07162 490.024235027787
72.09173 496.98001515238
72.11184 468.932448026002
72.13196 453.959674254563
72.15207 486.989459681606
72.17218 471.994319383491
72.1923 494
72.21241 451.985310173004
72.23253 466.064623599387
72.25264 491.952817308181
72.27275 438.079756988058
72.29287 445.978695200076
72.31298 453.977203683394
72.33309 488.988557373034
72.35321 478.980155991788
72.37332 434.974678398079
72.39344 442.061412627958
72.41355 470.01759664761
72.43366 471.939245440486
72.45378 514.994442653376
72.47389 478.017248431882
72.494 463
72.51412 431.988409356682
72.53423 441.00544512863
72.55434 437.023868521892
72.57446 456.013372499959
72.59457 437.973536228959
72.61469 482.991810935755
72.6348 460
72.65491 469.005809975185
72.67503 461.965301293432
72.69514 440.994606880589
72.71525 459.930605262852
72.73537 479.988132039104
72.75548 473.020482046128
72.7756 453
72.79571 463.008337146797
72.81582 471.996504296241
72.83594 469.030440793708
72.85605 496.957497337886
72.87616 484.077159391255
72.89628 455.984889401139
72.91639 494.994622019172
72.9365 465
72.95662 459.006560665918
72.97673 470.029830704219
72.99685 497.068472364283
73.01696 503.061860042896
73.03707 462.01230960376
73.05719 499.972768911565
73.0773 513
73.09741 440.999732223342
73.11753 510.076248343967
73.13764 490.891826007527
73.15776 456.984941968552
73.17787 495.941112009245
73.19798 504.024174482662
73.2181 479
73.23821 501.995358902004
73.25832 465.991373600304
73.27844 491.022224994862
73.29855 477.007494751155
73.31867 495.976449287752
73.33878 494.009008948251
73.35889 491.995792025966
73.37901 506.005564730828
73.39912 510.000769318162
73.41923 504.974166505928
73.43935 475.916306647147
73.45946 451.019501848342
73.47957 465.935656659771
73.49969 506.997431198442
73.5198 494
73.53992 538.006428557745
73.56003 491.921635564771
73.58014 479.053278626304
73.60026 512.983676883247
73.62037 485.062457743157
73.64048 461.993820063922
73.6606 483
73.68071 487.012657922697
73.70083 517.98861632739
73.72094 473.931758365899
73.74105 469.005054579693
73.76117 461.990041211341
73.78128 486.970927752421
73.80139 498.007728609467
73.82151 477.001505588486
73.84162 508.033363663754
73.86174 509.923761564027
73.88185 466.99130533575
73.90196 493.991330625205
73.92208 463.025815571508
73.94219 459.002783966904
73.9623 460
73.98242 511.004152720743
74.00253 462.929305979886
74.02264 453.022908662986
74.04276 468.961844723801
74.06287 476.028919110997
74.08299 442.011169091597
74.1031 452
74.12321 490.008839088345
74.14333 482.97716838498
74.16344 479.020866384021
74.18355 487.03630045045
74.20367 456.031404109285
74.22378 459.98244504747
74.2439 467
74.26401 454.01530885754
74.28412 507.013509240712
74.30424 470.931676170835
74.32435 463.019911251902
74.34446 449.992777908224
74.36458 485.93808072199
74.38469 519.022705224701
74.40481 438.989866821262
74.42492 493.049148438646
74.44503 492.97695934258
74.46515 481.948565960806
74.48526 458.013263694326
74.50537 473.964875740099
74.52549 482.007702635638
74.5456 462
74.56571 479.999797403328
74.58583 477.065969035716
74.60594 533.971847980792
74.62606 461.069872896411
74.64617 491.956605560102
74.66628 476.035860509389
74.6864 441
74.70651 424.015618749461
74.72662 481.03217117362
74.74674 467.942378105117
74.76685 459.949046184293
74.78697 478.034168504489
74.80708 435.003607374905
74.82719 475.984501751934
74.84731 464.984602041192
74.86742 449.011666371668
74.88753 481.048034752689
74.90765 489.956192585546
74.92776 461.042864845483
74.94787 460.974582809858
74.96799 469.0112832231
74.9881 429
75.00822 442.030461219041
