3.00117 18711
3.02128 18215
3.0414 18105
3.06151 17444
3.08162 17071
3.10174 16374
3.12185 16062
3.14197 15779
3.16208 14999
3.18219 14551
3.20231 14218
3.22242 13816
3.24253 13649
3.26265 12990
3.28276 12806
3.30288 12218
3.32299 11921
3.3431 11784
3.36322 10954
3.38333 11003
3.40344 10511
3.42356 10236
3.44367 10301
3.46379 9299
3.4839 9304
3.50401 8802
3.52413 8645
3.54424 8414
3.56435 7819
3.58447 7801
3.60458 7313
3.62469 7282
3.64481 6866
3.66492 6686
3.68504 6624
3.70515 6150
3.72526 5798
3.74538 5807
3.76549 5370
3.7856 5367
3.80572 5058
3.82583 4975
3.84595 4897
3.86606 4284
3.88617 4461
3.90629 4167
3.9264 4094
3.94651 4023
3.96663 3656
3.98674 3678
4.00686 3522
4.02697 3286
4.04708 3275
4.0672 2950
4.08731 2913
4.10742 2722
4.12754 2585
4.14765 2702
4.16776 2426
4.18788 2509
4.20799 2343
4.22811 2266
4.24822 2364
4.26833 2082
4.28845 2123
4.30856 2077
4.32867 1974
4.34879 2073
4.3689 1875
4.38902 1880
4.40913 1864
4.42924 1756
4.44936 1844
4.46947 1628
4.48958 1796
4.5097 1716
4.52981 1682
4.54992 1675
4.57004 1551
4.59015 1621
4.61027 1513
4.63038 1444
4.65049 1473
4.67061 1394
4.69072 1392
4.71083 1444
4.73095 1366
4.75106 1448
4.77118 1305
4.79129 1287
4.8114 1252
4.83152 1281
4.85163 1247
4.87174 1160
4.89186 1143
4.91197 1201
4.93209 1103
4.9522 1130
4.97231 1091
4.99243 1079
5.01254 1099
5.03265 1080
5.05277 1050
5.07288 1013
5.09299 1027
5.11311 994
5.13322 991
5.15334 1000
5.17345 947
5.19356 928
5.21368 970
5.23379 909
5.2539 879
5.27402 878
5.29413 859
5.31425 844
5.33436 922
5.35447 837
5.37459 779
5.3947 785
5.41481 797
5.43493 814
5.45504 813
5.47516 836
5.49527 783
5.51538 738
5.5355 721
5.55561 736
5.57572 796
5.59584 739
5.61595 742
5.63606 722
5.65618 693
5.67629 684
5.69641 729
5.71652 679
5.73663 748
5.75675 697
5.77686 665
5.79697 663
5.81709 680
5.8372 636
5.85732 641
5.87743 652
5.89754 700
5.91766 658
5.93777 675
5.95788 660
5.978 639
5.99811 648
6.01823 625
6.03834 693
6.05845 697
6.07857 613
6.09868 617
6.11879 602
6.13891 669
6.15902 617
6.17913 650
6.19925 564
6.21936 664
6.23948 620
6.25959 646
6.2797 631
6.29982 594
6.31993 593
6.34004 628
6.36016 620
6.38027 644
6.40039 553
6.4205 566
6.44061 629
6.46073 567
6.48084 601
6.50095 549
6.52107 611
6.54118 578
6.56129 592
6.58141 629
6.60152 588
6.62164 535
6.64175 555
6.66186 576
6.68198 593
6.70209 594
6.7222 598
6.74232 553
6.76243 602
6.78255 561
6.80266 550
6.82277 603
6.84289 555
6.863 610
6.88311 584
6.90323 575
6.92334 621
6.94346 545
6.96357 573
6.98368 611
7.0038 621
7.02391 587
7.04402 530
7.06414 603
7.08425 551
7.10436 572
7.12448 586
7.14459 576
7.16471 578
7.18482 578
7.20493 598
7.22505 578
7.24516 533
7.26527 553
7.28539 583
7.3055 574
7.32562 531
7.34573 563
7.36584 557
7.38596 543
7.40607 576
7.42618 539
7.4463 568
7.46641 556
7.48653 554
7.50664 517
7.52675 531
7.54687 525
7.56698 533
7.58709 534
7.60721 568
7.62732 535
7.64743 557
7.66755 591
7.68766 550
7.70778 537
7.72789 552
7.748 587
7.76812 547
7.78823 577
7.80834 577
7.82846 501
7.84857 546
7.86869 548
7.8888 551
7.90891 547
7.92903 510
7.94914 583
7.96925 571
7.98937 553
8.00948 554
8.0296 529
8.04971 527
8.06982 537
8.08994 584
8.11005 558
8.13016 538
8.15028 585
8.17039 542
8.1905 556
8.21062 546
8.23073 549
8.25085 562
8.27096 509
8.29107 541
8.31119 535
8.3313 575
8.35141 569
8.37153 525
8.39164 573
8.41176 561
8.43187 588
8.45198 543
8.4721 533
8.49221 562
8.51232 565
8.53244 515
8.55255 495
8.57266 602
8.59278 517
8.61289 574
8.63301 545
8.65312 542
8.67323 574
8.69335 561
8.71346 576
8.73357 525
8.75369 531
8.7738 499
8.79392 544
8.81403 559
8.83414 569
8.85426 560
8.87437 566
8.89448 587
8.9146 520
8.93471 527
8.95483 502
8.97494 539
8.99505 586
9.01517 511
9.03528 571
9.05539 553
9.07551 528
9.09562 619
9.11573 577
9.13585 537
9.15596 535
9.17608 560
9.19619 504
9.2163 569
9.23642 564
9.25653 574
9.27664 514
9.29676 525
9.31687 544
9.33699 564
9.3571 564
9.37721 558
9.39733 505
9.41744 510
9.43755 528
9.45767 538
9.47778 551
9.4979 538
9.51801 547
9.53812 541
9.55824 556
9.57835 530
9.59846 570
9.61858 536
9.63869 579
9.6588 541
9.67892 530
9.69903 532
9.71915 557
9.73926 566
9.75937 565
9.77949 551
9.7996 556
9.81971 574
9.83983 502
9.85994 558
9.88006 544
9.90017 572
9.92028 529
9.9404 558
9.96051 550
9.98062 530
10.00074 530
10.02085 538
10.04097 539
10.06108 550
10.08119 539
10.10131 543
10.12142 575
10.14153 582
10.16165 501
10.18176 529
10.20187 505
10.22199 481
10.2421 525
10.26222 542
10.28233 525
10.30244 531
10.32256 566
10.34267 556
10.36278 517
10.3829 584
10.40301 552
10.42313 563
10.44324 597
10.46335 599
10.48347 539
10.50358 602
10.52369 587
10.54381 557
10.56392 623
10.58403 564
10.60415 493
10.62426 511
10.64438 525
10.66449 513
10.6846 582
10.70472 554
10.72483 562
10.74494 541
10.76506 533
10.78517 549
10.80529 534
10.8254 514
10.84551 548
10.86563 557
10.88574 546
10.90585 502
10.92597 596
10.94608 530
10.9662 553
10.98631 522
11.00642 554
11.02654 511
11.04665 555
11.06676 566
11.08688 595
11.10699 573
11.1271 583
11.14722 519
11.16733 563
11.18745 568
11.20756 575
11.22767 548
11.24779 519
11.2679 551
11.28801 560
11.30813 564
11.32824 516
11.34836 625
11.36847 521
11.38858 579
11.4087 620
11.42881 558
11.44892 562
11.46904 573
11.48915 561
11.50927 522
11.52938 602
11.54949 583
11.56961 574
11.58972 589
11.60983 576
11.62995 578
11.65006 560
11.67017 558
11.69029 519
11.7104 540
11.73052 598
11.75063 587
11.77074 627
11.79086 593
11.81097 592
11.83108 582
11.8512 620
11.87131 609
11.89143 609
11.91154 624
11.93165 646
11.95177 680
11.97188 644
11.99199 607
12.01211 615
12.03222 607
12.05234 608
12.07245 618
12.09256 627
12.11268 610
12.13279 635
12.1529 668
12.17302 640
12.19313 619
12.21324 636
12.23336 602
12.25347 640
12.27359 696
12.2937 642
12.31381 626
12.33393 659
12.35404 636
12.37415 663
12.39427 647
12.41438 670
12.4345 598
12.45461 617
12.47472 630
12.49484 613
12.51495 626
12.53506 637
12.55518 635
12.57529 630
12.5954 581
12.61552 628
12.63563 569
12.65575 613
12.67586 574
12.69597 586
12.71609 524
12.7362 588
12.75631 571
12.77643 574
12.79654 563
12.81666 572
12.83677 558
12.85688 553
12.877 562
12.89711 549
12.91722 531
12.93734 543
12.95745 534
12.97757 550
12.99768 481
13.01779 536
13.03791 551
13.05802 524
13.07813 539
13.09825 529
13.11836 561
13.13847 553
13.15859 518
13.1787 559
13.19882 545
13.21893 545
13.23904 573
13.25916 528
13.27927 530
13.29938 553
13.3195 529
13.33961 560
13.35973 523
13.37984 530
13.39995 558
13.42007 527
13.44018 513
13.46029 530
13.48041 550
13.50052 517
13.52064 498
13.54075 550
13.56086 529
13.58098 531
13.60109 546
13.6212 571
13.64132 556
13.66143 503
13.68154 531
13.70166 564
13.72177 544
13.74189 505
13.762 547
13.78211 565
13.80223 525
13.82234 557
13.84245 497
13.86257 533
13.88268 503
13.9028 549
13.92291 466
13.94302 522
13.96314 504
13.98325 499
14.00336 510
14.02348 522
14.04359 511
14.06371 503
14.08382 540
14.10393 472
14.12405 528
14.14416 565
14.16427 525
14.18439 542
14.2045 513
14.22461 505
14.24473 518
14.26484 504
14.28496 527
14.30507 518
14.32518 493
14.3453 559
14.36541 528
14.38552 505
14.40564 524
14.42575 510
14.44587 509
14.46598 515
14.48609 504
14.50621 552
14.52632 498
14.54643 527
14.56655 526
14.58666 487
14.60677 484
14.62689 489
14.647 512
14.66712 526
14.68723 535
14.70734 531
14.72746 496
14.74757 570
14.76768 484
14.7878 546
14.80791 525
14.82803 545
14.84814 551
14.86825 489
14.88837 495
14.90848 499
14.92859 505
14.94871 503
14.96882 519
14.98894 529
15.00905 479
15.02916 510
15.04928 508
15.06939 540
15.0895 572
15.10962 542
15.12973 534
15.14984 483
15.16996 538
15.19007 560
15.21019 500
15.2303 539
15.25041 529
15.27053 521
15.29064 515
15.31075 535
15.33087 505
15.35098 501
15.3711 539
15.39121 537
15.41132 567
15.43144 510
15.45155 521
15.47166 517
15.49178 500
15.51189 494
15.53201 529
15.55212 496
15.57223 555
15.59235 508
15.61246 549
15.63257 537
15.65269 535
15.6728 550
15.69291 551
15.71303 524
15.73314 529
15.75326 557
15.77337 508
15.79348 524
15.8136 502
15.83371 508
15.85382 526
15.87394 558
15.89405 513
15.91417 558
15.93428 511
15.95439 512
15.97451 521
15.99462 502
16.01473 515
16.03485 521
16.05496 517
16.07508 529
16.09519 542
16.1153 486
16.13542 532
16.15553 556
16.17564 535
16.19576 522
16.21587 506
16.23598 498
16.2561 494
16.27621 522
16.29633 518
16.31644 477
16.33655 520
16.35667 497
16.37678 504
16.39689 559
16.41701 508
16.43712 516
16.45724 516
16.47735 518
16.49746 540
16.51758 537
16.53769 497
16.5578 538
16.57792 502
16.59803 526
16.61814 523
16.63826 513
16.65837 547
16.67849 524
16.6986 504
16.71871 568
16.73883 487
16.75894 533
16.77905 527
16.79917 524
16.81928 471
16.8394 518
16.85951 570
16.87962 583
16.89974 501
16.91985 574
16.93996 562
16.96008 518
16.98019 527
17.00031 498
17.02042 493
17.04053 545
17.06065 556
17.08076 503
17.10087 546
17.12099 484
17.1411 536
17.16121 517
17.18133 507
17.20144 551
17.22156 521
17.24167 531
17.26178 535
17.2819 513
17.30201 523
17.32212 565
17.34224 535
17.36235 530
17.38247 551
17.40258 549
17.42269 548
17.44281 535
17.46292 475
17.48303 527
17.50315 511
17.52326 508
17.54338 488
17.56349 485
17.5836 562
17.60372 532
17.62383 528
17.64394 506
17.66406 561
17.68417 542
17.70428 547
17.7244 550
17.74451 581
17.76463 530
17.78474 549
17.80485 539
17.82497 544
17.84508 555
17.86519 520
17.88531 541
17.90542 553
17.92554 567
17.94565 551
17.96576 555
17.98588 552
18.00599 575
18.0261 570
18.04622 563
18.06633 590
18.08645 623
18.10656 599
18.12667 706
18.14679 703
18.1669 698
18.18701 803
18.20713 828
18.22724 855
18.24735 917
18.26747 953
18.28758 973
18.3077 920
18.32781 918
18.34792 788
18.36804 766
18.38815 729
18.40826 683
18.42838 604
18.44849 628
18.46861 622
18.48872 602
18.50883 612
18.52895 544
18.54906 583
18.56917 622
18.58929 586
18.6094 551
18.62951 599
18.64963 555
18.66974 526
18.68986 546
18.70997 596
18.73008 573
18.7502 557
18.77031 522
18.79042 588
18.81054 521
18.83065 564
18.85077 558
18.87088 607
18.89099 540
18.91111 537
18.93122 555
18.95133 545
18.97145 572
18.99156 566
19.01168 554
19.03179 519
19.0519 563
19.07202 559
19.09213 547
19.11224 540
19.13236 609
19.15247 544
19.17258 603
19.1927 511
19.21281 570
19.23293 507
19.25304 585
19.27315 505
19.29327 593
19.31338 540
19.33349 568
19.35361 552
19.37372 586
19.39384 618
19.41395 548
19.43406 575
19.45418 591
19.47429 591
19.4944 618
19.51452 575
19.53463 590
19.55475 598
19.57486 602
19.59497 605
19.61509 611
19.6352 619
19.65531 641
19.67543 630
19.69554 647
19.71565 630
19.73577 680
19.75588 709
19.776 695
19.79611 700
19.81622 764
19.83634 702
19.85645 743
19.87656 744
19.89668 713
19.91679 752
19.93691 738
19.95702 668
19.97713 767
19.99725 723
20.01736 754
20.03747 728
20.05759 796
20.0777 802
20.09782 730
20.11793 772
20.13804 735
20.15816 858
20.17827 744
20.19838 780
20.2185 834
20.23861 824
20.25872 813
20.27884 887
20.29895 824
20.31907 805
20.33918 798
20.35929 776
20.37941 807
20.39952 721
20.41963 829
20.43975 768
20.45986 762
20.47998 822
20.50009 774
20.5202 746
20.54032 819
20.56043 735
20.58054 752
20.60066 807
20.62077 760
20.64088 718
20.661 744
20.68111 745
20.70123 769
20.72134 847
20.74145 965
20.76157 1093
20.78168 1263
20.80179 1461
20.82191 1652
20.84202 1724
20.86214 1622
20.88225 1434
20.90236 1196
20.92248 1057
20.94259 922
20.9627 849
20.98282 832
21.00293 828
21.02305 819
21.04316 834
21.06327 797
21.08339 802
21.1035 738
21.12361 701
21.14373 642
21.16384 667
21.18395 725
21.20407 622
21.22418 662
21.2443 748
21.26441 709
21.28452 640
21.30464 732
21.32475 641
21.34486 670
21.36498 658
21.38509 619
21.40521 682
21.42532 614
21.44543 662
21.46555 638
21.48566 724
21.50577 681
21.52589 676
21.546 670
21.56612 652
21.58623 636
21.60634 660
21.62646 629
21.64657 641
21.66668 669
21.6868 691
21.70691 662
21.72702 652
21.74714 632
21.76725 622
21.78737 683
21.80748 637
21.82759 702
21.84771 680
21.86782 642
21.88793 665
21.90805 723
21.92816 701
21.94828 706
21.96839 771
21.9885 711
22.00862 760
22.02873 696
22.04884 671
22.06896 694
22.08907 704
22.10919 631
22.1293 639
22.14941 697
22.16953 684
22.18964 630
22.20975 592
22.22987 626
22.24998 604
22.27009 610
22.29021 649
22.31032 638
22.33044 659
22.35055 631
22.37066 625
22.39078 606
22.41089 622
22.431 631
22.45112 625
22.47123 601
22.49135 600
22.51146 645
22.53157 658
22.55169 578
22.5718 642
22.59191 639
22.61203 611
22.63214 609
22.65225 586
22.67237 635
22.69248 641
22.7126 669
22.73271 576
22.75282 642
22.77294 686
22.79305 656
22.81316 637
22.83328 625
22.85339 665
22.87351 692
22.89362 626
22.91373 645
22.93385 610
22.95396 654
22.97407 681
22.99419 605
23.0143 648
23.03442 635
23.05453 646
23.07464 634
23.09476 617
23.11487 666
23.13498 614
23.1551 638
23.17521 651
23.19532 654
23.21544 662
23.23555 654
23.25567 671
23.27578 615
23.29589 681
23.31601 615
23.33612 611
23.35623 643
23.37635 600
23.39646 618
23.41658 678
23.43669 654
23.4568 671
23.47692 714
23.49703 682
23.51714 667
23.53726 712
23.55737 725
23.57749 660
23.5976 711
23.61771 737
23.63783 711
23.65794 699
23.67805 691
23.69817 716
23.71828 684
23.73839 634
23.75851 645
23.77862 673
23.79874 639
23.81885 654
23.83896 665
23.85908 657
23.87919 661
23.8993 613
23.91942 695
23.93953 692
23.95965 689
23.97976 666
23.99987 684
24.01999 667
24.0401 673
24.06021 678
24.08033 679
24.10044 642
24.12056 669
24.14067 644
24.16078 661
24.1809 638
24.20101 690
24.22112 679
24.24124 670
24.26135 689
24.28146 713
24.30158 716
24.32169 712
24.34181 667
24.36192 739
24.38203 673
24.40215 657
24.42226 703
24.44237 704
24.46249 698
24.4826 663
24.50272 675
24.52283 680
24.54294 708
24.56306 717
24.58317 657
24.60328 664
24.6234 711
24.64351 690
24.66362 660
24.68374 708
24.70385 661
24.72397 667
24.74408 638
24.76419 679
24.78431 689
24.80442 667
24.82453 727
24.84465 685
24.86476 691
24.88488 677
24.90499 717
24.9251 653
24.94522 658
24.96533 726
24.98544 648
25.00556 655
25.02567 729
25.04579 658
25.0659 628
25.08601 683
25.10613 680
25.12624 667
25.14635 629
25.16647 655
25.18658 650
25.20669 632
25.22681 680
25.24692 667
25.26704 663
25.28715 635
25.30726 697
25.32738 641
25.34749 650
25.3676 658
25.38772 647
25.40783 624
25.42795 649
25.44806 645
25.46817 662
25.48829 697
25.5084 636
25.52851 679
25.54863 762
25.56874 724
25.58886 760
25.60897 759
25.62908 734
25.6492 741
25.66931 762
25.68942 710
25.70954 694
25.72965 702
25.74976 651
25.76988 671
25.78999 694
25.81011 656
25.83022 665
25.85033 700
25.87045 630
25.89056 636
25.91067 622
25.93079 674
25.9509 607
25.97102 633
25.99113 626
26.01124 652
26.03136 669
26.05147 628
26.07158 644
26.0917 619
26.11181 680
26.13193 624
26.15204 610
26.17215 620
26.19227 692
26.21238 693
26.23249 684
26.25261 743
26.27272 720
26.29283 743
26.31295 813
26.33306 748
26.35318 830
26.37329 793
26.3934 875
26.41352 908
26.43363 1005
26.45374 1083
26.47386 1177
26.49397 1410
26.51409 1899
26.5342 2566
26.55431 3392
26.57443 4366
26.59454 5247
26.61465 5272
26.63477 5157
26.65488 4464
26.67499 3651
26.69511 2870
26.71522 2239
26.73534 1648
26.75545 1193
26.77556 1000
26.79568 918
26.81579 876
26.8359 922
26.85602 899
26.87613 857
26.89625 840
26.91636 823
26.93647 773
26.95659 804
26.9767 720
26.99681 823
27.01693 810
27.03704 770
27.05716 777
27.07727 804
27.09738 809
27.1175 781
27.13761 721
27.15772 719
27.17784 675
27.19795 727
27.21806 622
27.23818 714
27.25829 666
27.27841 641
27.29852 637
27.31863 643
27.33875 659
27.35886 709
27.37897 756
27.39909 768
27.4192 774
27.43932 816
27.45943 823
27.47954 853
27.49966 872
27.51977 849
27.53988 757
27.56 729
27.58011 716
27.60023 686
27.62034 684
27.64045 665
27.66057 741
27.68068 698
27.70079 799
27.72091 727
27.74102 749
27.76113 773
27.78125 785
27.80136 732
27.82148 781
27.84159 743
27.8617 726
27.88182 749
27.90193 730
27.92204 774
27.94216 756
27.96227 775
27.98239 742
28.0025 723
28.02261 701
28.04273 699
28.06284 689
28.08295 656
28.10307 677
28.12318 615
28.1433 615
28.16341 648
28.18352 621
28.20364 610
28.22375 636
28.24386 603
28.26398 642
28.28409 634
28.3042 598
28.32432 672
28.34443 623
28.36455 584
28.38466 618
28.40477 618
28.42489 625
28.445 585
28.46511 606
28.48523 618
28.50534 623
28.52546 612
28.54557 631
28.56568 569
28.5858 608
28.60591 638
28.62602 584
28.64614 569
28.66625 573
28.68636 595
28.70648 592
28.72659 570
28.74671 578
28.76682 587
28.78693 575
28.80705 609
28.82716 551
28.84727 526
28.86739 577
28.8875 619
28.90762 557
28.92773 515
28.94784 551
28.96796 543
28.98807 594
29.00818 593
29.0283 584
29.04841 539
29.06853 609
29.08864 596
29.10875 602
29.12887 595
29.14898 549
29.16909 603
29.18921 606
29.20932 659
29.22943 550
29.24955 612
29.26966 597
29.28978 600
29.30989 599
29.33 579
29.35012 547
29.37023 585
29.39034 583
29.41046 628
29.43057 588
29.45069 586
29.4708 605
29.49091 604
29.51103 577
29.53114 651
29.55125 595
29.57137 603
29.59148 581
29.6116 655
29.63171 605
29.65182 661
29.67194 631
29.69205 666
29.71216 656
29.73228 693
29.75239 665
29.7725 714
29.79262 733
29.81273 807
29.83285 787
29.85296 869
29.87307 890
29.89319 875
29.9133 963
29.93341 991
29.95353 985
29.97364 948
29.99376 897
30.01387 927
30.03398 823
30.0541 825
30.07421 764
30.09432 778
30.11444 730
30.13455 686
30.15467 739
30.17478 695
30.19489 683
30.21501 652
30.23512 652
30.25523 615
30.27535 672
30.29546 691
30.31557 681
30.33569 669
30.3558 689
30.37592 745
30.39603 653
30.41614 662
30.43626 653
30.45637 724
30.47648 643
30.4966 601
30.51671 649
30.53683 652
30.55694 592
30.57705 587
30.59717 599
30.61728 592
30.63739 619
30.65751 567
30.67762 633
30.69773 642
30.71785 568
30.73796 637
30.75808 634
30.77819 626
30.7983 582
30.81842 632
30.83853 591
30.85864 566
30.87876 578
30.89887 572
30.91899 590
30.9391 594
30.95921 586
30.97933 603
30.99944 601
31.01955 582
31.03967 587
31.05978 597
31.0799 588
31.10001 549
31.12012 591
31.14024 613
31.16035 599
31.18046 557
31.20058 584
31.22069 582
31.2408 560
31.26092 577
31.28103 609
31.30115 554
31.32126 598
31.34137 583
31.36149 561
31.3816 553
31.40171 602
31.42183 583
31.44194 551
31.46206 565
31.48217 565
31.50228 583
31.5224 547
31.54251 565
31.56262 570
31.58274 607
31.60285 632
31.62297 595
31.64308 547
31.66319 612
31.68331 556
31.70342 636
31.72353 612
31.74365 580
31.76376 622
31.78387 514
31.80399 594
31.8241 581
31.84422 620
31.86433 554
31.88444 592
31.90456 609
31.92467 541
31.94478 580
31.9649 571
31.98501 589
32.00513 558
32.02524 579
32.04535 533
32.06547 560
32.08558 562
32.10569 607
32.12581 560
32.14592 566
32.16604 605
32.18615 562
32.20626 626
32.22638 584
32.24649 635
32.2666 580
32.28672 604
32.30683 578
32.32694 603
32.34706 599
32.36717 604
32.38729 600
32.4074 600
32.42751 583
32.44763 585
32.46774 607
32.48785 632
32.50797 614
32.52808 618
32.5482 639
32.56831 644
32.58842 627
32.60854 606
32.62865 578
32.64876 610
32.66888 627
32.68899 613
32.7091 639
32.72922 556
32.74933 601
32.76945 593
32.78956 601
32.80967 606
32.82979 589
32.8499 577
32.87001 622
32.89013 618
32.91024 588
32.93036 588
32.95047 652
32.97058 613
32.9907 646
33.01081 678
33.03092 695
33.05104 657
33.07115 653
33.09127 653
33.11138 637
33.13149 573
33.15161 640
33.17172 656
33.19183 675
33.21195 638
33.23206 562
33.25217 547
33.27229 594
33.2924 570
33.31252 552
33.33263 566
33.35274 632
33.37286 567
33.39297 578
33.41308 576
33.4332 575
33.45331 581
33.47343 584
33.49354 612
33.51365 571
33.53377 573
33.55388 585
33.57399 593
33.59411 583
33.61422 591
33.63434 546
33.65445 569
33.67456 549
33.69468 568
33.71479 579
33.7349 583
33.75502 580
33.77513 623
33.79524 658
33.81536 617
33.83547 601
33.85559 604
33.8757 596
33.89581 643
33.91593 558
33.93604 553
33.95615 591
33.97627 580
33.99638 560
34.0165 576
34.03661 608
34.05672 570
34.07684 605
34.09695 589
34.11706 622
34.13718 611
34.15729 603
34.17741 569
34.19752 635
34.21763 593
34.23775 613
34.25786 664
34.27797 632
34.29809 592
34.3182 637
34.33831 647
34.35843 622
34.37854 643
34.39866 637
34.41877 651
34.43888 645
34.459 681
34.47911 677
34.49922 711
34.51934 660
34.53945 650
34.55957 686
34.57968 588
34.59979 629
34.61991 679
34.64002 668
34.66013 609
34.68025 743
34.70036 656
34.72047 694
34.74059 673
34.7607 689
34.78082 722
34.80093 721
34.82104 765
34.84116 767
34.86127 683
34.88138 728
34.9015 746
34.92161 785
34.94173 738
34.96184 818
34.98195 802
35.00207 839
35.02218 803
35.04229 886
35.06241 887
35.08252 904
35.10264 935
35.12275 1045
35.14286 1110
35.16298 1277
35.18309 1269
35.2032 1388
35.22332 1453
35.24343 1671
35.26354 1594
35.28366 1712
35.30377 1523
35.32389 1450
35.344 1426
35.36411 1417
35.38423 1282
35.40434 1239
35.42445 1147
35.44457 1124
35.46468 1069
35.4848 1027
35.50491 980
35.52502 929
35.54514 942
35.56525 969
35.58536 908
35.60548 866
35.62559 862
35.64571 782
35.66582 815
35.68593 823
35.70605 783
35.72616 813
35.74627 729
35.76639 765
35.7865 761
35.80661 673
35.82673 681
35.84684 688
35.86696 727
35.88707 683
35.90718 722
35.9273 730
35.94741 672
35.96752 679
35.98764 677
36.00775 746
36.02787 746
36.04798 704
36.06809 655
36.08821 674
36.10832 650
36.12843 666
36.14855 687
36.16866 681
36.18878 717
36.20889 700
36.229 676
36.24912 705
36.26923 736
36.28934 660
36.30946 703
36.32957 690
36.34968 758
36.3698 733
36.38991 745
36.41003 755
36.43014 809
36.45025 882
36.47037 1007
36.49048 1015
36.51059 1034
36.53071 929
36.55082 933
36.57094 875
36.59105 876
36.61116 818
36.63128 758
36.65139 771
36.6715 755
36.69162 659
36.71173 681
36.73184 674
36.75196 710
36.77207 669
36.79219 624
36.8123 658
36.83241 714
36.85253 674
36.87264 725
36.89275 669
36.91287 637
36.93298 674
36.9531 680
36.97321 640
36.99332 686
37.01344 692
37.03355 685
37.05366 706
37.07378 641
37.09389 677
37.11401 672
37.13412 652
37.15423 667
37.17435 670
37.19446 641
37.21457 654
37.23469 658
37.2548 652
37.27491 686
37.29503 612
37.31514 656
37.33526 614
37.35537 624
37.37548 604
37.3956 632
37.41571 705
37.43582 650
37.45594 659
37.47605 658
37.49617 641
37.51628 617
37.53639 690
37.55651 675
37.57662 702
37.59673 668
37.61685 663
37.63696 689
37.65708 701
37.67719 718
37.6973 688
37.71742 583
37.73753 635
37.75764 638
37.77776 618
37.79787 662
37.81798 629
37.8381 602
37.85821 632
37.87833 671
37.89844 631
37.91855 592
37.93867 653
37.95878 636
37.97889 581
37.99901 639
38.01912 596
38.03924 628
38.05935 647
38.07946 613
38.09958 622
38.11969 616
38.1398 657
38.15992 620
38.18003 624
38.20015 590
38.22026 653
38.24037 666
38.26049 635
38.2806 666
38.30071 654
38.32083 623
38.34094 642
38.36105 609
38.38117 632
38.40128 579
38.4214 643
38.44151 619
38.46162 648
38.48174 610
38.50185 604
38.52196 635
38.54208 625
38.56219 606
38.58231 608
38.60242 614
38.62253 659
38.64265 615
38.66276 629
38.68287 594
38.70299 600
38.7231 603
38.74321 574
38.76333 625
38.78344 575
38.80356 589
38.82367 577
38.84378 581
38.8639 559
38.88401 600
38.90412 619
38.92424 595
38.94435 615
38.96447 602
38.98458 564
39.00469 578
39.02481 612
39.04492 592
39.06503 590
39.08515 592
39.10526 595
39.12538 579
39.14549 628
39.1656 649
39.18572 591
39.20583 683
39.22594 643
39.24606 601
39.26617 630
39.28628 610
39.3064 647
39.32651 702
39.34663 721
39.36674 746
39.38685 792
39.40697 832
39.42708 865
39.44719 839
39.46731 820
39.48742 766
39.50754 701
39.52765 716
39.54776 741
39.56788 718
39.58799 614
39.6081 652
39.62822 599
39.64833 626
39.66845 655
39.68856 595
39.70867 604
39.72879 622
39.7489 588
39.76901 614
39.78913 575
39.80924 582
39.82935 624
39.84947 602
39.86958 558
39.8897 631
39.90981 597
39.92992 565
39.95004 627
39.97015 570
39.99026 628
40.01038 637
40.03049 609
40.05061 572
40.07072 602
40.09083 612
40.11095 626
40.13106 604
40.15117 625
40.17129 662
40.1914 665
40.21152 686
40.23163 738
40.25174 741
40.27186 706
40.29197 715
40.31208 690
40.3322 707
40.35231 673
40.37242 658
40.39254 636
40.41265 637
40.43277 634
40.45288 569
40.47299 639
40.49311 580
40.51322 591
40.53333 631
40.55345 624
40.57356 606
40.59368 586
40.61379 624
40.6339 548
40.65402 605
40.67413 574
40.69424 619
40.71436 572
40.73447 582
40.75458 585
40.7747 589
40.79481 610
40.81493 633
40.83504 584
40.85515 620
40.87527 563
40.89538 581
40.91549 562
40.93561 537
40.95572 598
40.97584 546
40.99595 626
41.01606 569
41.03618 599
41.05629 558
41.0764 625
41.09652 627
41.11663 615
41.13675 629
41.15686 566
41.17697 574
41.19709 546
41.2172 591
41.23731 595
41.25743 545
41.27754 625
41.29765 615
41.31777 633
41.33788 606
41.358 570
41.37811 611
41.39822 646
41.41834 586
41.43845 621
41.45856 569
41.47868 617
41.49879 591
41.51891 621
41.53902 569
41.55913 595
41.57925 603
41.59936 651
41.61947 601
41.63959 634
41.6597 659
41.67982 603
41.69993 638
41.72004 658
41.74016 638
41.76027 648
41.78038 630
41.8005 637
41.82061 568
41.84072 563
41.86084 575
41.88095 596
41.90107 560
41.92118 572
41.94129 575
41.96141 559
41.98152 519
42.00163 619
42.02175 566
42.04186 542
42.06198 558
42.08209 537
42.1022 586
42.12232 597
42.14243 539
42.16254 606
42.18266 573
42.20277 570
42.22289 609
42.243 586
42.26311 639
42.28323 629
42.30334 630
42.32345 663
42.34357 679
42.36368 722
42.38379 779
42.40391 835
42.42402 782
42.44414 757
42.46425 664
42.48436 733
42.50448 673
42.52459 665
42.5447 654
42.56482 649
42.58493 619
42.60505 618
42.62516 618
42.64527 666
42.66539 617
42.6855 621
42.70561 612
42.72573 670
42.74584 681
42.76595 658
42.78607 730
42.80618 685
42.8263 698
42.84641 702
42.86652 732
42.88664 749
42.90675 724
42.92686 741
42.94698 728
42.96709 683
42.98721 657
43.00732 684
43.02743 618
43.04755 585
43.06766 621
43.08777 608
43.10789 641
43.128 626
43.14812 607
43.16823 576
43.18834 560
43.20846 571
43.22857 590
43.24868 616
43.2688 574
43.28891 602
43.30902 564
43.32914 519
43.34925 559
43.36937 580
43.38948 574
43.40959 556
43.42971 550
43.44982 551
43.46993 553
43.49005 533
43.51016 546
43.53028 559
43.55039 533
43.5705 544
43.59062 580
43.61073 613
43.63084 564
43.65096 534
43.67107 566
43.69119 567
43.7113 526
43.73141 564
43.75153 579
43.77164 538
43.79175 530
43.81187 530
43.83198 512
43.85209 524
43.87221 589
43.89232 538
43.91244 572
43.93255 540
43.95266 545
43.97278 600
43.99289 587
44.013 554
44.03312 575
44.05323 559
44.07335 576
44.09346 575
44.11357 593
44.13369 590
44.1538 570
44.17391 601
44.19403 556
44.21414 527
44.23426 558
44.25437 523
44.27448 616
44.2946 535
44.31471 566
44.33482 567
44.35494 600
44.37505 597
44.39516 563
44.41528 569
44.43539 564
44.45551 529
44.47562 527
44.49573 528
44.51585 564
44.53596 517
44.55607 528
44.57619 563
44.5963 561
44.61642 550
44.63653 520
44.65664 528
44.67676 561
44.69687 551
44.71698 593
44.7371 595
44.75721 552
44.77732 561
44.79744 568
44.81755 558
44.83767 572
44.85778 583
44.87789 589
44.89801 555
44.91812 532
44.93823 535
44.95835 606
44.97846 533
44.99858 547
45.01869 538
45.0388 554
45.05892 542
45.07903 569
45.09914 531
45.11926 537
45.13937 550
45.15949 550
45.1796 578
45.19971 541
45.21983 573
45.23994 552
45.26005 556
45.28017 604
45.30028 542
45.32039 566
45.34051 573
45.36062 567
45.38074 593
45.40085 566
45.42096 574
45.44108 607
45.46119 562
45.4813 528
45.50142 572
45.52153 564
45.54165 566
45.56176 567
45.58187 591
45.60199 570
45.6221 593
45.64221 636
45.66233 615
45.68244 552
45.70256 670
45.72267 624
45.74278 649
45.7629 710
45.78301 651
45.80312 655
45.82324 611
45.84335 635
45.86346 635
45.88358 604
45.90369 605
45.92381 581
45.94392 580
45.96403 605
45.98415 557
46.00426 532
46.02437 527
46.04449 564
46.0646 550
46.08472 541
46.10483 541
46.12494 541
46.14506 564
46.16517 584
46.18528 525
46.2054 565
46.22551 558
46.24563 533
46.26574 544
46.28585 524
46.30597 510
46.32608 559
46.34619 529
46.36631 532
46.38642 530
46.40653 545
46.42665 529
46.44676 498
46.46688 568
46.48699 523
46.5071 509
46.52722 555
46.54733 531
46.56744 487
46.58756 562
46.60767 534
46.62779 518
46.6479 529
46.66801 559
46.68813 518
46.70824 533
46.72835 502
46.74847 514
46.76858 534
46.78869 530
46.80881 559
46.82892 526
46.84904 566
46.86915 499
46.88926 565
46.90938 525
46.92949 508
46.9496 521
46.96972 559
46.98983 508
47.00995 530
47.03006 538
47.05017 571
47.07029 510
47.0904 547
47.11051 542
47.13063 557
47.15074 569
47.17086 583
47.19097 539
47.21108 553
47.2312 542
47.25131 529
47.27142 531
47.29154 566
47.31165 565
47.33176 572
47.35188 558
47.37199 582
47.39211 554
47.41222 558
47.43233 611
47.45245 547
47.47256 578
47.49267 513
47.51279 474
47.5329 579
47.55302 626
47.57313 530
47.59324 522
47.61336 572
47.63347 545
47.65358 540
47.6737 576
47.69381 551
47.71393 539
47.73404 549
47.75415 521
47.77427 555
47.79438 566
47.81449 559
47.83461 562
47.85472 604
47.87483 496
47.89495 558
47.91506 490
47.93518 527
47.95529 507
47.9754 537
47.99552 498
48.01563 553
48.03574 489
48.05586 521
48.07597 552
48.09609 527
48.1162 534
48.13631 526
48.15643 544
48.17654 515
48.19665 546
48.21677 544
48.23688 556
48.257 544
48.27711 584
48.29722 539
48.31734 509
48.33745 541
48.35756 550
48.37768 519
48.39779 563
48.4179 551
48.43802 533
48.45813 476
48.47825 490
48.49836 540
48.51847 545
48.53859 560
48.5587 535
48.57881 539
48.59893 525
48.61904 504
48.63916 552
48.65927 510
48.67938 537
48.6995 533
48.71961 536
48.73972 508
48.75984 517
48.77995 525
48.80006 562
48.82018 532
48.84029 502
48.86041 585
48.88052 533
48.90063 521
48.92075 552
48.94086 548
48.96097 564
48.98109 529
49.0012 542
49.02132 517
49.04143 509
49.06154 534
49.08166 519
49.10177 541
49.12188 577
49.142 543
49.16211 526
49.18223 527
49.20234 538
49.22245 596
49.24257 561
49.26268 541
49.28279 574
49.30291 570
49.32302 554
49.34313 537
49.36325 524
49.38336 545
49.40348 537
49.42359 551
49.4437 521
49.46382 543
49.48393 562
49.50404 545
49.52416 540
49.54427 527
49.56439 577
49.5845 555
49.60461 478
49.62473 566
49.64484 522
49.66495 532
49.68507 590
49.70518 551
49.7253 536
49.74541 525
49.76552 551
49.78564 541
49.80575 588
49.82586 557
49.84598 600
49.86609 514
49.8862 588
49.90632 591
49.92643 606
49.94655 598
49.96666 640
49.98677 665
50.00689 733
50.027 820
50.04711 896
50.06723 969
50.08734 1049
50.10746 997
50.12757 957
50.14768 842
50.1678 781
50.18791 807
50.20802 809
50.22814 795
50.24825 757
50.26837 694
50.28848 628
50.30859 605
50.32871 541
50.34882 568
50.36893 530
50.38905 555
50.40916 576
50.42927 576
50.44939 552
50.4695 618
50.48962 590
50.50973 601
50.52984 615
50.54996 596
50.57007 585
50.59018 584
50.6103 622
50.63041 630
50.65053 565
50.67064 602
50.69075 583
50.71087 544
50.73098 611
50.75109 568
50.77121 574
50.79132 558
50.81143 535
50.83155 553
50.85166 530
50.87178 537
50.89189 538
50.912 533
50.93212 515
50.95223 534
50.97234 519
50.99246 564
51.01257 523
51.03269 529
51.0528 530
51.07291 518
51.09303 546
51.11314 536
51.13325 547
51.15337 542
51.17348 571
51.1936 530
51.21371 528
51.23382 510
51.25394 572
51.27405 517
51.29416 526
51.31428 559
51.33439 522
51.3545 527
51.37462 512
51.39473 521
51.41485 578
51.43496 494
51.45507 484
51.47519 486
51.4953 506
51.51541 502
51.53553 508
51.55564 537
51.57576 477
51.59587 518
51.61598 591
51.6361 491
51.65621 495
51.67632 555
51.69644 548
51.71655 504
51.73667 518
51.75678 531
51.77689 561
51.79701 527
51.81712 518
51.83723 503
51.85735 517
51.87746 475
51.89757 513
51.91769 517
51.9378 538
51.95792 538
51.97803 525
51.99814 577
52.01826 502
52.03837 534
52.05848 500
52.0786 508
52.09871 521
52.11883 555
52.13894 594
52.15905 557
52.17917 563
52.19928 541
52.21939 582
52.23951 501
52.25962 521
52.27974 569
52.29985 538
52.31996 535
52.34008 570
52.36019 539
52.3803 541
52.40042 511
52.42053 511
52.44064 508
52.46076 538
52.48087 488
52.50099 490
52.5211 617
52.54121 552
52.56133 533
52.58144 518
52.60155 521
52.62167 540
52.64178 531
52.6619 543
52.68201 533
52.70212 530
52.72224 573
52.74235 537
52.76246 543
52.78258 542
52.80269 518
52.8228 548
52.84292 539
52.86303 542
52.88315 545
52.90326 572
52.92337 545
52.94349 554
52.9636 625
52.98371 547
53.00383 570
53.02394 525
53.04406 567
53.06417 606
53.08428 576
53.1044 599
53.12451 600
53.14462 591
53.16474 617
53.18485 597
53.20497 579
53.22508 588
53.24519 614
53.26531 571
53.28542 577
53.30553 599
53.32565 606
53.34576 530
53.36587 581
53.38599 542
53.4061 573
53.42622 564
53.44633 570
53.46644 607
53.48656 607
53.50667 550
53.52678 572
53.5469 541
53.56701 543
53.58713 540
53.60724 526
53.62735 576
53.64747 551
53.66758 630
53.68769 580
53.70781 569
53.72792 568
53.74804 557
53.76815 570
53.78826 541
53.80838 562
53.82849 579
53.8486 547
53.86872 595
53.88883 595
53.90894 588
53.92906 546
53.94917 570
53.96929 590
53.9894 576
54.00951 569
54.02963 612
54.04974 576
54.06985 647
54.08997 575
54.11008 579
54.1302 615
54.15031 572
54.17042 578
54.19054 596
54.21065 602
54.23076 602
54.25088 571
54.27099 597
54.29111 569
54.31122 568
54.33133 565
54.35145 564
54.37156 591
54.39167 553
54.41179 580
54.4319 611
54.45201 650
54.47213 603
54.49224 580
54.51236 566
54.53247 629
54.55258 633
54.5727 561
54.59281 531
54.61292 571
54.63304 586
54.65315 603
54.67327 561
54.69338 571
54.71349 617
54.73361 583
54.75372 632
54.77383 662
54.79395 705
54.81406 681
54.83417 688
54.85429 671
54.8744 627
54.89452 624
54.91463 621
54.93474 661
54.95486 596
54.97497 604
54.99508 622
55.0152 594
55.03531 565
55.05543 590
55.07554 561
55.09565 541
55.11577 564
55.13588 634
55.15599 578
55.17611 551
55.19622 644
55.21634 583
55.23645 614
55.25656 649
55.27668 614
55.29679 552
55.3169 598
55.33702 589
55.35713 593
55.37724 584
55.39736 598
55.41747 562
55.43759 635
55.4577 532
55.47781 591
55.49793 600
55.51804 547
55.53815 578
55.55827 557
55.57838 534
55.5985 570
55.61861 532
55.63872 531
55.65884 587
55.67895 517
55.69906 569
55.71918 551
55.73929 561
55.75941 514
55.77952 525
55.79963 534
55.81975 537
55.83986 542
55.85997 483
55.88009 551
55.9002 536
55.92031 555
55.94043 550
55.96054 511
55.98066 595
56.00077 558
56.02088 565
56.041 587
56.06111 553
56.08122 531
56.10134 541
56.12145 598
56.14157 506
56.16168 558
56.18179 592
56.20191 574
56.22202 525
56.24213 538
56.26225 531
56.28236 526
56.30248 514
56.32259 545
56.3427 583
56.36282 572
56.38293 573
56.40304 591
56.42316 556
56.44327 583
56.46338 619
56.4835 574
56.50361 599
56.52373 604
56.54384 643
56.56395 601
56.58407 653
56.60418 728
56.62429 706
56.64441 747
56.66452 768
56.68464 666
56.70475 701
56.72486 692
56.74498 715
56.76509 691
56.7852 682
56.80532 604
56.82543 642
56.84554 611
56.86566 655
56.88577 650
56.90589 620
56.926 644
56.94611 587
56.96623 579
56.98634 590
57.00645 573
57.02657 609
57.04668 584
57.0668 561
57.08691 589
57.10702 565
57.12714 561
57.14725 552
57.16736 579
57.18748 578
57.20759 545
57.22771 581
57.24782 525
57.26793 543
57.28805 548
57.30816 589
57.32827 524
57.34839 589
57.3685 535
57.38861 580
57.40873 559
57.42884 537
57.44896 542
57.46907 531
57.48918 564
57.5093 545
57.52941 551
57.54952 562
57.56964 510
57.58975 486
57.60987 534
57.62998 527
57.65009 509
57.67021 499
57.69032 518
57.71043 551
57.73055 538
57.75066 569
57.77078 531
57.79089 517
57.811 511
57.83112 488
57.85123 511
57.87134 540
57.89146 534
57.91157 532
57.93168 536
57.9518 534
57.97191 513
57.99203 508
58.01214 505
58.03225 537
58.05237 535
58.07248 557
58.09259 494
58.11271 527
58.13282 530
58.15294 511
58.17305 540
58.19316 505
58.21328 519
58.23339 540
58.2535 481
58.27362 514
58.29373 507
58.31385 483
58.33396 517
58.35407 519
58.37419 510
58.3943 448
58.41441 532
58.43453 555
58.45464 516
58.47475 533
58.49487 485
58.51498 545
58.5351 503
58.55521 514
58.57532 546
58.59544 525
58.61555 530
58.63566 543
58.65578 525
58.67589 525
58.69601 546
58.71612 458
58.73623 480
58.75635 502
58.77646 517
58.79657 464
58.81669 541
58.8368 498
58.85691 518
58.87703 482
58.89714 524
58.91726 498
58.93737 471
58.95748 517
58.9776 492
58.99771 510
59.01782 515
59.03794 486
59.05805 487
59.07817 527
59.09828 522
59.11839 515
59.13851 470
59.15862 515
59.17873 500
59.19885 492
59.21896 470
59.23908 506
59.25919 490
59.2793 530
59.29942 498
59.31953 520
59.33964 485
59.35976 488
59.37987 498
59.39998 495
59.4201 562
59.44021 510
59.46033 489
59.48044 496
59.50055 510
59.52067 524
59.54078 482
59.56089 521
59.58101 517
59.60112 534
59.62124 560
59.64135 510
59.66146 499
59.68158 551
59.70169 510
59.7218 531
59.74192 512
59.76203 577
59.78215 568
59.80226 589
59.82237 670
59.84249 720
59.8626 714
59.88271 737
59.90283 814
59.92294 780
59.94305 708
59.96317 670
59.98328 642
60.0034 630
60.02351 658
60.04362 677
60.06374 672
60.08385 656
60.10396 646
60.12408 626
60.14419 548
60.16431 531
60.18442 521
60.20453 535
60.22465 579
60.24476 568
60.26487 534
60.28499 499
60.3051 516
60.32522 516
60.34533 472
60.36544 539
60.38556 529
60.40567 551
60.42578 481
60.4459 495
60.46601 514
60.48612 527
60.50624 505
60.52635 541
60.54647 543
60.56658 499
60.58669 500
60.60681 515
60.62692 487
60.64703 506
60.66715 523
60.68726 535
60.70738 504
60.72749 508
60.7476 524
60.76772 514
60.78783 512
60.80794 494
60.82806 486
60.84817 508
60.86828 505
60.8884 485
60.90851 462
60.92863 498
60.94874 523
60.96885 529
60.98897 488
61.00908 502
61.02919 483
61.04931 518
61.06942 527
61.08954 488
61.10965 461
61.12976 542
61.14988 497
61.16999 550
61.1901 487
61.21022 518
61.23033 520
61.25045 495
61.27056 513
61.29067 534
61.31079 512
61.3309 475
61.35101 513
61.37113 520
61.39124 538
61.41135 545
61.43147 555
61.45158 499
61.4717 527
61.49181 525
61.51192 538
61.53204 550
61.55215 524
61.57226 473
61.59238 518
61.61249 522
61.63261 529
61.65272 544
61.67283 599
61.69295 544
61.71306 543
61.73317 537
61.75329 555
61.7734 539
61.79352 516
61.81363 557
61.83374 580
61.85386 549
61.87397 569
61.89408 537
61.9142 586
61.93431 577
61.95442 603
61.97454 580
61.99465 607
62.01477 606
62.03488 612
62.05499 668
62.07511 713
62.09522 695
62.11533 715
62.13545 750
62.15556 729
62.17568 734
62.19579 761
62.2159 708
62.23602 748
62.25613 710
62.27624 748
62.29636 731
62.31647 750
62.33659 738
62.3567 766
62.37681 684
62.39693 710
62.41704 664
62.43715 708
62.45727 689
62.47738 658
62.49749 634
62.51761 643
62.53772 620
62.55784 584
62.57795 606
62.59806 613
62.61818 606
62.63829 593
62.6584 628
62.67852 641
62.69863 582
62.71875 586
62.73886 592
62.75897 549
62.77909 575
62.7992 595
62.81931 584
62.83943 572
62.85954 580
62.87965 585
62.89977 565
62.91988 551
62.94 552
62.96011 548
62.98022 555
63.00034 523
63.02045 501
63.04056 596
63.06068 518
63.08079 508
63.10091 540
63.12102 523
63.14113 512
63.16125 531
63.18136 514
63.20147 511
63.22159 522
63.2417 548
63.26182 531
63.28193 507
63.30204 500
63.32216 536
63.34227 510
63.36238 534
63.3825 521
63.40261 517
63.42272 523
63.44284 509
63.46295 516
63.48307 555
63.50318 484
63.52329 526
63.54341 498
63.56352 496
63.58363 555
63.60375 512
63.62386 525
63.64398 484
63.66409 518
63.6842 536
63.70432 532
63.72443 566
63.74454 537
63.76466 500
63.78477 543
63.80489 525
63.825 528
63.84511 530
63.86523 563
63.88534 529
63.90545 549
63.92557 604
63.94568 533
63.96579 610
63.98591 581
64.00602 597
64.02614 552
64.04625 497
64.06636 570
64.08648 511
64.10659 545
64.1267 535
64.14682 536
64.16693 526
64.18705 548
64.20716 535
64.22727 525
64.24739 507
64.2675 530
64.28761 522
64.30773 541
64.32784 499
64.34796 526
64.36807 510
64.38818 547
64.4083 478
64.42841 481
64.44852 515
64.46864 520
64.48875 514
64.50886 480
64.52898 541
64.54909 469
64.56921 501
64.58932 503
64.60943 503
64.62955 493
64.64966 496
64.66977 486
64.68989 476
64.71 512
64.73012 510
64.75023 463
64.77034 489
64.79046 477
64.81057 500
64.83068 525
64.8508 458
64.87091 500
64.89102 471
64.91114 515
64.93125 519
64.95137 505
64.97148 487
64.99159 497
65.01171 493
65.03182 519
65.05193 476
65.07205 517
65.09216 481
65.11228 493
65.13239 474
65.1525 482
65.17262 493
65.19273 502
65.21284 489
65.23296 514
65.25307 493
65.27319 478
65.2933 470
65.31341 496
65.33353 498
65.35364 464
65.37375 482
65.39387 511
65.41398 488
65.43409 466
65.45421 493
65.47432 488
65.49444 490
65.51455 464
65.53466 458
65.55478 499
65.57489 507
65.595 461
65.61512 492
65.63523 444
65.65535 467
65.67546 475
65.69557 491
65.71569 496
65.7358 488
65.75591 490
65.77603 502
65.79614 433
65.81626 504
65.83637 479
65.85648 460
65.8766 485
65.89671 488
65.91682 500
65.93694 500
65.95705 506
65.97716 474
65.99728 491
66.01739 472
66.03751 486
66.05762 477
66.07773 490
66.09785 490
66.11796 483
66.13807 498
66.15819 504
66.1783 457
66.19842 504
66.21853 480
66.23864 454
66.25876 474
66.27887 466
66.29898 481
66.3191 496
66.33921 458
66.35933 474
66.37944 453
66.39955 466
66.41967 446
66.43978 454
66.45989 495
66.48001 489
66.50012 472
66.52023 507
66.54035 457
66.56046 479
66.58058 485
66.60069 474
66.6208 497
66.64092 476
66.66103 464
66.68114 442
66.70126 456
66.72137 460
66.74149 442
66.7616 465
66.78171 483
66.80183 498
66.82194 445
66.84205 500
66.86217 482
66.88228 495
66.90239 471
66.92251 479
66.94262 456
66.96274 455
66.98285 453
67.00296 480
67.02308 434
67.04319 439
67.0633 493
67.08342 457
67.10353 442
67.12365 470
67.14376 492
67.16387 487
67.18399 448
67.2041 477
67.22421 458
67.24433 453
67.26444 465
67.28456 445
67.30467 455
67.32478 431
67.3449 473
67.36501 481
67.38512 508
67.40524 443
67.42535 487
67.44546 494
67.46558 488
67.48569 505
67.50581 473
67.52592 497
67.54603 534
67.56615 488
67.58626 531
67.60637 557
67.62649 587
67.6466 595
67.66672 613
67.68683 660
67.70694 603
67.72706 581
67.74717 543
67.76728 596
67.7874 526
67.80751 539
67.82763 497
67.84774 566
67.86785 562
67.88797 580
67.90808 564
67.92819 572
67.94831 561
67.96842 512
67.98853 558
68.00865 598
68.02876 600
68.04888 649
68.06899 701
68.0891 700
68.10922 666
68.12933 650
68.14944 628
68.16956 612
68.18967 593
68.20979 620
68.2299 660
68.25001 702
68.27013 609
68.29024 660
68.31035 594
68.33047 544
68.35058 570
68.3707 560
68.39081 509
68.41092 522
68.43104 504
68.45115 528
68.47126 520
68.49138 500
68.51149 469
68.5316 456
68.55172 481
68.57183 461
68.59195 477
68.61206 470
68.63217 491
68.65229 444
68.6724 495
68.69251 459
68.71263 456
68.73274 466
68.75286 436
68.77297 483
68.79308 439
68.8132 395
68.83331 459
68.85342 477
68.87354 478
68.89365 467
68.91376 419
68.93388 444
68.95399 463
68.97411 414
68.99422 427
69.01433 456
69.03445 480
69.05456 450
69.07467 482
69.09479 471
69.1149 452
69.13502 430
69.15513 466
69.17524 459
69.19536 484
69.21547 444
69.23558 456
69.2557 466
69.27581 460
69.29593 474
69.31604 455
69.33615 435
69.35627 441
69.37638 440
69.39649 479
69.41661 450
69.43672 463
69.45683 436
69.47695 445
69.49706 441
69.51718 488
69.53729 433
69.5574 474
69.57752 443
69.59763 456
69.61774 454
69.63786 475
69.65797 450
69.67809 471
69.6982 464
69.71831 451
69.73843 434
69.75854 421
69.77865 437
69.79877 449
69.81888 436
69.839 450
69.85911 436
69.87922 450
69.89934 415
69.91945 425
69.93956 478
69.95968 451
69.97979 442
69.9999 466
70.02002 430
70.04013 414
70.06025 438
70.08036 448
70.10047 450
70.12059 410
70.1407 462
70.16081 434
70.18093 434
70.20104 447
70.22116 482
70.24127 463
70.26138 444
70.2815 426
70.30161 452
70.32172 437
70.34184 440
70.36195 414
70.38207 437
70.40218 437
70.42229 443
70.44241 448
70.46252 448
70.48263 429
70.50275 442
70.52286 484
70.54297 470
70.56309 491
70.5832 480
70.60332 459
70.62343 454
70.64354 444
70.66366 443
70.68377 477
70.70388 446
70.724 454
70.74411 433
70.76423 452
70.78434 451
70.80445 418
70.82457 445
70.84468 462
70.86479 434
70.88491 444
70.90502 416
70.92513 440
70.94525 461
70.96536 418
70.98548 439
71.00559 467
71.0257 438
71.04582 419
71.06593 410
71.08604 471
71.10616 446
71.12627 457
71.14639 456
71.1665 454
71.18661 448
71.20673 455
71.22684 456
71.24695 436
71.26707 425
71.28718 468
71.3073 430
71.32741 450
71.34752 448
71.36764 452
71.38775 436
71.40786 439
71.42798 420
71.44809 487
71.4682 454
71.48832 441
71.50843 425
71.52855 441
71.54866 443
71.56877 459
71.58889 435
71.609 433
71.62911 428
71.64923 446
71.66934 451
71.68946 426
71.70957 441
71.72968 467
71.7498 438
71.76991 461
71.79002 446
71.81014 445
71.83025 440
71.85037 412
71.87048 434
71.89059 409
71.91071 441
71.93082 469
71.95093 428
71.97105 396
71.99116 436
72.01127 429
72.03139 465
72.0515 404
72.07162 437
72.09173 426
72.11184 451
72.13196 425
72.15207 470
72.17218 433
72.1923 429
72.21241 417
72.23253 444
72.25264 439
72.27275 424
72.29287 414
72.31298 462
72.33309 428
72.35321 419
72.37332 438
72.39344 440
72.41355 437
72.43366 422
72.45378 443
72.47389 437
72.494 441
72.51412 427
72.53423 429
72.55434 446
72.57446 405
72.59457 445
72.61469 441
72.6348 413
72.65491 419
72.67503 416
72.69514 419
72.71525 418
72.73537 458
72.75548 418
72.7756 386
72.79571 413
72.81582 440
72.83594 442
72.85605 423
72.87616 413
72.89628 433
72.91639 465
72.9365 432
72.95662 404
72.97673 436
72.99685 444
73.01696 423
73.03707 412
73.05719 419
73.0773 458
73.09741 440
73.11753 453
73.13764 445
73.15776 415
73.17787 421
73.19798 444
73.2181 452
73.23821 429
73.25832 430
73.27844 459
73.29855 488
73.31867 506
73.33878 476
73.35889 491
73.37901 514
73.39912 516
73.41923 522
73.43935 497
73.45946 494
73.47957 480
73.49969 489
73.5198 473
73.53992 489
73.56003 475
73.58014 483
73.60026 492
73.62037 476
73.64048 473
73.6606 443
73.68071 464
73.70083 464
73.72094 500
73.74105 495
73.76117 453
73.78128 492
73.80139 472
73.82151 462
73.84162 494
73.86174 449
73.88185 457
73.90196 448
73.92208 474
73.94219 439
73.9623 442
73.98242 443
74.00253 437
74.02264 443
74.04276 458
74.06287 467
74.08299 442
74.1031 421
74.12321 472
74.14333 388
74.16344 445
74.18355 433
74.20367 444
74.22378 441
74.2439 428
74.26401 410
74.28412 408
74.30424 434
74.32435 424
74.34446 431
74.36458 408
74.38469 449
74.40481 429
74.42492 422
74.44503 432
74.46515 437
74.48526 442
74.50537 436
74.52549 409
74.5456 417
74.56571 440
74.58583 426
74.60594 402
74.62606 410
74.64617 405
74.66628 456
74.6864 445
74.70651 431
74.72662 446
74.74674 394
74.76685 495
74.78697 417
74.80708 433
74.82719 415
74.84731 417
74.86742 402
74.88753 427
74.90765 418
74.92776 426
74.94787 432
74.96799 441
74.9881 412
75.00822 420
