3.00117 19403
3.02128 18886
3.0414 18417
3.06151 18127
3.08162 17352
3.10174 17047
3.12185 16653
3.14197 16037
3.16208 15995
3.18219 15132
3.20231 14914
3.22242 14255
3.24253 13960
3.26265 13786
3.28276 13131
3.30288 12895
3.32299 12552
3.3431 12166
3.36322 12030
3.38333 11278
3.40344 11104
3.42356 10586
3.44367 10264
3.46379 10065
3.4839 9547
3.50401 9493
3.52413 8991
3.54424 8651
3.56435 8506
3.58447 8010
3.60458 8020
3.62469 7451
3.64481 7207
3.66492 6991
3.68504 6522
3.70515 6698
3.72526 6068
3.74538 5996
3.76549 5871
3.7856 5397
3.80572 5422
3.82583 5140
3.84595 4808
3.86606 4777
3.88617 4528
3.90629 4421
3.9264 4203
3.94651 4054
3.96663 4084
3.98674 3545
4.00686 3535
4.02697 3477
4.04708 3311
4.0672 3236
4.08731 2877
4.10742 2891
4.12754 2766
4.14765 2652
4.16776 2662
4.18788 2430
4.20799 2397
4.22811 2310
4.24822 2214
4.26833 2248
4.28845 1965
4.30856 2034
4.32867 1963
4.34879 1960
4.3689 1935
4.38902 1780
4.40913 1713
4.42924 1683
4.44936 1699
4.46947 1699
4.48958 1539
4.5097 1625
4.52981 1598
4.54992 1582
4.57004 1466
4.59015 1456
4.61027 1545
4.63038 1440
4.65049 1395
4.67061 1528
4.69072 1333
4.71083 1296
4.73095 1351
4.75106 1220
4.77118 1287
4.79129 1226
4.8114 1225
4.83152 1183
4.85163 1141
4.87174 1146
4.89186 1114
4.91197 1109
4.93209 1076
4.9522 1043
4.97231 1093
4.99243 980
5.01254 969
5.03265 1084
5.05277 995
5.07288 943
5.09299 892
5.11311 851
5.13322 966
5.15334 926
5.17345 945
5.19356 934
5.21368 872
5.23379 859
5.2539 883
5.27402 807
5.29413 827
5.31425 787
5.33436 812
5.35447 811
5.37459 766
5.3947 735
5.41481 762
5.43493 711
5.45504 742
5.47516 736
5.49527 740
5.51538 726
5.5355 708
5.55561 716
5.57572 671
5.59584 700
5.61595 634
5.63606 681
5.65618 674
5.67629 655
5.69641 596
5.71652 663
5.73663 661
5.75675 661
5.77686 578
5.79697 657
5.81709 649
5.8372 617
5.85732 618
5.87743 635
5.89754 630
5.91766 631
5.93777 677
5.95788 567
5.978 605
5.99811 652
6.01823 665
6.03834 575
6.05845 615
6.07857 607
6.09868 600
6.11879 632
6.13891 668
6.15902 653
6.17913 596
6.19925 611
6.21936 635
6.23948 645
6.25959 602
6.2797 607
6.29982 571
6.31993 589
6.34004 554
6.36016 550
6.38027 598
6.40039 579
6.4205 586
6.44061 548
6.46073 548
6.48084 606
6.50095 570
6.52107 588
6.54118 537
6.56129 529
6.58141 578
6.60152 572
6.62164 511
6.64175 526
6.66186 550
6.68198 542
6.70209 537
6.7222 559
6.74232 575
6.76243 569
6.78255 544
6.80266 537
6.82277 549
6.84289 528
6.863 541
6.88311 577
6.90323 528
6.92334 555
6.94346 582
6.96357 528
6.98368 553
7.0038 570
7.02391 520
7.04402 554
7.06414 572
7.08425 570
7.10436 570
7.12448 528
7.14459 558
7.16471 582
7.18482 553
7.20493 559
7.22505 602
7.24516 526
7.26527 603
7.28539 534
7.3055 550
7.32562 524
7.34573 575
7.36584 597
7.38596 544
7.40607 558
7.42618 632
7.4463 573
7.46641 579
7.48653 549
7.50664 531
7.52675 562
7.54687 553
7.56698 589
7.58709 514
7.60721 569
7.62732 579
7.64743 566
7.66755 541
7.68766 511
7.70778 527
7.72789 568
7.748 577
7.76812 564
7.78823 572
7.80834 553
7.82846 582
7.84857 533
7.86869 579
7.8888 575
7.90891 527
7.92903 542
7.94914 536
7.96925 552
7.98937 589
8.00948 592
8.0296 543
8.04971 596
8.06982 518
8.08994 590
8.11005 545
8.13016 585
8.15028 596
8.17039 540
8.1905 597
8.21062 571
8.23073 524
8.25085 573
8.27096 652
8.29107 546
8.31119 577
8.3313 576
8.35141 597
8.37153 589
8.39164 610
8.41176 611
8.43187 560
8.45198 580
8.4721 605
8.49221 636
8.51232 591
8.53244 600
8.55255 627
8.57266 573
8.59278 622
8.61289 662
8.63301 561
8.65312 618
8.67323 653
8.69335 611
8.71346 589
8.73357 646
8.75369 624
8.7738 623
8.79392 732
8.81403 724
8.83414 747
8.85426 704
8.87437 725
8.89448 713
8.9146 662
8.93471 652
8.95483 606
8.97494 545
8.99505 572
9.01517 582
9.03528 495
9.05539 524
9.07551 561
9.09562 525
9.11573 502
9.13585 485
9.15596 465
9.17608 485
9.19619 520
9.2163 521
9.23642 521
9.25653 509
9.27664 507
9.29676 463
9.31687 512
9.33699 513
9.3571 470
9.37721 503
9.39733 503
9.41744 457
9.43755 497
9.45767 454
9.47778 506
9.4979 462
9.51801 491
9.53812 462
9.55824 499
9.57835 467
9.59846 527
9.61858 468
9.63869 493
9.6588 454
9.67892 465
9.69903 464
9.71915 458
9.73926 500
9.75937 476
9.77949 492
9.7996 472
9.81971 488
9.83983 469
9.85994 442
9.88006 468
9.90017 433
9.92028 461
9.9404 455
9.96051 497
9.98062 426
10.00074 479
10.02085 425
10.04097 447
10.06108 454
10.08119 450
10.10131 418
10.12142 507
10.14153 463
10.16165 503
10.18176 447
10.20187 482
10.22199 498
10.2421 474
10.26222 468
10.28233 441
10.30244 421
10.32256 499
10.34267 478
10.36278 460
10.3829 516
10.40301 482
10.42313 502
10.44324 430
10.46335 522
10.48347 446
10.50358 478
10.52369 526
10.54381 506
10.56392 482
10.58403 477
10.60415 438
10.62426 496
10.64438 468
10.66449 443
10.6846 474
10.70472 459
10.72483 441
10.74494 464
10.76506 444
10.78517 460
10.80529 461
10.8254 458
10.84551 442
10.86563 478
10.88574 504
10.90585 437
10.92597 488
10.94608 451
10.9662 484
10.98631 438
11.00642 460
11.02654 469
11.04665 477
11.06676 434
11.08688 457
11.10699 431
11.1271 502
11.14722 502
11.16733 476
11.18745 457
11.20756 407
11.22767 507
11.24779 455
11.2679 485
11.28801 472
11.30813 476
11.32824 502
11.34836 493
11.36847 507
11.38858 474
11.4087 434
11.42881 464
11.44892 525
11.46904 478
11.48915 449
11.50927 481
11.52938 525
11.54949 480
11.56961 540
11.58972 508
11.60983 531
11.62995 503
11.65006 500
11.67017 534
11.69029 476
11.7104 538
11.73052 544
11.75063 522
11.77074 552
11.79086 529
11.81097 557
11.83108 531
11.8512 569
11.87131 590
11.89143 534
11.91154 593
11.93165 604
11.95177 649
11.97188 615
11.99199 604
12.01211 649
12.03222 684
12.05234 653
12.07245 660
12.09256 673
12.11268 724
12.13279 778
12.1529 748
12.17302 779
12.19313 768
12.21324 797
12.23336 829
12.25347 781
12.27359 822
12.2937 917
12.31381 833
12.33393 852
12.35404 856
12.37415 822
12.39427 776
12.41438 766
12.4345 706
12.45461 716
12.47472 643
12.49484 656
12.51495 655
12.53506 625
12.55518 596
12.57529 565
12.5954 605
12.61552 536
12.63563 533
12.65575 529
12.67586 533
12.69597 478
12.71609 489
12.7362 508
12.75631 444
12.77643 457
12.79654 465
12.81666 471
12.83677 462
12.85688 476
12.877 477
12.89711 457
12.91722 455
12.93734 440
12.95745 442
12.97757 432
12.99768 456
13.01779 432
13.03791 468
13.05802 457
13.07813 441
13.09825 448
13.11836 467
13.13847 400
13.15859 408
13.1787 423
13.19882 468
13.21893 463
13.23904 446
13.25916 412
13.27927 463
13.29938 391
13.3195 459
13.33961 425
13.35973 443
13.37984 417
13.39995 430
13.42007 391
13.44018 411
13.46029 371
13.48041 409
13.50052 458
13.52064 447
13.54075 447
13.56086 402
13.58098 457
13.60109 429
13.6212 466
13.64132 417
13.66143 468
13.68154 455
13.70166 465
13.72177 455
13.74189 453
13.762 433
13.78211 408
13.80223 465
13.82234 383
13.84245 460
13.86257 415
13.88268 458
13.9028 446
13.92291 402
13.94302 434
13.96314 437
13.98325 426
14.00336 440
14.02348 399
14.04359 444
14.06371 406
14.08382 389
14.10393 417
14.12405 392
14.14416 434
14.16427 410
14.18439 415
14.2045 405
14.22461 411
14.24473 383
14.26484 399
14.28496 376
14.30507 426
14.32518 444
14.3453 397
14.36541 444
14.38552 411
14.40564 425
14.42575 363
14.44587 404
14.46598 373
14.48609 422
14.50621 403
14.52632 421
14.54643 385
14.56655 399
14.58666 416
14.60677 412
14.62689 436
14.647 377
14.66712 416
14.68723 384
14.70734 404
14.72746 402
14.74757 387
14.76768 415
14.7878 437
14.80791 348
14.82803 415
14.84814 390
14.86825 389
14.88837 419
14.90848 450
14.92859 401
14.94871 403
14.96882 426
14.98894 455
15.00905 442
15.02916 432
15.04928 428
15.06939 423
15.0895 432
15.10962 375
15.12973 414
15.14984 401
15.16996 401
15.19007 418
15.21019 416
15.2303 420
15.25041 383
15.27053 422
15.29064 397
15.31075 380
15.33087 393
15.35098 428
15.3711 392
15.39121 398
15.41132 403
15.43144 386
15.45155 424
15.47166 424
15.49178 414
15.51189 401
15.53201 413
15.55212 418
15.57223 374
15.59235 370
15.61246 414
15.63257 404
15.65269 392
15.6728 419
15.69291 417
15.71303 409
15.73314 396
15.75326 397
15.77337 379
15.79348 422
15.8136 434
15.83371 388
15.85382 398
15.87394 412
15.89405 375
15.91417 416
15.93428 390
15.95439 378
15.97451 386
15.99462 391
16.01473 396
16.03485 415
16.05496 416
16.07508 389
16.09519 379
16.1153 389
16.13542 378
16.15553 420
16.17564 387
16.19576 391
16.21587 393
16.23598 369
16.2561 390
16.27621 387
16.29633 406
16.31644 409
16.33655 351
16.35667 388
16.37678 379
16.39689 401
16.41701 410
16.43712 411
16.45724 356
16.47735 419
16.49746 454
16.51758 344
16.53769 396
16.5578 376
16.57792 392
16.59803 394
16.61814 397
16.63826 432
16.65837 395
16.67849 394
16.6986 389
16.71871 361
16.73883 398
16.75894 395
16.77905 405
16.79917 440
16.81928 402
16.8394 371
16.85951 411
16.87962 405
16.89974 406
16.91985 378
16.93996 374
16.96008 411
16.98019 409
17.00031 386
17.02042 401
17.04053 402
17.06065 381
17.08076 383
17.10087 402
17.12099 427
17.1411 370
17.16121 394
17.18133 388
17.20144 400
17.22156 392
17.24167 396
17.26178 409
17.2819 419
17.30201 437
17.32212 388
17.34224 406
17.36235 415
17.38247 402
17.40258 435
17.42269 398
17.44281 471
17.46292 433
17.48303 412
17.50315 424
17.52326 415
17.54338 427
17.56349 498
17.5836 456
17.60372 489
17.62383 464
17.64394 443
17.66406 479
17.68417 483
17.70428 445
17.7244 489
17.74451 424
17.76463 446
17.78474 447
17.80485 450
17.82497 408
17.84508 444
17.86519 428
17.88531 417
17.90542 441
17.92554 451
17.94565 426
17.96576 440
17.98588 411
18.00599 413
18.0261 404
18.04622 426
18.06633 401
18.08645 395
18.10656 407
18.12667 391
18.14679 449
18.1669 404
18.18701 403
18.20713 449
18.22724 451
18.24735 437
18.26747 413
18.28758 482
18.3077 448
18.32781 416
18.34792 466
18.36804 415
18.38815 404
18.40826 408
18.42838 387
18.44849 438
18.46861 386
18.48872 399
18.50883 376
18.52895 429
18.54906 411
18.56917 379
18.58929 398
18.6094 421
18.62951 421
18.64963 431
18.66974 421
18.68986 425
18.70997 400
18.73008 444
18.7502 444
18.77031 400
18.79042 409
18.81054 361
18.83065 408
18.85077 435
18.87088 435
18.89099 479
18.91111 405
18.93122 417
18.95133 434
18.97145 454
18.99156 434
19.01168 444
19.03179 436
19.0519 432
19.07202 459
19.09213 446
19.11224 349
19.13236 436
19.15247 495
19.17258 509
19.1927 534
19.21281 559
19.23293 578
19.25304 543
19.27315 592
19.29327 558
19.31338 519
19.33349 589
19.35361 584
19.37372 516
19.39384 550
19.41395 546
19.43406 589
19.45418 566
19.47429 509
19.4944 571
19.51452 547
19.53463 603
19.55475 564
19.57486 534
19.59497 580
19.61509 606
19.6352 606
19.65531 647
19.67543 704
19.69554 661
19.71565 683
19.73577 761
19.75588 845
19.776 806
19.79611 814
19.81622 871
19.83634 866
19.85645 847
19.87656 814
19.89668 831
19.91679 795
19.93691 793
19.95702 823
19.97713 747
19.99725 751
20.01736 796
20.03747 780
20.05759 786
20.0777 708
20.09782 714
20.11793 723
20.13804 738
20.15816 686
20.17827 707
20.19838 697
20.2185 743
20.23861 733
20.25872 762
20.27884 639
20.29895 746
20.31907 694
20.33918 709
20.35929 747
20.37941 733
20.39952 729
20.41963 712
20.43975 728
20.45986 744
20.47998 718
20.50009 746
20.5202 805
20.54032 763
20.56043 732
20.58054 763
20.60066 774
20.62077 788
20.64088 838
20.661 917
20.68111 997
20.70123 963
20.72134 1060
20.74145 1337
20.76157 1456
20.78168 1665
20.80179 1802
20.82191 1981
20.84202 1846
20.86214 1708
20.88225 1549
20.90236 1292
20.92248 1161
20.94259 994
20.9627 977
20.98282 920
21.00293 945
21.02305 852
21.04316 900
21.06327 815
21.08339 822
21.1035 829
21.12361 721
21.14373 764
21.16384 736
21.18395 736
21.20407 734
21.22418 739
21.2443 809
21.26441 783
21.28452 750
21.30464 715
21.32475 725
21.34486 717
21.36498 715
21.38509 698
21.40521 659
21.42532 725
21.44543 662
21.46555 649
21.48566 691
21.50577 722
21.52589 675
21.546 650
21.56612 641
21.58623 722
21.60634 656
21.62646 621
21.64657 628
21.66668 602
21.6868 642
21.70691 646
21.72702 610
21.74714 649
21.76725 646
21.78737 616
21.80748 662
21.82759 640
21.84771 733
21.86782 664
21.88793 677
21.90805 773
21.92816 767
21.94828 829
21.96839 889
21.9885 763
22.00862 770
22.02873 811
22.04884 737
22.06896 681
22.08907 691
22.10919 658
22.1293 632
22.14941 634
22.16953 645
22.18964 555
22.20975 595
22.22987 596
22.24998 643
22.27009 636
22.29021 646
22.31032 593
22.33044 605
22.35055 616
22.37066 608
22.39078 623
22.41089 628
22.431 605
22.45112 575
22.47123 586
22.49135 608
22.51146 582
22.53157 604
22.55169 578
22.5718 580
22.59191 638
22.61203 622
22.63214 582
22.65225 598
22.67237 587
22.69248 633
22.7126 600
22.73271 603
22.75282 631
22.77294 623
22.79305 619
22.81316 635
22.83328 653
22.85339 639
22.87351 648
22.89362 625
22.91373 642
22.93385 613
22.95396 637
22.97407 599
22.99419 608
23.0143 588
23.03442 604
23.05453 580
23.07464 612
23.09476 596
23.11487 565
23.13498 596
23.1551 530
23.17521 589
23.19532 590
23.21544 583
23.23555 605
23.25567 562
23.27578 597
23.29589 579
23.31601 614
23.33612 620
23.35623 635
23.37635 589
23.39646 627
23.41658 635
23.43669 617
23.4568 694
23.47692 712
23.49703 695
23.51714 740
23.53726 727
23.55737 749
23.57749 671
23.5976 744
23.61771 714
23.63783 673
23.65794 686
23.67805 643
23.69817 631
23.71828 632
23.73839 697
23.75851 664
23.77862 663
23.79874 622
23.81885 671
23.83896 645
23.85908 657
23.87919 671
23.8993 691
23.91942 688
23.93953 687
23.95965 633
23.97976 642
23.99987 648
24.01999 639
24.0401 585
24.06021 640
24.08033 593
24.10044 652
24.12056 584
24.14067 622
24.16078 677
24.1809 656
24.20101 675
24.22112 685
24.24124 654
24.26135 701
24.28146 741
24.30158 666
24.32169 703
24.34181 716
24.36192 703
24.38203 647
24.40215 681
24.42226 644
24.44237 632
24.46249 662
24.4826 697
24.50272 662
24.52283 650
24.54294 631
24.56306 709
24.58317 736
24.60328 644
24.6234 729
24.64351 765
24.66362 717
24.68374 781
24.70385 746
24.72397 745
24.74408 789
24.76419 787
24.78431 780
24.80442 853
24.82453 792
24.84465 796
24.86476 857
24.88488 809
24.90499 789
24.9251 812
24.94522 785
24.96533 770
24.98544 707
25.00556 716
25.02567 754
25.04579 732
25.0659 712
25.08601 665
25.10613 750
25.12624 690
25.14635 694
25.16647 700
25.18658 680
25.20669 634
25.22681 624
25.24692 666
25.26704 675
25.28715 737
25.30726 702
25.32738 694
25.34749 656
25.3676 745
25.38772 745
25.40783 715
25.42795 758
25.44806 755
25.46817 816
25.48829 816
25.5084 838
25.52851 799
25.54863 794
25.56874 780
25.58886 773
25.60897 762
25.62908 800
25.6492 743
25.66931 753
25.68942 678
25.70954 698
25.72965 691
25.74976 650
25.76988 656
25.78999 590
25.81011 669
25.83022 604
25.85033 609
25.87045 632
25.89056 607
25.91067 649
25.93079 688
25.9509 619
25.97102 690
25.99113 683
26.01124 695
26.03136 708
26.05147 692
26.07158 715
26.0917 803
26.11181 741
26.13193 713
26.15204 816
26.17215 801
26.19227 787
26.21238 782
26.23249 772
26.25261 849
26.27272 933
26.29283 919
26.31295 941
26.33306 1055
26.35318 1077
26.37329 1249
26.3934 1315
26.41352 1503
26.43363 1744
26.45374 2057
26.47386 2465
26.49397 3095
26.51409 3729
26.5342 4548
26.55431 5299
26.57443 6006
26.59454 6323
26.61465 6223
26.63477 5537
26.65488 4555
26.67499 3577
26.69511 2812
26.71522 2139
26.73534 1556
26.75545 1191
26.77556 1060
26.79568 996
26.81579 966
26.8359 897
26.85602 927
26.87613 902
26.89625 879
26.91636 855
26.93647 854
26.95659 816
26.9767 801
26.99681 829
27.01693 891
27.03704 801
27.05716 794
27.07727 763
27.09738 836
27.1175 698
27.13761 690
27.15772 667
27.17784 673
27.19795 655
27.21806 651
27.23818 641
27.25829 622
27.27841 669
27.29852 679
27.31863 724
27.33875 739
27.35886 790
27.37897 840
27.39909 866
27.4192 950
27.43932 919
27.45943 915
27.47954 914
27.49966 900
27.51977 812
27.53988 766
27.56 709
27.58011 735
27.60023 744
27.62034 707
27.64045 760
27.66057 802
27.68068 897
27.70079 918
27.72091 991
27.74102 1000
27.76113 1055
27.78125 1042
27.80136 1019
27.82148 977
27.84159 961
27.8617 941
27.88182 885
27.90193 996
27.92204 958
27.94216 913
27.96227 877
27.98239 828
28.0025 816
28.02261 736
28.04273 665
28.06284 629
28.08295 623
28.10307 592
28.12318 604
28.1433 629
28.16341 613
28.18352 584
28.20364 644
28.22375 546
28.24386 608
28.26398 573
28.28409 583
28.3042 582
28.32432 600
28.34443 541
28.36455 584
28.38466 558
28.40477 541
28.42489 546
28.445 533
28.46511 521
28.48523 561
28.50534 510
28.52546 511
28.54557 518
28.56568 582
28.5858 517
28.60591 498
28.62602 524
28.64614 558
28.66625 474
28.68636 484
28.70648 454
28.72659 476
28.74671 508
28.76682 445
28.78693 523
28.80705 505
28.82716 484
28.84727 481
28.86739 484
28.8875 477
28.90762 482
28.92773 493
28.94784 520
28.96796 478
28.98807 461
29.00818 523
29.0283 539
29.04841 431
29.06853 473
29.08864 474
29.10875 478
29.12887 495
29.14898 471
29.16909 436
29.18921 491
29.20932 482
29.22943 485
29.24955 500
29.26966 469
29.28978 516
29.30989 464
29.33 460
29.35012 488
29.37023 493
29.39034 492
29.41046 473
29.43057 539
29.45069 499
29.4708 519
29.49091 549
29.51103 476
29.53114 517
29.55125 545
29.57137 499
29.59148 518
29.6116 523
29.63171 493
29.65182 550
29.67194 576
29.69205 582
29.71216 617
29.73228 557
29.75239 590
29.7725 609
29.79262 618
29.81273 612
29.83285 618
29.85296 586
29.87307 566
29.89319 541
29.9133 556
29.93341 537
29.95353 537
29.97364 499
29.99376 543
30.01387 496
30.03398 545
30.0541 501
30.07421 518
30.09432 522
30.11444 549
30.13455 530
30.15467 529
30.17478 515
30.19489 525
30.21501 595
30.23512 529
30.25523 503
30.27535 524
30.29546 603
30.31557 612
30.33569 572
30.3558 585
30.37592 594
30.39603 575
30.41614 581
30.43626 557
30.45637 578
30.47648 511
30.4966 571
30.51671 556
30.53683 551
30.55694 530
30.57705 563
30.59717 544
30.61728 535
30.63739 540
30.65751 543
30.67762 579
30.69773 624
30.71785 614
30.73796 656
30.75808 648
30.77819 672
30.7983 679
30.81842 647
30.83853 642
30.85864 599
30.87876 565
30.89887 524
30.91899 526
30.9391 517
30.95921 474
30.97933 472
30.99944 504
31.01955 502
31.03967 452
31.05978 515
31.0799 481
31.10001 499
31.12012 514
31.14024 502
31.16035 502
31.18046 489
31.20058 481
31.22069 540
31.2408 490
31.26092 507
31.28103 510
31.30115 501
31.32126 482
31.34137 494
31.36149 465
31.3816 506
31.40171 462
31.42183 495
31.44194 441
31.46206 456
31.48217 490
31.50228 455
31.5224 480
31.54251 473
31.56262 444
31.58274 484
31.60285 459
31.62297 443
31.64308 454
31.66319 531
31.68331 481
31.70342 514
31.72353 495
31.74365 476
31.76376 545
31.78387 506
31.80399 473
31.8241 479
31.84422 455
31.86433 438
31.88444 466
31.90456 448
31.92467 508
31.94478 468
31.9649 457
31.98501 430
32.00513 524
32.02524 484
32.04535 492
32.06547 511
32.08558 466
32.10569 484
32.12581 449
32.14592 480
32.16604 485
32.18615 507
32.20626 473
32.22638 482
32.24649 426
32.2666 456
32.28672 488
32.30683 504
32.32694 477
32.34706 535
32.36717 492
32.38729 447
32.4074 467
32.42751 445
32.44763 458
32.46774 438
32.48785 437
32.50797 470
32.52808 424
32.5482 484
32.56831 435
32.58842 436
32.60854 456
32.62865 447
32.64876 443
32.66888 460
32.68899 452
32.7091 455
32.72922 444
32.74933 461
32.76945 438
32.78956 450
32.80967 492
32.82979 454
32.8499 450
32.87001 442
32.89013 456
32.91024 469
32.93036 461
32.95047 438
32.97058 463
32.9907 472
33.01081 464
33.03092 423
33.05104 464
33.07115 429
33.09127 513
33.11138 471
33.13149 482
33.15161 512
33.17172 427
33.19183 478
33.21195 496
33.23206 470
33.25217 533
33.27229 516
33.2924 508
33.31252 533
33.33263 488
33.35274 506
33.37286 508
33.39297 529
33.41308 508
33.4332 496
33.45331 501
33.47343 458
33.49354 473
33.51365 510
33.53377 464
33.55388 403
33.57399 515
33.59411 463
33.61422 499
33.63434 475
33.65445 511
33.67456 493
33.69468 524
33.71479 517
33.7349 525
33.75502 536
33.77513 517
33.79524 535
33.81536 508
33.83547 534
33.85559 553
33.8757 525
33.89581 555
33.91593 562
33.93604 615
33.95615 593
33.97627 591
33.99638 571
34.0165 619
34.03661 648
34.05672 647
34.07684 680
34.09695 675
34.11706 647
34.13718 738
34.15729 722
34.17741 736
34.19752 794
34.21763 734
34.23775 835
34.25786 710
34.27797 723
34.29809 734
34.3182 675
34.33831 682
34.35843 690
34.37854 687
34.39866 730
34.41877 731
34.43888 628
34.459 651
34.47911 712
34.49922 584
34.51934 614
34.53945 606
34.55957 613
34.57968 632
34.59979 647
34.61991 585
34.64002 625
34.66013 637
34.68025 642
34.70036 656
34.72047 661
34.74059 665
34.7607 748
34.78082 708
34.80093 765
34.82104 760
34.84116 759
34.86127 795
34.88138 774
34.9015 737
34.92161 733
34.94173 763
34.96184 736
34.98195 734
35.00207 726
35.02218 699
35.04229 734
35.06241 714
35.08252 651
35.10264 681
35.12275 665
35.14286 687
35.16298 661
35.18309 651
35.2032 642
35.22332 651
35.24343 688
35.26354 681
35.28366 673
35.30377 649
35.32389 677
35.344 614
35.36411 626
35.38423 657
35.40434 657
35.42445 632
35.44457 631
35.46468 652
35.4848 619
35.50491 610
35.52502 584
35.54514 668
35.56525 625
35.58536 640
35.60548 569
35.62559 622
35.64571 575
35.66582 601
35.68593 609
35.70605 631
35.72616 633
35.74627 605
35.76639 620
35.7865 625
35.80661 647
35.82673 626
35.84684 643
35.86696 634
35.88707 617
35.90718 650
35.9273 658
35.94741 615
35.96752 665
35.98764 559
36.00775 659
36.02787 620
36.04798 614
36.06809 606
36.08821 589
36.10832 567
36.12843 574
36.14855 587
36.16866 603
36.18878 551
36.20889 616
36.229 576
36.24912 593
36.26923 590
36.28934 578
36.30946 619
36.32957 621
36.34968 635
36.3698 657
36.38991 690
36.41003 749
36.43014 887
36.45025 820
36.47037 900
36.49048 817
36.51059 912
36.53071 889
36.55082 836
36.57094 782
36.59105 743
36.61116 651
36.63128 726
36.65139 611
36.6715 628
36.69162 652
36.71173 561
36.73184 571
36.75196 608
36.77207 609
36.79219 610
36.8123 578
36.83241 604
36.85253 661
36.87264 677
36.89275 625
36.91287 641
36.93298 690
36.9531 669
36.97321 635
36.99332 599
37.01344 604
37.03355 627
37.05366 637
37.07378 643
37.09389 609
37.11401 623
37.13412 617
37.15423 598
37.17435 589
37.19446 601
37.21457 624
37.23469 613
37.2548 589
37.27491 592
37.29503 616
37.31514 612
37.33526 622
37.35537 654
37.37548 642
37.3956 637
37.41571 615
37.43582 663
37.45594 594
37.47605 619
37.49617 647
37.51628 602
37.53639 595
37.55651 602
37.57662 593
37.59673 602
37.61685 576
37.63696 622
37.65708 608
37.67719 577
37.6973 589
37.71742 572
37.73753 602
37.75764 621
37.77776 586
37.79787 507
37.81798 565
37.8381 547
37.85821 558
37.87833 528
37.89844 527
37.91855 585
37.93867 535
37.95878 551
37.97889 506
37.99901 574
38.01912 525
38.03924 591
38.05935 554
38.07946 583
38.09958 545
38.11969 563
38.1398 556
38.15992 558
38.18003 561
38.20015 568
38.22026 632
38.24037 562
38.26049 613
38.2806 595
38.30071 572
38.32083 576
38.34094 574
38.36105 599
38.38117 635
38.40128 608
38.4214 570
38.44151 556
38.46162 577
38.48174 558
38.50185 577
38.52196 605
38.54208 572
38.56219 604
38.58231 568
38.60242 557
38.62253 549
38.64265 514
38.66276 561
38.68287 567
38.70299 534
38.7231 535
38.74321 511
38.76333 524
38.78344 554
38.80356 527
38.82367 532
38.84378 540
38.8639 547
38.88401 525
38.90412 540
38.92424 550
38.94435 542
38.96447 555
38.98458 506
39.00469 555
39.02481 545
39.04492 583
39.06503 570
39.08515 602
39.10526 593
39.12538 632
39.14549 598
39.1656 587
39.18572 594
39.20583 616
39.22594 646
39.24606 619
39.26617 589
39.28628 633
39.3064 687
39.32651 734
39.34663 712
39.36674 755
39.38685 804
39.40697 808
39.42708 785
39.44719 795
39.46731 747
39.48742 789
39.50754 702
39.52765 621
39.54776 605
39.56788 597
39.58799 573
39.6081 493
39.62822 562
39.64833 515
39.66845 531
39.68856 494
39.70867 511
39.72879 480
39.7489 512
39.76901 525
39.78913 506
39.80924 494
39.82935 526
39.84947 544
39.86958 536
39.8897 544
39.90981 499
39.92992 520
39.95004 477
39.97015 510
39.99026 500
40.01038 505
40.03049 514
40.05061 557
40.07072 562
40.09083 544
40.11095 521
40.13106 604
40.15117 627
40.17129 609
40.1914 601
40.21152 641
40.23163 586
40.25174 640
40.27186 640
40.29197 606
40.31208 573
40.3322 538
40.35231 558
40.37242 549
40.39254 519
40.41265 477
40.43277 523
40.45288 473
40.47299 477
40.49311 482
40.51322 518
40.53333 492
40.55345 511
40.57356 474
40.59368 460
40.61379 489
40.6339 504
40.65402 433
40.67413 499
40.69424 465
40.71436 443
40.73447 481
40.75458 515
40.7747 477
40.79481 472
40.81493 509
40.83504 496
40.85515 493
40.87527 484
40.89538 478
40.91549 479
40.93561 518
40.95572 470
40.97584 506
40.99595 515
41.01606 480
41.03618 458
41.05629 505
41.0764 452
41.09652 511
41.11663 503
41.13675 514
41.15686 501
41.17697 465
41.19709 473
41.2172 489
41.23731 513
41.25743 501
41.27754 474
41.29765 484
41.31777 511
41.33788 483
41.358 444
41.37811 489
41.39822 463
41.41834 522
41.43845 498
41.45856 522
41.47868 530
41.49879 519
41.51891 525
41.53902 519
41.55913 513
41.57925 520
41.59936 567
41.61947 533
41.63959 583
41.6597 533
41.67982 586
41.69993 570
41.72004 550
41.74016 579
41.76027 600
41.78038 552
41.8005 509
41.82061 557
41.84072 485
41.86084 474
41.88095 460
41.90107 499
41.92118 479
41.94129 492
41.96141 413
41.98152 478
42.00163 467
42.02175 511
42.04186 444
42.06198 473
42.08209 487
42.1022 503
42.12232 511
42.14243 474
42.16254 499
42.18266 492
42.20277 517
42.22289 524
42.243 535
42.26311 591
42.28323 603
42.30334 593
42.32345 597
42.34357 563
42.36368 708
42.38379 719
42.40391 698
42.42402 666
42.44414 637
42.46425 581
42.48436 550
42.50448 553
42.52459 595
42.5447 525
42.56482 501
42.58493 517
42.60505 485
42.62516 457
42.64527 490
42.66539 494
42.6855 521
42.70561 443
42.72573 461
42.74584 479
42.76595 444
42.78607 480
42.80618 484
42.8263 461
42.84641 489
42.86652 514
42.88664 442
42.90675 452
42.92686 450
42.94698 454
42.96709 445
42.98721 469
43.00732 402
43.02743 396
43.04755 431
43.06766 401
43.08777 418
43.10789 419
43.128 402
43.14812 398
43.16823 390
43.18834 429
43.20846 420
43.22857 428
43.24868 446
43.2688 358
43.28891 435
43.30902 420
43.32914 410
43.34925 428
43.36937 420
43.38948 414
43.40959 385
43.42971 436
43.44982 447
43.46993 440
43.49005 429
43.51016 417
43.53028 431
43.55039 429
43.5705 418
43.59062 400
43.61073 440
43.63084 420
43.65096 423
43.67107 431
43.69119 446
43.7113 405
43.73141 454
43.75153 416
43.77164 423
43.79175 421
43.81187 405
43.83198 436
43.85209 437
43.87221 403
43.89232 428
43.91244 431
43.93255 443
43.95266 431
43.97278 438
43.99289 439
44.013 423
44.03312 431
44.05323 419
44.07335 404
44.09346 427
44.11357 440
44.13369 444
44.1538 428
44.17391 477
44.19403 445
44.21414 410
44.23426 442
44.25437 448
44.27448 410
44.2946 417
44.31471 436
44.33482 401
44.35494 454
44.37505 449
44.39516 418
44.41528 417
44.43539 426
44.45551 403
44.47562 431
44.49573 430
44.51585 425
44.53596 451
44.55607 404
44.57619 464
44.5963 473
44.61642 383
44.63653 426
44.65664 433
44.67676 446
44.69687 429
44.71698 406
44.7371 479
44.75721 438
44.77732 475
44.79744 504
44.81755 478
44.83767 485
44.85778 488
44.87789 446
44.89801 463
44.91812 448
44.93823 448
44.95835 487
44.97846 484
44.99858 455
45.01869 464
45.0388 498
45.05892 452
45.07903 476
45.09914 500
45.11926 449
45.13937 493
45.15949 490
45.1796 459
45.19971 469
45.21983 447
45.23994 480
45.26005 510
45.28017 463
45.30028 502
45.32039 517
45.34051 532
45.36062 510
45.38074 503
45.40085 500
45.42096 504
45.44108 501
45.46119 525
45.4813 547
45.50142 524
45.52153 518
45.54165 509
45.56176 521
45.58187 532
45.60199 523
45.6221 542
45.64221 530
45.66233 577
45.68244 570
45.70256 619
45.72267 584
45.74278 643
45.7629 612
45.78301 565
45.80312 587
45.82324 517
45.84335 529
45.86346 575
45.88358 523
45.90369 501
45.92381 490
45.94392 474
45.96403 449
45.98415 497
46.00426 434
46.02437 464
46.04449 450
46.0646 470
46.08472 426
46.10483 437
46.12494 404
46.14506 459
46.16517 457
46.18528 447
46.2054 433
46.22551 448
46.24563 428
46.26574 432
46.28585 407
46.30597 436
46.32608 441
46.34619 478
46.36631 420
46.38642 451
46.40653 423
46.42665 423
46.44676 452
46.46688 417
46.48699 420
46.5071 406
46.52722 398
46.54733 468
46.56744 366
46.58756 456
46.60767 420
46.62779 478
46.6479 414
46.66801 434
46.68813 445
46.70824 425
46.72835 402
46.74847 400
46.76858 437
46.78869 426
46.80881 439
46.82892 395
46.84904 427
46.86915 422
46.88926 437
46.90938 437
46.92949 415
46.9496 436
46.96972 433
46.98983 425
47.00995 470
47.03006 449
47.05017 422
47.07029 419
47.0904 452
47.11051 469
47.13063 443
47.15074 437
47.17086 438
47.19097 418
47.21108 392
47.2312 401
47.25131 450
47.27142 433
47.29154 452
47.31165 457
47.33176 447
47.35188 443
47.37199 408
47.39211 416
47.41222 438
47.43233 447
47.45245 437
47.47256 466
47.49267 435
47.51279 456
47.5329 471
47.55302 467
47.57313 450
47.59324 455
47.61336 440
47.63347 429
47.65358 403
47.6737 420
47.69381 429
47.71393 416
47.73404 445
47.75415 425
47.77427 430
47.79438 414
47.81449 424
47.83461 422
47.85472 419
47.87483 380
47.89495 428
47.91506 412
47.93518 454
47.95529 435
47.9754 427
47.99552 439
48.01563 425
48.03574 401
48.05586 385
48.07597 419
48.09609 425
48.1162 401
48.13631 400
48.15643 438
48.17654 415
48.19665 477
48.21677 433
48.23688 447
48.257 436
48.27711 419
48.29722 444
48.31734 429
48.33745 447
48.35756 444
48.37768 413
48.39779 402
48.4179 443
48.43802 413
48.45813 402
48.47825 455
48.49836 414
48.51847 429
48.53859 422
48.5587 444
48.57881 412
48.59893 441
48.61904 472
48.63916 405
48.65927 444
48.67938 419
48.6995 378
48.71961 444
48.73972 444
48.75984 419
48.77995 428
48.80006 437
48.82018 434
48.84029 403
48.86041 439
48.88052 435
48.90063 417
48.92075 417
48.94086 410
48.96097 436
48.98109 441
49.0012 396
49.02132 427
49.04143 418
49.06154 451
49.08166 474
49.10177 435
49.12188 458
49.142 424
49.16211 428
49.18223 443
49.20234 432
49.22245 448
49.24257 423
49.26268 435
49.28279 423
49.30291 429
49.32302 412
49.34313 383
49.36325 456
49.38336 455
49.40348 396
49.42359 424
49.4437 432
49.46382 424
49.48393 413
49.50404 372
49.52416 407
49.54427 398
49.56439 408
49.5845 415
49.60461 450
49.62473 445
49.64484 485
49.66495 464
49.68507 474
49.70518 452
49.7253 479
49.74541 440
49.76552 484
49.78564 517
49.80575 481
49.82586 547
49.84598 538
49.86609 530
49.8862 574
49.90632 636
49.92643 600
49.94655 701
49.96666 734
49.98677 806
50.00689 744
50.027 843
50.04711 910
50.06723 986
50.08734 928
50.10746 902
50.12757 898
50.14768 766
50.1678 669
50.18791 673
50.20802 654
50.22814 609
50.24825 616
50.26837 581
50.28848 514
50.30859 485
50.32871 477
50.34882 462
50.36893 450
50.38905 485
50.40916 475
50.42927 484
50.44939 443
50.4695 462
50.48962 503
50.50973 472
50.52984 454
50.54996 486
50.57007 521
50.59018 494
50.6103 464
50.63041 510
50.65053 474
50.67064 506
50.69075 455
50.71087 454
50.73098 434
50.75109 486
50.77121 445
50.79132 437
50.81143 440
50.83155 405
50.85166 414
50.87178 448
50.89189 417
50.912 401
50.93212 409
50.95223 457
50.97234 396
50.99246 429
51.01257 433
51.03269 426
51.0528 415
51.07291 397
51.09303 394
51.11314 437
51.13325 417
51.15337 431
51.17348 454
51.1936 442
51.21371 434
51.23382 390
51.25394 439
51.27405 418
51.29416 461
51.31428 419
51.33439 399
51.3545 439
51.37462 429
51.39473 419
51.41485 397
51.43496 443
51.45507 432
51.47519 439
51.4953 406
51.51541 387
51.53553 373
51.55564 405
51.57576 413
51.59587 401
51.61598 352
51.6361 396
51.65621 397
51.67632 372
51.69644 397
51.71655 415
51.73667 430
51.75678 380
51.77689 353
51.79701 377
51.81712 401
51.83723 388
51.85735 410
51.87746 368
51.89757 401
51.91769 399
51.9378 438
51.95792 402
51.97803 391
51.99814 424
52.01826 406
52.03837 427
52.05848 414
52.0786 392
52.09871 380
52.11883 415
52.13894 389
52.15905 380
52.17917 396
52.19928 400
52.21939 391
52.23951 414
52.25962 392
52.27974 417
52.29985 399
52.31996 447
52.34008 411
52.36019 410
52.3803 417
52.40042 404
52.42053 399
52.44064 398
52.46076 426
52.48087 434
52.50099 393
52.5211 395
52.54121 430
52.56133 417
52.58144 423
52.60155 441
52.62167 431
52.64178 429
52.6619 457
52.68201 417
52.70212 404
52.72224 415
52.74235 431
52.76246 428
52.78258 447
52.80269 425
52.8228 400
52.84292 438
52.86303 450
52.88315 414
52.90326 452
52.92337 443
52.94349 430
52.9636 456
52.98371 434
53.00383 439
53.02394 440
53.04406 436
53.06417 438
53.08428 440
53.1044 428
53.12451 403
53.14462 424
53.16474 432
53.18485 453
53.20497 462
53.22508 441
53.24519 450
53.26531 427
53.28542 427
53.30553 428
53.32565 449
53.34576 429
53.36587 406
53.38599 441
53.4061 488
53.42622 441
53.44633 427
53.46644 425
53.48656 416
53.50667 423
53.52678 415
53.5469 440
53.56701 424
53.58713 442
53.60724 427
53.62735 445
53.64747 473
53.66758 440
53.68769 442
53.70781 456
53.72792 435
53.74804 489
53.76815 415
53.78826 433
53.80838 443
53.82849 429
53.8486 469
53.86872 460
53.88883 491
53.90894 486
53.92906 454
53.94917 432
53.96929 447
53.9894 466
54.00951 450
54.02963 479
54.04974 460
54.06985 444
54.08997 461
54.11008 499
54.1302 520
54.15031 449
54.17042 456
54.19054 482
54.21065 453
54.23076 483
54.25088 489
54.27099 490
54.29111 495
54.31122 463
54.33133 528
54.35145 497
54.37156 483
54.39167 502
54.41179 476
54.4319 498
54.45201 532
54.47213 501
54.49224 498
54.51236 514
54.53247 513
54.55258 555
54.5727 559
54.59281 544
54.61292 577
54.63304 571
54.65315 597
54.67327 546
54.69338 602
54.71349 636
54.73361 602
54.75372 617
54.77383 670
54.79395 711
54.81406 666
54.83417 693
54.85429 659
54.8744 610
54.89452 603
54.91463 577
54.93474 634
54.95486 577
54.97497 608
54.99508 547
55.0152 586
55.03531 584
55.05543 575
55.07554 548
55.09565 579
55.11577 576
55.13588 562
55.15599 533
55.17611 581
55.19622 585
55.21634 540
55.23645 611
55.25656 570
55.27668 575
55.29679 544
55.3169 552
55.33702 528
55.35713 517
55.37724 501
55.39736 503
55.41747 534
55.43759 515
55.4577 532
55.47781 495
55.49793 524
55.51804 491
55.53815 514
55.55827 501
55.57838 504
55.5985 509
55.61861 512
55.63872 482
55.65884 462
55.67895 467
55.69906 522
55.71918 501
55.73929 470
55.75941 504
55.77952 510
55.79963 501
55.81975 461
55.83986 494
55.85997 474
55.88009 461
55.9002 495
55.92031 485
55.94043 491
55.96054 469
55.98066 439
56.00077 464
56.02088 484
56.041 477
56.06111 427
56.08122 450
56.10134 466
56.12145 443
56.14157 470
56.16168 482
56.18179 444
56.20191 456
56.22202 451
56.24213 481
56.26225 466
56.28236 448
56.30248 417
56.32259 469
56.3427 467
56.36282 466
56.38293 449
56.40304 484
56.42316 458
56.44327 455
56.46338 444
56.4835 438
56.50361 504
56.52373 462
56.54384 460
56.56395 497
56.58407 448
56.60418 446
56.62429 491
56.64441 472
56.66452 439
56.68464 449
56.70475 470
56.72486 408
56.74498 409
56.76509 438
56.7852 479
56.80532 423
56.82543 411
56.84554 413
56.86566 440
56.88577 413
56.90589 406
56.926 460
56.94611 416
56.96623 444
56.98634 430
57.00645 422
57.02657 422
57.04668 432
57.0668 449
57.08691 436
57.10702 414
57.12714 429
57.14725 442
57.16736 407
57.18748 408
57.20759 431
57.22771 422
57.24782 406
57.26793 426
57.28805 441
57.30816 436
57.32827 403
57.34839 390
57.3685 414
57.38861 470
57.40873 419
57.42884 438
57.44896 433
57.46907 446
57.48918 438
57.5093 432
57.52941 416
57.54952 403
57.56964 448
57.58975 412
57.60987 429
57.62998 430
57.65009 383
57.67021 391
57.69032 440
57.71043 415
57.73055 394
57.75066 426
57.77078 409
57.79089 405
57.811 430
57.83112 449
57.85123 398
57.87134 415
57.89146 396
57.91157 406
57.93168 414
57.9518 423
57.97191 417
57.99203 405
58.01214 433
58.03225 415
58.05237 411
58.07248 412
58.09259 427
58.11271 413
58.13282 381
58.15294 416
58.17305 421
58.19316 396
58.21328 435
58.23339 422
58.2535 437
58.27362 451
58.29373 450
58.31385 388
58.33396 404
58.35407 414
58.37419 418
58.3943 409
58.41441 428
58.43453 411
58.45464 414
58.47475 422
58.49487 437
58.51498 424
58.5351 454
58.55521 405
58.57532 433
58.59544 406
58.61555 415
58.63566 460
58.65578 427
58.67589 415
58.69601 410
58.71612 415
58.73623 398
58.75635 445
58.77646 396
58.79657 405
58.81669 410
58.8368 426
58.85691 377
58.87703 378
58.89714 415
58.91726 418
58.93737 411
58.95748 395
58.9776 402
58.99771 422
59.01782 427
59.03794 378
59.05805 450
59.07817 409
59.09828 410
59.11839 441
59.13851 387
59.15862 395
59.17873 413
59.19885 381
59.21896 437
59.23908 451
59.25919 417
59.2793 424
59.29942 436
59.31953 426
59.33964 429
59.35976 429
59.37987 457
59.39998 447
59.4201 409
59.44021 419
59.46033 442
59.48044 431
59.50055 429
59.52067 467
59.54078 449
59.56089 462
59.58101 473
59.60112 486
59.62124 479
59.64135 527
59.66146 454
59.68158 481
59.70169 530
59.7218 535
59.74192 593
59.76203 586
59.78215 670
59.80226 654
59.82237 705
59.84249 760
59.8626 817
59.88271 797
59.90283 772
59.92294 727
59.94305 678
59.96317 698
59.98328 670
60.0034 611
60.02351 651
60.04362 663
60.06374 708
60.08385 653
60.10396 635
60.12408 601
60.14419 567
60.16431 568
60.18442 588
60.20453 627
60.22465 531
60.24476 591
60.26487 561
60.28499 555
60.3051 539
60.32522 538
60.34533 544
60.36544 573
60.38556 522
60.40567 514
60.42578 485
60.4459 517
60.46601 476
60.48612 505
60.50624 499
60.52635 495
60.54647 473
60.56658 434
60.58669 472
60.60681 465
60.62692 483
60.64703 454
60.66715 449
60.68726 479
60.70738 447
60.72749 444
60.7476 467
60.76772 455
60.78783 430
60.80794 446
60.82806 443
60.84817 434
60.86828 472
60.8884 441
60.90851 435
60.92863 478
60.94874 459
60.96885 421
60.98897 413
61.00908 462
61.02919 455
61.04931 445
61.06942 488
61.08954 454
61.10965 424
61.12976 433
61.14988 441
61.16999 445
61.1901 465
61.21022 446
61.23033 457
61.25045 436
61.27056 476
61.29067 434
61.31079 467
61.3309 430
61.35101 432
61.37113 417
61.39124 431
61.41135 456
61.43147 496
61.45158 410
61.4717 461
61.49181 426
61.51192 452
61.53204 429
61.55215 449
61.57226 455
61.59238 463
61.61249 457
61.63261 443
61.65272 466
61.67283 458
61.69295 463
61.71306 476
61.73317 461
61.75329 465
61.7734 413
61.79352 495
61.81363 462
61.83374 444
61.85386 470
61.87397 485
61.89408 509
61.9142 501
61.93431 474
61.95442 471
61.97454 495
61.99465 513
62.01477 522
62.03488 532
62.05499 527
62.07511 522
62.09522 513
62.11533 476
62.13545 516
62.15556 505
62.17568 513
62.19579 522
62.2159 543
62.23602 525
62.25613 505
62.27624 519
62.29636 466
62.31647 519
62.33659 496
62.3567 483
62.37681 492
62.39693 486
62.41704 478
62.43715 491
62.45727 479
62.47738 455
62.49749 459
62.51761 477
62.53772 454
62.55784 447
62.57795 446
62.59806 425
62.61818 458
62.63829 409
62.6584 403
62.67852 438
62.69863 454
62.71875 422
62.73886 420
62.75897 414
62.77909 414
62.7992 414
62.81931 433
62.83943 402
62.85954 387
62.87965 444
62.89977 407
62.91988 430
62.94 431
62.96011 445
62.98022 465
63.00034 433
63.02045 386
63.04056 410
63.06068 453
63.08079 412
63.10091 426
63.12102 409
63.14113 434
63.16125 409
63.18136 423
63.20147 412
63.22159 451
63.2417 424
63.26182 411
63.28193 429
63.30204 424
63.32216 425
63.34227 483
63.36238 408
63.3825 431
63.40261 410
63.42272 455
63.44284 432
63.46295 457
63.48307 444
63.50318 446
63.52329 429
63.54341 412
63.56352 409
63.58363 453
63.60375 472
63.62386 445
63.64398 489
63.66409 422
63.6842 468
63.70432 447
63.72443 500
63.74454 477
63.76466 463
63.78477 483
63.80489 490
63.825 435
63.84511 494
63.86523 507
63.88534 523
63.90545 443
63.92557 480
63.94568 532
63.96579 500
63.98591 540
64.00602 522
64.02614 496
64.04625 454
64.06636 487
64.08648 428
64.10659 462
64.1267 460
64.14682 442
64.16693 463
64.18705 434
64.20716 391
64.22727 432
64.24739 457
64.2675 386
64.28761 391
64.30773 398
64.32784 409
64.34796 386
64.36807 371
64.38818 410
64.4083 440
64.42841 400
64.44852 375
64.46864 411
64.48875 427
64.50886 385
64.52898 422
64.54909 417
64.56921 386
64.58932 405
64.60943 407
64.62955 428
64.64966 447
64.66977 412
64.68989 443
64.71 391
64.73012 416
64.75023 430
64.77034 379
64.79046 432
64.81057 410
64.83068 421
64.8508 425
64.87091 418
64.89102 380
64.91114 363
64.93125 407
64.95137 388
64.97148 403
64.99159 403
65.01171 427
65.03182 415
65.05193 407
65.07205 414
65.09216 388
65.11228 400
65.13239 409
65.1525 407
65.17262 427
65.19273 381
65.21284 415
65.23296 437
65.25307 389
65.27319 389
65.2933 365
65.31341 398
65.33353 394
65.35364 397
65.37375 417
65.39387 416
65.41398 391
65.43409 406
65.45421 413
65.47432 422
65.49444 386
65.51455 388
65.53466 388
65.55478 393
65.57489 353
65.595 387
65.61512 388
65.63523 413
65.65535 402
65.67546 411
65.69557 405
65.71569 412
65.7358 385
65.75591 391
65.77603 388
65.79614 398
65.81626 400
65.83637 375
65.85648 381
65.8766 390
65.89671 357
65.91682 410
65.93694 396
65.95705 385
65.97716 362
65.99728 442
66.01739 370
66.03751 397
66.05762 379
66.07773 425
66.09785 372
66.11796 367
66.13807 409
66.15819 413
66.1783 415
66.19842 392
66.21853 418
66.23864 428
66.25876 404
66.27887 400
66.29898 402
66.3191 425
66.33921 460
66.35933 402
66.37944 405
66.39955 412
66.41967 416
66.43978 423
66.45989 410
66.48001 400
66.50012 401
66.52023 399
66.54035 377
66.56046 368
66.58058 372
66.60069 415
66.6208 402
66.64092 412
66.66103 406
66.68114 382
66.70126 401
66.72137 383
66.74149 423
66.7616 377
66.78171 389
66.80183 400
66.82194 408
66.84205 389
66.86217 415
66.88228 395
66.90239 384
66.92251 408
66.94262 439
66.96274 409
66.98285 397
67.00296 465
67.02308 399
67.04319 429
67.0633 440
67.08342 435
67.10353 424
67.12365 407
67.14376 404
67.16387 390
67.18399 425
67.2041 404
67.22421 426
67.24433 422
67.26444 403
67.28456 424
67.30467 399
67.32478 375
67.3449 404
67.36501 421
67.38512 453
67.40524 441
67.42535 427
67.44546 454
67.46558 451
67.48569 448
67.50581 479
67.52592 497
67.54603 473
67.56615 505
67.58626 513
67.60637 535
67.62649 569
67.6466 575
67.66672 570
67.68683 619
67.70694 567
67.72706 568
67.74717 548
67.76728 542
67.7874 545
67.80751 519
67.82763 532
67.84774 595
67.86785 566
67.88797 548
67.90808 578
67.92819 570
67.94831 587
67.96842 559
67.98853 619
68.00865 592
68.02876 654
68.04888 636
68.06899 692
68.0891 709
68.10922 685
68.12933 668
68.14944 635
68.16956 612
68.18967 652
68.20979 667
68.2299 677
68.25001 653
68.27013 636
68.29024 621
68.31035 616
68.33047 540
68.35058 573
68.3707 487
68.39081 497
68.41092 468
68.43104 473
68.45115 427
68.47126 425
68.49138 486
68.51149 470
68.5316 408
68.55172 426
68.57183 416
68.59195 423
68.61206 403
68.63217 432
68.65229 421
68.6724 381
68.69251 384
68.71263 435
68.73274 401
68.75286 425
68.77297 376
68.79308 405
68.8132 427
68.83331 392
68.85342 390
68.87354 411
68.89365 365
68.91376 377
68.93388 411
68.95399 399
68.97411 424
68.99422 392
69.01433 394
69.03445 396
69.05456 387
69.07467 427
69.09479 421
69.1149 414
69.13502 408
69.15513 439
69.17524 402
69.19536 416
69.21547 376
69.23558 391
69.2557 407
69.27581 417
69.29593 439
69.31604 415
69.33615 408
69.35627 466
69.37638 435
69.39649 400
69.41661 422
69.43672 436
69.45683 421
69.47695 404
69.49706 422
69.51718 402
69.53729 408
69.5574 406
69.57752 422
69.59763 391
69.61774 413
69.63786 397
69.65797 395
69.67809 373
69.6982 412
69.71831 422
69.73843 417
69.75854 399
69.77865 412
69.79877 400
69.81888 422
69.839 357
69.85911 417
69.87922 395
69.89934 409
69.91945 400
69.93956 417
69.95968 379
69.97979 420
69.9999 385
70.02002 385
70.04013 375
70.06025 422
70.08036 362
70.10047 385
70.12059 401
70.1407 399
70.16081 406
70.18093 398
70.20104 389
70.22116 405
70.24127 379
70.26138 379
70.2815 368
70.30161 364
70.32172 343
70.34184 380
70.36195 448
70.38207 391
70.40218 393
70.42229 373
70.44241 385
70.46252 370
70.48263 395
70.50275 380
70.52286 381
70.54297 385
70.56309 388
70.5832 365
70.60332 379
70.62343 385
70.64354 401
70.66366 402
70.68377 377
70.70388 401
70.724 364
70.74411 397
70.76423 399
70.78434 403
70.80445 396
70.82457 384
70.84468 369
70.86479 389
70.88491 414
70.90502 404
70.92513 388
70.94525 389
70.96536 411
70.98548 413
71.00559 386
71.0257 414
71.04582 420
71.06593 404
71.08604 422
71.10616 429
71.12627 429
71.14639 408
71.1665 419
71.18661 383
71.20673 402
71.22684 403
71.24695 393
71.26707 350
71.28718 445
71.3073 413
71.32741 405
71.34752 417
71.36764 399
71.38775 403
71.40786 437
71.42798 400
71.44809 444
71.4682 346
71.48832 378
71.50843 411
71.52855 391
71.54866 406
71.56877 360
71.58889 408
71.609 432
71.62911 411
71.64923 379
71.66934 430
71.68946 400
71.70957 397
71.72968 381
71.7498 411
71.76991 399
71.79002 404
71.81014 394
71.83025 386
71.85037 398
71.87048 354
71.89059 418
71.91071 379
71.93082 389
71.95093 391
71.97105 355
71.99116 390
72.01127 394
72.03139 411
72.0515 402
72.07162 414
72.09173 429
72.11184 416
72.13196 413
72.15207 406
72.17218 345
72.1923 380
72.21241 388
72.23253 382
72.25264 409
72.27275 435
72.29287 436
72.31298 454
72.33309 360
72.35321 403
72.37332 396
72.39344 413
72.41355 429
72.43366 422
72.45378 430
72.47389 399
72.494 416
72.51412 437
72.53423 414
72.55434 393
72.57446 391
72.59457 416
72.61469 369
72.6348 408
72.65491 418
72.67503 417
72.69514 423
72.71525 406
72.73537 413
72.75548 430
72.7756 425
72.79571 418
72.81582 415
72.83594 403
72.85605 442
72.87616 443
72.89628 409
72.91639 440
72.9365 424
72.95662 356
72.97673 422
72.99685 415
73.01696 423
73.03707 417
73.05719 399
73.0773 413
73.09741 406
73.11753 451
73.13764 423
73.15776 394
73.17787 452
73.19798 441
73.2181 406
73.23821 447
73.25832 450
73.27844 428
73.29855 464
73.31867 440
73.33878 474
73.35889 470
73.37901 497
73.39912 478
73.41923 480
73.43935 515
73.45946 437
73.47957 433
73.49969 442
73.5198 452
73.53992 427
73.56003 411
73.58014 472
73.60026 432
73.62037 464
73.64048 415
73.6606 446
73.68071 404
73.70083 421
73.72094 427
73.74105 442
73.76117 395
73.78128 402
73.80139 350
73.82151 380
73.84162 411
73.86174 359
73.88185 402
73.90196 378
73.92208 407
73.94219 399
73.9623 406
73.98242 400
74.00253 407
74.02264 374
74.04276 385
74.06287 380
74.08299 382
74.1031 363
74.12321 401
74.14333 415
74.16344 391
74.18355 374
74.20367 403
74.22378 374
74.2439 422
74.26401 349
74.28412 407
74.30424 383
74.32435 406
74.34446 372
74.36458 414
74.38469 412
74.40481 406
74.42492 402
74.44503 402
74.46515 403
74.48526 405
74.50537 385
74.52549 390
74.5456 391
74.56571 415
74.58583 408
74.60594 404
74.62606 369
74.64617 422
74.66628 412
74.6864 430
74.70651 391
74.72662 378
74.74674 367
74.76685 424
74.78697 377
74.80708 399
74.82719 361
74.84731 404
74.86742 380
74.88753 389
74.90765 382
74.92776 392
74.94787 390
74.96799 402
74.9881 430
75.00822 392
