3.00117 21729
3.02128 21274
3.0414 20341
3.06151 20276
3.08162 19288
3.10174 19037
3.12185 18658
3.14197 17692
3.16208 17488
3.18219 17009
3.20231 16578
3.22242 16174
3.24253 15452
3.26265 15406
3.28276 14745
3.30288 14282
3.32299 14045
3.3431 13304
3.36322 13202
3.38333 12564
3.40344 12082
3.42356 12053
3.44367 11396
3.46379 11090
3.4839 10882
3.50401 10418
3.52413 10219
3.54424 9646
3.56435 9558
3.58447 9081
3.60458 8826
3.62469 8655
3.64481 8138
3.66492 8057
3.68504 7841
3.70515 7127
3.72526 7262
3.74538 6819
3.76549 6588
3.7856 6544
3.80572 6235
3.82583 5931
3.84595 5740
3.86606 5584
3.88617 5401
3.90629 5062
3.9264 5017
3.94651 4885
3.96663 4576
3.98674 4438
4.00686 4215
4.02697 4201
4.04708 3814
4.0672 3908
4.08731 3865
4.10742 3492
4.12754 3572
4.14765 3355
4.16776 3328
4.18788 3274
4.20799 2937
4.22811 2923
4.24822 2899
4.26833 2815
4.28845 2865
4.30856 2564
4.32867 2614
4.34879 2536
4.3689 2535
4.38902 2558
4.40913 2292
4.42924 2389
4.44936 2325
4.46947 2366
4.48958 2328
4.5097 2175
4.52981 2149
4.54992 2248
4.57004 2110
4.59015 2106
4.61027 2007
4.63038 2072
4.65049 1970
4.67061 2037
4.69072 2057
4.71083 1944
4.73095 1934
4.75106 2028
4.77118 1983
4.79129 1918
4.8114 1827
4.83152 1839
4.85163 1857
4.87174 1811
4.89186 1927
4.91197 1766
4.93209 1829
4.9522 1822
4.97231 1835
4.99243 1872
5.01254 1759
5.03265 1775
5.05277 1830
5.07288 1764
5.09299 1713
5.11311 1756
5.13322 1733
5.15334 1756
5.17345 1789
5.19356 1810
5.21368 1817
5.23379 1718
5.2539 1850
5.27402 1842
5.29413 1819
5.31425 1729
5.33436 1705
5.35447 1775
5.37459 1796
5.3947 1756
5.41481 1817
5.43493 1795
5.45504 1843
5.47516 1858
5.49527 1865
5.51538 1788
5.5355 1840
5.55561 1941
5.57572 1944
5.59584 1904
5.61595 1983
5.63606 1944
5.65618 1924
5.67629 2003
5.69641 1973
5.71652 2050
5.73663 1956
5.75675 2044
5.77686 2049
5.79697 2035
5.81709 1954
5.8372 1969
5.85732 1945
5.87743 2005
5.89754 1907
5.91766 1929
5.93777 1948
5.95788 1942
5.978 1869
5.99811 1850
6.01823 1873
6.03834 1876
6.05845 1865
6.07857 1726
6.09868 1739
6.11879 1728
6.13891 1696
6.15902 1705
6.17913 1595
6.19925 1605
6.21936 1588
6.23948 1476
6.25959 1427
6.2797 1425
6.29982 1416
6.31993 1391
6.34004 1331
6.36016 1305
6.38027 1289
6.40039 1282
6.4205 1229
6.44061 1233
6.46073 1277
6.48084 1150
6.50095 1100
6.52107 1229
6.54118 1155
6.56129 1119
6.58141 1104
6.60152 1099
6.62164 1105
6.64175 1068
6.66186 1119
6.68198 1090
6.70209 1013
6.7222 1072
6.74232 980
6.76243 1031
6.78255 946
6.80266 954
6.82277 986
6.84289 934
6.863 892
6.88311 915
6.90323 912
6.92334 931
6.94346 923
6.96357 915
6.98368 886
7.0038 816
7.02391 896
7.04402 849
7.06414 845
7.08425 882
7.10436 873
7.12448 785
7.14459 857
7.16471 851
7.18482 826
7.20493 870
7.22505 841
7.24516 803
7.26527 832
7.28539 781
7.3055 789
7.32562 860
7.34573 790
7.36584 791
7.38596 764
7.40607 747
7.42618 774
7.4463 745
7.46641 775
7.48653 731
7.50664 751
7.52675 692
7.54687 755
7.56698 761
7.58709 741
7.60721 661
7.62732 734
7.64743 722
7.66755 731
7.68766 694
7.70778 684
7.72789 695
7.748 684
7.76812 617
7.78823 697
7.80834 645
7.82846 653
7.84857 689
7.86869 673
7.8888 713
7.90891 657
7.92903 638
7.94914 706
7.96925 707
7.98937 661
8.00948 626
8.0296 612
8.04971 625
8.06982 608
8.08994 601
8.11005 633
8.13016 633
8.15028 634
8.17039 645
8.1905 636
8.21062 605
8.23073 643
8.25085 630
8.27096 670
8.29107 679
8.31119 643
8.3313 639
8.35141 600
8.37153 604
8.39164 654
8.41176 625
8.43187 648
8.45198 632
8.4721 617
8.49221 653
8.51232 602
8.53244 664
8.55255 667
8.57266 619
8.59278 652
8.61289 628
8.63301 583
8.65312 594
8.67323 630
8.69335 598
8.71346 579
8.73357 608
8.75369 608
8.7738 607
8.79392 573
8.81403 575
8.83414 557
8.85426 598
8.87437 643
8.89448 582
8.9146 633
8.93471 597
8.95483 555
8.97494 609
8.99505 552
9.01517 601
9.03528 636
9.05539 603
9.07551 585
9.09562 582
9.11573 599
9.13585 537
9.15596 562
9.17608 581
9.19619 529
9.2163 575
9.23642 618
9.25653 604
9.27664 570
9.29676 565
9.31687 604
9.33699 583
9.3571 544
9.37721 576
9.39733 563
9.41744 557
9.43755 621
9.45767 567
9.47778 577
9.4979 578
9.51801 546
9.53812 573
9.55824 606
9.57835 540
9.59846 528
9.61858 577
9.63869 567
9.6588 577
9.67892 579
9.69903 573
9.71915 559
9.73926 572
9.75937 562
9.77949 561
9.7996 522
9.81971 560
9.83983 642
9.85994 577
9.88006 594
9.90017 558
9.92028 554
9.9404 548
9.96051 533
9.98062 537
10.00074 556
10.02085 554
10.04097 556
10.06108 548
10.08119 568
10.10131 566
10.12142 514
10.14153 577
10.16165 552
10.18176 554
10.20187 530
10.22199 543
10.2421 534
10.26222 488
10.28233 562
10.30244 571
10.32256 565
10.34267 566
10.36278 534
10.3829 544
10.40301 532
10.42313 490
10.44324 588
10.46335 498
10.48347 545
10.50358 553
10.52369 559
10.54381 492
10.56392 556
10.58403 577
10.60415 586
10.62426 555
10.64438 577
10.66449 563
10.6846 572
10.70472 550
10.72483 507
10.74494 577
10.76506 538
10.78517 561
10.80529 556
10.8254 511
10.84551 617
10.86563 558
10.88574 534
10.90585 513
10.92597 538
10.94608 540
10.9662 570
10.98631 556
11.00642 560
11.02654 529
11.04665 529
11.06676 565
11.08688 530
11.10699 558
11.1271 573
11.14722 571
11.16733 573
11.18745 532
11.20756 544
11.22767 557
11.24779 579
11.2679 523
11.28801 543
11.30813 568
11.32824 556
11.34836 589
11.36847 535
11.38858 559
11.4087 585
11.42881 537
11.44892 563
11.46904 556
11.48915 565
11.50927 548
11.52938 591
11.54949 546
11.56961 568
11.58972 575
11.60983 574
11.62995 563
11.65006 612
11.67017 604
11.69029 574
11.7104 548
11.73052 622
11.75063 610
11.77074 588
11.79086 580
11.81097 562
11.83108 577
11.8512 545
11.87131 562
11.89143 559
11.91154 537
11.93165 587
11.95177 577
11.97188 606
11.99199 578
12.01211 556
12.03222 616
12.05234 585
12.07245 592
12.09256 566
12.11268 567
12.13279 599
12.1529 593
12.17302 574
12.19313 618
12.21324 583
12.23336 531
12.25347 567
12.27359 564
12.2937 605
12.31381 652
12.33393 622
12.35404 622
12.37415 536
12.39427 612
12.41438 566
12.4345 599
12.45461 559
12.47472 553
12.49484 531
12.51495 576
12.53506 522
12.55518 498
12.57529 501
12.5954 504
12.61552 538
12.63563 457
12.65575 517
12.67586 507
12.69597 546
12.71609 492
12.7362 520
12.75631 523
12.77643 574
12.79654 477
12.81666 514
12.83677 506
12.85688 497
12.877 521
12.89711 528
12.91722 498
12.93734 491
12.95745 553
12.97757 493
12.99768 542
13.01779 456
13.03791 544
13.05802 481
13.07813 497
13.09825 486
13.11836 496
13.13847 513
13.15859 521
13.1787 519
13.19882 506
13.21893 533
13.23904 507
13.25916 497
13.27927 454
13.29938 514
13.3195 511
13.33961 502
13.35973 494
13.37984 535
13.39995 493
13.42007 480
13.44018 509
13.46029 525
13.48041 512
13.50052 499
13.52064 495
13.54075 508
13.56086 516
13.58098 544
13.60109 541
13.6212 524
13.64132 520
13.66143 520
13.68154 572
13.70166 571
13.72177 513
13.74189 522
13.762 516
13.78211 485
13.80223 546
13.82234 538
13.84245 472
13.86257 484
13.88268 482
13.9028 523
13.92291 488
13.94302 491
13.96314 503
13.98325 498
14.00336 489
14.02348 537
14.04359 514
14.06371 518
14.08382 462
14.10393 497
14.12405 486
14.14416 482
14.16427 506
14.18439 498
14.2045 481
14.22461 471
14.24473 513
14.26484 467
14.28496 455
14.30507 510
14.32518 481
14.3453 482
14.36541 528
14.38552 494
14.40564 464
14.42575 469
14.44587 452
14.46598 490
14.48609 499
14.50621 453
14.52632 494
14.54643 478
14.56655 482
14.58666 440
14.60677 468
14.62689 491
14.647 489
14.66712 479
14.68723 503
14.70734 479
14.72746 427
14.74757 513
14.76768 440
14.7878 476
14.80791 467
14.82803 500
14.84814 469
14.86825 479
14.88837 531
14.90848 459
14.92859 458
14.94871 468
14.96882 449
14.98894 462
15.00905 471
15.02916 524
15.04928 489
15.06939 484
15.0895 503
15.10962 484
15.12973 519
15.14984 521
15.16996 466
15.19007 482
15.21019 479
15.2303 556
15.25041 497
15.27053 500
15.29064 494
15.31075 482
15.33087 518
15.35098 448
15.3711 493
15.39121 475
15.41132 474
15.43144 469
15.45155 493
15.47166 453
15.49178 514
15.51189 522
15.53201 454
15.55212 462
15.57223 481
15.59235 493
15.61246 481
15.63257 515
15.65269 518
15.6728 483
15.69291 478
15.71303 483
15.73314 488
15.75326 504
15.77337 518
15.79348 487
15.8136 500
15.83371 532
15.85382 487
15.87394 487
15.89405 455
15.91417 494
15.93428 471
15.95439 503
15.97451 463
15.99462 485
16.01473 533
16.03485 534
16.05496 521
16.07508 513
16.09519 455
16.1153 494
16.13542 519
16.15553 504
16.17564 467
16.19576 477
16.21587 526
16.23598 503
16.2561 485
16.27621 517
16.29633 482
16.31644 473
16.33655 507
16.35667 519
16.37678 436
16.39689 478
16.41701 472
16.43712 488
16.45724 498
16.47735 536
16.49746 490
16.51758 489
16.53769 470
16.5578 448
16.57792 495
16.59803 493
16.61814 481
16.63826 490
16.65837 478
16.67849 478
16.6986 520
16.71871 483
16.73883 518
16.75894 481
16.77905 475
16.79917 519
16.81928 536
16.8394 485
16.85951 478
16.87962 490
16.89974 486
16.91985 518
16.93996 504
16.96008 456
16.98019 471
17.00031 507
17.02042 461
17.04053 467
17.06065 501
17.08076 506
17.10087 525
17.12099 484
17.1411 508
17.16121 478
17.18133 481
17.20144 486
17.22156 506
17.24167 473
17.26178 518
17.2819 508
17.30201 510
17.32212 461
17.34224 491
17.36235 503
17.38247 518
17.40258 534
17.42269 479
17.44281 529
17.46292 540
17.48303 527
17.50315 482
17.52326 484
17.54338 527
17.56349 545
17.5836 489
17.60372 535
17.62383 549
17.64394 484
17.66406 527
17.68417 522
17.70428 501
17.7244 504
17.74451 509
17.76463 516
17.78474 500
17.80485 524
17.82497 493
17.84508 530
17.86519 531
17.88531 513
17.90542 489
17.92554 518
17.94565 499
17.96576 515
17.98588 547
18.00599 542
18.0261 519
18.04622 529
18.06633 472
18.08645 511
18.10656 503
18.12667 520
18.14679 512
18.1669 539
18.18701 557
18.20713 516
18.22724 450
18.24735 531
18.26747 520
18.28758 499
18.3077 532
18.32781 554
18.34792 487
18.36804 517
18.38815 556
18.40826 522
18.42838 526
18.44849 536
18.46861 485
18.48872 537
18.50883 517
18.52895 541
18.54906 506
18.56917 524
18.58929 539
18.6094 508
18.62951 481
18.64963 509
18.66974 522
18.68986 479
18.70997 497
18.73008 566
18.7502 548
18.77031 545
18.79042 535
18.81054 538
18.83065 527
18.85077 504
18.87088 514
18.89099 545
18.91111 521
18.93122 549
18.95133 556
18.97145 566
18.99156 558
19.01168 541
19.03179 594
19.0519 508
19.07202 595
19.09213 535
19.11224 576
19.13236 595
19.15247 534
19.17258 575
19.1927 578
19.21281 611
19.23293 630
19.25304 658
19.27315 654
19.29327 666
19.31338 708
19.33349 638
19.35361 709
19.37372 719
19.39384 699
19.41395 789
19.43406 751
19.45418 774
19.47429 841
19.4944 765
19.51452 862
19.53463 893
19.55475 906
19.57486 870
19.59497 947
19.61509 1002
19.6352 962
19.65531 993
19.67543 1014
19.69554 1040
19.71565 1101
19.73577 1131
19.75588 1095
19.776 1125
19.79611 1074
19.81622 1062
19.83634 1095
19.85645 1146
19.87656 1126
19.89668 1063
19.91679 1110
19.93691 1128
19.95702 1094
19.97713 998
19.99725 986
20.01736 979
20.03747 1054
20.05759 992
20.0777 1004
20.09782 987
20.11793 929
20.13804 934
20.15816 1013
20.17827 992
20.19838 945
20.2185 945
20.23861 950
20.25872 873
20.27884 941
20.29895 920
20.31907 904
20.33918 865
20.35929 902
20.37941 825
20.39952 860
20.41963 955
20.43975 866
20.45986 933
20.47998 830
20.50009 879
20.5202 880
20.54032 822
20.56043 824
20.58054 825
20.60066 846
20.62077 861
20.64088 819
20.661 899
20.68111 850
20.70123 816
20.72134 839
20.74145 943
20.76157 941
20.78168 1000
20.80179 1003
20.82191 1063
20.84202 1027
20.86214 1001
20.88225 915
20.90236 935
20.92248 844
20.94259 850
20.9627 830
20.98282 787
21.00293 839
21.02305 798
21.04316 777
21.06327 767
21.08339 761
21.1035 788
21.12361 759
21.14373 726
21.16384 773
21.18395 772
21.20407 857
21.22418 735
21.2443 772
21.26441 842
21.28452 802
21.30464 770
21.32475 797
21.34486 763
21.36498 718
21.38509 735
21.40521 744
21.42532 729
21.44543 755
21.46555 795
21.48566 746
21.50577 788
21.52589 744
21.546 788
21.56612 753
21.58623 710
21.60634 751
21.62646 736
21.64657 799
21.66668 758
21.6868 726
21.70691 772
21.72702 755
21.74714 795
21.76725 750
21.78737 800
21.80748 795
21.82759 863
21.84771 777
21.86782 884
21.88793 909
21.90805 913
21.92816 929
21.94828 953
21.96839 918
21.9885 891
22.00862 862
22.02873 845
22.04884 772
22.06896 752
22.08907 696
22.10919 711
22.1293 682
22.14941 713
22.16953 725
22.18964 649
22.20975 778
22.22987 697
22.24998 679
22.27009 727
22.29021 722
22.31032 703
22.33044 659
22.35055 709
22.37066 695
22.39078 671
22.41089 725
22.431 713
22.45112 677
22.47123 724
22.49135 695
22.51146 657
22.53157 636
22.55169 692
22.5718 738
22.59191 651
22.61203 704
22.63214 669
22.65225 658
22.67237 682
22.69248 702
22.7126 739
22.73271 756
22.75282 711
22.77294 776
22.79305 775
22.81316 740
22.83328 744
22.85339 711
22.87351 700
22.89362 659
22.91373 700
22.93385 731
22.95396 721
22.97407 661
22.99419 688
23.0143 706
23.03442 683
23.05453 692
23.07464 660
23.09476 621
23.11487 674
23.13498 686
23.1551 753
23.17521 644
23.19532 710
23.21544 670
23.23555 693
23.25567 674
23.27578 678
23.29589 685
23.31601 685
23.33612 748
23.35623 717
23.37635 669
23.39646 700
23.41658 706
23.43669 675
23.4568 697
23.47692 734
23.49703 703
23.51714 801
23.53726 819
23.55737 829
23.57749 846
23.5976 835
23.61771 892
23.63783 875
23.65794 872
23.67805 869
23.69817 770
23.71828 801
23.73839 764
23.75851 818
23.77862 790
23.79874 727
23.81885 747
23.83896 744
23.85908 756
23.87919 734
23.8993 762
23.91942 749
23.93953 693
23.95965 769
23.97976 716
23.99987 755
24.01999 705
24.0401 739
24.06021 741
24.08033 724
24.10044 764
24.12056 785
24.14067 754
24.16078 702
24.1809 755
24.20101 707
24.22112 705
24.24124 762
24.26135 733
24.28146 761
24.30158 811
24.32169 727
24.34181 760
24.36192 739
24.38203 756
24.40215 779
24.42226 715
24.44237 676
24.46249 741
24.4826 796
24.50272 676
24.52283 703
24.54294 708
24.56306 732
24.58317 720
24.60328 670
24.6234 715
24.64351 658
24.66362 693
24.68374 723
24.70385 630
24.72397 680
24.74408 695
24.76419 750
24.78431 692
24.80442 734
24.82453 711
24.84465 717
24.86476 674
24.88488 704
24.90499 716
24.9251 747
24.94522 703
24.96533 709
24.98544 680
25.00556 714
25.02567 717
25.04579 643
25.0659 720
25.08601 700
25.10613 666
25.12624 658
25.14635 740
25.16647 671
25.18658 719
25.20669 695
25.22681 697
25.24692 730
25.26704 666
25.28715 746
25.30726 717
25.32738 739
25.34749 702
25.3676 728
25.38772 649
25.40783 715
25.42795 639
25.44806 725
25.46817 700
25.48829 716
25.5084 733
25.52851 679
25.54863 787
25.56874 730
25.58886 739
25.60897 743
25.62908 728
25.6492 667
25.66931 693
25.68942 712
25.70954 672
25.72965 665
25.74976 693
25.76988 692
25.78999 653
25.81011 701
25.83022 701
25.85033 697
25.87045 686
25.89056 696
25.91067 656
25.93079 677
25.9509 659
25.97102 635
25.99113 673
26.01124 652
26.03136 660
26.05147 684
26.07158 711
26.0917 650
26.11181 663
26.13193 631
26.15204 701
26.17215 644
26.19227 670
26.21238 622
26.23249 666
26.25261 695
26.27272 685
26.29283 787
26.31295 694
26.33306 690
26.35318 746
26.37329 776
26.3934 812
26.41352 817
26.43363 815
26.45374 890
26.47386 934
26.49397 1056
26.51409 1194
26.5342 1340
26.55431 1493
26.57443 1654
26.59454 1639
26.61465 1669
26.63477 1436
26.65488 1280
26.67499 1165
26.69511 1025
26.71522 818
26.73534 786
26.75545 733
26.77556 698
26.79568 673
26.81579 732
26.8359 722
26.85602 691
26.87613 682
26.89625 675
26.91636 655
26.93647 678
26.95659 677
26.9767 669
26.99681 697
27.01693 707
27.03704 691
27.05716 695
27.07727 669
27.09738 705
27.1175 686
27.13761 678
27.15772 674
27.17784 672
27.19795 679
27.21806 681
27.23818 690
27.25829 723
27.27841 645
27.29852 717
27.31863 714
27.33875 755
27.35886 754
27.37897 787
27.39909 829
27.4192 885
27.43932 895
27.45943 909
27.47954 897
27.49966 919
27.51977 993
27.53988 910
27.56 914
27.58011 945
27.60023 948
27.62034 1000
27.64045 956
27.66057 1013
27.68068 1080
27.70079 1004
27.72091 1064
27.74102 1059
27.76113 1013
27.78125 1034
27.80136 994
27.82148 985
27.84159 876
27.8617 919
27.88182 926
27.90193 974
27.92204 966
27.94216 982
27.96227 981
27.98239 881
28.0025 907
28.02261 842
28.04273 805
28.06284 756
28.08295 705
28.10307 689
28.12318 670
28.1433 687
28.16341 689
28.18352 650
28.20364 682
28.22375 721
28.24386 717
28.26398 664
28.28409 687
28.3042 726
28.32432 686
28.34443 673
28.36455 712
28.38466 760
28.40477 721
28.42489 709
28.445 663
28.46511 651
28.48523 616
28.50534 633
28.52546 588
28.54557 587
28.56568 553
28.5858 628
28.60591 591
28.62602 574
28.64614 594
28.66625 662
28.68636 628
28.70648 613
28.72659 593
28.74671 590
28.76682 637
28.78693 596
28.80705 639
28.82716 616
28.84727 589
28.86739 644
28.8875 618
28.90762 588
28.92773 576
28.94784 592
28.96796 607
28.98807 628
29.00818 607
29.0283 604
29.04841 605
29.06853 620
29.08864 653
29.10875 551
29.12887 573
29.14898 630
29.16909 601
29.18921 578
29.20932 563
29.22943 594
29.24955 592
29.26966 548
29.28978 598
29.30989 582
29.33 602
29.35012 611
29.37023 602
29.39034 577
29.41046 610
29.43057 653
29.45069 628
29.4708 643
29.49091 657
29.51103 657
29.53114 627
29.55125 661
29.57137 644
29.59148 672
29.6116 691
29.63171 713
29.65182 697
29.67194 741
29.69205 750
29.71216 704
29.73228 747
29.75239 720
29.7725 714
29.79262 754
29.81273 703
29.83285 724
29.85296 702
29.87307 669
29.89319 647
29.9133 689
29.93341 623
29.95353 669
29.97364 661
29.99376 631
30.01387 676
30.03398 714
30.0541 679
30.07421 677
30.09432 721
30.11444 673
30.13455 693
30.15467 759
30.17478 729
30.19489 758
30.21501 734
30.23512 751
30.25523 732
30.27535 682
30.29546 698
30.31557 699
30.33569 683
30.3558 665
30.37592 630
30.39603 678
30.41614 703
30.43626 660
30.45637 622
30.47648 661
30.4966 607
30.51671 681
30.53683 618
30.55694 594
30.57705 654
30.59717 669
30.61728 672
30.63739 614
30.65751 576
30.67762 634
30.69773 609
30.71785 652
30.73796 634
30.75808 613
30.77819 617
30.7983 585
30.81842 619
30.83853 575
30.85864 578
30.87876 588
30.89887 587
30.91899 600
30.9391 589
30.95921 603
30.97933 544
30.99944 593
31.01955 560
31.03967 622
31.05978 528
31.0799 531
31.10001 537
31.12012 575
31.14024 581
31.16035 552
31.18046 542
31.20058 552
31.22069 586
31.2408 601
31.26092 568
31.28103 628
31.30115 540
31.32126 555
31.34137 540
31.36149 599
31.3816 600
31.40171 569
31.42183 552
31.44194 596
31.46206 619
31.48217 602
31.50228 528
31.5224 567
31.54251 579
31.56262 563
31.58274 530
31.60285 556
31.62297 591
31.64308 589
31.66319 576
31.68331 518
31.70342 560
31.72353 580
31.74365 517
31.76376 596
31.78387 567
31.80399 591
31.8241 574
31.84422 573
31.86433 540
31.88444 588
31.90456 580
31.92467 581
31.94478 550
31.9649 558
31.98501 559
32.00513 505
32.02524 545
32.04535 570
32.06547 557
32.08558 531
32.10569 551
32.12581 534
32.14592 550
32.16604 569
32.18615 548
32.20626 541
32.22638 536
32.24649 488
32.2666 588
32.28672 512
32.30683 544
32.32694 518
32.34706 527
32.36717 570
32.38729 578
32.4074 551
32.42751 619
32.44763 613
32.46774 562
32.48785 616
32.50797 636
32.52808 633
32.5482 637
32.56831 661
32.58842 643
32.60854 638
32.62865 598
32.64876 601
32.66888 605
32.68899 653
32.7091 602
32.72922 592
32.74933 596
32.76945 578
32.78956 542
32.80967 600
32.82979 524
32.8499 578
32.87001 575
32.89013 620
32.91024 575
32.93036 598
32.95047 630
32.97058 635
32.9907 610
33.01081 629
33.03092 638
33.05104 607
33.07115 614
33.09127 631
33.11138 613
33.13149 586
33.15161 611
33.17172 642
33.19183 559
33.21195 607
33.23206 571
33.25217 500
33.27229 568
33.2924 614
33.31252 572
33.33263 568
33.35274 573
33.37286 503
33.39297 542
33.41308 542
33.4332 554
33.45331 549
33.47343 574
33.49354 513
33.51365 544
33.53377 554
33.55388 532
33.57399 582
33.59411 541
33.61422 547
33.63434 536
33.65445 571
33.67456 566
33.69468 519
33.71479 571
33.7349 549
33.75502 538
33.77513 580
33.79524 582
33.81536 540
33.83547 576
33.85559 555
33.8757 535
33.89581 555
33.91593 572
33.93604 549
33.95615 595
33.97627 561
33.99638 550
34.0165 580
34.03661 550
34.05672 590
34.07684 569
34.09695 536
34.11706 612
34.13718 630
34.15729 550
34.17741 555
34.19752 623
34.21763 579
34.23775 631
34.25786 589
34.27797 597
34.29809 667
34.3182 673
34.33831 678
34.35843 615
34.37854 645
34.39866 640
34.41877 692
34.43888 691
34.459 739
34.47911 720
34.49922 789
34.51934 701
34.53945 740
34.55957 698
34.57968 782
34.59979 710
34.61991 762
34.64002 732
34.66013 764
34.68025 790
34.70036 779
34.72047 771
34.74059 773
34.7607 839
34.78082 823
34.80093 791
34.82104 791
34.84116 829
34.86127 788
34.88138 860
34.9015 837
34.92161 824
34.94173 876
34.96184 842
34.98195 846
35.00207 833
35.02218 914
35.04229 801
35.06241 814
35.08252 813
35.10264 818
35.12275 853
35.14286 847
35.16298 897
35.18309 874
35.2032 840
35.22332 876
35.24343 910
35.26354 968
35.28366 953
35.30377 997
35.32389 976
35.344 1004
35.36411 991
35.38423 989
35.40434 1075
35.42445 1012
35.44457 993
35.46468 1078
35.4848 1118
35.50491 1087
35.52502 1117
35.54514 1058
35.56525 1043
35.58536 1034
35.60548 968
35.62559 942
35.64571 896
35.66582 929
35.68593 835
35.70605 901
35.72616 870
35.74627 813
35.76639 781
35.7865 825
35.80661 800
35.82673 799
35.84684 754
35.86696 778
35.88707 755
35.90718 771
35.9273 729
35.94741 779
35.96752 782
35.98764 734
36.00775 726
36.02787 733
36.04798 734
36.06809 720
36.08821 727
36.10832 675
36.12843 705
36.14855 704
36.16866 714
36.18878 707
36.20889 684
36.229 687
36.24912 659
36.26923 691
36.28934 712
36.30946 723
36.32957 668
36.34968 698
36.3698 732
36.38991 700
36.41003 744
36.43014 770
36.45025 735
36.47037 760
36.49048 783
36.51059 750
36.53071 762
36.55082 740
36.57094 744
36.59105 728
36.61116 667
36.63128 749
36.65139 714
36.6715 683
36.69162 714
36.71173 680
36.73184 722
36.75196 684
36.77207 692
36.79219 669
36.8123 688
36.83241 707
36.85253 689
36.87264 706
36.89275 675
36.91287 688
36.93298 713
36.9531 624
36.97321 679
36.99332 711
37.01344 641
37.03355 652
37.05366 713
37.07378 672
37.09389 653
37.11401 691
37.13412 643
37.15423 629
37.17435 672
37.19446 682
37.21457 649
37.23469 661
37.2548 644
37.27491 653
37.29503 637
37.31514 662
37.33526 673
37.35537 662
37.37548 688
37.3956 664
37.41571 617
37.43582 701
37.45594 645
37.47605 643
37.49617 649
37.51628 639
37.53639 629
37.55651 671
37.57662 653
37.59673 598
37.61685 671
37.63696 679
37.65708 656
37.67719 628
37.6973 642
37.71742 686
37.73753 674
37.75764 649
37.77776 656
37.79787 633
37.81798 658
37.8381 657
37.85821 660
37.87833 639
37.89844 654
37.91855 669
37.93867 622
37.95878 678
37.97889 660
37.99901 620
38.01912 638
38.03924 622
38.05935 604
38.07946 647
38.09958 628
38.11969 616
38.1398 624
38.15992 642
38.18003 634
38.20015 602
38.22026 630
38.24037 611
38.26049 697
38.2806 619
38.30071 634
38.32083 622
38.34094 589
38.36105 657
38.38117 644
38.40128 673
38.4214 634
38.44151 641
38.46162 680
38.48174 583
38.50185 621
38.52196 618
38.54208 606
38.56219 619
38.58231 607
38.60242 607
38.62253 629
38.64265 629
38.66276 619
38.68287 606
38.70299 633
38.7231 610
38.74321 596
38.76333 633
38.78344 606
38.80356 612
38.82367 572
38.84378 595
38.8639 595
38.88401 585
38.90412 584
38.92424 574
38.94435 555
38.96447 585
38.98458 633
39.00469 576
39.02481 607
39.04492 598
39.06503 596
39.08515 637
39.10526 647
39.12538 595
39.14549 618
39.1656 588
39.18572 627
39.20583 619
39.22594 589
39.24606 634
39.26617 596
39.28628 625
39.3064 614
39.32651 652
39.34663 626
39.36674 630
39.38685 653
39.40697 634
39.42708 698
39.44719 618
39.46731 617
39.48742 644
39.50754 582
39.52765 596
39.54776 611
39.56788 603
39.58799 594
39.6081 542
39.62822 593
39.64833 569
39.66845 576
39.68856 571
39.70867 608
39.72879 590
39.7489 625
39.76901 556
39.78913 555
39.80924 537
39.82935 584
39.84947 579
39.86958 557
39.8897 564
39.90981 549
39.92992 553
39.95004 566
39.97015 579
39.99026 595
40.01038 559
40.03049 606
40.05061 604
40.07072 554
40.09083 608
40.11095 566
40.13106 579
40.15117 593
40.17129 568
40.1914 633
40.21152 596
40.23163 631
40.25174 587
40.27186 657
40.29197 640
40.31208 617
40.3322 602
40.35231 609
40.37242 608
40.39254 596
40.41265 619
40.43277 596
40.45288 636
40.47299 576
40.49311 605
40.51322 603
40.53333 601
40.55345 595
40.57356 577
40.59368 582
40.61379 601
40.6339 598
40.65402 558
40.67413 593
40.69424 630
40.71436 580
40.73447 600
40.75458 583
40.7747 578
40.79481 592
40.81493 585
40.83504 589
40.85515 609
40.87527 547
40.89538 608
40.91549 581
40.93561 590
40.95572 620
40.97584 598
40.99595 556
41.01606 598
41.03618 571
41.05629 576
41.0764 554
41.09652 558
41.11663 523
41.13675 598
41.15686 546
41.17697 571
41.19709 583
41.2172 527
41.23731 595
41.25743 530
41.27754 570
41.29765 526
41.31777 537
41.33788 569
41.358 564
41.37811 620
41.39822 576
41.41834 531
41.43845 552
41.45856 579
41.47868 581
41.49879 576
41.51891 615
41.53902 537
41.55913 571
41.57925 549
41.59936 588
41.61947 592
41.63959 560
41.6597 578
41.67982 539
41.69993 605
41.72004 552
41.74016 570
41.76027 530
41.78038 558
41.8005 539
41.82061 546
41.84072 519
41.86084 559
41.88095 551
41.90107 576
41.92118 567
41.94129 574
41.96141 573
41.98152 502
42.00163 541
42.02175 576
42.04186 516
42.06198 571
42.08209 589
42.1022 565
42.12232 597
42.14243 551
42.16254 574
42.18266 562
42.20277 575
42.22289 538
42.243 599
42.26311 599
42.28323 541
42.30334 589
42.32345 591
42.34357 572
42.36368 605
42.38379 619
42.40391 576
42.42402 617
42.44414 599
42.46425 634
42.48436 638
42.50448 566
42.52459 590
42.5447 595
42.56482 599
42.58493 570
42.60505 536
42.62516 555
42.64527 544
42.66539 549
42.6855 586
42.70561 559
42.72573 572
42.74584 539
42.76595 590
42.78607 601
42.80618 515
42.8263 508
42.84641 583
42.86652 575
42.88664 563
42.90675 579
42.92686 533
42.94698 568
42.96709 517
42.98721 535
43.00732 548
43.02743 564
43.04755 531
43.06766 565
43.08777 544
43.10789 503
43.128 573
43.14812 539
43.16823 534
43.18834 603
43.20846 552
43.22857 544
43.24868 543
43.2688 525
43.28891 543
43.30902 578
43.32914 500
43.34925 540
43.36937 563
43.38948 539
43.40959 539
43.42971 522
43.44982 534
43.46993 534
43.49005 537
43.51016 520
43.53028 496
43.55039 512
43.5705 479
43.59062 525
43.61073 517
43.63084 518
43.65096 534
43.67107 506
43.69119 493
43.7113 541
43.73141 531
43.75153 544
43.77164 497
43.79175 501
43.81187 496
43.83198 513
43.85209 531
43.87221 545
43.89232 510
43.91244 502
43.93255 517
43.95266 568
43.97278 513
43.99289 537
44.013 511
44.03312 529
44.05323 515
44.07335 501
44.09346 540
44.11357 501
44.13369 512
44.1538 468
44.17391 568
44.19403 531
44.21414 536
44.23426 518
44.25437 505
44.27448 515
44.2946 533
44.31471 520
44.33482 521
44.35494 495
44.37505 496
44.39516 537
44.41528 534
44.43539 517
44.45551 493
44.47562 509
44.49573 522
44.51585 511
44.53596 522
44.55607 512
44.57619 545
44.5963 507
44.61642 487
44.63653 600
44.65664 532
44.67676 551
44.69687 536
44.71698 532
44.7371 535
44.75721 513
44.77732 538
44.79744 517
44.81755 498
44.83767 555
44.85778 535
44.87789 536
44.89801 519
44.91812 507
44.93823 511
44.95835 514
44.97846 539
44.99858 526
45.01869 550
45.0388 566
45.05892 534
45.07903 533
45.09914 501
45.11926 500
45.13937 539
45.15949 536
45.1796 502
45.19971 524
45.21983 486
45.23994 505
45.26005 539
45.28017 521
45.30028 535
45.32039 522
45.34051 521
45.36062 503
45.38074 510
45.40085 522
45.42096 526
45.44108 564
45.46119 534
45.4813 506
45.50142 528
45.52153 517
45.54165 534
45.56176 569
45.58187 554
45.60199 518
45.6221 533
45.64221 531
45.66233 560
45.68244 518
45.70256 582
45.72267 512
45.74278 547
45.7629 505
45.78301 546
45.80312 502
45.82324 517
45.84335 517
45.86346 552
45.88358 526
45.90369 534
45.92381 512
45.94392 485
45.96403 535
45.98415 524
46.00426 533
46.02437 558
46.04449 513
46.0646 512
46.08472 448
46.10483 498
46.12494 519
46.14506 476
46.16517 490
46.18528 510
46.2054 481
46.22551 510
46.24563 466
46.26574 507
46.28585 525
46.30597 470
46.32608 478
46.34619 514
46.36631 491
46.38642 481
46.40653 500
46.42665 509
46.44676 502
46.46688 491
46.48699 512
46.5071 544
46.52722 532
46.54733 465
46.56744 547
46.58756 534
46.60767 474
46.62779 516
46.6479 505
46.66801 560
46.68813 532
46.70824 465
46.72835 537
46.74847 493
46.76858 507
46.78869 519
46.80881 512
46.82892 540
46.84904 489
46.86915 502
46.88926 487
46.90938 494
46.92949 539
46.9496 510
46.96972 496
46.98983 518
47.00995 500
47.03006 523
47.05017 514
47.07029 521
47.0904 584
47.11051 517
47.13063 515
47.15074 486
47.17086 520
47.19097 492
47.21108 500
47.2312 494
47.25131 460
47.27142 513
47.29154 500
47.31165 524
47.33176 491
47.35188 495
47.37199 526
47.39211 467
47.41222 475
47.43233 489
47.45245 482
47.47256 475
47.49267 509
47.51279 439
47.5329 473
47.55302 495
47.57313 484
47.59324 482
47.61336 497
47.63347 514
47.65358 514
47.6737 476
47.69381 472
47.71393 484
47.73404 499
47.75415 467
47.77427 462
47.79438 508
47.81449 521
47.83461 477
47.85472 500
47.87483 500
47.89495 484
47.91506 484
47.93518 490
47.95529 502
47.9754 509
47.99552 477
48.01563 484
48.03574 479
48.05586 504
48.07597 501
48.09609 490
48.1162 508
48.13631 476
48.15643 476
48.17654 480
48.19665 493
48.21677 515
48.23688 487
48.257 520
48.27711 479
48.29722 495
48.31734 520
48.33745 509
48.35756 491
48.37768 503
48.39779 493
48.4179 486
48.43802 509
48.45813 521
48.47825 498
48.49836 491
48.51847 481
48.53859 525
48.5587 503
48.57881 505
48.59893 495
48.61904 504
48.63916 521
48.65927 521
48.67938 531
48.6995 529
48.71961 509
48.73972 534
48.75984 548
48.77995 490
48.80006 522
48.82018 512
48.84029 476
48.86041 520
48.88052 529
48.90063 516
48.92075 523
48.94086 519
48.96097 532
48.98109 543
49.0012 502
49.02132 515
49.04143 538
49.06154 495
49.08166 513
49.10177 512
49.12188 523
49.142 545
49.16211 555
49.18223 514
49.20234 534
49.22245 533
49.24257 500
49.26268 551
49.28279 570
49.30291 527
49.32302 550
49.34313 531
49.36325 533
49.38336 528
49.40348 509
49.42359 529
49.4437 535
49.46382 514
49.48393 515
49.50404 498
49.52416 509
49.54427 585
49.56439 537
49.5845 550
49.60461 518
49.62473 543
49.64484 542
49.66495 487
49.68507 499
49.70518 534
49.7253 516
49.74541 527
49.76552 522
49.78564 534
49.80575 520
49.82586 535
49.84598 491
49.86609 526
49.8862 504
49.90632 531
49.92643 507
49.94655 519
49.96666 510
49.98677 533
50.00689 546
50.027 537
50.04711 577
50.06723 584
50.08734 575
50.10746 553
50.12757 529
50.14768 546
50.1678 523
50.18791 538
50.20802 521
50.22814 533
50.24825 500
50.26837 553
50.28848 494
50.30859 500
50.32871 502
50.34882 521
50.36893 475
50.38905 545
50.40916 509
50.42927 519
50.44939 475
50.4695 485
50.48962 511
50.50973 500
50.52984 491
50.54996 471
50.57007 516
50.59018 507
50.6103 507
50.63041 521
50.65053 515
50.67064 492
50.69075 524
50.71087 472
50.73098 509
50.75109 489
50.77121 466
50.79132 508
50.81143 481
50.83155 496
50.85166 539
50.87178 485
50.89189 505
50.912 465
50.93212 511
50.95223 481
50.97234 533
50.99246 467
51.01257 498
51.03269 454
51.0528 508
51.07291 481
51.09303 478
51.11314 521
51.13325 527
51.15337 454
51.17348 505
51.1936 514
51.21371 482
51.23382 519
51.25394 497
51.27405 510
51.29416 532
51.31428 487
51.33439 540
51.3545 496
51.37462 486
51.39473 517
51.41485 520
51.43496 502
51.45507 499
51.47519 485
51.4953 514
51.51541 457
51.53553 510
51.55564 495
51.57576 484
51.59587 486
51.61598 436
51.6361 463
51.65621 494
51.67632 491
51.69644 496
51.71655 455
51.73667 450
51.75678 478
51.77689 487
51.79701 459
51.81712 430
51.83723 447
51.85735 476
51.87746 484
51.89757 460
51.91769 457
51.9378 489
51.95792 512
51.97803 506
51.99814 475
52.01826 452
52.03837 445
52.05848 511
52.0786 491
52.09871 513
52.11883 451
52.13894 488
52.15905 493
52.17917 490
52.19928 527
52.21939 484
52.23951 507
52.25962 515
52.27974 485
52.29985 451
52.31996 462
52.34008 469
52.36019 465
52.3803 514
52.40042 512
52.42053 511
52.44064 500
52.46076 503
52.48087 481
52.50099 487
52.5211 508
52.54121 476
52.56133 487
52.58144 509
52.60155 468
52.62167 505
52.64178 452
52.6619 484
52.68201 498
52.70212 478
52.72224 512
52.74235 481
52.76246 458
52.78258 478
52.80269 501
52.8228 487
52.84292 504
52.86303 513
52.88315 510
52.90326 480
52.92337 498
52.94349 530
52.9636 516
52.98371 527
53.00383 517
53.02394 551
53.04406 528
53.06417 529
53.08428 552
53.1044 588
53.12451 566
53.14462 520
53.16474 552
53.18485 566
53.20497 617
53.22508 582
53.24519 590
53.26531 568
53.28542 549
53.30553 570
53.32565 535
53.34576 535
53.36587 582
53.38599 531
53.4061 560
53.42622 590
53.44633 583
53.46644 569
53.48656 556
53.50667 552
53.52678 542
53.5469 565
53.56701 549
53.58713 562
53.60724 521
53.62735 551
53.64747 550
53.66758 545
53.68769 568
53.70781 547
53.72792 598
53.74804 562
53.76815 618
53.78826 570
53.80838 594
53.82849 616
53.8486 630
53.86872 609
53.88883 566
53.90894 583
53.92906 520
53.94917 608
53.96929 584
53.9894 578
54.00951 608
54.02963 585
54.04974 567
54.06985 618
54.08997 561
54.11008 550
54.1302 510
54.15031 600
54.17042 489
54.19054 574
54.21065 561
54.23076 560
54.25088 526
54.27099 560
54.29111 533
54.31122 557
54.33133 567
54.35145 545
54.37156 562
54.39167 574
54.41179 558
54.4319 563
54.45201 568
54.47213 552
54.49224 539
54.51236 579
54.53247 560
54.55258 536
54.5727 603
54.59281 537
54.61292 576
54.63304 572
54.65315 546
54.67327 582
54.69338 566
54.71349 579
54.73361 542
54.75372 622
54.77383 541
54.79395 578
54.81406 561
54.83417 604
54.85429 569
54.8744 564
54.89452 554
54.91463 553
54.93474 538
54.95486 537
54.97497 550
54.99508 528
55.0152 526
55.03531 591
55.05543 557
55.07554 535
55.09565 561
55.11577 535
55.13588 572
55.15599 550
55.17611 518
55.19622 535
55.21634 529
55.23645 556
55.25656 561
55.27668 491
55.29679 539
55.3169 543
55.33702 542
55.35713 556
55.37724 555
55.39736 550
55.41747 538
55.43759 511
55.4577 528
55.47781 521
55.49793 525
55.51804 494
55.53815 522
55.55827 528
55.57838 516
55.5985 519
55.61861 504
55.63872 554
55.65884 507
55.67895 520
55.69906 514
55.71918 506
55.73929 528
55.75941 502
55.77952 502
55.79963 549
55.81975 507
55.83986 530
55.85997 487
55.88009 513
55.9002 529
55.92031 523
55.94043 584
55.96054 508
55.98066 526
56.00077 502
56.02088 489
56.041 492
56.06111 530
56.08122 534
56.10134 525
56.12145 489
56.14157 535
56.16168 537
56.18179 501
56.20191 504
56.22202 559
56.24213 540
56.26225 576
56.28236 488
56.30248 542
56.32259 527
56.3427 576
56.36282 554
56.38293 546
56.40304 535
56.42316 540
56.44327 531
56.46338 527
56.4835 519
56.50361 508
56.52373 465
56.54384 560
56.56395 512
56.58407 532
56.60418 514
56.62429 523
56.64441 544
56.66452 544
56.68464 532
56.70475 500
56.72486 497
56.74498 505
56.76509 533
56.7852 498
56.80532 537
56.82543 575
56.84554 533
56.86566 514
56.88577 541
56.90589 531
56.926 560
56.94611 510
56.96623 499
56.98634 518
57.00645 536
57.02657 536
57.04668 521
57.0668 539
57.08691 527
57.10702 507
57.12714 583
57.14725 579
57.16736 515
57.18748 485
57.20759 488
57.22771 520
57.24782 491
57.26793 541
57.28805 528
57.30816 510
57.32827 510
57.34839 447
57.3685 497
57.38861 477
57.40873 520
57.42884 494
57.44896 465
57.46907 496
57.48918 510
57.5093 464
57.52941 475
57.54952 476
57.56964 488
57.58975 515
57.60987 504
57.62998 469
57.65009 495
57.67021 445
57.69032 475
57.71043 492
57.73055 464
57.75066 482
57.77078 445
57.79089 501
57.811 475
57.83112 483
57.85123 473
57.87134 451
57.89146 476
57.91157 488
57.93168 479
57.9518 442
57.97191 500
57.99203 527
58.01214 466
58.03225 430
58.05237 478
58.07248 496
58.09259 486
58.11271 504
58.13282 484
58.15294 502
58.17305 495
58.19316 456
58.21328 495
58.23339 497
58.2535 480
58.27362 478
58.29373 433
58.31385 524
58.33396 495
58.35407 496
58.37419 467
58.3943 466
58.41441 506
58.43453 498
58.45464 480
58.47475 478
58.49487 458
58.51498 479
58.5351 471
58.55521 511
58.57532 483
58.59544 514
58.61555 476
58.63566 454
58.65578 478
58.67589 447
58.69601 477
58.71612 459
58.73623 484
58.75635 483
58.77646 481
58.79657 505
58.81669 484
58.8368 489
58.85691 467
58.87703 443
58.89714 493
58.91726 482
58.93737 468
58.95748 548
58.9776 535
58.99771 482
59.01782 480
59.03794 459
59.05805 452
59.07817 495
59.09828 515
59.11839 521
59.13851 481
59.15862 478
59.17873 491
59.19885 509
59.21896 456
59.23908 459
59.25919 499
59.2793 521
59.29942 436
59.31953 474
59.33964 490
59.35976 489
59.37987 449
59.39998 464
59.4201 430
59.44021 455
59.46033 465
59.48044 511
59.50055 459
59.52067 466
59.54078 504
59.56089 500
59.58101 461
59.60112 503
59.62124 488
59.64135 514
59.66146 489
59.68158 460
59.70169 506
59.7218 511
59.74192 538
59.76203 453
59.78215 539
59.80226 501
59.82237 534
59.84249 562
59.8626 536
59.88271 554
59.90283 551
59.92294 572
59.94305 549
59.96317 537
59.98328 523
60.0034 541
60.02351 517
60.04362 548
60.06374 488
60.08385 520
60.10396 532
60.12408 528
60.14419 521
60.16431 504
60.18442 497
60.20453 516
60.22465 530
60.24476 526
60.26487 489
60.28499 506
60.3051 464
60.32522 483
60.34533 551
60.36544 497
60.38556 545
60.40567 476
60.42578 503
60.4459 538
60.46601 512
60.48612 525
60.50624 521
60.52635 506
60.54647 523
60.56658 541
60.58669 496
60.60681 507
60.62692 513
60.64703 498
60.66715 505
60.68726 520
60.70738 534
60.72749 496
60.7476 547
60.76772 523
60.78783 521
60.80794 497
60.82806 518
60.84817 506
60.86828 519
60.8884 499
60.90851 568
60.92863 561
60.94874 519
60.96885 487
60.98897 492
61.00908 512
61.02919 555
61.04931 544
61.06942 531
61.08954 542
61.10965 568
61.12976 557
61.14988 571
61.16999 558
61.1901 560
61.21022 549
61.23033 560
61.25045 603
61.27056 577
61.29067 555
61.31079 578
61.3309 580
61.35101 564
61.37113 559
61.39124 603
61.41135 604
61.43147 603
61.45158 580
61.4717 581
61.49181 642
61.51192 590
61.53204 603
61.55215 587
61.57226 610
61.59238 605
61.61249 588
61.63261 596
61.65272 637
61.67283 623
61.69295 609
61.71306 608
61.73317 605
61.75329 617
61.7734 618
61.79352 590
61.81363 624
61.83374 623
61.85386 603
61.87397 631
61.89408 600
61.9142 602
61.93431 610
61.95442 579
61.97454 606
61.99465 588
62.01477 614
62.03488 605
62.05499 583
62.07511 618
62.09522 597
62.11533 601
62.13545 620
62.15556 665
62.17568 584
62.19579 621
62.2159 619
62.23602 626
62.25613 625
62.27624 620
62.29636 610
62.31647 589
62.33659 582
62.3567 607
62.37681 594
62.39693 566
62.41704 584
62.43715 588
62.45727 541
62.47738 585
62.49749 584
62.51761 575
62.53772 602
62.55784 558
62.57795 597
62.59806 509
62.61818 522
62.63829 580
62.6584 533
62.67852 528
62.69863 540
62.71875 543
62.73886 540
62.75897 498
62.77909 507
62.7992 545
62.81931 510
62.83943 521
62.85954 533
62.87965 505
62.89977 513
62.91988 501
62.94 507
62.96011 560
62.98022 529
63.00034 551
63.02045 519
63.04056 535
63.06068 508
63.08079 515
63.10091 522
63.12102 479
63.14113 475
63.16125 491
63.18136 483
63.20147 505
63.22159 499
63.2417 523
63.26182 509
63.28193 484
63.30204 501
63.32216 470
63.34227 516
63.36238 521
63.3825 538
63.40261 486
63.42272 541
63.44284 522
63.46295 564
63.48307 518
63.50318 500
63.52329 489
63.54341 502
63.56352 486
63.58363 490
63.60375 477
63.62386 506
63.64398 497
63.66409 512
63.6842 547
63.70432 496
63.72443 486
63.74454 529
63.76466 537
63.78477 515
63.80489 491
63.825 542
63.84511 526
63.86523 462
63.88534 529
63.90545 502
63.92557 484
63.94568 497
63.96579 507
63.98591 467
64.00602 525
64.02614 520
64.04625 498
64.06636 494
64.08648 448
64.10659 450
64.1267 473
64.14682 496
64.16693 491
64.18705 504
64.20716 469
64.22727 453
64.24739 469
64.2675 433
64.28761 471
64.30773 474
64.32784 430
64.34796 461
64.36807 461
64.38818 484
64.4083 448
64.42841 430
64.44852 480
64.46864 497
64.48875 446
64.50886 475
64.52898 442
64.54909 471
64.56921 490
64.58932 440
64.60943 467
64.62955 445
64.64966 468
64.66977 468
64.68989 435
64.71 472
64.73012 480
64.75023 481
64.77034 470
64.79046 460
64.81057 454
64.83068 480
64.8508 472
64.87091 436
64.89102 470
64.91114 458
64.93125 468
64.95137 443
64.97148 446
64.99159 445
65.01171 437
65.03182 462
65.05193 408
65.07205 492
65.09216 465
65.11228 450
65.13239 479
65.1525 445
65.17262 460
65.19273 465
65.21284 478
65.23296 470
65.25307 466
65.27319 477
65.2933 458
65.31341 457
65.33353 430
65.35364 487
65.37375 472
65.39387 468
65.41398 462
65.43409 460
65.45421 486
65.47432 441
65.49444 435
65.51455 420
65.53466 457
65.55478 477
65.57489 478
65.595 442
65.61512 466
65.63523 505
65.65535 472
65.67546 442
65.69557 450
65.71569 471
65.7358 451
65.75591 453
65.77603 462
65.79614 443
65.81626 485
65.83637 444
65.85648 432
65.8766 478
65.89671 454
65.91682 453
65.93694 478
65.95705 451
65.97716 452
65.99728 443
66.01739 471
66.03751 469
66.05762 457
66.07773 411
66.09785 436
66.11796 437
66.13807 475
66.15819 466
66.1783 474
66.19842 463
66.21853 456
66.23864 448
66.25876 434
66.27887 487
66.29898 452
66.3191 446
66.33921 449
66.35933 447
66.37944 445
66.39955 465
66.41967 470
66.43978 418
66.45989 476
66.48001 437
66.50012 465
66.52023 448
66.54035 430
66.56046 482
66.58058 438
66.60069 473
66.6208 462
66.64092 401
66.66103 440
66.68114 460
66.70126 434
66.72137 420
66.74149 459
66.7616 496
66.78171 417
66.80183 424
66.82194 425
66.84205 460
66.86217 466
66.88228 441
66.90239 425
66.92251 437
66.94262 434
66.96274 484
66.98285 446
67.00296 439
67.02308 444
67.04319 455
67.0633 453
67.08342 462
67.10353 412
67.12365 387
67.14376 463
67.16387 444
67.18399 466
67.2041 446
67.22421 465
67.24433 448
67.26444 439
67.28456 443
67.30467 459
67.32478 458
67.3449 454
67.36501 432
67.38512 460
67.40524 442
67.42535 480
67.44546 450
67.46558 458
67.48569 466
67.50581 492
67.52592 441
67.54603 442
67.56615 483
67.58626 476
67.60637 454
67.62649 501
67.6466 450
67.66672 506
67.68683 456
67.70694 496
67.72706 480
67.74717 497
67.76728 471
67.7874 441
67.80751 469
67.82763 439
67.84774 473
67.86785 450
67.88797 442
67.90808 476
67.92819 516
67.94831 503
67.96842 437
67.98853 477
68.00865 484
68.02876 489
68.04888 492
68.06899 479
68.0891 501
68.10922 491
68.12933 485
68.14944 486
68.16956 520
68.18967 498
68.20979 498
68.2299 497
68.25001 464
68.27013 515
68.29024 466
68.31035 442
68.33047 486
68.35058 494
68.3707 468
68.39081 440
68.41092 470
68.43104 439
68.45115 451
68.47126 451
68.49138 474
68.51149 488
68.5316 429
68.55172 433
68.57183 484
68.59195 454
68.61206 446
68.63217 472
68.65229 451
68.6724 428
68.69251 495
68.71263 451
68.73274 464
68.75286 456
68.77297 437
68.79308 439
68.8132 477
68.83331 415
68.85342 478
68.87354 416
68.89365 439
68.91376 408
68.93388 434
68.95399 465
68.97411 437
68.99422 433
69.01433 436
69.03445 471
69.05456 447
69.07467 450
69.09479 448
69.1149 427
69.13502 463
69.15513 451
69.17524 441
69.19536 472
69.21547 448
69.23558 444
69.2557 489
69.27581 469
69.29593 478
69.31604 441
69.33615 435
69.35627 443
69.37638 472
69.39649 490
69.41661 441
69.43672 448
69.45683 454
69.47695 445
69.49706 443
69.51718 473
69.53729 468
69.5574 460
69.57752 454
69.59763 494
69.61774 441
69.63786 475
69.65797 460
69.67809 486
69.6982 446
69.71831 415
69.73843 397
69.75854 469
69.77865 475
69.79877 448
69.81888 440
69.839 408
69.85911 446
69.87922 410
69.89934 431
69.91945 415
69.93956 476
69.95968 445
69.97979 419
69.9999 465
70.02002 443
70.04013 464
70.06025 449
70.08036 468
70.10047 462
70.12059 451
70.1407 445
70.16081 451
70.18093 469
70.20104 467
70.22116 433
70.24127 421
70.26138 441
70.2815 433
70.30161 426
70.32172 468
70.34184 441
70.36195 415
70.38207 442
70.40218 455
70.42229 435
70.44241 445
70.46252 416
70.48263 440
70.50275 431
70.52286 458
70.54297 420
70.56309 418
70.5832 393
70.60332 400
70.62343 470
70.64354 440
70.66366 450
70.68377 433
70.70388 457
70.724 422
70.74411 455
70.76423 448
70.78434 427
70.80445 426
70.82457 447
70.84468 438
70.86479 438
70.88491 456
70.90502 464
70.92513 457
70.94525 458
70.96536 429
70.98548 453
71.00559 421
71.0257 450
71.04582 471
71.06593 451
71.08604 480
71.10616 429
71.12627 475
71.14639 460
71.1665 459
71.18661 467
71.20673 470
71.22684 469
71.24695 442
71.26707 439
71.28718 480
71.3073 459
71.32741 435
71.34752 466
71.36764 440
71.38775 426
71.40786 431
71.42798 415
71.44809 415
71.4682 467
71.48832 479
71.50843 454
71.52855 487
71.54866 474
71.56877 455
71.58889 489
71.609 424
71.62911 407
71.64923 461
71.66934 462
71.68946 452
71.70957 437
71.72968 479
71.7498 414
71.76991 469
71.79002 480
71.81014 451
71.83025 486
71.85037 458
71.87048 425
71.89059 485
71.91071 477
71.93082 464
71.95093 424
71.97105 450
71.99116 441
72.01127 458
72.03139 451
72.0515 488
72.07162 437
72.09173 432
72.11184 449
72.13196 456
72.15207 461
72.17218 418
72.1923 446
72.21241 462
72.23253 430
72.25264 391
72.27275 422
72.29287 471
72.31298 423
72.33309 492
72.35321 462
72.37332 473
72.39344 455
72.41355 411
72.43366 454
72.45378 463
72.47389 455
72.494 429
72.51412 435
72.53423 446
72.55434 457
72.57446 440
72.59457 452
72.61469 448
72.6348 432
72.65491 463
72.67503 421
72.69514 441
72.71525 451
72.73537 450
72.75548 469
72.7756 494
72.79571 478
72.81582 469
72.83594 532
72.85605 481
72.87616 424
72.89628 479
72.91639 491
72.9365 445
72.95662 424
72.97673 500
72.99685 474
73.01696 499
73.03707 457
73.05719 484
73.0773 452
73.09741 491
73.11753 490
73.13764 454
73.15776 467
73.17787 488
73.19798 434
73.2181 487
73.23821 491
73.25832 509
73.27844 446
73.29855 491
73.31867 497
73.33878 457
73.35889 457
73.37901 508
73.39912 483
73.41923 474
73.43935 449
73.45946 470
73.47957 460
73.49969 470
73.5198 477
73.53992 448
73.56003 453
73.58014 454
73.60026 457
73.62037 452
73.64048 448
73.6606 456
73.68071 478
73.70083 488
73.72094 468
73.74105 462
73.76117 465
73.78128 432
73.80139 456
73.82151 465
73.84162 459
73.86174 469
73.88185 450
73.90196 478
73.92208 495
73.94219 500
73.9623 473
73.98242 456
74.00253 444
74.02264 469
74.04276 460
74.06287 486
74.08299 462
74.1031 453
74.12321 463
74.14333 461
74.16344 457
74.18355 448
74.20367 449
74.22378 444
74.2439 459
74.26401 496
74.28412 452
74.30424 406
74.32435 449
74.34446 456
74.36458 456
74.38469 429
74.40481 472
74.42492 438
74.44503 498
74.46515 437
74.48526 456
74.50537 421
74.52549 439
74.5456 432
74.56571 431
74.58583 411
74.60594 434
74.62606 464
74.64617 453
74.66628 426
74.6864 477
74.70651 450
74.72662 410
74.74674 446
74.76685 469
74.78697 432
74.80708 405
74.82719 456
74.84731 448
74.86742 385
74.88753 457
74.90765 435
74.92776 437
74.94787 437
74.96799 470
74.9881 457
75.00822 434
