3.00117 18783
3.02128 18345
3.0414 18175
3.06151 17493
3.08162 16912
3.10174 16332
3.12185 16338
3.14197 15649
3.16208 15215
3.18219 14904
3.20231 13952
3.22242 14344
3.24253 13610
3.26265 13160
3.28276 12830
3.30288 12288
3.32299 12059
3.3431 11472
3.36322 11109
3.38333 10788
3.40344 10318
3.42356 10230
3.44367 9841
3.46379 9303
3.4839 9185
3.50401 8684
3.52413 8683
3.54424 8463
3.56435 7928
3.58447 7565
3.60458 7468
3.62469 7245
3.64481 6943
3.66492 6530
3.68504 6288
3.70515 5957
3.72526 5922
3.74538 5600
3.76549 5309
3.7856 5205
3.80572 4868
3.82583 4695
3.84595 4620
3.86606 4168
3.88617 4199
3.90629 4035
3.9264 3822
3.94651 3758
3.96663 3417
3.98674 3410
4.00686 3111
4.02697 3206
4.04708 3141
4.0672 2698
4.08731 2746
4.10742 2494
4.12754 2600
4.14765 2381
4.16776 2193
4.18788 2157
4.20799 2027
4.22811 1985
4.24822 1880
4.26833 1904
4.28845 1782
4.30856 1653
4.32867 1784
4.34879 1705
4.3689 1575
4.38902 1534
4.40913 1392
4.42924 1472
4.44936 1517
4.46947 1357
4.48958 1331
4.5097 1301
4.52981 1319
4.54992 1374
4.57004 1231
4.59015 1183
4.61027 1141
4.63038 1228
4.65049 1144
4.67061 1079
4.69072 1077
4.71083 1057
4.73095 1016
4.75106 1131
4.77118 1015
4.79129 1098
4.8114 904
4.83152 916
4.85163 938
4.87174 887
4.89186 868
4.91197 887
4.93209 810
4.9522 794
4.97231 795
4.99243 774
5.01254 819
5.03265 795
5.05277 794
5.07288 728
5.09299 783
5.11311 650
5.13322 709
5.15334 714
5.17345 686
5.19356 670
5.21368 664
5.23379 620
5.2539 653
5.27402 560
5.29413 569
5.31425 662
5.33436 581
5.35447 565
5.37459 502
5.3947 570
5.41481 507
5.43493 542
5.45504 539
5.47516 512
5.49527 537
5.51538 584
5.5355 561
5.55561 420
5.57572 460
5.59584 461
5.61595 465
5.63606 501
5.65618 461
5.67629 471
5.69641 457
5.71652 467
5.73663 431
5.75675 387
5.77686 434
5.79697 424
5.81709 439
5.8372 383
5.85732 401
5.87743 408
5.89754 394
5.91766 387
5.93777 387
5.95788 396
5.978 382
5.99811 389
6.01823 340
6.03834 362
6.05845 370
6.07857 411
6.09868 351
6.11879 364
6.13891 348
6.15902 391
6.17913 364
6.19925 324
6.21936 335
6.23948 320
6.25959 364
6.2797 343
6.29982 338
6.31993 338
6.34004 358
6.36016 349
6.38027 301
6.40039 289
6.4205 298
6.44061 267
6.46073 331
6.48084 322
6.50095 292
6.52107 302
6.54118 280
6.56129 243
6.58141 302
6.60152 280
6.62164 281
6.64175 272
6.66186 276
6.68198 239
6.70209 295
6.7222 264
6.74232 292
6.76243 282
6.78255 255
6.80266 276
6.82277 252
6.84289 264
6.863 236
6.88311 288
6.90323 243
6.92334 272
6.94346 244
6.96357 256
6.98368 268
7.0038 240
7.02391 255
7.04402 239
7.06414 292
7.08425 254
7.10436 201
7.12448 289
7.14459 257
7.16471 258
7.18482 251
7.20493 254
7.22505 236
7.24516 275
7.26527 228
7.28539 237
7.3055 268
7.32562 256
7.34573 263
7.36584 253
7.38596 230
7.40607 228
7.42618 268
7.4463 231
7.46641 246
7.48653 237
7.50664 221
7.52675 219
7.54687 247
7.56698 235
7.58709 222
7.60721 217
7.62732 266
7.64743 273
7.66755 223
7.68766 238
7.70778 230
7.72789 248
7.748 229
7.76812 263
7.78823 243
7.80834 232
7.82846 198
7.84857 249
7.86869 213
7.8888 244
7.90891 217
7.92903 223
7.94914 231
7.96925 252
7.98937 245
8.00948 232
8.0296 261
8.04971 217
8.06982 231
8.08994 234
8.11005 234
8.13016 252
8.15028 236
8.17039 224
8.1905 225
8.21062 239
8.23073 208
8.25085 265
8.27096 204
8.29107 248
8.31119 201
8.3313 232
8.35141 202
8.37153 231
8.39164 227
8.41176 227
8.43187 236
8.45198 250
8.4721 235
8.49221 268
8.51232 249
8.53244 219
8.55255 240
8.57266 254
8.59278 223
8.61289 239
8.63301 236
8.65312 255
8.67323 258
8.69335 259
8.71346 219
8.73357 234
8.75369 237
8.7738 247
8.79392 262
8.81403 245
8.83414 220
8.85426 228
8.87437 246
8.89448 242
8.9146 261
8.93471 266
8.95483 251
8.97494 241
8.99505 239
9.01517 236
9.03528 240
9.05539 250
9.07551 223
9.09562 216
9.11573 253
9.13585 253
9.15596 231
9.17608 217
9.19619 257
9.2163 256
9.23642 263
9.25653 241
9.27664 198
9.29676 222
9.31687 230
9.33699 225
9.3571 226
9.37721 208
9.39733 235
9.41744 235
9.43755 230
9.45767 218
9.47778 235
9.4979 245
9.51801 239
9.53812 225
9.55824 246
9.57835 210
9.59846 258
9.61858 238
9.63869 196
9.6588 229
9.67892 247
9.69903 238
9.71915 214
9.73926 216
9.75937 259
9.77949 240
9.7996 230
9.81971 251
9.83983 212
9.85994 202
9.88006 244
9.90017 248
9.92028 212
9.9404 251
9.96051 232
9.98062 221
10.00074 245
10.02085 228
10.04097 234
10.06108 231
10.08119 255
10.10131 250
10.12142 227
10.14153 235
10.16165 218
10.18176 234
10.20187 226
10.22199 241
10.2421 255
10.26222 216
10.28233 218
10.30244 232
10.32256 264
10.34267 256
10.36278 226
10.3829 243
10.40301 218
10.42313 238
10.44324 268
10.46335 242
10.48347 273
10.50358 257
10.52369 242
10.54381 281
10.56392 238
10.58403 235
10.60415 272
10.62426 253
10.64438 266
10.66449 242
10.6846 249
10.70472 216
10.72483 237
10.74494 224
10.76506 212
10.78517 240
10.80529 260
10.8254 236
10.84551 251
10.86563 258
10.88574 227
10.90585 218
10.92597 232
10.94608 218
10.9662 240
10.98631 259
11.00642 237
11.02654 223
11.04665 229
11.06676 240
11.08688 231
11.10699 251
11.1271 238
11.14722 218
11.16733 253
11.18745 225
11.20756 225
11.22767 252
11.24779 211
11.2679 228
11.28801 273
11.30813 263
11.32824 251
11.34836 201
11.36847 239
11.38858 246
11.4087 258
11.42881 237
11.44892 237
11.46904 229
11.48915 232
11.50927 220
11.52938 248
11.54949 238
11.56961 258
11.58972 232
11.60983 262
11.62995 217
11.65006 264
11.67017 218
11.69029 242
11.7104 242
11.73052 259
11.75063 236
11.77074 239
11.79086 257
11.81097 248
11.83108 269
11.8512 250
11.87131 288
11.89143 223
11.91154 281
11.93165 267
11.95177 275
11.97188 258
11.99199 265
12.01211 270
12.03222 220
12.05234 232
12.07245 243
12.09256 257
12.11268 264
12.13279 298
12.1529 257
12.17302 312
12.19313 263
12.21324 286
12.23336 243
12.25347 261
12.27359 239
12.2937 276
12.31381 264
12.33393 289
12.35404 277
12.37415 290
12.39427 269
12.41438 309
12.4345 246
12.45461 267
12.47472 220
12.49484 256
12.51495 259
12.53506 245
12.55518 254
12.57529 284
12.5954 244
12.61552 227
12.63563 258
12.65575 266
12.67586 263
12.69597 251
12.71609 236
12.7362 240
12.75631 238
12.77643 235
12.79654 240
12.81666 213
12.83677 226
12.85688 231
12.877 253
12.89711 216
12.91722 251
12.93734 216
12.95745 222
12.97757 222
12.99768 198
13.01779 198
13.03791 216
13.05802 187
13.07813 204
13.09825 239
13.11836 219
13.13847 210
13.15859 237
13.1787 206
13.19882 225
13.21893 195
13.23904 236
13.25916 238
13.27927 190
13.29938 192
13.3195 231
13.33961 228
13.35973 202
13.37984 212
13.39995 208
13.42007 215
13.44018 225
13.46029 212
13.48041 187
13.50052 235
13.52064 197
13.54075 209
13.56086 186
13.58098 197
13.60109 183
13.6212 216
13.64132 204
13.66143 210
13.68154 210
13.70166 235
13.72177 223
13.74189 186
13.762 212
13.78211 211
13.80223 188
13.82234 193
13.84245 201
13.86257 224
13.88268 208
13.9028 201
13.92291 220
13.94302 223
13.96314 248
13.98325 205
14.00336 228
14.02348 204
14.04359 205
14.06371 222
14.08382 204
14.10393 208
14.12405 202
14.14416 229
14.16427 206
14.18439 185
14.2045 193
14.22461 189
14.24473 180
14.26484 216
14.28496 187
14.30507 207
14.32518 181
14.3453 186
14.36541 194
14.38552 175
14.40564 180
14.42575 234
14.44587 216
14.46598 203
14.48609 171
14.50621 190
14.52632 194
14.54643 201
14.56655 200
14.58666 229
14.60677 180
14.62689 191
14.647 202
14.66712 184
14.68723 190
14.70734 197
14.72746 203
14.74757 171
14.76768 220
14.7878 193
14.80791 178
14.82803 223
14.84814 186
14.86825 171
14.88837 211
14.90848 192
14.92859 191
14.94871 194
14.96882 199
14.98894 205
15.00905 203
15.02916 209
15.04928 185
15.06939 176
15.0895 186
15.10962 156
15.12973 201
15.14984 183
15.16996 186
15.19007 232
15.21019 180
15.2303 232
15.25041 222
15.27053 199
15.29064 200
15.31075 208
15.33087 170
15.35098 171
15.3711 216
15.39121 200
15.41132 187
15.43144 193
15.45155 184
15.47166 176
15.49178 168
15.51189 199
15.53201 187
15.55212 187
15.57223 206
15.59235 172
15.61246 206
15.63257 180
15.65269 201
15.6728 198
15.69291 191
15.71303 186
15.73314 220
15.75326 198
15.77337 177
15.79348 192
15.8136 174
15.83371 181
15.85382 200
15.87394 156
15.89405 197
15.91417 164
15.93428 194
15.95439 167
15.97451 205
15.99462 190
16.01473 188
16.03485 194
16.05496 183
16.07508 189
16.09519 190
16.1153 218
16.13542 198
16.15553 186
16.17564 187
16.19576 198
16.21587 192
16.23598 190
16.2561 165
16.27621 174
16.29633 196
16.31644 185
16.33655 149
16.35667 167
16.37678 172
16.39689 181
16.41701 197
16.43712 160
16.45724 171
16.47735 188
16.49746 202
16.51758 202
16.53769 180
16.5578 209
16.57792 200
16.59803 181
16.61814 203
16.63826 203
16.65837 167
16.67849 186
16.6986 179
16.71871 178
16.73883 200
16.75894 193
16.77905 197
16.79917 193
16.81928 184
16.8394 190
16.85951 202
16.87962 204
16.89974 164
16.91985 165
16.93996 199
16.96008 181
16.98019 203
17.00031 197
17.02042 181
17.04053 153
17.06065 176
17.08076 183
17.10087 180
17.12099 202
17.1411 200
17.16121 192
17.18133 178
17.20144 166
17.22156 210
17.24167 184
17.26178 194
17.2819 157
17.30201 196
17.32212 160
17.34224 171
17.36235 186
17.38247 172
17.40258 204
17.42269 187
17.44281 174
17.46292 197
17.48303 185
17.50315 198
17.52326 171
17.54338 175
17.56349 195
17.5836 169
17.60372 210
17.62383 149
17.64394 180
17.66406 161
17.68417 188
17.70428 176
17.7244 185
17.74451 210
17.76463 180
17.78474 180
17.80485 204
17.82497 210
17.84508 163
17.86519 193
17.88531 197
17.90542 190
17.92554 170
17.94565 164
17.96576 183
17.98588 201
18.00599 190
18.0261 180
18.04622 177
18.06633 170
18.08645 183
18.10656 168
18.12667 199
18.14679 190
18.1669 186
18.18701 176
18.20713 185
18.22724 175
18.24735 189
18.26747 177
18.28758 194
18.3077 193
18.32781 160
18.34792 171
18.36804 193
18.38815 167
18.40826 165
18.42838 173
18.44849 193
18.46861 184
18.48872 186
18.50883 203
18.52895 177
18.54906 170
18.56917 172
18.58929 154
18.6094 163
18.62951 184
18.64963 207
18.66974 188
18.68986 199
18.70997 171
18.73008 194
18.7502 203
18.77031 193
18.79042 196
18.81054 208
18.83065 210
18.85077 169
18.87088 195
18.89099 190
18.91111 200
18.93122 175
18.95133 198
18.97145 200
18.99156 185
19.01168 197
19.03179 196
19.0519 211
19.07202 204
19.09213 212
19.11224 215
19.13236 200
19.15247 215
19.17258 192
19.1927 198
19.21281 185
19.23293 205
19.25304 198
19.27315 191
19.29327 211
19.31338 187
19.33349 196
19.35361 178
19.37372 213
19.39384 222
19.41395 223
19.43406 217
19.45418 210
19.47429 231
19.4944 233
19.51452 213
19.53463 255
19.55475 258
19.57486 261
19.59497 274
19.61509 238
19.6352 273
19.65531 271
19.67543 322
19.69554 314
19.71565 320
19.73577 331
19.75588 349
19.776 337
19.79611 363
19.81622 362
19.83634 357
19.85645 384
19.87656 367
19.89668 330
19.91679 365
19.93691 390
19.95702 360
19.97713 349
19.99725 323
20.01736 348
20.03747 372
20.05759 380
20.0777 359
20.09782 329
20.11793 367
20.13804 367
20.15816 378
20.17827 348
20.19838 357
20.2185 324
20.23861 355
20.25872 364
20.27884 384
20.29895 381
20.31907 384
20.33918 371
20.35929 408
20.37941 381
20.39952 414
20.41963 389
20.43975 359
20.45986 431
20.47998 441
20.50009 451
20.5202 490
20.54032 464
20.56043 521
20.58054 547
20.60066 642
20.62077 689
20.64088 863
20.661 1006
20.68111 1352
20.70123 1704
20.72134 2211
20.74145 2849
20.76157 3646
20.78168 4662
20.80179 5643
20.82191 6120
20.84202 6814
20.86214 6409
20.88225 5853
20.90236 4917
20.92248 3731
20.94259 2652
20.9627 1803
20.98282 1245
21.00293 926
21.02305 710
21.04316 619
21.06327 501
21.08339 536
21.1035 485
21.12361 390
21.14373 461
21.16384 426
21.18395 409
21.20407 337
21.22418 356
21.2443 312
21.26441 316
21.28452 339
21.30464 278
21.32475 332
21.34486 277
21.36498 297
21.38509 286
21.40521 288
21.42532 305
21.44543 316
21.46555 316
21.48566 321
21.50577 314
21.52589 260
21.546 306
21.56612 314
21.58623 264
21.60634 281
21.62646 274
21.64657 265
21.66668 292
21.6868 333
21.70691 283
21.72702 254
21.74714 303
21.76725 286
21.78737 241
21.80748 273
21.82759 291
21.84771 285
21.86782 250
21.88793 276
21.90805 275
21.92816 254
21.94828 248
21.96839 287
21.9885 268
22.00862 298
22.02873 274
22.04884 266
22.06896 262
22.08907 260
22.10919 271
22.1293 274
22.14941 244
22.16953 275
22.18964 256
22.20975 281
22.22987 239
22.24998 286
22.27009 290
22.29021 261
22.31032 273
22.33044 296
22.35055 265
22.37066 263
22.39078 272
22.41089 218
22.431 269
22.45112 283
22.47123 228
22.49135 231
22.51146 232
22.53157 275
22.55169 266
22.5718 265
22.59191 238
22.61203 214
22.63214 237
22.65225 266
22.67237 279
22.69248 245
22.7126 263
22.73271 276
22.75282 240
22.77294 262
22.79305 244
22.81316 262
22.83328 219
22.85339 241
22.87351 255
22.89362 217
22.91373 274
22.93385 265
22.95396 238
22.97407 288
22.99419 240
23.0143 244
23.03442 236
23.05453 262
23.07464 266
23.09476 281
23.11487 291
23.13498 265
23.1551 291
23.17521 273
23.19532 296
23.21544 301
23.23555 281
23.25567 237
23.27578 265
23.29589 254
23.31601 274
23.33612 213
23.35623 216
23.37635 258
23.39646 258
23.41658 243
23.43669 265
23.4568 242
23.47692 222
23.49703 269
23.51714 257
23.53726 241
23.55737 214
23.57749 238
23.5976 247
23.61771 232
23.63783 260
23.65794 248
23.67805 264
23.69817 243
23.71828 262
23.73839 253
23.75851 257
23.77862 262
23.79874 273
23.81885 269
23.83896 280
23.85908 261
23.87919 277
23.8993 325
23.91942 299
23.93953 307
23.95965 306
23.97976 372
23.99987 320
24.01999 309
24.0401 280
24.06021 321
24.08033 285
24.10044 273
24.12056 260
24.14067 234
24.16078 244
24.1809 289
24.20101 285
24.22112 254
24.24124 277
24.26135 290
24.28146 253
24.30158 271
24.32169 291
24.34181 254
24.36192 293
24.38203 278
24.40215 255
24.42226 259
24.44237 269
24.46249 245
24.4826 248
24.50272 265
24.52283 260
24.54294 268
24.56306 261
24.58317 273
24.60328 264
24.6234 285
24.64351 256
24.66362 276
24.68374 271
24.70385 298
24.72397 288
24.74408 302
24.76419 271
24.78431 286
24.80442 251
24.82453 298
24.84465 272
24.86476 301
24.88488 293
24.90499 324
24.9251 322
24.94522 251
24.96533 269
24.98544 258
25.00556 225
25.02567 273
25.04579 264
25.0659 271
25.08601 272
25.10613 256
25.12624 259
25.14635 261
25.16647 270
25.18658 233
25.20669 283
25.22681 248
25.24692 270
25.26704 297
25.28715 279
25.30726 300
25.32738 261
25.34749 281
25.3676 279
25.38772 263
25.40783 285
25.42795 282
25.44806 307
25.46817 271
25.48829 300
25.5084 341
25.52851 319
25.54863 302
25.56874 350
25.58886 335
25.60897 339
25.62908 351
25.6492 371
25.66931 369
25.68942 426
25.70954 415
25.72965 401
25.74976 375
25.76988 421
25.78999 436
25.81011 438
25.83022 447
25.85033 441
25.87045 428
25.89056 494
25.91067 464
25.93079 458
25.9509 470
25.97102 441
25.99113 486
26.01124 509
26.03136 492
26.05147 540
26.07158 542
26.0917 592
26.11181 689
26.13193 691
26.15204 733
26.17215 790
26.19227 788
26.21238 895
26.23249 978
26.25261 1138
26.27272 1189
26.29283 1350
26.31295 1514
26.33306 1703
26.35318 2072
26.37329 2542
26.3934 3209
26.41352 4028
26.43363 4958
26.45374 6565
26.47386 8310
26.49397 10736
26.51409 13825
26.5342 17704
26.55431 21317
26.57443 25211
26.59454 28129
26.61465 29962
26.63477 29595
26.65488 26718
26.67499 21857
26.69511 17427
26.71522 13284
26.73534 9213
26.75545 6076
26.77556 3870
26.79568 2755
26.81579 1993
26.8359 1600
26.85602 1342
26.87613 1141
26.89625 1088
26.91636 979
26.93647 959
26.95659 802
26.9767 818
26.99681 659
27.01693 650
27.03704 614
27.05716 586
27.07727 566
27.09738 550
27.1175 492
27.13761 492
27.15772 457
27.17784 465
27.19795 511
27.21806 436
27.23818 460
27.25829 446
27.27841 445
27.29852 457
27.31863 482
27.33875 440
27.35886 481
27.37897 498
27.39909 515
27.4192 492
27.43932 517
27.45943 496
27.47954 470
27.49966 431
27.51977 415
27.53988 429
27.56 373
27.58011 387
27.60023 372
27.62034 372
27.64045 345
27.66057 333
27.68068 349
27.70079 309
27.72091 346
27.74102 351
27.76113 354
27.78125 362
27.80136 343
27.82148 360
27.84159 328
27.8617 337
27.88182 341
27.90193 357
27.92204 321
27.94216 345
27.96227 315
27.98239 311
28.0025 314
28.02261 300
28.04273 316
28.06284 270
28.08295 339
28.10307 288
28.12318 301
28.1433 288
28.16341 312
28.18352 297
28.20364 292
28.22375 262
28.24386 274
28.26398 307
28.28409 307
28.3042 288
28.32432 298
28.34443 277
28.36455 262
28.38466 275
28.40477 232
28.42489 272
28.445 251
28.46511 276
28.48523 262
28.50534 242
28.52546 266
28.54557 273
28.56568 267
28.5858 243
28.60591 278
28.62602 264
28.64614 265
28.66625 298
28.68636 264
28.70648 231
28.72659 255
28.74671 241
28.76682 250
28.78693 250
28.80705 224
28.82716 273
28.84727 244
28.86739 248
28.8875 271
28.90762 242
28.92773 270
28.94784 233
28.96796 230
28.98807 251
29.00818 271
29.0283 281
29.04841 225
29.06853 254
29.08864 220
29.10875 237
29.12887 241
29.14898 230
29.16909 239
29.18921 282
29.20932 258
29.22943 238
29.24955 259
29.26966 257
29.28978 233
29.30989 230
29.33 275
29.35012 314
29.37023 283
29.39034 259
29.41046 252
29.43057 302
29.45069 271
29.4708 243
29.49091 269
29.51103 269
29.53114 262
29.55125 235
29.57137 254
29.59148 242
29.6116 257
29.63171 256
29.65182 224
29.67194 251
29.69205 254
29.71216 241
29.73228 275
29.75239 249
29.7725 259
29.79262 242
29.81273 232
29.83285 243
29.85296 255
29.87307 235
29.89319 230
29.9133 230
29.93341 222
29.95353 233
29.97364 193
29.99376 211
30.01387 237
30.03398 230
30.0541 241
30.07421 235
30.09432 214
30.11444 256
30.13455 241
30.15467 264
30.17478 243
30.19489 250
30.21501 219
30.23512 256
30.25523 261
30.27535 242
30.29546 212
30.31557 257
30.33569 224
30.3558 235
30.37592 220
30.39603 227
30.41614 220
30.43626 222
30.45637 248
30.47648 208
30.4966 241
30.51671 214
30.53683 226
30.55694 252
30.57705 246
30.59717 225
30.61728 249
30.63739 218
30.65751 227
30.67762 220
30.69773 212
30.71785 227
30.73796 249
30.75808 250
30.77819 252
30.7983 235
30.81842 247
30.83853 253
30.85864 240
30.87876 226
30.89887 219
30.91899 251
30.9391 220
30.95921 238
30.97933 226
30.99944 238
31.01955 200
31.03967 211
31.05978 225
31.0799 234
31.10001 194
31.12012 227
31.14024 221
31.16035 193
31.18046 207
31.20058 199
31.22069 200
31.2408 194
31.26092 216
31.28103 205
31.30115 206
31.32126 191
31.34137 198
31.36149 213
31.3816 216
31.40171 191
31.42183 189
31.44194 201
31.46206 163
31.48217 195
31.50228 164
31.5224 174
31.54251 197
31.56262 181
31.58274 205
31.60285 192
31.62297 202
31.64308 194
31.66319 152
31.68331 195
31.70342 212
31.72353 201
31.74365 182
31.76376 181
31.78387 182
31.80399 198
31.8241 189
31.84422 192
31.86433 175
31.88444 174
31.90456 189
31.92467 197
31.94478 189
31.9649 193
31.98501 184
32.00513 200
32.02524 165
32.04535 232
32.06547 205
32.08558 186
32.10569 183
32.12581 168
32.14592 180
32.16604 223
32.18615 194
32.20626 162
32.22638 159
32.24649 188
32.2666 198
32.28672 199
32.30683 204
32.32694 189
32.34706 210
32.36717 198
32.38729 194
32.4074 201
32.42751 206
32.44763 210
32.46774 193
32.48785 220
32.50797 180
32.52808 207
32.5482 190
32.56831 192
32.58842 188
32.60854 189
32.62865 199
32.64876 188
32.66888 178
32.68899 171
32.7091 169
32.72922 170
32.74933 186
32.76945 160
32.78956 173
32.80967 191
32.82979 182
32.8499 170
32.87001 197
32.89013 171
32.91024 168
32.93036 190
32.95047 170
32.97058 163
32.9907 191
33.01081 182
33.03092 178
33.05104 141
33.07115 172
33.09127 193
33.11138 184
33.13149 153
33.15161 179
33.17172 178
33.19183 161
33.21195 162
33.23206 178
33.25217 175
33.27229 159
33.2924 212
33.31252 180
33.33263 185
33.35274 166
33.37286 177
33.39297 169
33.41308 158
33.4332 157
33.45331 181
33.47343 163
33.49354 159
33.51365 177
33.53377 156
33.55388 165
33.57399 182
33.59411 158
33.61422 166
33.63434 164
33.65445 168
33.67456 151
33.69468 180
33.71479 166
33.7349 163
33.75502 126
33.77513 178
33.79524 172
33.81536 172
33.83547 195
33.85559 176
33.8757 158
33.89581 153
33.91593 170
33.93604 178
33.95615 155
33.97627 177
33.99638 169
34.0165 150
34.03661 187
34.05672 176
34.07684 169
34.09695 169
34.11706 161
34.13718 184
34.15729 202
34.17741 174
34.19752 194
34.21763 172
34.23775 188
34.25786 188
34.27797 196
34.29809 188
34.3182 185
34.33831 183
34.35843 188
34.37854 202
34.39866 209
34.41877 177
34.43888 207
34.459 187
34.47911 223
34.49922 184
34.51934 188
34.53945 210
34.55957 229
34.57968 181
34.59979 195
34.61991 176
34.64002 201
34.66013 205
34.68025 224
34.70036 182
34.72047 207
34.74059 216
34.7607 203
34.78082 244
34.80093 254
34.82104 244
34.84116 243
34.86127 252
34.88138 231
34.9015 246
34.92161 245
34.94173 269
34.96184 257
34.98195 246
35.00207 236
35.02218 276
35.04229 236
35.06241 243
35.08252 242
35.10264 233
35.12275 239
35.14286 250
35.16298 224
35.18309 219
35.2032 217
35.22332 250
35.24343 218
35.26354 234
35.28366 246
35.30377 226
35.32389 229
35.344 244
35.36411 243
35.38423 221
35.40434 223
35.42445 244
35.44457 232
35.46468 228
35.4848 220
35.50491 262
35.52502 245
35.54514 197
35.56525 225
35.58536 244
35.60548 209
35.62559 241
35.64571 255
35.66582 230
35.68593 213
35.70605 256
35.72616 232
35.74627 221
35.76639 248
35.7865 244
35.80661 244
35.82673 240
35.84684 218
35.86696 230
35.88707 202
35.90718 237
35.9273 242
35.94741 257
35.96752 233
35.98764 236
36.00775 232
36.02787 245
36.04798 249
36.06809 227
36.08821 252
36.10832 258
36.12843 238
36.14855 241
36.16866 293
36.18878 307
36.20889 307
36.229 353
36.24912 371
36.26923 424
36.28934 465
36.30946 517
36.32957 650
36.34968 787
36.3698 885
36.38991 1052
36.41003 1235
36.43014 1371
36.45025 1583
36.47037 1932
36.49048 1981
36.51059 2142
36.53071 2144
36.55082 1887
36.57094 1644
36.59105 1365
36.61116 1261
36.63128 991
36.65139 840
36.6715 602
36.69162 466
36.71173 367
36.73184 340
36.75196 300
36.77207 281
36.79219 271
36.8123 249
36.83241 265
36.85253 238
36.87264 223
36.89275 206
36.91287 213
36.93298 247
36.9531 220
36.97321 190
36.99332 235
37.01344 209
37.03355 216
37.05366 217
37.07378 197
37.09389 226
37.11401 196
37.13412 207
37.15423 198
37.17435 166
37.19446 229
37.21457 209
37.23469 202
37.2548 214
37.27491 189
37.29503 211
37.31514 167
37.33526 205
37.35537 213
37.37548 209
37.3956 181
37.41571 195
37.43582 184
37.45594 210
37.47605 227
37.49617 216
37.51628 207
37.53639 209
37.55651 233
37.57662 187
37.59673 232
37.61685 194
37.63696 183
37.65708 216
37.67719 169
37.6973 223
37.71742 211
37.73753 214
37.75764 208
37.77776 222
37.79787 213
37.81798 199
37.8381 188
37.85821 194
37.87833 205
37.89844 222
37.91855 209
37.93867 193
37.95878 211
37.97889 190
37.99901 196
38.01912 202
38.03924 176
38.05935 199
38.07946 217
38.09958 232
38.11969 230
38.1398 206
38.15992 206
38.18003 200
38.20015 233
38.22026 201
38.24037 223
38.26049 204
38.2806 226
38.30071 198
38.32083 234
38.34094 194
38.36105 217
38.38117 240
38.40128 238
38.4214 228
38.44151 220
38.46162 192
38.48174 220
38.50185 204
38.52196 232
38.54208 227
38.56219 234
38.58231 219
38.60242 187
38.62253 209
38.64265 224
38.66276 183
38.68287 216
38.70299 224
38.7231 227
38.74321 201
38.76333 218
38.78344 234
38.80356 229
38.82367 217
38.84378 203
38.8639 210
38.88401 222
38.90412 218
38.92424 217
38.94435 238
38.96447 246
38.98458 241
39.00469 257
39.02481 242
39.04492 267
39.06503 242
39.08515 273
39.10526 262
39.12538 320
39.14549 341
39.1656 387
39.18572 391
39.20583 470
39.22594 506
39.24606 593
39.26617 712
39.28628 766
39.3064 946
39.32651 1089
39.34663 1287
39.36674 1447
39.38685 1655
39.40697 1791
39.42708 1949
39.44719 1917
39.46731 1782
39.48742 1653
39.50754 1441
39.52765 1188
39.54776 1049
39.56788 846
39.58799 714
39.6081 573
39.62822 413
39.64833 328
39.66845 299
39.68856 287
39.70867 263
39.72879 267
39.7489 268
39.76901 223
39.78913 255
39.80924 249
39.82935 228
39.84947 229
39.86958 217
39.8897 274
39.90981 225
39.92992 305
39.95004 245
39.97015 300
39.99026 293
40.01038 312
40.03049 328
40.05061 371
40.07072 409
40.09083 423
40.11095 499
40.13106 595
40.15117 704
40.17129 757
40.1914 785
40.21152 960
40.23163 1126
40.25174 1029
40.27186 970
40.29197 958
40.31208 850
40.3322 743
40.35231 660
40.37242 581
40.39254 500
40.41265 446
40.43277 345
40.45288 287
40.47299 267
40.49311 240
40.51322 216
40.53333 202
40.55345 209
40.57356 194
40.59368 214
40.61379 200
40.6339 196
40.65402 200
40.67413 182
40.69424 183
40.71436 167
40.73447 174
40.75458 180
40.7747 171
40.79481 201
40.81493 190
40.83504 213
40.85515 163
40.87527 202
40.89538 183
40.91549 178
40.93561 199
40.95572 167
40.97584 153
40.99595 186
41.01606 168
41.03618 202
41.05629 187
41.0764 171
41.09652 209
41.11663 177
41.13675 175
41.15686 203
41.17697 186
41.19709 191
41.2172 199
41.23731 195
41.25743 196
41.27754 185
41.29765 174
41.31777 222
41.33788 197
41.358 179
41.37811 162
41.39822 202
41.41834 168
41.43845 157
41.45856 204
41.47868 191
41.49879 173
41.51891 200
41.53902 169
41.55913 216
41.57925 196
41.59936 197
41.61947 197
41.63959 198
41.6597 181
41.67982 203
41.69993 233
41.72004 193
41.74016 198
41.76027 176
41.78038 256
41.8005 205
41.82061 218
41.84072 213
41.86084 190
41.88095 203
41.90107 206
41.92118 193
41.94129 225
41.96141 188
41.98152 211
42.00163 202
42.02175 214
42.04186 220
42.06198 249
42.08209 275
42.1022 285
42.12232 286
42.14243 333
42.16254 335
42.18266 355
42.20277 425
42.22289 468
42.243 535
42.26311 638
42.28323 737
42.30334 903
42.32345 903
42.34357 1096
42.36368 1227
42.38379 1335
42.40391 1410
42.42402 1390
42.44414 1326
42.46425 1260
42.48436 1053
42.50448 885
42.52459 809
42.5447 729
42.56482 627
42.58493 500
42.60505 349
42.62516 332
42.64527 260
42.66539 235
42.6855 249
42.70561 248
42.72573 209
42.74584 201
42.76595 212
42.78607 196
42.80618 199
42.8263 191
42.84641 184
42.86652 176
42.88664 171
42.90675 172
42.92686 183
42.94698 201
42.96709 184
42.98721 176
43.00732 197
43.02743 157
43.04755 191
43.06766 167
43.08777 187
43.10789 185
43.128 162
43.14812 154
43.16823 171
43.18834 196
43.20846 203
43.22857 164
43.24868 167
43.2688 192
43.28891 163
43.30902 162
43.32914 179
43.34925 158
43.36937 163
43.38948 175
43.40959 159
43.42971 166
43.44982 151
43.46993 171
43.49005 177
43.51016 169
43.53028 199
43.55039 171
43.5705 183
43.59062 163
43.61073 179
43.63084 172
43.65096 172
43.67107 186
43.69119 165
43.7113 157
43.73141 161
43.75153 158
43.77164 177
43.79175 162
43.81187 157
43.83198 176
43.85209 203
43.87221 180
43.89232 156
43.91244 164
43.93255 151
43.95266 170
43.97278 184
43.99289 190
44.013 169
44.03312 179
44.05323 156
44.07335 185
44.09346 163
44.11357 139
44.13369 149
44.1538 165
44.17391 180
44.19403 166
44.21414 159
44.23426 182
44.25437 164
44.27448 178
44.2946 162
44.31471 168
44.33482 152
44.35494 156
44.37505 191
44.39516 151
44.41528 172
44.43539 173
44.45551 178
44.47562 180
44.49573 179
44.51585 178
44.53596 172
44.55607 177
44.57619 180
44.5963 162
44.61642 182
44.63653 158
44.65664 153
44.67676 159
44.69687 179
44.71698 177
44.7371 164
44.75721 147
44.77732 174
44.79744 177
44.81755 189
44.83767 171
44.85778 161
44.87789 176
44.89801 176
44.91812 177
44.93823 173
44.95835 198
44.97846 169
44.99858 190
45.01869 173
45.0388 161
45.05892 185
45.07903 167
45.09914 178
45.11926 177
45.13937 174
45.15949 186
45.1796 164
45.19971 171
45.21983 182
45.23994 175
45.26005 198
45.28017 198
45.30028 202
45.32039 209
45.34051 193
45.36062 225
45.38074 216
45.40085 210
45.42096 206
45.44108 247
45.46119 253
45.4813 295
45.50142 314
45.52153 326
45.54165 345
45.56176 404
45.58187 429
45.60199 501
45.6221 520
45.64221 586
45.66233 668
45.68244 780
45.70256 885
45.72267 862
45.74278 981
45.7629 903
45.78301 881
45.80312 835
45.82324 699
45.84335 661
45.86346 568
45.88358 534
45.90369 504
45.92381 403
45.94392 334
45.96403 303
45.98415 247
46.00426 230
46.02437 218
46.04449 206
46.0646 174
46.08472 169
46.10483 200
46.12494 178
46.14506 175
46.16517 171
46.18528 161
46.2054 180
46.22551 172
46.24563 188
46.26574 184
46.28585 169
46.30597 171
46.32608 174
46.34619 192
46.36631 163
46.38642 158
46.40653 146
46.42665 176
46.44676 168
46.46688 145
46.48699 153
46.5071 149
46.52722 143
46.54733 150
46.56744 156
46.58756 156
46.60767 154
46.62779 162
46.6479 160
46.66801 145
46.68813 183
46.70824 149
46.72835 141
46.74847 146
46.76858 139
46.78869 142
46.80881 140
46.82892 158
46.84904 156
46.86915 140
46.88926 146
46.90938 147
46.92949 150
46.9496 176
46.96972 150
46.98983 145
47.00995 168
47.03006 168
47.05017 157
47.07029 173
47.0904 170
47.11051 158
47.13063 151
47.15074 154
47.17086 155
47.19097 160
47.21108 149
47.2312 154
47.25131 165
47.27142 163
47.29154 139
47.31165 167
47.33176 162
47.35188 151
47.37199 157
47.39211 170
47.41222 149
47.43233 161
47.45245 140
47.47256 160
47.49267 160
47.51279 156
47.5329 156
47.55302 150
47.57313 120
47.59324 150
47.61336 162
47.63347 151
47.65358 164
47.6737 141
47.69381 156
47.71393 159
47.73404 149
47.75415 158
47.77427 154
47.79438 156
47.81449 152
47.83461 175
47.85472 151
47.87483 153
47.89495 151
47.91506 176
47.93518 156
47.95529 159
47.9754 157
47.99552 156
48.01563 188
48.03574 151
48.05586 154
48.07597 154
48.09609 178
48.1162 161
48.13631 147
48.15643 169
48.17654 156
48.19665 144
48.21677 142
48.23688 138
48.257 163
48.27711 147
48.29722 173
48.31734 157
48.33745 162
48.35756 154
48.37768 153
48.39779 146
48.4179 168
48.43802 165
48.45813 168
48.47825 163
48.49836 185
48.51847 154
48.53859 174
48.5587 160
48.57881 166
48.59893 168
48.61904 180
48.63916 168
48.65927 156
48.67938 156
48.6995 180
48.71961 174
48.73972 161
48.75984 162
48.77995 175
48.80006 155
48.82018 185
48.84029 174
48.86041 180
48.88052 183
48.90063 160
48.92075 177
48.94086 179
48.96097 159
48.98109 186
49.0012 173
49.02132 188
49.04143 184
49.06154 151
49.08166 163
49.10177 180
49.12188 199
49.142 153
49.16211 172
49.18223 187
49.20234 143
49.22245 166
49.24257 179
49.26268 167
49.28279 178
49.30291 187
49.32302 184
49.34313 182
49.36325 144
49.38336 172
49.40348 186
49.42359 188
49.4437 194
49.46382 193
49.48393 174
49.50404 204
49.52416 223
49.54427 202
49.56439 227
49.5845 222
49.60461 252
49.62473 255
49.64484 257
49.66495 283
49.68507 300
49.70518 299
49.7253 327
49.74541 376
49.76552 411
49.78564 438
49.80575 503
49.82586 545
49.84598 664
49.86609 751
49.8862 881
49.90632 963
49.92643 1115
49.94655 1330
49.96666 1511
49.98677 1827
50.00689 2144
50.027 2396
50.04711 2688
50.06723 2885
50.08734 3030
50.10746 3067
50.12757 2835
50.14768 2619
50.1678 2224
50.18791 1854
50.20802 1836
50.22814 1583
50.24825 1488
50.26837 1290
50.28848 1016
50.30859 733
50.32871 574
50.34882 470
50.36893 371
50.38905 319
50.40916 304
50.42927 303
50.44939 323
50.4695 306
50.48962 290
50.50973 286
50.52984 291
50.54996 272
50.57007 270
50.59018 303
50.6103 280
50.63041 248
50.65053 247
50.67064 236
50.69075 221
50.71087 234
50.73098 208
50.75109 215
50.77121 191
50.79132 160
50.81143 173
50.83155 175
50.85166 193
50.87178 157
50.89189 176
50.912 194
50.93212 170
50.95223 174
50.97234 171
50.99246 176
51.01257 159
51.03269 144
51.0528 170
51.07291 167
51.09303 160
51.11314 171
51.13325 165
51.15337 161
51.17348 160
51.1936 154
51.21371 153
51.23382 130
51.25394 165
51.27405 152
51.29416 162
51.31428 139
51.33439 140
51.3545 150
51.37462 164
51.39473 130
51.41485 153
51.43496 156
51.45507 146
51.47519 150
51.4953 149
51.51541 149
51.53553 142
51.55564 142
51.57576 141
51.59587 127
51.61598 150
51.6361 135
51.65621 141
51.67632 146
51.69644 153
51.71655 151
51.73667 130
51.75678 159
51.77689 140
51.79701 141
51.81712 125
51.83723 139
51.85735 149
51.87746 129
51.89757 168
51.91769 133
51.9378 127
51.95792 129
51.97803 126
51.99814 116
52.01826 131
52.03837 152
52.05848 156
52.0786 152
52.09871 155
52.11883 144
52.13894 151
52.15905 156
52.17917 156
52.19928 138
52.21939 159
52.23951 123
52.25962 129
52.27974 149
52.29985 142
52.31996 155
52.34008 141
52.36019 128
52.3803 146
52.40042 149
52.42053 138
52.44064 140
52.46076 133
52.48087 154
52.50099 143
52.5211 178
52.54121 149
52.56133 114
52.58144 160
52.60155 160
52.62167 146
52.64178 159
52.6619 143
52.68201 158
52.70212 151
52.72224 137
52.74235 151
52.76246 142
52.78258 131
52.80269 150
52.8228 154
52.84292 148
52.86303 147
52.88315 177
52.90326 155
52.92337 137
52.94349 159
52.9636 136
52.98371 156
53.00383 177
53.02394 170
53.04406 162
53.06417 155
53.08428 158
53.1044 165
53.12451 160
53.14462 177
53.16474 157
53.18485 174
53.20497 159
53.22508 158
53.24519 142
53.26531 161
53.28542 143
53.30553 156
53.32565 145
53.34576 137
53.36587 146
53.38599 154
53.4061 155
53.42622 168
53.44633 144
53.46644 139
53.48656 152
53.50667 154
53.52678 149
53.5469 172
53.56701 140
53.58713 155
53.60724 175
53.62735 160
53.64747 204
53.66758 166
53.68769 166
53.70781 171
53.72792 162
53.74804 164
53.76815 163
53.78826 152
53.80838 158
53.82849 156
53.8486 174
53.86872 179
53.88883 154
53.90894 154
53.92906 161
53.94917 159
53.96929 192
53.9894 156
54.00951 154
54.02963 160
54.04974 162
54.06985 151
54.08997 184
54.11008 151
54.1302 173
54.15031 189
54.17042 184
54.19054 165
54.21065 170
54.23076 200
54.25088 187
54.27099 187
54.29111 182
54.31122 190
54.33133 183
54.35145 216
54.37156 186
54.39167 205
54.41179 215
54.4319 178
54.45201 237
54.47213 219
54.49224 265
54.51236 252
54.53247 293
54.55258 295
54.5727 320
54.59281 336
54.61292 389
54.63304 373
54.65315 452
54.67327 496
54.69338 607
54.71349 604
54.73361 693
54.75372 789
54.77383 870
54.79395 967
54.81406 991
54.83417 961
54.85429 957
54.8744 893
54.89452 804
54.91463 733
54.93474 663
54.95486 611
54.97497 601
54.99508 593
55.0152 555
55.03531 483
55.05543 415
55.07554 359
55.09565 351
55.11577 357
55.13588 351
55.15599 403
55.17611 433
55.19622 431
55.21634 464
55.23645 503
55.25656 506
55.27668 515
55.29679 507
55.3169 509
55.33702 467
55.35713 394
55.37724 377
55.39736 391
55.41747 327
55.43759 353
55.4577 307
55.47781 300
55.49793 236
55.51804 215
55.53815 187
55.55827 194
55.57838 209
55.5985 193
55.61861 175
55.63872 180
55.65884 180
55.67895 160
55.69906 169
55.71918 181
55.73929 180
55.75941 155
55.77952 162
55.79963 173
55.81975 199
55.83986 143
55.85997 140
55.88009 152
55.9002 150
55.92031 180
55.94043 149
55.96054 138
55.98066 169
56.00077 158
56.02088 180
56.041 145
56.06111 135
56.08122 163
56.10134 161
56.12145 142
56.14157 138
56.16168 150
56.18179 140
56.20191 181
56.22202 155
56.24213 132
56.26225 147
56.28236 156
56.30248 159
56.32259 165
56.3427 134
56.36282 126
56.38293 166
56.40304 155
56.42316 160
56.44327 160
56.46338 155
56.4835 154
56.50361 152
56.52373 163
56.54384 153
56.56395 154
56.58407 133
56.60418 150
56.62429 153
56.64441 151
56.66452 162
56.68464 143
56.70475 147
56.72486 155
56.74498 154
56.76509 152
56.7852 171
56.80532 146
56.82543 156
56.84554 164
56.86566 143
56.88577 189
56.90589 166
56.926 166
56.94611 161
56.96623 151
56.98634 165
57.00645 152
57.02657 181
57.04668 154
57.0668 196
57.08691 162
57.10702 192
57.12714 188
57.14725 189
57.16736 188
57.18748 209
57.20759 185
57.22771 194
57.24782 164
57.26793 173
57.28805 161
57.30816 171
57.32827 160
57.34839 166
57.3685 152
57.38861 153
57.40873 167
57.42884 140
57.44896 139
57.46907 178
57.48918 144
57.5093 178
57.52941 158
57.54952 139
57.56964 135
57.58975 133
57.60987 171
57.62998 156
57.65009 138
57.67021 149
57.69032 164
57.71043 140
57.73055 154
57.75066 162
57.77078 133
57.79089 161
57.811 134
57.83112 152
57.85123 122
57.87134 135
57.89146 155
57.91157 135
57.93168 136
57.9518 162
57.97191 152
57.99203 140
58.01214 147
58.03225 135
58.05237 149
58.07248 147
58.09259 156
58.11271 140
58.13282 130
58.15294 161
58.17305 167
58.19316 162
58.21328 145
58.23339 144
58.2535 162
58.27362 140
58.29373 149
58.31385 148
58.33396 147
58.35407 171
58.37419 179
58.3943 146
58.41441 149
58.43453 148
58.45464 143
58.47475 150
58.49487 162
58.51498 157
58.5351 147
58.55521 138
58.57532 146
58.59544 136
58.61555 154
58.63566 172
58.65578 148
58.67589 147
58.69601 161
58.71612 154
58.73623 156
58.75635 162
58.77646 151
58.79657 179
58.81669 181
58.8368 172
58.85691 158
58.87703 144
58.89714 171
58.91726 172
58.93737 166
58.95748 160
58.9776 151
58.99771 146
59.01782 168
59.03794 156
59.05805 153
59.07817 158
59.09828 163
59.11839 169
59.13851 176
59.15862 153
59.17873 174
59.19885 181
59.21896 186
59.23908 173
59.25919 156
59.2793 177
59.29942 181
59.31953 179
59.33964 171
59.35976 202
59.37987 218
59.39998 212
59.4201 205
59.44021 230
59.46033 223
59.48044 241
59.50055 267
59.52067 307
59.54078 305
59.56089 345
59.58101 350
59.60112 410
59.62124 449
59.64135 502
59.66146 499
59.68158 576
59.70169 663
59.7218 770
59.74192 828
59.76203 954
59.78215 1106
59.80226 1273
59.82237 1490
59.84249 1651
59.8626 1830
59.88271 1991
59.90283 1941
59.92294 1954
59.94305 1807
59.96317 1580
59.98328 1439
60.0034 1303
60.02351 1178
60.04362 1101
60.06374 1000
60.08385 1047
60.10396 900
60.12408 763
60.14419 631
60.16431 435
60.18442 349
60.20453 291
60.22465 289
60.24476 254
60.26487 221
60.28499 187
60.3051 204
60.32522 181
60.34533 187
60.36544 188
60.38556 177
60.40567 165
60.42578 166
60.4459 176
60.46601 161
60.48612 169
60.50624 167
60.52635 164
60.54647 164
60.56658 154
60.58669 177
60.60681 149
60.62692 139
60.64703 185
60.66715 137
60.68726 167
60.70738 170
60.72749 175
60.7476 171
60.76772 177
60.78783 150
60.80794 172
60.82806 141
60.84817 149
60.86828 161
60.8884 191
60.90851 170
60.92863 177
60.94874 153
60.96885 148
60.98897 153
61.00908 159
61.02919 156
61.04931 162
61.06942 154
61.08954 167
61.10965 164
61.12976 154
61.14988 159
61.16999 163
61.1901 163
61.21022 165
61.23033 161
61.25045 165
61.27056 161
61.29067 135
61.31079 174
61.3309 152
61.35101 171
61.37113 154
61.39124 166
61.41135 170
61.43147 156
61.45158 192
61.4717 177
61.49181 159
61.51192 185
61.53204 168
61.55215 176
61.57226 181
61.59238 166
61.61249 192
61.63261 169
61.65272 176
61.67283 187
61.69295 177
61.71306 195
61.73317 156
61.75329 145
61.7734 171
61.79352 190
61.81363 177
61.83374 159
61.85386 174
61.87397 168
61.89408 174
61.9142 183
61.93431 184
61.95442 165
61.97454 191
61.99465 190
62.01477 193
62.03488 204
62.05499 176
62.07511 191
62.09522 222
62.11533 169
62.13545 187
62.15556 192
62.17568 186
62.19579 172
62.2159 181
62.23602 199
62.25613 182
62.27624 196
62.29636 215
62.31647 171
62.33659 181
62.3567 167
62.37681 160
62.39693 139
62.41704 152
62.43715 173
62.45727 175
62.47738 178
62.49749 178
62.51761 158
62.53772 151
62.55784 145
62.57795 136
62.59806 147
62.61818 164
62.63829 160
62.6584 143
62.67852 142
62.69863 166
62.71875 154
62.73886 140
62.75897 146
62.77909 135
62.7992 149
62.81931 147
62.83943 161
62.85954 156
62.87965 124
62.89977 153
62.91988 160
62.94 149
62.96011 153
62.98022 158
63.00034 141
63.02045 142
63.04056 126
63.06068 153
63.08079 161
63.10091 152
63.12102 129
63.14113 145
63.16125 140
63.18136 154
63.20147 119
63.22159 155
63.2417 158
63.26182 122
63.28193 163
63.30204 169
63.32216 140
63.34227 152
63.36238 157
63.3825 158
63.40261 167
63.42272 157
63.44284 137
63.46295 147
63.48307 174
63.50318 154
63.52329 159
63.54341 158
63.56352 162
63.58363 177
63.60375 172
63.62386 156
63.64398 166
63.66409 179
63.6842 187
63.70432 209
63.72443 217
63.74454 198
63.76466 226
63.78477 246
63.80489 278
63.825 294
63.84511 324
63.86523 346
63.88534 378
63.90545 445
63.92557 402
63.94568 501
63.96579 511
63.98591 475
64.00602 474
64.02614 478
64.04625 424
64.06636 373
64.08648 340
64.10659 341
64.1267 309
64.14682 323
64.16693 276
64.18705 258
64.20716 275
64.22727 236
64.24739 209
64.2675 195
64.28761 176
64.30773 155
64.32784 147
64.34796 153
64.36807 162
64.38818 148
64.4083 174
64.42841 157
64.44852 137
64.46864 155
64.48875 140
64.50886 118
64.52898 135
64.54909 139
64.56921 128
64.58932 149
64.60943 146
64.62955 152
64.64966 130
64.66977 144
64.68989 129
64.71 155
64.73012 122
64.75023 142
64.77034 145
64.79046 125
64.81057 131
64.83068 161
64.8508 143
64.87091 137
64.89102 149
64.91114 142
64.93125 149
64.95137 150
64.97148 163
64.99159 156
65.01171 150
65.03182 134
65.05193 138
65.07205 143
65.09216 156
65.11228 128
65.13239 154
65.1525 154
65.17262 135
65.19273 147
65.21284 156
65.23296 156
65.25307 148
65.27319 161
65.2933 157
65.31341 151
65.33353 166
65.35364 153
65.37375 152
65.39387 133
65.41398 177
65.43409 169
65.45421 159
65.47432 188
65.49444 162
65.51455 197
65.53466 171
65.55478 195
65.57489 207
65.595 198
65.61512 195
65.63523 203
65.65535 176
65.67546 182
65.69557 234
65.71569 214
65.7358 232
65.75591 257
65.77603 218
65.79614 203
65.81626 180
65.83637 201
65.85648 193
65.8766 203
65.89671 175
65.91682 177
65.93694 174
65.95705 175
65.97716 183
65.99728 162
66.01739 162
66.03751 169
66.05762 172
66.07773 141
66.09785 151
66.11796 129
66.13807 162
66.15819 148
66.1783 145
66.19842 176
66.21853 162
66.23864 158
66.25876 172
66.27887 169
66.29898 168
66.3191 174
66.33921 153
66.35933 167
66.37944 145
66.39955 160
66.41967 153
66.43978 150
66.45989 145
66.48001 146
66.50012 150
66.52023 161
66.54035 147
66.56046 169
66.58058 127
66.60069 158
66.6208 158
66.64092 162
66.66103 178
66.68114 158
66.70126 152
66.72137 164
66.74149 157
66.7616 155
66.78171 164
66.80183 154
66.82194 143
66.84205 154
66.86217 152
66.88228 170
66.90239 172
66.92251 160
66.94262 164
66.96274 181
66.98285 145
67.00296 179
67.02308 183
67.04319 174
67.0633 177
67.08342 165
67.10353 185
67.12365 193
67.14376 187
67.16387 198
67.18399 239
67.2041 219
67.22421 229
67.24433 208
67.26444 235
67.28456 257
67.30467 263
67.32478 264
67.3449 282
67.36501 325
67.38512 349
67.40524 336
67.42535 395
67.44546 372
67.46558 476
67.48569 476
67.50581 548
67.52592 617
67.54603 717
67.56615 824
67.58626 899
67.60637 976
67.62649 1010
67.6466 1189
67.66672 1300
67.68683 1387
67.70694 1230
67.72706 1261
67.74717 1148
67.76728 1083
67.7874 936
67.80751 949
67.82763 1002
67.84774 1024
67.86785 1037
67.88797 1103
67.90808 1124
67.92819 1118
67.94831 1133
67.96842 1151
67.98853 1247
68.00865 1317
68.02876 1538
68.04888 1613
68.06899 1641
68.0891 1703
68.10922 1742
68.12933 1731
68.14944 1671
68.16956 1552
68.18967 1502
68.20979 1503
68.2299 1487
68.25001 1486
68.27013 1584
68.29024 1434
68.31035 1287
68.33047 1065
68.35058 979
68.3707 843
68.39081 710
68.41092 696
68.43104 629
68.45115 566
68.47126 550
68.49138 505
68.51149 420
68.5316 357
68.55172 322
68.57183 274
68.59195 264
68.61206 218
68.63217 203
68.65229 181
68.6724 198
68.69251 214
68.71263 179
68.73274 187
68.75286 195
68.77297 173
68.79308 172
68.8132 170
68.83331 158
68.85342 171
68.87354 173
68.89365 149
68.91376 155
68.93388 169
68.95399 140
68.97411 153
68.99422 149
69.01433 149
69.03445 167
69.05456 162
69.07467 152
69.09479 143
69.1149 139
69.13502 153
69.15513 150
69.17524 153
69.19536 156
69.21547 160
69.23558 136
69.2557 143
69.27581 147
69.29593 171
69.31604 141
69.33615 161
69.35627 159
69.37638 145
69.39649 142
69.41661 137
69.43672 149
69.45683 133
69.47695 146
69.49706 152
69.51718 131
69.53729 122
69.5574 141
69.57752 167
69.59763 148
69.61774 159
69.63786 135
69.65797 147
69.67809 129
69.6982 132
69.71831 146
69.73843 156
69.75854 149
69.77865 144
69.79877 154
69.81888 145
69.839 137
69.85911 141
69.87922 152
69.89934 150
69.91945 149
69.93956 152
69.95968 141
69.97979 133
69.9999 144
70.02002 135
70.04013 140
70.06025 158
70.08036 135
70.10047 134
70.12059 139
70.1407 153
70.16081 140
70.18093 144
70.20104 132
70.22116 135
70.24127 124
70.26138 144
70.2815 129
70.30161 137
70.32172 133
70.34184 155
70.36195 142
70.38207 151
70.40218 162
70.42229 150
70.44241 118
70.46252 135
70.48263 124
70.50275 136
70.52286 147
70.54297 120
70.56309 133
70.5832 140
70.60332 140
70.62343 128
70.64354 134
70.66366 137
70.68377 158
70.70388 130
70.724 148
70.74411 130
70.76423 133
70.78434 118
70.80445 147
70.82457 137
70.84468 129
70.86479 157
70.88491 151
70.90502 124
70.92513 145
70.94525 135
70.96536 129
70.98548 149
71.00559 131
71.0257 145
71.04582 132
71.06593 120
71.08604 121
71.10616 124
71.12627 132
71.14639 143
71.1665 143
71.18661 144
71.20673 123
71.22684 122
71.24695 131
71.26707 141
71.28718 159
71.3073 136
71.32741 141
71.34752 139
71.36764 142
71.38775 118
71.40786 145
71.42798 143
71.44809 116
71.4682 127
71.48832 140
71.50843 119
71.52855 132
71.54866 137
71.56877 153
71.58889 147
71.609 150
71.62911 143
71.64923 147
71.66934 128
71.68946 138
71.70957 116
71.72968 131
71.7498 148
71.76991 129
71.79002 142
71.81014 134
71.83025 139
71.85037 142
71.87048 143
71.89059 132
71.91071 144
71.93082 119
71.95093 135
71.97105 138
71.99116 135
72.01127 136
72.03139 130
72.0515 132
72.07162 155
72.09173 135
72.11184 128
72.13196 148
72.15207 147
72.17218 127
72.1923 161
72.21241 128
72.23253 118
72.25264 144
72.27275 124
72.29287 154
72.31298 138
72.33309 123
72.35321 144
72.37332 145
72.39344 153
72.41355 131
72.43366 148
72.45378 147
72.47389 149
72.494 162
72.51412 126
72.53423 140
72.55434 146
72.57446 159
72.59457 134
72.61469 143
72.6348 137
72.65491 128
72.67503 148
72.69514 144
72.71525 163
72.73537 144
72.75548 140
72.7756 142
72.79571 136
72.81582 143
72.83594 144
72.85605 144
72.87616 142
72.89628 155
72.91639 158
72.9365 203
72.95662 156
72.97673 159
72.99685 179
73.01696 191
73.03707 196
73.05719 202
73.0773 201
73.09741 203
73.11753 208
73.13764 202
73.15776 225
73.17787 228
73.19798 259
73.2181 230
73.23821 299
73.25832 324
73.27844 371
73.29855 372
73.31867 391
73.33878 459
73.35889 503
73.37901 492
73.39912 535
73.41923 480
73.43935 514
73.45946 449
73.47957 415
73.49969 374
73.5198 357
73.53992 333
73.56003 325
73.58014 340
73.60026 335
73.62037 348
73.64048 320
73.6606 323
73.68071 263
73.70083 269
73.72094 221
73.74105 224
73.76117 190
73.78128 173
73.80139 157
73.82151 169
73.84162 175
73.86174 142
73.88185 152
73.90196 146
73.92208 145
73.94219 147
73.9623 159
73.98242 165
74.00253 134
74.02264 140
74.04276 156
74.06287 129
74.08299 143
74.1031 146
74.12321 127
74.14333 159
74.16344 141
74.18355 150
74.20367 127
74.22378 152
74.2439 133
74.26401 148
74.28412 140
74.30424 129
74.32435 142
74.34446 147
74.36458 134
74.38469 128
74.40481 133
74.42492 155
74.44503 143
74.46515 137
74.48526 122
74.50537 140
74.52549 162
74.5456 156
74.56571 114
74.58583 106
74.60594 151
74.62606 153
74.64617 134
74.66628 146
74.6864 146
74.70651 132
74.72662 147
74.74674 128
74.76685 157
74.78697 146
74.80708 159
74.82719 152
74.84731 122
74.86742 154
74.88753 151
74.90765 138
74.92776 136
74.94787 168
74.96799 137
74.9881 150
75.00822 157
