3.00117 19105
3.02128 18821
3.0414 18341
3.06151 17830
3.08162 17439
3.10174 16564
3.12185 16212
3.14197 15856
3.16208 15273
3.18219 15143
3.20231 14701
3.22242 14188
3.24253 13949
3.26265 13089
3.28276 13052
3.30288 12571
3.32299 11975
3.3431 11788
3.36322 11229
3.38333 11127
3.40344 10599
3.42356 10132
3.44367 10089
3.46379 9571
3.4839 9393
3.50401 8796
3.52413 8547
3.54424 8434
3.56435 8075
3.58447 7655
3.60458 7363
3.62469 7159
3.64481 7043
3.66492 6681
3.68504 6526
3.70515 6117
3.72526 5921
3.74538 5847
3.76549 5382
3.7856 5170
3.80572 4937
3.82583 4715
3.84595 4858
3.86606 4365
3.88617 4331
3.90629 4007
3.9264 3738
3.94651 3879
3.96663 3441
3.98674 3332
4.00686 3154
4.02697 2915
4.04708 3090
4.0672 2686
4.08731 2728
4.10742 2547
4.12754 2523
4.14765 2401
4.16776 2123
4.18788 2068
4.20799 2050
4.22811 1919
4.24822 2039
4.26833 1775
4.28845 1818
4.30856 1748
4.32867 1610
4.34879 1650
4.3689 1442
4.38902 1544
4.40913 1510
4.42924 1452
4.44936 1419
4.46947 1274
4.48958 1291
4.5097 1235
4.52981 1261
4.54992 1338
4.57004 1134
4.59015 1184
4.61027 1114
4.63038 1066
4.65049 1153
4.67061 1049
4.69072 951
4.71083 995
4.73095 968
4.75106 919
4.77118 853
4.79129 872
4.8114 866
4.83152 843
4.85163 847
4.87174 808
4.89186 766
4.91197 800
4.93209 740
4.9522 730
4.97231 663
4.99243 716
5.01254 683
5.03265 655
5.05277 715
5.07288 614
5.09299 635
5.11311 608
5.13322 585
5.15334 558
5.17345 594
5.19356 555
5.21368 592
5.23379 534
5.2539 493
5.27402 481
5.29413 481
5.31425 482
5.33436 472
5.35447 502
5.37459 425
5.3947 467
5.41481 421
5.43493 383
5.45504 425
5.47516 407
5.49527 411
5.51538 343
5.5355 379
5.55561 342
5.57572 351
5.59584 365
5.61595 338
5.63606 332
5.65618 334
5.67629 321
5.69641 298
5.71652 310
5.73663 317
5.75675 280
5.77686 302
5.79697 285
5.81709 280
5.8372 263
5.85732 243
5.87743 297
5.89754 272
5.91766 232
5.93777 263
5.95788 292
5.978 265
5.99811 240
6.01823 267
6.03834 234
6.05845 265
6.07857 240
6.09868 264
6.11879 233
6.13891 247
6.15902 259
6.17913 253
6.19925 208
6.21936 230
6.23948 216
6.25959 247
6.2797 210
6.29982 216
6.31993 242
6.34004 227
6.36016 238
6.38027 226
6.40039 250
6.4205 228
6.44061 183
6.46073 210
6.48084 250
6.50095 224
6.52107 192
6.54118 236
6.56129 202
6.58141 206
6.60152 187
6.62164 212
6.64175 191
6.66186 204
6.68198 193
6.70209 204
6.7222 227
6.74232 233
6.76243 215
6.78255 203
6.80266 180
6.82277 207
6.84289 226
6.863 214
6.88311 205
6.90323 185
6.92334 227
6.94346 177
6.96357 201
6.98368 202
7.0038 197
7.02391 197
7.04402 184
7.06414 224
7.08425 186
7.10436 209
7.12448 208
7.14459 231
7.16471 200
7.18482 191
7.20493 231
7.22505 188
7.24516 205
7.26527 238
7.28539 235
7.3055 197
7.32562 194
7.34573 219
7.36584 210
7.38596 202
7.40607 214
7.42618 204
7.4463 225
7.46641 230
7.48653 233
7.50664 211
7.52675 231
7.54687 224
7.56698 232
7.58709 228
7.60721 243
7.62732 208
7.64743 203
7.66755 252
7.68766 223
7.70778 243
7.72789 233
7.748 201
7.76812 235
7.78823 218
7.80834 273
7.82846 252
7.84857 242
7.86869 221
7.8888 204
7.90891 222
7.92903 223
7.94914 247
7.96925 250
7.98937 230
8.00948 215
8.0296 246
8.04971 220
8.06982 228
8.08994 243
8.11005 222
8.13016 226
8.15028 216
8.17039 247
8.1905 251
8.21062 267
8.23073 236
8.25085 223
8.27096 236
8.29107 241
8.31119 200
8.3313 221
8.35141 230
8.37153 256
8.39164 230
8.41176 250
8.43187 245
8.45198 237
8.4721 246
8.49221 231
8.51232 245
8.53244 269
8.55255 241
8.57266 258
8.59278 272
8.61289 210
8.63301 248
8.65312 249
8.67323 252
8.69335 235
8.71346 241
8.73357 259
8.75369 244
8.7738 246
8.79392 242
8.81403 252
8.83414 245
8.85426 219
8.87437 277
8.89448 266
8.9146 263
8.93471 221
8.95483 246
8.97494 266
8.99505 229
9.01517 208
9.03528 231
9.05539 253
9.07551 194
9.09562 246
9.11573 267
9.13585 274
9.15596 247
9.17608 258
9.19619 220
9.2163 251
9.23642 237
9.25653 250
9.27664 209
9.29676 241
9.31687 244
9.33699 243
9.3571 244
9.37721 235
9.39733 233
9.41744 255
9.43755 230
9.45767 257
9.47778 223
9.4979 251
9.51801 232
9.53812 231
9.55824 247
9.57835 235
9.59846 254
9.61858 250
9.63869 216
9.6588 238
9.67892 234
9.69903 238
9.71915 233
9.73926 269
9.75937 234
9.77949 288
9.7996 272
9.81971 249
9.83983 240
9.85994 230
9.88006 231
9.90017 256
9.92028 268
9.9404 245
9.96051 234
9.98062 223
10.00074 290
10.02085 237
10.04097 257
10.06108 248
10.08119 247
10.10131 247
10.12142 252
10.14153 257
10.16165 259
10.18176 263
10.20187 220
10.22199 253
10.2421 243
10.26222 244
10.28233 241
10.30244 259
10.32256 234
10.34267 242
10.36278 258
10.3829 253
10.40301 275
10.42313 256
10.44324 251
10.46335 221
10.48347 240
10.50358 270
10.52369 236
10.54381 229
10.56392 263
10.58403 239
10.60415 241
10.62426 261
10.64438 249
10.66449 221
10.6846 228
10.70472 223
10.72483 242
10.74494 244
10.76506 246
10.78517 235
10.80529 203
10.8254 240
10.84551 242
10.86563 248
10.88574 232
10.90585 259
10.92597 260
10.94608 231
10.9662 258
10.98631 282
11.00642 243
11.02654 258
11.04665 221
11.06676 260
11.08688 258
11.10699 258
11.1271 287
11.14722 248
11.16733 223
11.18745 244
11.20756 216
11.22767 229
11.24779 263
11.2679 259
11.28801 228
11.30813 270
11.32824 249
11.34836 237
11.36847 263
11.38858 278
11.4087 262
11.42881 259
11.44892 276
11.46904 252
11.48915 259
11.50927 250
11.52938 260
11.54949 272
11.56961 220
11.58972 247
11.60983 282
11.62995 247
11.65006 240
11.67017 251
11.69029 236
11.7104 258
11.73052 247
11.75063 269
11.77074 258
11.79086 261
11.81097 269
11.83108 285
11.8512 262
11.87131 294
11.89143 255
11.91154 255
11.93165 306
11.95177 275
11.97188 317
11.99199 315
12.01211 309
12.03222 289
12.05234 336
12.07245 303
12.09256 333
12.11268 321
12.13279 338
12.1529 361
12.17302 345
12.19313 391
12.21324 372
12.23336 416
12.25347 447
12.27359 463
12.2937 506
12.31381 507
12.33393 496
12.35404 550
12.37415 454
12.39427 443
12.41438 448
12.4345 377
12.45461 353
12.47472 338
12.49484 346
12.51495 309
12.53506 355
12.55518 262
12.57529 264
12.5954 278
12.61552 252
12.63563 280
12.65575 242
12.67586 238
12.69597 267
12.71609 249
12.7362 251
12.75631 221
12.77643 219
12.79654 257
12.81666 223
12.83677 238
12.85688 231
12.877 244
12.89711 261
12.91722 249
12.93734 262
12.95745 225
12.97757 216
12.99768 203
13.01779 236
13.03791 228
13.05802 240
13.07813 243
13.09825 238
13.11836 243
13.13847 234
13.15859 213
13.1787 224
13.19882 231
13.21893 220
13.23904 217
13.25916 206
13.27927 224
13.29938 215
13.3195 213
13.33961 236
13.35973 214
13.37984 201
13.39995 234
13.42007 224
13.44018 216
13.46029 240
13.48041 206
13.50052 238
13.52064 231
13.54075 179
13.56086 225
13.58098 215
13.60109 231
13.6212 203
13.64132 218
13.66143 194
13.68154 208
13.70166 217
13.72177 223
13.74189 185
13.762 230
13.78211 223
13.80223 212
13.82234 209
13.84245 192
13.86257 212
13.88268 222
13.9028 211
13.92291 256
13.94302 225
13.96314 221
13.98325 219
14.00336 232
14.02348 232
14.04359 210
14.06371 244
14.08382 208
14.10393 212
14.12405 209
14.14416 223
14.16427 200
14.18439 207
14.2045 204
14.22461 189
14.24473 208
14.26484 211
14.28496 182
14.30507 213
14.32518 214
14.3453 209
14.36541 203
14.38552 208
14.40564 235
14.42575 236
14.44587 215
14.46598 213
14.48609 209
14.50621 210
14.52632 173
14.54643 200
14.56655 188
14.58666 172
14.60677 210
14.62689 219
14.647 224
14.66712 218
14.68723 195
14.70734 205
14.72746 196
14.74757 208
14.76768 195
14.7878 205
14.80791 204
14.82803 188
14.84814 192
14.86825 233
14.88837 194
14.90848 183
14.92859 195
14.94871 204
14.96882 207
14.98894 212
15.00905 225
15.02916 185
15.04928 221
15.06939 204
15.0895 213
15.10962 197
15.12973 185
15.14984 198
15.16996 164
15.19007 182
15.21019 209
15.2303 223
15.25041 202
15.27053 210
15.29064 191
15.31075 173
15.33087 221
15.35098 219
15.3711 214
15.39121 205
15.41132 199
15.43144 204
15.45155 195
15.47166 196
15.49178 193
15.51189 196
15.53201 202
15.55212 194
15.57223 205
15.59235 215
15.61246 193
15.63257 213
15.65269 187
15.6728 201
15.69291 203
15.71303 177
15.73314 208
15.75326 216
15.77337 216
15.79348 207
15.8136 174
15.83371 155
15.85382 179
15.87394 199
15.89405 171
15.91417 176
15.93428 212
15.95439 167
15.97451 191
15.99462 196
16.01473 188
16.03485 185
16.05496 179
16.07508 181
16.09519 184
16.1153 198
16.13542 199
16.15553 169
16.17564 201
16.19576 194
16.21587 212
16.23598 209
16.2561 178
16.27621 187
16.29633 200
16.31644 174
16.33655 184
16.35667 205
16.37678 187
16.39689 219
16.41701 180
16.43712 153
16.45724 179
16.47735 163
16.49746 209
16.51758 178
16.53769 176
16.5578 171
16.57792 153
16.59803 185
16.61814 201
16.63826 183
16.65837 172
16.67849 175
16.6986 169
16.71871 213
16.73883 188
16.75894 187
16.77905 200
16.79917 187
16.81928 195
16.8394 181
16.85951 199
16.87962 214
16.89974 222
16.91985 188
16.93996 171
16.96008 204
16.98019 186
17.00031 200
17.02042 191
17.04053 178
17.06065 196
17.08076 163
17.10087 174
17.12099 190
17.1411 179
17.16121 191
17.18133 183
17.20144 177
17.22156 176
17.24167 176
17.26178 188
17.2819 176
17.30201 184
17.32212 165
17.34224 153
17.36235 180
17.38247 181
17.40258 205
17.42269 158
17.44281 204
17.46292 217
17.48303 187
17.50315 206
17.52326 200
17.54338 212
17.56349 174
17.5836 181
17.60372 179
17.62383 196
17.64394 178
17.66406 181
17.68417 194
17.70428 186
17.7244 207
17.74451 204
17.76463 178
17.78474 196
17.80485 193
17.82497 181
17.84508 181
17.86519 213
17.88531 187
17.90542 197
17.92554 196
17.94565 178
17.96576 182
17.98588 174
18.00599 155
18.0261 194
18.04622 192
18.06633 182
18.08645 175
18.10656 175
18.12667 170
18.14679 163
18.1669 195
18.18701 171
18.20713 188
18.22724 178
18.24735 175
18.26747 190
18.28758 194
18.3077 177
18.32781 197
18.34792 231
18.36804 185
18.38815 193
18.40826 180
18.42838 187
18.44849 201
18.46861 189
18.48872 164
18.50883 192
18.52895 188
18.54906 178
18.56917 182
18.58929 203
18.6094 182
18.62951 186
18.64963 186
18.66974 177
18.68986 193
18.70997 182
18.73008 212
18.7502 197
18.77031 203
18.79042 205
18.81054 187
18.83065 201
18.85077 211
18.87088 160
18.89099 189
18.91111 191
18.93122 198
18.95133 179
18.97145 191
18.99156 219
19.01168 186
19.03179 170
19.0519 184
19.07202 186
19.09213 198
19.11224 195
19.13236 196
19.15247 193
19.17258 168
19.1927 193
19.21281 182
19.23293 188
19.25304 197
19.27315 187
19.29327 181
19.31338 187
19.33349 197
19.35361 219
19.37372 172
19.39384 203
19.41395 198
19.43406 198
19.45418 176
19.47429 185
19.4944 188
19.51452 190
19.53463 208
19.55475 203
19.57486 220
19.59497 222
19.61509 201
19.6352 193
19.65531 252
19.67543 234
19.69554 246
19.71565 244
19.73577 247
19.75588 261
19.776 287
19.79611 331
19.81622 340
19.83634 327
19.85645 393
19.87656 364
19.89668 340
19.91679 366
19.93691 341
19.95702 380
19.97713 346
19.99725 347
20.01736 348
20.03747 322
20.05759 307
20.0777 331
20.09782 317
20.11793 345
20.13804 362
20.15816 357
20.17827 353
20.19838 366
20.2185 384
20.23861 374
20.25872 335
20.27884 399
20.29895 396
20.31907 367
20.33918 360
20.35929 351
20.37941 438
20.39952 394
20.41963 401
20.43975 439
20.45986 403
20.47998 427
20.50009 448
20.5202 432
20.54032 430
20.56043 451
20.58054 490
20.60066 504
20.62077 543
20.64088 627
20.661 699
20.68111 903
20.70123 1185
20.72134 1764
20.74145 2417
20.76157 3463
20.78168 4937
20.80179 6686
20.82191 8196
20.84202 8934
20.86214 8137
20.88225 6591
20.90236 4658
20.92248 3132
20.94259 1754
20.9627 1114
20.98282 719
21.00293 582
21.02305 520
21.04316 546
21.06327 519
21.08339 467
21.1035 411
21.12361 450
21.14373 416
21.16384 375
21.18395 359
21.20407 379
21.22418 389
21.2443 367
21.26441 344
21.28452 350
21.30464 346
21.32475 337
21.34486 334
21.36498 347
21.38509 332
21.40521 299
21.42532 332
21.44543 293
21.46555 320
21.48566 287
21.50577 279
21.52589 313
21.546 288
21.56612 321
21.58623 287
21.60634 319
21.62646 284
21.64657 314
21.66668 293
21.6868 283
21.70691 310
21.72702 253
21.74714 301
21.76725 282
21.78737 251
21.80748 260
21.82759 296
21.84771 246
21.86782 300
21.88793 279
21.90805 268
21.92816 234
21.94828 290
21.96839 283
21.9885 262
22.00862 267
22.02873 240
22.04884 278
22.06896 257
22.08907 294
22.10919 280
22.1293 293
22.14941 248
22.16953 251
22.18964 279
22.20975 275
22.22987 249
22.24998 271
22.27009 270
22.29021 259
22.31032 264
22.33044 258
22.35055 253
22.37066 246
22.39078 247
22.41089 255
22.431 259
22.45112 232
22.47123 209
22.49135 252
22.51146 221
22.53157 240
22.55169 236
22.5718 240
22.59191 258
22.61203 243
22.63214 224
22.65225 254
22.67237 230
22.69248 253
22.7126 288
22.73271 261
22.75282 230
22.77294 264
22.79305 272
22.81316 253
22.83328 237
22.85339 254
22.87351 221
22.89362 269
22.91373 269
22.93385 255
22.95396 259
22.97407 244
22.99419 267
23.0143 271
23.03442 257
23.05453 256
23.07464 219
23.09476 249
23.11487 264
23.13498 221
23.1551 232
23.17521 226
23.19532 228
23.21544 217
23.23555 231
23.25567 247
23.27578 254
23.29589 219
23.31601 245
23.33612 217
23.35623 247
23.37635 229
23.39646 227
23.41658 256
23.43669 247
23.4568 260
23.47692 277
23.49703 269
23.51714 264
23.53726 240
23.55737 214
23.57749 237
23.5976 228
23.61771 251
23.63783 274
23.65794 289
23.67805 228
23.69817 213
23.71828 252
23.73839 265
23.75851 241
23.77862 274
23.79874 258
23.81885 240
23.83896 277
23.85908 276
23.87919 276
23.8993 282
23.91942 274
23.93953 300
23.95965 347
23.97976 332
23.99987 347
24.01999 356
24.0401 293
24.06021 282
24.08033 259
24.10044 264
24.12056 269
24.14067 269
24.16078 246
24.1809 250
24.20101 282
24.22112 241
24.24124 255
24.26135 259
24.28146 251
24.30158 249
24.32169 255
24.34181 286
24.36192 249
24.38203 237
24.40215 266
24.42226 248
24.44237 289
24.46249 267
24.4826 254
24.50272 278
24.52283 271
24.54294 286
24.56306 273
24.58317 303
24.60328 286
24.6234 304
24.64351 289
24.66362 275
24.68374 323
24.70385 320
24.72397 309
24.74408 380
24.76419 383
24.78431 396
24.80442 419
24.82453 401
24.84465 427
24.86476 421
24.88488 458
24.90499 393
24.9251 398
24.94522 354
24.96533 345
24.98544 360
25.00556 326
25.02567 307
25.04579 322
25.0659 255
25.08601 297
25.10613 272
25.12624 289
25.14635 287
25.16647 341
25.18658 318
25.20669 308
25.22681 316
25.24692 314
25.26704 284
25.28715 308
25.30726 314
25.32738 320
25.34749 317
25.3676 278
25.38772 293
25.40783 254
25.42795 251
25.44806 274
25.46817 284
25.48829 288
25.5084 285
25.52851 284
25.54863 262
25.56874 289
25.58886 283
25.60897 299
25.62908 316
25.6492 295
25.66931 348
25.68942 398
25.70954 386
25.72965 454
25.74976 392
25.76988 448
25.78999 397
25.81011 419
25.83022 425
25.85033 450
25.87045 507
25.89056 454
25.91067 436
25.93079 467
25.9509 412
25.97102 455
25.99113 453
26.01124 462
26.03136 454
26.05147 498
26.07158 524
26.0917 506
26.11181 536
26.13193 616
26.15204 640
26.17215 654
26.19227 638
26.21238 781
26.23249 858
26.25261 878
26.27272 902
26.29283 952
26.31295 961
26.33306 1106
26.35318 1210
26.37329 1400
26.3934 1685
26.41352 2085
26.43363 2674
26.45374 3496
26.47386 4924
26.49397 7300
26.51409 10596
26.5342 15666
26.55431 21854
26.57443 29322
26.59454 36255
26.61465 39325
26.63477 36237
26.65488 29467
26.67499 22800
26.69511 16984
26.71522 11017
26.73534 6205
26.75545 3287
26.77556 2243
26.79568 1667
26.81579 1460
26.8359 1402
26.85602 1287
26.87613 1099
26.89625 1020
26.91636 951
26.93647 936
26.95659 754
26.9767 695
26.99681 657
27.01693 578
27.03704 564
27.05716 507
27.07727 469
27.09738 484
27.1175 423
27.13761 450
27.15772 414
27.17784 440
27.19795 408
27.21806 413
27.23818 422
27.25829 404
27.27841 422
27.29852 414
27.31863 379
27.33875 427
27.35886 440
27.37897 408
27.39909 401
27.4192 437
27.43932 401
27.45943 358
27.47954 395
27.49966 357
27.51977 389
27.53988 342
27.56 355
27.58011 327
27.60023 352
27.62034 330
27.64045 328
27.66057 310
27.68068 334
27.70079 312
27.72091 323
27.74102 345
27.76113 298
27.78125 312
27.80136 293
27.82148 285
27.84159 312
27.8617 298
27.88182 310
27.90193 278
27.92204 288
27.94216 303
27.96227 249
27.98239 273
28.0025 295
28.02261 255
28.04273 321
28.06284 271
28.08295 263
28.10307 278
28.12318 306
28.1433 284
28.16341 279
28.18352 247
28.20364 283
28.22375 279
28.24386 241
28.26398 275
28.28409 296
28.3042 262
28.32432 248
28.34443 250
28.36455 268
28.38466 278
28.40477 276
28.42489 305
28.445 268
28.46511 252
28.48523 294
28.50534 281
28.52546 267
28.54557 277
28.56568 266
28.5858 277
28.60591 238
28.62602 244
28.64614 215
28.66625 256
28.68636 255
28.70648 253
28.72659 250
28.74671 271
28.76682 249
28.78693 238
28.80705 266
28.82716 269
28.84727 234
28.86739 251
28.8875 255
28.90762 222
28.92773 270
28.94784 231
28.96796 251
28.98807 258
29.00818 235
29.0283 260
29.04841 244
29.06853 275
29.08864 225
29.10875 242
29.12887 270
29.14898 242
29.16909 238
29.18921 237
29.20932 230
29.22943 248
29.24955 229
29.26966 224
29.28978 232
29.30989 235
29.33 245
29.35012 238
29.37023 262
29.39034 222
29.41046 221
29.43057 231
29.45069 227
29.4708 254
29.49091 249
29.51103 239
29.53114 255
29.55125 217
29.57137 237
29.59148 211
29.6116 266
29.63171 250
29.65182 240
29.67194 249
29.69205 252
29.71216 245
29.73228 248
29.75239 213
29.7725 239
29.79262 248
29.81273 230
29.83285 218
29.85296 220
29.87307 217
29.89319 216
29.9133 251
29.93341 195
29.95353 240
29.97364 218
29.99376 242
30.01387 212
30.03398 230
30.0541 243
30.07421 242
30.09432 212
30.11444 244
30.13455 240
30.15467 220
30.17478 235
30.19489 221
30.21501 217
30.23512 245
30.25523 241
30.27535 227
30.29546 202
30.31557 211
30.33569 243
30.3558 216
30.37592 246
30.39603 253
30.41614 253
30.43626 229
30.45637 218
30.47648 209
30.4966 220
30.51671 203
30.53683 240
30.55694 195
30.57705 230
30.59717 211
30.61728 245
30.63739 220
30.65751 232
30.67762 220
30.69773 195
30.71785 251
30.73796 192
30.75808 221
30.77819 231
30.7983 225
30.81842 234
30.83853 213
30.85864 202
30.87876 189
30.89887 206
30.91899 209
30.9391 207
30.95921 219
30.97933 216
30.99944 217
31.01955 204
31.03967 215
31.05978 205
31.0799 230
31.10001 209
31.12012 222
31.14024 202
31.16035 193
31.18046 218
31.20058 186
31.22069 205
31.2408 230
31.26092 225
31.28103 215
31.30115 207
31.32126 191
31.34137 211
31.36149 231
31.3816 201
31.40171 237
31.42183 179
31.44194 242
31.46206 226
31.48217 214
31.50228 192
31.5224 210
31.54251 195
31.56262 192
31.58274 189
31.60285 205
31.62297 175
31.64308 215
31.66319 219
31.68331 197
31.70342 206
31.72353 193
31.74365 218
31.76376 194
31.78387 180
31.80399 202
31.8241 196
31.84422 195
31.86433 206
31.88444 192
31.90456 192
31.92467 194
31.94478 183
31.9649 192
31.98501 204
32.00513 214
32.02524 196
32.04535 204
32.06547 220
32.08558 209
32.10569 207
32.12581 214
32.14592 209
32.16604 209
32.18615 193
32.20626 204
32.22638 224
32.24649 218
32.2666 221
32.28672 192
32.30683 223
32.32694 181
32.34706 203
32.36717 179
32.38729 151
32.4074 214
32.42751 209
32.44763 224
32.46774 189
32.48785 228
32.50797 197
32.52808 188
32.5482 220
32.56831 214
32.58842 223
32.60854 217
32.62865 193
32.64876 212
32.66888 186
32.68899 220
32.7091 231
32.72922 230
32.74933 258
32.76945 231
32.78956 240
32.80967 205
32.82979 222
32.8499 209
32.87001 269
32.89013 244
32.91024 217
32.93036 239
32.95047 260
32.97058 268
32.9907 248
33.01081 238
33.03092 232
33.05104 279
33.07115 246
33.09127 230
33.11138 243
33.13149 268
33.15161 258
33.17172 253
33.19183 242
33.21195 286
33.23206 267
33.25217 253
33.27229 249
33.2924 228
33.31252 228
33.33263 221
33.35274 249
33.37286 239
33.39297 233
33.41308 233
33.4332 258
33.45331 218
33.47343 264
33.49354 238
33.51365 210
33.53377 230
33.55388 215
33.57399 196
33.59411 220
33.61422 193
33.63434 208
33.65445 208
33.67456 206
33.69468 176
33.71479 202
33.7349 179
33.75502 188
33.77513 210
33.79524 194
33.81536 199
33.83547 184
33.85559 192
33.8757 202
33.89581 210
33.91593 203
33.93604 174
33.95615 166
33.97627 187
33.99638 174
34.0165 193
34.03661 194
34.05672 188
34.07684 161
34.09695 168
34.11706 180
34.13718 164
34.15729 172
34.17741 188
34.19752 195
34.21763 182
34.23775 188
34.25786 184
34.27797 203
34.29809 173
34.3182 182
34.33831 158
34.35843 184
34.37854 184
34.39866 175
34.41877 157
34.43888 200
34.459 223
34.47911 177
34.49922 200
34.51934 191
34.53945 186
34.55957 177
34.57968 207
34.59979 192
34.61991 211
34.64002 201
34.66013 205
34.68025 195
34.70036 209
34.72047 224
34.74059 228
34.7607 223
34.78082 212
34.80093 234
34.82104 226
34.84116 250
34.86127 258
34.88138 220
34.9015 264
34.92161 282
34.94173 278
34.96184 295
34.98195 275
35.00207 278
35.02218 262
35.04229 268
35.06241 239
35.08252 226
35.10264 257
35.12275 222
35.14286 246
35.16298 261
35.18309 243
35.2032 256
35.22332 259
35.24343 236
35.26354 255
35.28366 252
35.30377 248
35.32389 256
35.344 279
35.36411 268
35.38423 259
35.40434 274
35.42445 296
35.44457 280
35.46468 308
35.4848 292
35.50491 297
35.52502 333
35.54514 315
35.56525 331
35.58536 340
35.60548 331
35.62559 332
35.64571 317
35.66582 321
35.68593 313
35.70605 318
35.72616 320
35.74627 306
35.76639 316
35.7865 332
35.80661 317
35.82673 319
35.84684 330
35.86696 314
35.88707 315
35.90718 287
35.9273 287
35.94741 282
35.96752 302
35.98764 329
36.00775 287
36.02787 298
36.04798 261
36.06809 277
36.08821 284
36.10832 266
36.12843 313
36.14855 259
36.16866 299
36.18878 313
36.20889 278
36.229 320
36.24912 327
36.26923 280
36.28934 360
36.30946 358
36.32957 450
36.34968 528
36.3698 686
36.38991 795
36.41003 1075
36.43014 1347
36.45025 1663
36.47037 2122
36.49048 2387
36.51059 2579
36.53071 2487
36.55082 2067
36.57094 1700
36.59105 1489
36.61116 1311
36.63128 1095
36.65139 794
36.6715 519
36.69162 411
36.71173 334
36.73184 298
36.75196 306
36.77207 284
36.79219 274
36.8123 269
36.83241 269
36.85253 243
36.87264 259
36.89275 238
36.91287 250
36.93298 234
36.9531 233
36.97321 222
36.99332 204
37.01344 215
37.03355 220
37.05366 240
37.07378 220
37.09389 223
37.11401 214
37.13412 203
37.15423 207
37.17435 207
37.19446 204
37.21457 218
37.23469 210
37.2548 206
37.27491 188
37.29503 188
37.31514 195
37.33526 204
37.35537 236
37.37548 210
37.3956 248
37.41571 231
37.43582 237
37.45594 194
37.47605 186
37.49617 230
37.51628 216
37.53639 214
37.55651 201
37.57662 212
37.59673 210
37.61685 235
37.63696 229
37.65708 246
37.67719 219
37.6973 221
37.71742 214
37.73753 218
37.75764 199
37.77776 206
37.79787 234
37.81798 214
37.8381 235
37.85821 219
37.87833 244
37.89844 241
37.91855 215
37.93867 218
37.95878 233
37.97889 217
37.99901 239
38.01912 219
38.03924 212
38.05935 224
38.07946 229
38.09958 252
38.11969 234
38.1398 236
38.15992 260
38.18003 214
38.20015 258
38.22026 253
38.24037 255
38.26049 263
38.2806 258
38.30071 254
38.32083 250
38.34094 269
38.36105 273
38.38117 260
38.40128 286
38.4214 308
38.44151 264
38.46162 316
38.48174 285
38.50185 310
38.52196 295
38.54208 299
38.56219 274
38.58231 286
38.60242 255
38.62253 262
38.64265 275
38.66276 270
38.68287 259
38.70299 240
38.7231 233
38.74321 201
38.76333 238
38.78344 229
38.80356 240
38.82367 228
38.84378 224
38.8639 245
38.88401 241
38.90412 244
38.92424 231
38.94435 257
38.96447 240
38.98458 235
39.00469 257
39.02481 266
39.04492 265
39.06503 249
39.08515 261
39.10526 239
39.12538 294
39.14549 281
39.1656 335
39.18572 330
39.20583 409
39.22594 369
39.24606 412
39.26617 538
39.28628 578
39.3064 671
39.32651 901
39.34663 1182
39.36674 1536
39.38685 1904
39.40697 2141
39.42708 2322
39.44719 2187
39.46731 2018
39.48742 1691
39.50754 1464
39.52765 1259
39.54776 1170
39.56788 925
39.58799 696
39.6081 464
39.62822 322
39.64833 293
39.66845 307
39.68856 287
39.70867 255
39.72879 272
39.7489 237
39.76901 248
39.78913 226
39.80924 247
39.82935 226
39.84947 232
39.86958 213
39.8897 228
39.90981 228
39.92992 232
39.95004 216
39.97015 233
39.99026 260
40.01038 292
40.03049 264
40.05061 314
40.07072 321
40.09083 353
40.11095 385
40.13106 489
40.15117 583
40.17129 716
40.1914 852
40.21152 1021
40.23163 1154
40.25174 1265
40.27186 1181
40.29197 1040
40.31208 860
40.3322 749
40.35231 708
40.37242 694
40.39254 551
40.41265 420
40.43277 318
40.45288 270
40.47299 271
40.49311 260
40.51322 208
40.53333 196
40.55345 254
40.57356 227
40.59368 210
40.61379 216
40.6339 226
40.65402 216
40.67413 204
40.69424 220
40.71436 237
40.73447 235
40.75458 224
40.7747 196
40.79481 228
40.81493 229
40.83504 232
40.85515 217
40.87527 205
40.89538 213
40.91549 228
40.93561 226
40.95572 216
40.97584 238
40.99595 213
41.01606 226
41.03618 226
41.05629 216
41.0764 218
41.09652 219
41.11663 199
41.13675 234
41.15686 242
41.17697 207
41.19709 232
41.2172 200
41.23731 212
41.25743 207
41.27754 185
41.29765 233
41.31777 201
41.33788 206
41.358 231
41.37811 207
41.39822 194
41.41834 204
41.43845 209
41.45856 176
41.47868 224
41.49879 197
41.51891 201
41.53902 202
41.55913 204
41.57925 197
41.59936 222
41.61947 214
41.63959 210
41.6597 181
41.67982 239
41.69993 205
41.72004 172
41.74016 205
41.76027 204
41.78038 189
41.8005 218
41.82061 216
41.84072 217
41.86084 206
41.88095 194
41.90107 202
41.92118 184
41.94129 205
41.96141 221
41.98152 185
42.00163 201
42.02175 218
42.04186 219
42.06198 211
42.08209 228
42.1022 241
42.12232 244
42.14243 246
42.16254 251
42.18266 275
42.20277 292
42.22289 350
42.243 429
42.26311 434
42.28323 549
42.30334 688
42.32345 916
42.34357 1129
42.36368 1440
42.38379 1584
42.40391 1729
42.42402 1857
42.44414 1614
42.46425 1304
42.48436 1099
42.50448 1043
42.52459 954
42.5447 877
42.56482 706
42.58493 490
42.60505 331
42.62516 263
42.64527 260
42.66539 254
42.6855 246
42.70561 226
42.72573 222
42.74584 206
42.76595 185
42.78607 203
42.80618 196
42.8263 178
42.84641 198
42.86652 213
42.88664 188
42.90675 191
42.92686 223
42.94698 150
42.96709 196
42.98721 181
43.00732 193
43.02743 193
43.04755 201
43.06766 179
43.08777 164
43.10789 180
43.128 192
43.14812 204
43.16823 187
43.18834 178
43.20846 175
43.22857 203
43.24868 187
43.2688 165
43.28891 172
43.30902 201
43.32914 170
43.34925 198
43.36937 183
43.38948 182
43.40959 183
43.42971 180
43.44982 186
43.46993 189
43.49005 171
43.51016 181
43.53028 182
43.55039 148
43.5705 190
43.59062 192
43.61073 191
43.63084 187
43.65096 195
43.67107 170
43.69119 178
43.7113 173
43.73141 179
43.75153 190
43.77164 183
43.79175 191
43.81187 181
43.83198 177
43.85209 182
43.87221 185
43.89232 165
43.91244 185
43.93255 178
43.95266 172
43.97278 159
43.99289 188
44.013 150
44.03312 181
44.05323 193
44.07335 171
44.09346 162
44.11357 179
44.13369 179
44.1538 179
44.17391 174
44.19403 175
44.21414 217
44.23426 179
44.25437 183
44.27448 157
44.2946 183
44.31471 172
44.33482 195
44.35494 175
44.37505 167
44.39516 177
44.41528 166
44.43539 157
44.45551 171
44.47562 177
44.49573 177
44.51585 187
44.53596 189
44.55607 165
44.57619 183
44.5963 168
44.61642 169
44.63653 168
44.65664 176
44.67676 176
44.69687 196
44.71698 193
44.7371 175
44.75721 160
44.77732 181
44.79744 175
44.81755 174
44.83767 197
44.85778 177
44.87789 184
44.89801 186
44.91812 186
44.93823 179
44.95835 188
44.97846 200
44.99858 182
45.01869 185
45.0388 190
45.05892 166
45.07903 165
45.09914 174
45.11926 167
45.13937 182
45.15949 183
45.1796 195
45.19971 188
45.21983 176
45.23994 206
45.26005 177
45.28017 196
45.30028 196
45.32039 182
45.34051 234
45.36062 208
45.38074 211
45.40085 224
45.42096 222
45.44108 195
45.46119 247
45.4813 230
45.50142 239
45.52153 279
45.54165 260
45.56176 287
45.58187 340
45.60199 354
45.6221 430
45.64221 543
45.66233 633
45.68244 740
45.70256 967
45.72267 1073
45.74278 1196
45.7629 1148
45.78301 1061
45.80312 937
45.82324 719
45.84335 701
45.86346 642
45.88358 661
45.90369 530
45.92381 445
45.94392 350
45.96403 238
45.98415 219
46.00426 212
46.02437 194
46.04449 212
46.0646 208
46.08472 179
46.10483 181
46.12494 185
46.14506 166
46.16517 170
46.18528 182
46.2054 177
46.22551 185
46.24563 193
46.26574 184
46.28585 193
46.30597 195
46.32608 183
46.34619 148
46.36631 160
46.38642 177
46.40653 160
46.42665 180
46.44676 189
46.46688 198
46.48699 172
46.5071 158
46.52722 162
46.54733 177
46.56744 164
46.58756 184
46.60767 176
46.62779 204
46.6479 182
46.66801 204
46.68813 173
46.70824 164
46.72835 152
46.74847 178
46.76858 173
46.78869 168
46.80881 186
46.82892 188
46.84904 160
46.86915 194
46.88926 155
46.90938 183
46.92949 160
46.9496 159
46.96972 177
46.98983 169
47.00995 169
47.03006 172
47.05017 164
47.07029 174
47.0904 171
47.11051 178
47.13063 178
47.15074 191
47.17086 168
47.19097 178
47.21108 158
47.2312 178
47.25131 163
47.27142 161
47.29154 170
47.31165 175
47.33176 159
47.35188 171
47.37199 191
47.39211 163
47.41222 185
47.43233 171
47.45245 161
47.47256 169
47.49267 186
47.51279 150
47.5329 149
47.55302 154
47.57313 156
47.59324 165
47.61336 170
47.63347 156
47.65358 152
47.6737 181
47.69381 168
47.71393 190
47.73404 159
47.75415 176
47.77427 169
47.79438 169
47.81449 192
47.83461 178
47.85472 200
47.87483 186
47.89495 202
47.91506 161
47.93518 173
47.95529 176
47.9754 195
47.99552 152
48.01563 178
48.03574 202
48.05586 163
48.07597 152
48.09609 199
48.1162 167
48.13631 175
48.15643 174
48.17654 172
48.19665 179
48.21677 176
48.23688 164
48.257 163
48.27711 173
48.29722 183
48.31734 174
48.33745 174
48.35756 175
48.37768 171
48.39779 169
48.4179 178
48.43802 186
48.45813 164
48.47825 171
48.49836 159
48.51847 170
48.53859 174
48.5587 168
48.57881 162
48.59893 193
48.61904 182
48.63916 211
48.65927 168
48.67938 178
48.6995 171
48.71961 203
48.73972 170
48.75984 198
48.77995 186
48.80006 190
48.82018 177
48.84029 196
48.86041 182
48.88052 195
48.90063 185
48.92075 202
48.94086 169
48.96097 168
48.98109 166
49.0012 199
49.02132 179
49.04143 186
49.06154 183
49.08166 193
49.10177 199
49.12188 184
49.142 190
49.16211 204
49.18223 215
49.20234 224
49.22245 196
49.24257 212
49.26268 183
49.28279 181
49.30291 230
49.32302 193
49.34313 194
49.36325 205
49.38336 194
49.40348 222
49.42359 225
49.4437 213
49.46382 208
49.48393 207
49.50404 203
49.52416 201
49.54427 248
49.56439 232
49.5845 230
49.60461 233
49.62473 207
49.64484 202
49.66495 271
49.68507 262
49.70518 248
49.7253 277
49.74541 280
49.76552 320
49.78564 318
49.80575 333
49.82586 361
49.84598 427
49.86609 496
49.8862 536
49.90632 617
49.92643 767
49.94655 877
49.96666 1151
49.98677 1496
50.00689 1884
50.027 2335
50.04711 2853
50.06723 3401
50.08734 3733
50.10746 3710
50.12757 3415
50.14768 2713
50.1678 2241
50.18791 2016
50.20802 1972
50.22814 1935
50.24825 1775
50.26837 1471
50.28848 976
50.30859 626
50.32871 464
50.34882 413
50.36893 338
50.38905 308
50.40916 306
50.42927 302
50.44939 308
50.4695 273
50.48962 258
50.50973 283
50.52984 269
50.54996 309
50.57007 303
50.59018 285
50.6103 264
50.63041 256
50.65053 246
50.67064 227
50.69075 218
50.71087 216
50.73098 235
50.75109 180
50.77121 203
50.79132 199
50.81143 188
50.83155 196
50.85166 177
50.87178 193
50.89189 190
50.912 180
50.93212 181
50.95223 171
50.97234 191
50.99246 193
51.01257 199
51.03269 189
51.0528 188
51.07291 169
51.09303 168
51.11314 159
51.13325 157
51.15337 162
51.17348 173
51.1936 158
51.21371 169
51.23382 151
51.25394 155
51.27405 169
51.29416 182
51.31428 140
51.33439 181
51.3545 158
51.37462 165
51.39473 163
51.41485 165
51.43496 178
51.45507 164
51.47519 153
51.4953 171
51.51541 165
51.53553 167
51.55564 168
51.57576 149
51.59587 155
51.61598 170
51.6361 150
51.65621 169
51.67632 161
51.69644 148
51.71655 165
51.73667 158
51.75678 149
51.77689 169
51.79701 184
51.81712 171
51.83723 180
51.85735 169
51.87746 167
51.89757 154
51.91769 163
51.9378 147
51.95792 182
51.97803 159
51.99814 150
52.01826 167
52.03837 150
52.05848 169
52.0786 151
52.09871 165
52.11883 170
52.13894 171
52.15905 165
52.17917 177
52.19928 163
52.21939 159
52.23951 159
52.25962 150
52.27974 131
52.29985 155
52.31996 168
52.34008 142
52.36019 137
52.3803 157
52.40042 153
52.42053 155
52.44064 168
52.46076 179
52.48087 175
52.50099 172
52.5211 170
52.54121 171
52.56133 156
52.58144 161
52.60155 152
52.62167 170
52.64178 169
52.6619 157
52.68201 162
52.70212 150
52.72224 160
52.74235 158
52.76246 167
52.78258 161
52.80269 151
52.8228 164
52.84292 177
52.86303 171
52.88315 174
52.90326 172
52.92337 141
52.94349 166
52.9636 182
52.98371 158
53.00383 165
53.02394 173
53.04406 185
53.06417 163
53.08428 159
53.1044 178
53.12451 171
53.14462 190
53.16474 173
53.18485 181
53.20497 177
53.22508 204
53.24519 191
53.26531 179
53.28542 173
53.30553 211
53.32565 204
53.34576 196
53.36587 206
53.38599 187
53.4061 198
53.42622 188
53.44633 194
53.46644 169
53.48656 193
53.50667 175
53.52678 188
53.5469 214
53.56701 195
53.58713 174
53.60724 215
53.62735 177
53.64747 211
53.66758 214
53.68769 211
53.70781 205
53.72792 210
53.74804 188
53.76815 194
53.78826 209
53.80838 164
53.82849 203
53.8486 184
53.86872 211
53.88883 208
53.90894 202
53.92906 206
53.94917 208
53.96929 240
53.9894 218
54.00951 239
54.02963 218
54.04974 216
54.06985 209
54.08997 246
54.11008 199
54.1302 237
54.15031 244
54.17042 237
54.19054 240
54.21065 222
54.23076 247
54.25088 228
54.27099 225
54.29111 246
54.31122 231
54.33133 240
54.35145 221
54.37156 205
54.39167 234
54.41179 249
54.4319 211
54.45201 247
54.47213 245
54.49224 233
54.51236 230
54.53247 258
54.55258 264
54.5727 282
54.59281 271
54.61292 304
54.63304 337
54.65315 383
54.67327 402
54.69338 482
54.71349 577
54.73361 652
54.75372 743
54.77383 942
54.79395 1058
54.81406 1098
54.83417 1203
54.85429 1140
54.8744 908
54.89452 790
54.91463 649
54.93474 667
54.95486 739
54.97497 701
54.99508 673
55.0152 564
55.03531 498
55.05543 401
55.07554 328
55.09565 352
55.11577 320
55.13588 329
55.15599 368
55.17611 405
55.19622 387
55.21634 481
55.23645 531
55.25656 594
55.27668 653
55.29679 629
55.3169 545
55.33702 443
55.35713 431
55.37724 385
55.39736 422
55.41747 392
55.43759 365
55.4577 376
55.47781 298
55.49793 266
55.51804 210
55.53815 225
55.55827 213
55.57838 212
55.5985 201
55.61861 218
55.63872 175
55.65884 215
55.67895 184
55.69906 192
55.71918 180
55.73929 187
55.75941 186
55.77952 200
55.79963 196
55.81975 160
55.83986 167
55.85997 207
55.88009 203
55.9002 177
55.92031 166
55.94043 187
55.96054 208
55.98066 158
56.00077 199
56.02088 160
56.041 185
56.06111 183
56.08122 179
56.10134 183
56.12145 201
56.14157 189
56.16168 159
56.18179 199
56.20191 166
56.22202 172
56.24213 168
56.26225 165
56.28236 182
56.30248 185
56.32259 155
56.3427 177
56.36282 170
56.38293 172
56.40304 183
56.42316 180
56.44327 182
56.46338 178
56.4835 168
56.50361 169
56.52373 172
56.54384 151
56.56395 145
56.58407 194
56.60418 160
56.62429 194
56.64441 170
56.66452 158
56.68464 164
56.70475 165
56.72486 175
56.74498 182
56.76509 156
56.7852 175
56.80532 172
56.82543 193
56.84554 170
56.86566 169
56.88577 171
56.90589 158
56.926 165
56.94611 162
56.96623 178
56.98634 180
57.00645 163
57.02657 175
57.04668 158
57.0668 184
57.08691 200
57.10702 193
57.12714 236
57.14725 221
57.16736 208
57.18748 250
57.20759 223
57.22771 242
57.24782 192
57.26793 182
57.28805 188
57.30816 205
57.32827 184
57.34839 204
57.3685 205
57.38861 181
57.40873 188
57.42884 190
57.44896 182
57.46907 195
57.48918 177
57.5093 175
57.52941 171
57.54952 156
57.56964 163
57.58975 169
57.60987 170
57.62998 146
57.65009 184
57.67021 178
57.69032 193
57.71043 160
57.73055 178
57.75066 166
57.77078 171
57.79089 188
57.811 160
57.83112 153
57.85123 160
57.87134 155
57.89146 170
57.91157 175
57.93168 177
57.9518 192
57.97191 169
57.99203 179
58.01214 183
58.03225 183
58.05237 167
58.07248 180
58.09259 153
58.11271 162
58.13282 154
58.15294 161
58.17305 174
58.19316 158
58.21328 143
58.23339 193
58.2535 157
58.27362 161
58.29373 147
58.31385 141
58.33396 152
58.35407 178
58.37419 176
58.3943 160
58.41441 156
58.43453 153
58.45464 153
58.47475 157
58.49487 152
58.51498 169
58.5351 182
58.55521 169
58.57532 160
58.59544 176
58.61555 164
58.63566 167
58.65578 169
58.67589 158
58.69601 171
58.71612 186
58.73623 168
58.75635 165
58.77646 150
58.79657 167
58.81669 170
58.8368 155
58.85691 177
58.87703 159
58.89714 160
58.91726 166
58.93737 167
58.95748 158
58.9776 156
58.99771 195
59.01782 169
59.03794 191
59.05805 171
59.07817 158
59.09828 172
59.11839 180
59.13851 163
59.15862 189
59.17873 178
59.19885 188
59.21896 194
59.23908 186
59.25919 180
59.2793 147
59.29942 169
59.31953 189
59.33964 170
59.35976 198
59.37987 192
59.39998 201
59.4201 192
59.44021 219
59.46033 228
59.48044 209
59.50055 220
59.52067 220
59.54078 217
59.56089 252
59.58101 254
59.60112 273
59.62124 306
59.64135 374
59.66146 332
59.68158 406
59.70169 430
59.7218 508
59.74192 635
59.76203 752
59.78215 923
59.80226 1095
59.82237 1370
59.84249 1662
59.8626 1914
59.88271 2099
59.90283 2224
59.92294 2189
59.94305 1977
59.96317 1651
59.98328 1285
60.0034 1176
60.02351 1167
60.04362 1191
60.06374 1212
60.08385 1201
60.10396 1018
60.12408 760
60.14419 565
60.16431 421
60.18442 316
60.20453 284
60.22465 234
60.24476 227
60.26487 215
60.28499 232
60.3051 216
60.32522 178
60.34533 222
60.36544 219
60.38556 178
60.40567 194
60.42578 192
60.4459 190
60.46601 184
60.48612 175
60.50624 181
60.52635 166
60.54647 168
60.56658 179
60.58669 178
60.60681 177
60.62692 162
60.64703 182
60.66715 169
60.68726 166
60.70738 139
60.72749 165
60.7476 168
60.76772 177
60.78783 169
60.80794 161
60.82806 164
60.84817 167
60.86828 198
60.8884 163
60.90851 163
60.92863 180
60.94874 167
60.96885 163
60.98897 171
61.00908 166
61.02919 156
61.04931 159
61.06942 150
61.08954 154
61.10965 174
61.12976 165
61.14988 156
61.16999 161
61.1901 157
61.21022 145
61.23033 143
61.25045 156
61.27056 151
61.29067 140
61.31079 141
61.3309 148
61.35101 157
61.37113 167
61.39124 149
61.41135 181
61.43147 166
61.45158 170
61.4717 141
61.49181 168
61.51192 168
61.53204 187
61.55215 189
61.57226 181
61.59238 166
61.61249 167
61.63261 200
61.65272 173
61.67283 143
61.69295 185
61.71306 155
61.73317 176
61.75329 175
61.7734 197
61.79352 156
61.81363 170
61.83374 174
61.85386 177
61.87397 184
61.89408 170
61.9142 172
61.93431 197
61.95442 193
61.97454 191
61.99465 175
62.01477 192
62.03488 194
62.05499 195
62.07511 205
62.09522 240
62.11533 207
62.13545 240
62.15556 212
62.17568 235
62.19579 203
62.2159 207
62.23602 246
62.25613 230
62.27624 242
62.29636 228
62.31647 199
62.33659 193
62.3567 197
62.37681 211
62.39693 214
62.41704 197
62.43715 194
62.45727 223
62.47738 207
62.49749 218
62.51761 178
62.53772 188
62.55784 197
62.57795 211
62.59806 185
62.61818 201
62.63829 169
62.6584 184
62.67852 173
62.69863 177
62.71875 190
62.73886 168
62.75897 201
62.77909 156
62.7992 190
62.81931 173
62.83943 170
62.85954 175
62.87965 162
62.89977 163
62.91988 170
62.94 171
62.96011 168
62.98022 186
63.00034 175
63.02045 156
63.04056 168
63.06068 172
63.08079 180
63.10091 177
63.12102 161
63.14113 165
63.16125 197
63.18136 169
63.20147 176
63.22159 168
63.2417 168
63.26182 180
63.28193 162
63.30204 161
63.32216 170
63.34227 156
63.36238 194
63.3825 152
63.40261 162
63.42272 171
63.44284 160
63.46295 184
63.48307 166
63.50318 161
63.52329 151
63.54341 186
63.56352 155
63.58363 173
63.60375 153
63.62386 186
63.64398 187
63.66409 198
63.6842 202
63.70432 188
63.72443 227
63.74454 188
63.76466 153
63.78477 226
63.80489 247
63.825 249
63.84511 260
63.86523 280
63.88534 347
63.90545 376
63.92557 437
63.94568 483
63.96579 553
63.98591 545
64.00602 539
64.02614 467
64.04625 407
64.06636 374
64.08648 343
64.10659 320
64.1267 383
64.14682 355
64.16693 372
64.18705 380
64.20716 307
64.22727 280
64.24739 238
64.2675 209
64.28761 207
64.30773 193
64.32784 199
64.34796 175
64.36807 199
64.38818 160
64.4083 165
64.42841 158
64.44852 179
64.46864 154
64.48875 153
64.50886 153
64.52898 180
64.54909 154
64.56921 160
64.58932 139
64.60943 144
64.62955 157
64.64966 169
64.66977 142
64.68989 133
64.71 152
64.73012 150
64.75023 164
64.77034 138
64.79046 119
64.81057 141
64.83068 160
64.8508 130
64.87091 152
64.89102 151
64.91114 167
64.93125 150
64.95137 148
64.97148 147
64.99159 160
65.01171 153
65.03182 157
65.05193 152
65.07205 144
65.09216 151
65.11228 144
65.13239 157
65.1525 145
65.17262 150
65.19273 147
65.21284 123
65.23296 157
65.25307 163
65.27319 153
65.2933 164
65.31341 141
65.33353 146
65.35364 164
65.37375 174
65.39387 169
65.41398 152
65.43409 163
65.45421 155
65.47432 151
65.49444 181
65.51455 177
65.53466 166
65.55478 200
65.57489 194
65.595 177
65.61512 196
65.63523 195
65.65535 196
65.67546 211
65.69557 255
65.71569 239
65.7358 275
65.75591 254
65.77603 269
65.79614 229
65.81626 172
65.83637 211
65.85648 213
65.8766 208
65.89671 193
65.91682 235
65.93694 201
65.95705 180
65.97716 198
65.99728 166
66.01739 176
66.03751 156
66.05762 162
66.07773 161
66.09785 127
66.11796 168
66.13807 157
66.15819 156
66.1783 172
66.19842 168
66.21853 149
66.23864 153
66.25876 169
66.27887 159
66.29898 144
66.3191 166
66.33921 171
66.35933 157
66.37944 173
66.39955 166
66.41967 175
66.43978 161
66.45989 169
66.48001 164
66.50012 174
66.52023 157
66.54035 137
66.56046 166
66.58058 153
66.60069 144
66.6208 154
66.64092 142
66.66103 159
66.68114 166
66.70126 147
66.72137 142
66.74149 164
66.7616 160
66.78171 160
66.80183 163
66.82194 169
66.84205 172
66.86217 165
66.88228 168
66.90239 160
66.92251 163
66.94262 160
66.96274 170
66.98285 184
67.00296 167
67.02308 169
67.04319 189
67.0633 190
67.08342 168
67.10353 178
67.12365 174
67.14376 174
67.16387 187
67.18399 194
67.2041 177
67.22421 198
67.24433 194
67.26444 190
67.28456 191
67.30467 196
67.32478 198
67.3449 251
67.36501 219
67.38512 238
67.40524 229
67.42535 272
67.44546 295
67.46558 340
67.48569 338
67.50581 370
67.52592 448
67.54603 522
67.56615 585
67.58626 737
67.60637 864
67.62649 975
67.6466 1171
67.66672 1289
67.68683 1386
67.70694 1356
67.72706 1207
67.74717 1011
67.76728 818
67.7874 750
67.80751 770
67.82763 804
67.84774 849
67.86785 899
67.88797 958
67.90808 920
67.92819 921
67.94831 854
67.96842 916
67.98853 1003
68.00865 1167
68.02876 1284
68.04888 1531
68.06899 1664
68.0891 1857
68.10922 1819
68.12933 1695
68.14944 1551
68.16956 1357
68.18967 1348
68.20979 1378
68.2299 1496
68.25001 1592
68.27013 1708
68.29024 1520
68.31035 1404
68.33047 1181
68.35058 932
68.3707 732
68.39081 668
68.41092 618
68.43104 698
68.45115 662
68.47126 590
68.49138 563
68.51149 436
68.5316 366
68.55172 291
68.57183 255
68.59195 247
68.61206 221
68.63217 227
68.65229 220
68.6724 228
68.69251 175
68.71263 186
68.73274 189
68.75286 163
68.77297 171
68.79308 160
68.8132 200
68.83331 175
68.85342 197
68.87354 158
68.89365 166
68.91376 160
68.93388 188
68.95399 187
68.97411 193
68.99422 171
69.01433 195
69.03445 156
69.05456 165
69.07467 160
69.09479 167
69.1149 156
69.13502 172
69.15513 155
69.17524 148
69.19536 181
69.21547 151
69.23558 151
69.2557 166
69.27581 152
69.29593 150
69.31604 159
69.33615 151
69.35627 168
69.37638 152
69.39649 161
69.41661 164
69.43672 142
69.45683 154
69.47695 149
69.49706 139
69.51718 157
69.53729 142
69.5574 169
69.57752 140
69.59763 142
69.61774 149
69.63786 160
69.65797 146
69.67809 154
69.6982 150
69.71831 142
69.73843 169
69.75854 154
69.77865 154
69.79877 172
69.81888 180
69.839 160
69.85911 155
69.87922 155
69.89934 147
69.91945 141
69.93956 133
69.95968 146
69.97979 167
69.9999 159
70.02002 137
70.04013 148
70.06025 150
70.08036 142
70.10047 161
70.12059 181
70.1407 132
70.16081 134
70.18093 147
70.20104 123
70.22116 151
70.24127 129
70.26138 156
70.2815 167
70.30161 172
70.32172 127
70.34184 147
70.36195 144
70.38207 120
70.40218 122
70.42229 141
70.44241 149
70.46252 150
70.48263 135
70.50275 188
70.52286 135
70.54297 145
70.56309 139
70.5832 165
70.60332 157
70.62343 161
70.64354 142
70.66366 145
70.68377 143
70.70388 160
70.724 132
70.74411 130
70.76423 137
70.78434 149
70.80445 159
70.82457 170
70.84468 145
70.86479 133
70.88491 135
70.90502 136
70.92513 154
70.94525 158
70.96536 137
70.98548 136
71.00559 155
71.0257 157
71.04582 141
71.06593 142
71.08604 129
71.10616 147
71.12627 154
71.14639 128
71.1665 142
71.18661 141
71.20673 145
71.22684 141
71.24695 153
71.26707 142
71.28718 134
71.3073 126
71.32741 146
71.34752 141
71.36764 134
71.38775 140
71.40786 135
71.42798 138
71.44809 178
71.4682 143
71.48832 116
71.50843 129
71.52855 149
71.54866 168
71.56877 135
71.58889 155
71.609 153
71.62911 130
71.64923 152
71.66934 152
71.68946 153
71.70957 134
71.72968 140
71.7498 148
71.76991 134
71.79002 175
71.81014 150
71.83025 165
71.85037 141
71.87048 145
71.89059 126
71.91071 129
71.93082 137
71.95093 148
71.97105 153
71.99116 150
72.01127 140
72.03139 139
72.0515 161
72.07162 153
72.09173 150
72.11184 125
72.13196 148
72.15207 135
72.17218 162
72.1923 166
72.21241 164
72.23253 152
72.25264 154
72.27275 150
72.29287 169
72.31298 147
72.33309 156
72.35321 163
72.37332 160
72.39344 143
72.41355 141
72.43366 142
72.45378 153
72.47389 139
72.494 129
72.51412 141
72.53423 152
72.55434 158
72.57446 133
72.59457 153
72.61469 159
72.6348 137
72.65491 156
72.67503 129
72.69514 144
72.71525 148
72.73537 143
72.75548 134
72.7756 154
72.79571 129
72.81582 149
72.83594 133
72.85605 161
72.87616 136
72.89628 135
72.91639 162
72.9365 164
72.95662 146
72.97673 152
72.99685 153
73.01696 157
73.03707 160
73.05719 164
73.0773 153
73.09741 177
73.11753 157
73.13764 171
73.15776 191
73.17787 190
73.19798 198
73.2181 214
73.23821 207
73.25832 259
73.27844 294
73.29855 301
73.31867 369
73.33878 438
73.35889 485
73.37901 540
73.39912 529
73.41923 577
73.43935 492
73.45946 467
73.47957 394
73.49969 340
73.5198 340
73.53992 332
73.56003 309
73.58014 370
73.60026 374
73.62037 360
73.64048 329
73.6606 327
73.68071 278
73.70083 236
73.72094 226
73.74105 192
73.76117 185
73.78128 168
73.80139 175
73.82151 153
73.84162 149
73.86174 164
73.88185 142
73.90196 168
73.92208 156
73.94219 156
73.9623 155
73.98242 127
74.00253 141
74.02264 146
74.04276 151
74.06287 152
74.08299 167
74.1031 166
74.12321 147
74.14333 139
74.16344 140
74.18355 143
74.20367 155
74.22378 150
74.2439 149
74.26401 148
74.28412 144
74.30424 164
74.32435 143
74.34446 148
74.36458 152
74.38469 139
74.40481 140
74.42492 146
74.44503 128
74.46515 175
74.48526 140
74.50537 110
74.52549 146
74.5456 133
74.56571 126
74.58583 147
74.60594 146
74.62606 155
74.64617 139
74.66628 126
74.6864 153
74.70651 126
74.72662 134
74.74674 138
74.76685 130
74.78697 142
74.80708 147
74.82719 145
74.84731 141
74.86742 145
74.88753 123
74.90765 141
74.92776 158
74.94787 135
74.96799 179
74.9881 155
75.00822 146
