3.00117 20095
3.02128 19478
3.0414 18993
3.06151 18591
3.08162 18001
3.10174 17822
3.12185 17077
3.14197 16485
3.16208 16008
3.18219 15588
3.20231 15481
3.22242 14572
3.24253 14641
3.26265 13754
3.28276 13194
3.30288 13228
3.32299 12347
3.3431 12373
3.36322 11980
3.38333 11344
3.40344 11215
3.42356 10726
3.44367 10594
3.46379 9807
3.4839 9669
3.50401 9342
3.52413 9171
3.54424 8876
3.56435 8544
3.58447 7932
3.60458 7978
3.62469 7425
3.64481 7357
3.66492 6930
3.68504 6792
3.70515 6806
3.72526 6105
3.74538 6384
3.76549 5867
3.7856 5594
3.80572 5437
3.82583 5065
3.84595 4968
3.86606 4730
3.88617 4647
3.90629 4430
3.9264 4258
3.94651 4077
3.96663 3754
3.98674 3761
4.00686 3638
4.02697 3469
4.04708 3403
4.0672 3101
4.08731 3001
4.10742 2988
4.12754 2857
4.14765 2755
4.16776 2606
4.18788 2466
4.20799 2455
4.22811 2376
4.24822 2290
4.26833 2156
4.28845 2067
4.30856 2257
4.32867 2124
4.34879 2111
4.3689 1959
4.38902 1893
4.40913 2039
4.42924 1864
4.44936 1895
4.46947 1855
4.48958 1806
4.5097 1690
4.52981 1772
4.54992 1662
4.57004 1634
4.59015 1609
4.61027 1617
4.63038 1607
4.65049 1584
4.67061 1550
4.69072 1415
4.71083 1545
4.73095 1512
4.75106 1421
4.77118 1450
4.79129 1383
4.8114 1366
4.83152 1317
4.85163 1314
4.87174 1343
4.89186 1274
4.91197 1299
4.93209 1275
4.9522 1235
4.97231 1252
4.99243 1158
5.01254 1216
5.03265 1216
5.05277 1216
5.07288 1162
5.09299 1119
5.11311 1070
5.13322 1166
5.15334 1106
5.17345 1116
5.19356 1029
5.21368 1135
5.23379 1104
5.2539 1086
5.27402 1037
5.29413 1047
5.31425 959
5.33436 1033
5.35447 1021
5.37459 1002
5.3947 1012
5.41481 1010
5.43493 963
5.45504 974
5.47516 961
5.49527 956
5.51538 905
5.5355 911
5.55561 889
5.57572 897
5.59584 922
5.61595 868
5.63606 899
5.65618 855
5.67629 893
5.69641 819
5.71652 807
5.73663 892
5.75675 835
5.77686 914
5.79697 861
5.81709 822
5.8372 796
5.85732 756
5.87743 809
5.89754 806
5.91766 812
5.93777 815
5.95788 802
5.978 782
5.99811 781
6.01823 729
6.03834 775
6.05845 762
6.07857 684
6.09868 732
6.11879 761
6.13891 749
6.15902 730
6.17913 752
6.19925 673
6.21936 722
6.23948 685
6.25959 673
6.2797 640
6.29982 688
6.31993 677
6.34004 628
6.36016 665
6.38027 658
6.40039 651
6.4205 617
6.44061 627
6.46073 633
6.48084 628
6.50095 609
6.52107 665
6.54118 603
6.56129 587
6.58141 585
6.60152 613
6.62164 560
6.64175 588
6.66186 599
6.68198 497
6.70209 518
6.7222 544
6.74232 580
6.76243 526
6.78255 569
6.80266 524
6.82277 478
6.84289 553
6.863 490
6.88311 481
6.90323 456
6.92334 521
6.94346 478
6.96357 452
6.98368 447
7.0038 481
7.02391 489
7.04402 482
7.06414 452
7.08425 479
7.10436 448
7.12448 512
7.14459 478
7.16471 488
7.18482 454
7.20493 445
7.22505 433
7.24516 455
7.26527 486
7.28539 441
7.3055 482
7.32562 388
7.34573 417
7.36584 464
7.38596 447
7.40607 425
7.42618 442
7.4463 405
7.46641 438
7.48653 380
7.50664 403
7.52675 439
7.54687 447
7.56698 408
7.58709 459
7.60721 388
7.62732 423
7.64743 399
7.66755 411
7.68766 391
7.70778 419
7.72789 376
7.748 385
7.76812 387
7.78823 356
7.80834 377
7.82846 370
7.84857 434
7.86869 387
7.8888 379
7.90891 360
7.92903 405
7.94914 392
7.96925 419
7.98937 434
8.00948 428
8.0296 408
8.04971 421
8.06982 395
8.08994 427
8.11005 431
8.13016 409
8.15028 399
8.17039 445
8.1905 442
8.21062 422
8.23073 405
8.25085 459
8.27096 414
8.29107 410
8.31119 452
8.3313 394
8.35141 418
8.37153 410
8.39164 437
8.41176 450
8.43187 451
8.45198 433
8.4721 382
8.49221 454
8.51232 411
8.53244 442
8.55255 414
8.57266 432
8.59278 396
8.61289 420
8.63301 432
8.65312 359
8.67323 386
8.69335 373
8.71346 383
8.73357 402
8.75369 345
8.7738 364
8.79392 403
8.81403 357
8.83414 384
8.85426 354
8.87437 383
8.89448 346
8.9146 382
8.93471 334
8.95483 343
8.97494 331
8.99505 333
9.01517 325
9.03528 307
9.05539 344
9.07551 317
9.09562 304
9.11573 347
9.13585 327
9.15596 331
9.17608 333
9.19619 316
9.2163 343
9.23642 323
9.25653 353
9.27664 304
9.29676 312
9.31687 336
9.33699 318
9.3571 339
9.37721 330
9.39733 322
9.41744 307
9.43755 281
9.45767 295
9.47778 276
9.4979 272
9.51801 317
9.53812 315
9.55824 300
9.57835 315
9.59846 286
9.61858 288
9.63869 288
9.6588 347
9.67892 300
9.69903 278
9.71915 287
9.73926 294
9.75937 291
9.77949 325
9.7996 298
9.81971 313
9.83983 308
9.85994 281
9.88006 316
9.90017 306
9.92028 340
9.9404 285
9.96051 290
9.98062 280
10.00074 298
10.02085 288
10.04097 340
10.06108 304
10.08119 321
10.10131 250
10.12142 254
10.14153 274
10.16165 270
10.18176 288
10.20187 290
10.22199 291
10.2421 300
10.26222 297
10.28233 314
10.30244 305
10.32256 274
10.34267 335
10.36278 297
10.3829 264
10.40301 286
10.42313 264
10.44324 278
10.46335 292
10.48347 280
10.50358 282
10.52369 302
10.54381 286
10.56392 251
10.58403 260
10.60415 292
10.62426 275
10.64438 276
10.66449 307
10.6846 271
10.70472 277
10.72483 271
10.74494 264
10.76506 296
10.78517 274
10.80529 282
10.8254 276
10.84551 258
10.86563 282
10.88574 270
10.90585 294
10.92597 265
10.94608 293
10.9662 269
10.98631 269
11.00642 304
11.02654 265
11.04665 268
11.06676 273
11.08688 275
11.10699 273
11.1271 293
11.14722 236
11.16733 273
11.18745 276
11.20756 284
11.22767 233
11.24779 273
11.2679 283
11.28801 264
11.30813 263
11.32824 273
11.34836 278
11.36847 282
11.38858 299
11.4087 289
11.42881 290
11.44892 289
11.46904 292
11.48915 275
11.50927 239
11.52938 259
11.54949 279
11.56961 253
11.58972 272
11.60983 245
11.62995 249
11.65006 297
11.67017 263
11.69029 295
11.7104 260
11.73052 281
11.75063 269
11.77074 275
11.79086 279
11.81097 268
11.83108 247
11.8512 253
11.87131 295
11.89143 237
11.91154 274
11.93165 263
11.95177 267
11.97188 269
11.99199 271
12.01211 291
12.03222 275
12.05234 253
12.07245 273
12.09256 264
12.11268 279
12.13279 273
12.1529 284
12.17302 260
12.19313 265
12.21324 271
12.23336 248
12.25347 257
12.27359 242
12.2937 272
12.31381 275
12.33393 256
12.35404 271
12.37415 278
12.39427 239
12.41438 287
12.4345 260
12.45461 256
12.47472 252
12.49484 239
12.51495 225
12.53506 272
12.55518 268
12.57529 245
12.5954 244
12.61552 230
12.63563 284
12.65575 269
12.67586 296
12.69597 277
12.71609 257
12.7362 249
12.75631 260
12.77643 244
12.79654 225
12.81666 257
12.83677 256
12.85688 245
12.877 250
12.89711 289
12.91722 270
12.93734 269
12.95745 266
12.97757 252
12.99768 241
13.01779 287
13.03791 253
13.05802 253
13.07813 239
13.09825 282
13.11836 256
13.13847 272
13.15859 236
13.1787 287
13.19882 234
13.21893 264
13.23904 257
13.25916 247
13.27927 280
13.29938 263
13.3195 298
13.33961 274
13.35973 246
13.37984 235
13.39995 242
13.42007 240
13.44018 241
13.46029 267
13.48041 279
13.50052 279
13.52064 273
13.54075 268
13.56086 263
13.58098 280
13.60109 274
13.6212 268
13.64132 265
13.66143 251
13.68154 258
13.70166 232
13.72177 264
13.74189 273
13.762 243
13.78211 257
13.80223 252
13.82234 242
13.84245 249
13.86257 281
13.88268 267
13.9028 261
13.92291 261
13.94302 283
13.96314 264
13.98325 254
14.00336 252
14.02348 257
14.04359 236
14.06371 265
14.08382 236
14.10393 274
14.12405 258
14.14416 244
14.16427 250
14.18439 247
14.2045 244
14.22461 215
14.24473 214
14.26484 229
14.28496 250
14.30507 259
14.32518 255
14.3453 248
14.36541 254
14.38552 231
14.40564 244
14.42575 244
14.44587 209
14.46598 262
14.48609 239
14.50621 249
14.52632 221
14.54643 232
14.56655 274
14.58666 215
14.60677 235
14.62689 250
14.647 251
14.66712 260
14.68723 271
14.70734 242
14.72746 233
14.74757 217
14.76768 258
14.7878 264
14.80791 263
14.82803 246
14.84814 227
14.86825 256
14.88837 225
14.90848 248
14.92859 253
14.94871 271
14.96882 237
14.98894 230
15.00905 248
15.02916 248
15.04928 222
15.06939 258
15.0895 231
15.10962 268
15.12973 224
15.14984 255
15.16996 228
15.19007 240
15.21019 236
15.2303 249
15.25041 235
15.27053 234
15.29064 252
15.31075 220
15.33087 226
15.35098 234
15.3711 246
15.39121 222
15.41132 247
15.43144 254
15.45155 222
15.47166 218
15.49178 232
15.51189 213
15.53201 214
15.55212 218
15.57223 250
15.59235 230
15.61246 232
15.63257 256
15.65269 221
15.6728 247
15.69291 222
15.71303 279
15.73314 229
15.75326 258
15.77337 253
15.79348 243
15.8136 228
15.83371 219
15.85382 206
15.87394 218
15.89405 230
15.91417 230
15.93428 226
15.95439 221
15.97451 227
15.99462 230
16.01473 247
16.03485 244
16.05496 247
16.07508 248
16.09519 253
16.1153 251
16.13542 237
16.15553 242
16.17564 257
16.19576 261
16.21587 264
16.23598 248
16.2561 248
16.27621 240
16.29633 263
16.31644 248
16.33655 218
16.35667 251
16.37678 242
16.39689 259
16.41701 227
16.43712 235
16.45724 241
16.47735 231
16.49746 254
16.51758 215
16.53769 212
16.5578 267
16.57792 242
16.59803 227
16.61814 258
16.63826 258
16.65837 239
16.67849 249
16.6986 239
16.71871 245
16.73883 236
16.75894 246
16.77905 241
16.79917 248
16.81928 256
16.8394 248
16.85951 231
16.87962 241
16.89974 233
16.91985 258
16.93996 230
16.96008 261
16.98019 240
17.00031 237
17.02042 265
17.04053 230
17.06065 255
17.08076 222
17.10087 231
17.12099 209
17.1411 228
17.16121 245
17.18133 241
17.20144 247
17.22156 255
17.24167 232
17.26178 254
17.2819 253
17.30201 232
17.32212 231
17.34224 236
17.36235 269
17.38247 252
17.40258 240
17.42269 234
17.44281 261
17.46292 247
17.48303 252
17.50315 228
17.52326 273
17.54338 266
17.56349 221
17.5836 233
17.60372 233
17.62383 241
17.64394 230
17.66406 241
17.68417 235
17.70428 255
17.7244 254
17.74451 229
17.76463 254
17.78474 262
17.80485 241
17.82497 224
17.84508 263
17.86519 232
17.88531 265
17.90542 234
17.92554 247
17.94565 249
17.96576 236
17.98588 238
18.00599 239
18.0261 249
18.04622 259
18.06633 234
18.08645 236
18.10656 256
18.12667 224
18.14679 239
18.1669 266
18.18701 239
18.20713 253
18.22724 241
18.24735 256
18.26747 242
18.28758 259
18.3077 282
18.32781 280
18.34792 221
18.36804 251
18.38815 236
18.40826 247
18.42838 224
18.44849 264
18.46861 244
18.48872 223
18.50883 241
18.52895 247
18.54906 257
18.56917 244
18.58929 236
18.6094 235
18.62951 245
18.64963 255
18.66974 249
18.68986 265
18.70997 250
18.73008 239
18.7502 256
18.77031 257
18.79042 265
18.81054 286
18.83065 263
18.85077 254
18.87088 263
18.89099 260
18.91111 257
18.93122 284
18.95133 258
18.97145 283
18.99156 257
19.01168 266
19.03179 250
19.0519 238
19.07202 278
19.09213 283
19.11224 268
19.13236 301
19.15247 291
19.17258 279
19.1927 288
19.21281 276
19.23293 307
19.25304 313
19.27315 327
19.29327 312
19.31338 363
19.33349 319
19.35361 310
19.37372 359
19.39384 358
19.41395 393
19.43406 377
19.45418 390
19.47429 389
19.4944 429
19.51452 433
19.53463 444
19.55475 436
19.57486 507
19.59497 462
19.61509 469
19.6352 511
19.65531 555
19.67543 567
19.69554 532
19.71565 601
19.73577 581
19.75588 584
19.776 539
19.79611 580
19.81622 555
19.83634 547
19.85645 538
19.87656 487
19.89668 530
19.91679 510
19.93691 519
19.95702 503
19.97713 513
19.99725 514
20.01736 461
20.03747 483
20.05759 465
20.0777 480
20.09782 517
20.11793 486
20.13804 475
20.15816 498
20.17827 485
20.19838 508
20.2185 483
20.23861 423
20.25872 472
20.27884 440
20.29895 455
20.31907 451
20.33918 496
20.35929 462
20.37941 481
20.39952 474
20.41963 534
20.43975 512
20.45986 522
20.47998 532
20.50009 517
20.5202 600
20.54032 611
20.56043 624
20.58054 695
20.60066 730
20.62077 842
20.64088 1029
20.661 1210
20.68111 1615
20.70123 2100
20.72134 2725
20.74145 3468
20.76157 4285
20.78168 4879
20.80179 5734
20.82191 5786
20.84202 5446
20.86214 4566
20.88225 3424
20.90236 2541
20.92248 1826
20.94259 1269
20.9627 966
20.98282 761
21.00293 705
21.02305 683
21.04316 611
21.06327 584
21.08339 581
21.1035 514
21.12361 485
21.14373 483
21.16384 423
21.18395 429
21.20407 420
21.22418 446
21.2443 432
21.26441 419
21.28452 398
21.30464 369
21.32475 406
21.34486 383
21.36498 374
21.38509 383
21.40521 373
21.42532 349
21.44543 355
21.46555 387
21.48566 365
21.50577 379
21.52589 344
21.546 326
21.56612 356
21.58623 373
21.60634 340
21.62646 295
21.64657 360
21.66668 370
21.6868 351
21.70691 326
21.72702 361
21.74714 332
21.76725 343
21.78737 335
21.80748 325
21.82759 336
21.84771 333
21.86782 362
21.88793 339
21.90805 374
21.92816 366
21.94828 372
21.96839 354
21.9885 370
22.00862 379
22.02873 351
22.04884 375
22.06896 322
22.08907 331
22.10919 372
22.1293 335
22.14941 349
22.16953 309
22.18964 346
22.20975 324
22.22987 322
22.24998 333
22.27009 350
22.29021 344
22.31032 316
22.33044 337
22.35055 356
22.37066 395
22.39078 339
22.41089 337
22.431 314
22.45112 309
22.47123 343
22.49135 321
22.51146 360
22.53157 353
22.55169 338
22.5718 357
22.59191 312
22.61203 316
22.63214 324
22.65225 332
22.67237 362
22.69248 316
22.7126 295
22.73271 306
22.75282 313
22.77294 324
22.79305 318
22.81316 334
22.83328 338
22.85339 311
22.87351 313
22.89362 301
22.91373 322
22.93385 331
22.95396 316
22.97407 308
22.99419 317
23.0143 330
23.03442 309
23.05453 357
23.07464 314
23.09476 308
23.11487 340
23.13498 351
23.1551 335
23.17521 331
23.19532 342
23.21544 344
23.23555 326
23.25567 329
23.27578 327
23.29589 340
23.31601 378
23.33612 353
23.35623 372
23.37635 343
23.39646 397
23.41658 375
23.43669 365
23.4568 339
23.47692 424
23.49703 372
23.51714 394
23.53726 448
23.55737 376
23.57749 349
23.5976 370
23.61771 371
23.63783 367
23.65794 357
23.67805 349
23.69817 325
23.71828 319
23.73839 362
23.75851 335
23.77862 332
23.79874 330
23.81885 350
23.83896 329
23.85908 340
23.87919 342
23.8993 392
23.91942 399
23.93953 390
23.95965 407
23.97976 410
23.99987 387
24.01999 368
24.0401 362
24.06021 345
24.08033 322
24.10044 313
24.12056 353
24.14067 358
24.16078 323
24.1809 356
24.20101 292
24.22112 329
24.24124 311
24.26135 334
24.28146 337
24.30158 310
24.32169 344
24.34181 333
24.36192 323
24.38203 343
24.40215 341
24.42226 326
24.44237 308
24.46249 303
24.4826 333
24.50272 306
24.52283 293
24.54294 313
24.56306 333
24.58317 341
24.60328 328
24.6234 307
24.64351 291
24.66362 317
24.68374 339
24.70385 332
24.72397 348
24.74408 338
24.76419 318
24.78431 311
24.80442 324
24.82453 342
24.84465 296
24.86476 328
24.88488 297
24.90499 321
24.9251 348
24.94522 344
24.96533 309
24.98544 310
25.00556 340
25.02567 323
25.04579 333
25.0659 361
25.08601 347
25.10613 326
25.12624 349
25.14635 330
25.16647 306
25.18658 310
25.20669 341
25.22681 397
25.24692 368
25.26704 350
25.28715 360
25.30726 358
25.32738 351
25.34749 400
25.3676 358
25.38772 348
25.40783 373
25.42795 330
25.44806 350
25.46817 355
25.48829 401
25.5084 390
25.52851 435
25.54863 394
25.56874 436
25.58886 420
25.60897 464
25.62908 429
25.6492 477
25.66931 446
25.68942 503
25.70954 505
25.72965 499
25.74976 487
25.76988 515
25.78999 546
25.81011 527
25.83022 514
25.85033 487
25.87045 484
25.89056 542
25.91067 550
25.93079 492
25.9509 556
25.97102 542
25.99113 510
26.01124 582
26.03136 599
26.05147 694
26.07158 668
26.0917 689
26.11181 674
26.13193 735
26.15204 831
26.17215 832
26.19227 865
26.21238 968
26.23249 1043
26.25261 1142
26.27272 1211
26.29283 1303
26.31295 1561
26.33306 1781
26.35318 2064
26.37329 2601
26.3934 3303
26.41352 4194
26.43363 5440
26.45374 7144
26.47386 9470
26.49397 12260
26.51409 15829
26.5342 19403
26.55431 22830
26.57443 24939
26.59454 25526
26.61465 24571
26.63477 21872
26.65488 17343
26.67499 12976
26.69511 9220
26.71522 6419
26.73534 4146
26.75545 2622
26.77556 1864
26.79568 1530
26.81579 1361
26.8359 1212
26.85602 1099
26.87613 1124
26.89625 954
26.91636 927
26.93647 872
26.95659 796
26.9767 802
26.99681 782
27.01693 753
27.03704 696
27.05716 653
27.07727 583
27.09738 649
27.1175 635
27.13761 594
27.15772 562
27.17784 540
27.19795 528
27.21806 559
27.23818 563
27.25829 565
27.27841 553
27.29852 577
27.31863 543
27.33875 570
27.35886 607
27.37897 627
27.39909 609
27.4192 625
27.43932 626
27.45943 618
27.47954 600
27.49966 564
27.51977 583
27.53988 559
27.56 510
27.58011 527
27.60023 460
27.62034 470
27.64045 502
27.66057 454
27.68068 484
27.70079 436
27.72091 435
27.74102 439
27.76113 459
27.78125 471
27.80136 503
27.82148 426
27.84159 444
27.8617 472
27.88182 462
27.90193 461
27.92204 467
27.94216 417
27.96227 408
27.98239 408
28.0025 418
28.02261 365
28.04273 387
28.06284 411
28.08295 426
28.10307 407
28.12318 376
28.1433 396
28.16341 357
28.18352 393
28.20364 411
28.22375 392
28.24386 359
28.26398 390
28.28409 359
28.3042 368
28.32432 404
28.34443 401
28.36455 366
28.38466 359
28.40477 377
28.42489 350
28.445 372
28.46511 356
28.48523 363
28.50534 366
28.52546 359
28.54557 343
28.56568 346
28.5858 387
28.60591 358
28.62602 333
28.64614 365
28.66625 369
28.68636 375
28.70648 345
28.72659 372
28.74671 338
28.76682 351
28.78693 339
28.80705 334
28.82716 316
28.84727 321
28.86739 326
28.8875 342
28.90762 331
28.92773 328
28.94784 333
28.96796 357
28.98807 289
29.00818 315
29.0283 318
29.04841 313
29.06853 336
29.08864 329
29.10875 333
29.12887 274
29.14898 336
29.16909 340
29.18921 321
29.20932 340
29.22943 319
29.24955 319
29.26966 339
29.28978 332
29.30989 311
29.33 332
29.35012 325
29.37023 319
29.39034 338
29.41046 325
29.43057 299
29.45069 320
29.4708 345
29.49091 333
29.51103 360
29.53114 341
29.55125 290
29.57137 342
29.59148 321
29.6116 323
29.63171 349
29.65182 319
29.67194 370
29.69205 321
29.71216 314
29.73228 328
29.75239 312
29.7725 326
29.79262 354
29.81273 335
29.83285 340
29.85296 379
29.87307 369
29.89319 313
29.9133 355
29.93341 317
29.95353 373
29.97364 326
29.99376 327
30.01387 338
30.03398 302
30.0541 332
30.07421 323
30.09432 337
30.11444 323
30.13455 315
30.15467 337
30.17478 361
30.19489 333
30.21501 299
30.23512 293
30.25523 329
30.27535 305
30.29546 299
30.31557 299
30.33569 301
30.3558 295
30.37592 306
30.39603 306
30.41614 301
30.43626 317
30.45637 297
30.47648 321
30.4966 283
30.51671 317
30.53683 314
30.55694 341
30.57705 290
30.59717 303
30.61728 297
30.63739 339
30.65751 317
30.67762 322
30.69773 346
30.71785 329
30.73796 331
30.75808 322
30.77819 328
30.7983 320
30.81842 343
30.83853 275
30.85864 327
30.87876 275
30.89887 290
30.91899 311
30.9391 276
30.95921 285
30.97933 294
30.99944 291
31.01955 267
31.03967 309
31.05978 252
31.0799 294
31.10001 267
31.12012 278
31.14024 261
31.16035 261
31.18046 256
31.20058 276
31.22069 268
31.2408 282
31.26092 257
31.28103 277
31.30115 256
31.32126 283
31.34137 260
31.36149 291
31.3816 293
31.40171 290
31.42183 283
31.44194 278
31.46206 268
31.48217 262
31.50228 262
31.5224 253
31.54251 302
31.56262 261
31.58274 258
31.60285 267
31.62297 288
31.64308 248
31.66319 297
31.68331 258
31.70342 253
31.72353 254
31.74365 265
31.76376 266
31.78387 229
31.80399 224
31.8241 266
31.84422 266
31.86433 267
31.88444 269
31.90456 264
31.92467 267
31.94478 257
31.9649 269
31.98501 257
32.00513 259
32.02524 248
32.04535 263
32.06547 284
32.08558 250
32.10569 270
32.12581 257
32.14592 275
32.16604 287
32.18615 285
32.20626 282
32.22638 275
32.24649 272
32.2666 253
32.28672 259
32.30683 269
32.32694 254
32.34706 265
32.36717 284
32.38729 286
32.4074 281
32.42751 257
32.44763 261
32.46774 244
32.48785 279
32.50797 254
32.52808 267
32.5482 281
32.56831 245
32.58842 266
32.60854 252
32.62865 236
32.64876 226
32.66888 247
32.68899 245
32.7091 300
32.72922 259
32.74933 255
32.76945 256
32.78956 267
32.80967 268
32.82979 253
32.8499 209
32.87001 249
32.89013 268
32.91024 237
32.93036 253
32.95047 239
32.97058 238
32.9907 262
33.01081 261
33.03092 247
33.05104 253
33.07115 222
33.09127 254
33.11138 261
33.13149 276
33.15161 264
33.17172 228
33.19183 252
33.21195 251
33.23206 236
33.25217 253
33.27229 265
33.2924 263
33.31252 260
33.33263 269
33.35274 244
33.37286 222
33.39297 231
33.41308 252
33.4332 222
33.45331 253
33.47343 222
33.49354 242
33.51365 247
33.53377 257
33.55388 257
33.57399 245
33.59411 250
33.61422 266
33.63434 255
33.65445 264
33.67456 246
33.69468 264
33.71479 266
33.7349 242
33.75502 246
33.77513 268
33.79524 280
33.81536 244
33.83547 272
33.85559 249
33.8757 283
33.89581 285
33.91593 282
33.93604 229
33.95615 259
33.97627 262
33.99638 244
34.0165 251
34.03661 293
34.05672 280
34.07684 252
34.09695 303
34.11706 292
34.13718 295
34.15729 275
34.17741 300
34.19752 289
34.21763 300
34.23775 277
34.25786 306
34.27797 282
34.29809 336
34.3182 308
34.33831 320
34.35843 334
34.37854 320
34.39866 341
34.41877 347
34.43888 372
34.459 366
34.47911 371
34.49922 371
34.51934 343
34.53945 381
34.55957 372
34.57968 384
34.59979 352
34.61991 370
34.64002 362
34.66013 382
34.68025 380
34.70036 388
34.72047 391
34.74059 346
34.7607 425
34.78082 400
34.80093 423
34.82104 370
34.84116 400
34.86127 383
34.88138 388
34.9015 355
34.92161 389
34.94173 397
34.96184 377
34.98195 375
35.00207 385
35.02218 338
35.04229 401
35.06241 362
35.08252 374
35.10264 370
35.12275 362
35.14286 345
35.16298 434
35.18309 375
35.2032 376
35.22332 386
35.24343 394
35.26354 353
35.28366 366
35.30377 382
35.32389 345
35.344 398
35.36411 391
35.38423 367
35.40434 391
35.42445 338
35.44457 328
35.46468 365
35.4848 362
35.50491 365
35.52502 369
35.54514 347
35.56525 348
35.58536 340
35.60548 350
35.62559 309
35.64571 385
35.66582 357
35.68593 348
35.70605 348
35.72616 346
35.74627 330
35.76639 335
35.7865 321
35.80661 354
35.82673 340
35.84684 329
35.86696 314
35.88707 332
35.90718 328
35.9273 320
35.94741 336
35.96752 357
35.98764 314
36.00775 335
36.02787 338
36.04798 340
36.06809 301
36.08821 348
36.10832 337
36.12843 356
36.14855 369
36.16866 363
36.18878 420
36.20889 460
36.229 440
36.24912 443
36.26923 530
36.28934 586
36.30946 620
36.32957 744
36.34968 912
36.3698 977
36.38991 1183
36.41003 1375
36.43014 1540
36.45025 1671
36.47037 1822
36.49048 1975
36.51059 1911
36.53071 1742
36.55082 1378
36.57094 1267
36.59105 1118
36.61116 999
36.63128 791
36.65139 616
36.6715 480
36.69162 428
36.71173 380
36.73184 387
36.75196 382
36.77207 355
36.79219 345
36.8123 307
36.83241 359
36.85253 333
36.87264 294
36.89275 311
36.91287 324
36.93298 330
36.9531 322
36.97321 315
36.99332 303
37.01344 309
37.03355 293
37.05366 330
37.07378 292
37.09389 315
37.11401 326
37.13412 327
37.15423 299
37.17435 308
37.19446 291
37.21457 274
37.23469 298
37.2548 288
37.27491 263
37.29503 295
37.31514 261
37.33526 295
37.35537 296
37.37548 285
37.3956 271
37.41571 278
37.43582 276
37.45594 256
37.47605 270
37.49617 266
37.51628 300
37.53639 293
37.55651 263
37.57662 273
37.59673 320
37.61685 298
37.63696 300
37.65708 290
37.67719 289
37.6973 262
37.71742 258
37.73753 260
37.75764 281
37.77776 271
37.79787 290
37.81798 292
37.8381 277
37.85821 286
37.87833 263
37.89844 243
37.91855 254
37.93867 284
37.95878 272
37.97889 240
37.99901 258
38.01912 277
38.03924 250
38.05935 282
38.07946 262
38.09958 255
38.11969 318
38.1398 256
38.15992 292
38.18003 256
38.20015 250
38.22026 286
38.24037 259
38.26049 254
38.2806 282
38.30071 280
38.32083 279
38.34094 252
38.36105 268
38.38117 317
38.40128 253
38.4214 285
38.44151 263
38.46162 263
38.48174 245
38.50185 280
38.52196 299
38.54208 245
38.56219 304
38.58231 267
38.60242 262
38.62253 259
38.64265 250
38.66276 271
38.68287 238
38.70299 301
38.7231 267
38.74321 297
38.76333 300
38.78344 271
38.80356 274
38.82367 241
38.84378 227
38.8639 263
38.88401 270
38.90412 281
38.92424 258
38.94435 275
38.96447 266
38.98458 293
39.00469 282
39.02481 300
39.04492 316
39.06503 319
39.08515 345
39.10526 348
39.12538 369
39.14549 384
39.1656 418
39.18572 412
39.20583 518
39.22594 570
39.24606 620
39.26617 742
39.28628 854
39.3064 1009
39.32651 1149
39.34663 1421
39.36674 1552
39.38685 1664
39.40697 1752
39.42708 1719
39.44719 1614
39.46731 1411
39.48742 1195
39.50754 1058
39.52765 906
39.54776 783
39.56788 603
39.58799 516
39.6081 407
39.62822 396
39.64833 297
39.66845 345
39.68856 329
39.70867 319
39.72879 321
39.7489 285
39.76901 317
39.78913 315
39.80924 305
39.82935 304
39.84947 299
39.86958 299
39.8897 311
39.90981 315
39.92992 286
39.95004 324
39.97015 331
39.99026 358
40.01038 401
40.03049 407
40.05061 437
40.07072 449
40.09083 514
40.11095 626
40.13106 651
40.15117 744
40.17129 835
40.1914 879
40.21152 997
40.23163 1028
40.25174 1004
40.27186 923
40.29197 779
40.31208 680
40.3322 653
40.35231 589
40.37242 476
40.39254 492
40.41265 383
40.43277 345
40.45288 315
40.47299 308
40.49311 295
40.51322 293
40.53333 256
40.55345 286
40.57356 300
40.59368 259
40.61379 282
40.6339 272
40.65402 265
40.67413 260
40.69424 245
40.71436 286
40.73447 270
40.75458 241
40.7747 267
40.79481 257
40.81493 257
40.83504 251
40.85515 275
40.87527 250
40.89538 249
40.91549 254
40.93561 274
40.95572 258
40.97584 249
40.99595 273
41.01606 270
41.03618 280
41.05629 278
41.0764 258
41.09652 268
41.11663 250
41.13675 277
41.15686 224
41.17697 293
41.19709 243
41.2172 257
41.23731 256
41.25743 269
41.27754 241
41.29765 265
41.31777 291
41.33788 264
41.358 271
41.37811 248
41.39822 252
41.41834 259
41.43845 247
41.45856 267
41.47868 260
41.49879 266
41.51891 290
41.53902 264
41.55913 272
41.57925 259
41.59936 263
41.61947 303
41.63959 273
41.6597 289
41.67982 319
41.69993 297
41.72004 296
41.74016 288
41.76027 267
41.78038 296
41.8005 278
41.82061 311
41.84072 268
41.86084 277
41.88095 262
41.90107 298
41.92118 256
41.94129 271
41.96141 283
41.98152 315
42.00163 281
42.02175 307
42.04186 312
42.06198 302
42.08209 335
42.1022 341
42.12232 326
42.14243 343
42.16254 427
42.18266 430
42.20277 465
42.22289 559
42.243 604
42.26311 666
42.28323 775
42.30334 866
42.32345 1028
42.34357 1123
42.36368 1196
42.38379 1317
42.40391 1318
42.42402 1197
42.44414 1077
42.46425 987
42.48436 821
42.50448 780
42.52459 677
42.5447 582
42.56482 465
42.58493 411
42.60505 351
42.62516 320
42.64527 330
42.66539 282
42.6855 328
42.70561 325
42.72573 267
42.74584 296
42.76595 252
42.78607 250
42.80618 224
42.8263 281
42.84641 265
42.86652 264
42.88664 274
42.90675 257
42.92686 281
42.94698 262
42.96709 251
42.98721 254
43.00732 248
43.02743 241
43.04755 265
43.06766 239
43.08777 266
43.10789 246
43.128 236
43.14812 238
43.16823 252
43.18834 274
43.20846 251
43.22857 235
43.24868 237
43.2688 239
43.28891 237
43.30902 256
43.32914 234
43.34925 231
43.36937 252
43.38948 245
43.40959 267
43.42971 232
43.44982 217
43.46993 223
43.49005 220
43.51016 238
43.53028 230
43.55039 214
43.5705 224
43.59062 225
43.61073 232
43.63084 252
43.65096 246
43.67107 230
43.69119 235
43.7113 217
43.73141 243
43.75153 220
43.77164 247
43.79175 231
43.81187 217
43.83198 229
43.85209 246
43.87221 234
43.89232 246
43.91244 228
43.93255 248
43.95266 240
43.97278 244
43.99289 227
44.013 248
44.03312 211
44.05323 245
44.07335 234
44.09346 236
44.11357 238
44.13369 228
44.1538 268
44.17391 208
44.19403 244
44.21414 214
44.23426 226
44.25437 217
44.27448 219
44.2946 220
44.31471 229
44.33482 220
44.35494 235
44.37505 219
44.39516 237
44.41528 237
44.43539 215
44.45551 218
44.47562 236
44.49573 216
44.51585 218
44.53596 255
44.55607 233
44.57619 252
44.5963 213
44.61642 241
44.63653 202
44.65664 226
44.67676 207
44.69687 226
44.71698 234
44.7371 240
44.75721 235
44.77732 203
44.79744 215
44.81755 237
44.83767 230
44.85778 222
44.87789 241
44.89801 269
44.91812 224
44.93823 218
44.95835 223
44.97846 249
44.99858 203
45.01869 252
45.0388 233
45.05892 238
45.07903 231
45.09914 235
45.11926 237
45.13937 197
45.15949 254
45.1796 275
45.19971 239
45.21983 235
45.23994 236
45.26005 250
45.28017 249
45.30028 235
45.32039 234
45.34051 256
45.36062 263
45.38074 257
45.40085 240
45.42096 309
45.44108 289
45.46119 322
45.4813 364
45.50142 297
45.52153 403
45.54165 365
45.56176 418
45.58187 507
45.60199 487
45.6221 568
45.64221 649
45.66233 715
45.68244 788
45.70256 851
45.72267 943
45.74278 887
45.7629 873
45.78301 759
45.80312 724
45.82324 656
45.84335 582
45.86346 527
45.88358 474
45.90369 419
45.92381 374
45.94392 306
45.96403 295
45.98415 275
46.00426 232
46.02437 264
46.04449 241
46.0646 238
46.08472 231
46.10483 235
46.12494 251
46.14506 236
46.16517 233
46.18528 236
46.2054 235
46.22551 257
46.24563 228
46.26574 222
46.28585 221
46.30597 224
46.32608 191
46.34619 221
46.36631 232
46.38642 232
46.40653 239
46.42665 205
46.44676 201
46.46688 220
46.48699 204
46.5071 215
46.52722 179
46.54733 212
46.56744 226
46.58756 203
46.60767 231
46.62779 186
46.6479 220
46.66801 216
46.68813 223
46.70824 187
46.72835 210
46.74847 210
46.76858 178
46.78869 208
46.80881 227
46.82892 223
46.84904 186
46.86915 215
46.88926 218
46.90938 203
46.92949 240
46.9496 206
46.96972 253
46.98983 213
47.00995 209
47.03006 230
47.05017 213
47.07029 214
47.0904 204
47.11051 202
47.13063 207
47.15074 205
47.17086 224
47.19097 216
47.21108 207
47.2312 234
47.25131 222
47.27142 202
47.29154 211
47.31165 227
47.33176 237
47.35188 190
47.37199 228
47.39211 248
47.41222 197
47.43233 207
47.45245 215
47.47256 206
47.49267 204
47.51279 190
47.5329 239
47.55302 209
47.57313 214
47.59324 214
47.61336 200
47.63347 239
47.65358 206
47.6737 185
47.69381 223
47.71393 183
47.73404 217
47.75415 202
47.77427 209
47.79438 246
47.81449 241
47.83461 211
47.85472 199
47.87483 214
47.89495 204
47.91506 209
47.93518 214
47.95529 218
47.9754 217
47.99552 214
48.01563 187
48.03574 209
48.05586 203
48.07597 215
48.09609 221
48.1162 183
48.13631 200
48.15643 234
48.17654 213
48.19665 191
48.21677 235
48.23688 216
48.257 200
48.27711 191
48.29722 211
48.31734 201
48.33745 217
48.35756 221
48.37768 195
48.39779 200
48.4179 236
48.43802 190
48.45813 226
48.47825 239
48.49836 217
48.51847 197
48.53859 199
48.5587 222
48.57881 245
48.59893 216
48.61904 232
48.63916 237
48.65927 252
48.67938 192
48.6995 212
48.71961 244
48.73972 226
48.75984 223
48.77995 245
48.80006 223
48.82018 245
48.84029 256
48.86041 240
48.88052 233
48.90063 215
48.92075 221
48.94086 214
48.96097 210
48.98109 227
49.0012 228
49.02132 204
49.04143 237
49.06154 241
49.08166 236
49.10177 261
49.12188 220
49.142 235
49.16211 224
49.18223 242
49.20234 222
49.22245 231
49.24257 220
49.26268 236
49.28279 230
49.30291 238
49.32302 237
49.34313 236
49.36325 234
49.38336 198
49.40348 275
49.42359 254
49.4437 243
49.46382 219
49.48393 266
49.50404 230
49.52416 255
49.54427 277
49.56439 270
49.5845 250
49.60461 306
49.62473 279
49.64484 325
49.66495 293
49.68507 294
49.70518 326
49.7253 346
49.74541 404
49.76552 448
49.78564 437
49.80575 478
49.82586 593
49.84598 658
49.86609 710
49.8862 837
49.90632 941
49.92643 1155
49.94655 1292
49.96666 1530
49.98677 1795
50.00689 2054
50.027 2339
50.04711 2589
50.06723 2636
50.08734 2694
50.10746 2601
50.12757 2315
50.14768 2027
50.1678 1703
50.18791 1641
50.20802 1393
50.22814 1338
50.24825 1146
50.26837 899
50.28848 708
50.30859 525
50.32871 424
50.34882 382
50.36893 341
50.38905 316
50.40916 372
50.42927 323
50.44939 330
50.4695 337
50.48962 318
50.50973 283
50.52984 355
50.54996 322
50.57007 338
50.59018 329
50.6103 308
50.63041 290
50.65053 305
50.67064 293
50.69075 265
50.71087 279
50.73098 242
50.75109 258
50.77121 244
50.79132 226
50.81143 247
50.83155 256
50.85166 238
50.87178 236
50.89189 211
50.912 226
50.93212 218
50.95223 223
50.97234 254
50.99246 218
51.01257 227
51.03269 243
51.0528 209
51.07291 201
51.09303 206
51.11314 219
51.13325 209
51.15337 204
51.17348 203
51.1936 211
51.21371 196
51.23382 237
51.25394 226
51.27405 237
51.29416 200
51.31428 211
51.33439 197
51.3545 210
51.37462 204
51.39473 223
51.41485 232
51.43496 200
51.45507 213
51.47519 205
51.4953 179
51.51541 194
51.53553 231
51.55564 202
51.57576 192
51.59587 217
51.61598 225
51.6361 185
51.65621 209
51.67632 205
51.69644 192
51.71655 205
51.73667 201
51.75678 194
51.77689 201
51.79701 185
51.81712 213
51.83723 203
51.85735 208
51.87746 224
51.89757 198
51.91769 208
51.9378 200
51.95792 205
51.97803 223
51.99814 229
52.01826 203
52.03837 176
52.05848 237
52.0786 203
52.09871 204
52.11883 189
52.13894 217
52.15905 222
52.17917 183
52.19928 191
52.21939 204
52.23951 199
52.25962 193
52.27974 239
52.29985 203
52.31996 216
52.34008 196
52.36019 198
52.3803 181
52.40042 184
52.42053 167
52.44064 212
52.46076 202
52.48087 204
52.50099 189
52.5211 223
52.54121 216
52.56133 195
52.58144 221
52.60155 203
52.62167 176
52.64178 211
52.6619 213
52.68201 225
52.70212 213
52.72224 209
52.74235 196
52.76246 214
52.78258 221
52.80269 215
52.8228 186
52.84292 212
52.86303 213
52.88315 228
52.90326 211
52.92337 212
52.94349 192
52.9636 214
52.98371 215
53.00383 205
53.02394 236
53.04406 195
53.06417 219
53.08428 240
53.1044 220
53.12451 201
53.14462 192
53.16474 207
53.18485 237
53.20497 232
53.22508 252
53.24519 202
53.26531 245
53.28542 214
53.30553 241
53.32565 246
53.34576 227
53.36587 231
53.38599 225
53.4061 237
53.42622 231
53.44633 235
53.46644 183
53.48656 244
53.50667 236
53.52678 241
53.5469 218
53.56701 236
53.58713 242
53.60724 232
53.62735 252
53.64747 220
53.66758 245
53.68769 256
53.70781 265
53.72792 233
53.74804 245
53.76815 259
53.78826 217
53.80838 247
53.82849 244
53.8486 249
53.86872 256
53.88883 228
53.90894 216
53.92906 243
53.94917 244
53.96929 252
53.9894 251
54.00951 258
54.02963 227
54.04974 264
54.06985 245
54.08997 251
54.11008 248
54.1302 231
54.15031 259
54.17042 254
54.19054 254
54.21065 226
54.23076 257
54.25088 233
54.27099 249
54.29111 274
54.31122 267
54.33133 230
54.35145 269
54.37156 264
54.39167 277
54.41179 305
54.4319 272
54.45201 281
54.47213 258
54.49224 283
54.51236 316
54.53247 315
54.55258 376
54.5727 334
54.59281 400
54.61292 420
54.63304 451
54.65315 496
54.67327 538
54.69338 642
54.71349 706
54.73361 775
54.75372 844
54.77383 970
54.79395 908
54.81406 938
54.83417 852
54.85429 875
54.8744 753
54.89452 756
54.91463 689
54.93474 591
54.95486 614
54.97497 537
54.99508 521
55.0152 530
55.03531 401
55.05543 438
55.07554 387
55.09565 381
55.11577 409
55.13588 415
55.15599 425
55.17611 478
55.19622 479
55.21634 524
55.23645 523
55.25656 572
55.27668 553
55.29679 517
55.3169 506
55.33702 434
55.35713 376
55.37724 369
55.39736 361
55.41747 383
55.43759 388
55.4577 343
55.47781 303
55.49793 292
55.51804 253
55.53815 267
55.55827 236
55.57838 235
55.5985 245
55.61861 235
55.63872 227
55.65884 264
55.67895 220
55.69906 246
55.71918 237
55.73929 233
55.75941 264
55.77952 225
55.79963 202
55.81975 220
55.83986 199
55.85997 214
55.88009 203
55.9002 252
55.92031 214
55.94043 232
55.96054 257
55.98066 218
56.00077 196
56.02088 257
56.041 216
56.06111 234
56.08122 236
56.10134 204
56.12145 206
56.14157 226
56.16168 190
56.18179 224
56.20191 230
56.22202 201
56.24213 218
56.26225 232
56.28236 222
56.30248 209
56.32259 212
56.3427 208
56.36282 218
56.38293 194
56.40304 221
56.42316 220
56.44327 236
56.46338 254
56.4835 222
56.50361 223
56.52373 224
56.54384 220
56.56395 219
56.58407 215
56.60418 211
56.62429 216
56.64441 251
56.66452 226
56.68464 218
56.70475 243
56.72486 225
56.74498 216
56.76509 222
56.7852 226
56.80532 203
56.82543 224
56.84554 218
56.86566 234
56.88577 216
56.90589 225
56.926 214
56.94611 248
56.96623 223
56.98634 249
57.00645 233
57.02657 224
57.04668 237
57.0668 230
57.08691 237
57.10702 252
57.12714 233
57.14725 281
57.16736 270
57.18748 246
57.20759 248
57.22771 222
57.24782 249
57.26793 217
57.28805 250
57.30816 247
57.32827 238
57.34839 220
57.3685 227
57.38861 214
57.40873 238
57.42884 213
57.44896 207
57.46907 211
57.48918 205
57.5093 210
57.52941 218
57.54952 213
57.56964 204
57.58975 224
57.60987 215
57.62998 222
57.65009 216
57.67021 226
57.69032 206
57.71043 219
57.73055 202
57.75066 204
57.77078 223
57.79089 229
57.811 210
57.83112 209
57.85123 211
57.87134 224
57.89146 201
57.91157 229
57.93168 202
57.9518 225
57.97191 196
57.99203 221
58.01214 201
58.03225 202
58.05237 199
58.07248 208
58.09259 214
58.11271 215
58.13282 213
58.15294 193
58.17305 208
58.19316 219
58.21328 195
58.23339 198
58.2535 212
58.27362 219
58.29373 201
58.31385 186
58.33396 208
58.35407 197
58.37419 214
58.3943 229
58.41441 223
58.43453 208
58.45464 194
58.47475 217
58.49487 216
58.51498 224
58.5351 223
58.55521 232
58.57532 225
58.59544 211
58.61555 188
58.63566 210
58.65578 243
58.67589 222
58.69601 216
58.71612 229
58.73623 228
58.75635 245
58.77646 203
58.79657 211
58.81669 224
58.8368 193
58.85691 205
58.87703 205
58.89714 230
58.91726 209
58.93737 237
58.95748 224
58.9776 228
58.99771 222
59.01782 217
59.03794 232
59.05805 212
59.07817 211
59.09828 211
59.11839 226
59.13851 222
59.15862 216
59.17873 208
59.19885 255
59.21896 227
59.23908 230
59.25919 222
59.2793 223
59.29942 215
59.31953 226
59.33964 211
59.35976 242
59.37987 254
59.39998 260
59.4201 251
59.44021 274
59.46033 311
59.48044 301
59.50055 305
59.52067 359
59.54078 361
59.56089 349
59.58101 380
59.60112 393
59.62124 456
59.64135 495
59.66146 502
59.68158 583
59.70169 717
59.7218 762
59.74192 875
59.76203 1047
59.78215 1165
59.80226 1307
59.82237 1482
59.84249 1656
59.8626 1699
59.88271 1798
59.90283 1761
59.92294 1612
59.94305 1497
59.96317 1220
59.98328 1190
60.0034 1057
60.02351 996
60.04362 997
60.06374 925
60.08385 826
60.10396 731
60.12408 589
60.14419 492
60.16431 368
60.18442 361
60.20453 324
60.22465 297
60.24476 243
60.26487 262
60.28499 261
60.3051 284
60.32522 259
60.34533 255
60.36544 271
60.38556 244
60.40567 244
60.42578 223
60.4459 236
60.46601 245
60.48612 216
60.50624 216
60.52635 253
60.54647 214
60.56658 229
60.58669 218
60.60681 194
60.62692 233
60.64703 244
60.66715 207
60.68726 210
60.70738 238
60.72749 222
60.7476 219
60.76772 211
60.78783 243
60.80794 223
60.82806 212
60.84817 229
60.86828 254
60.8884 231
60.90851 223
60.92863 218
60.94874 233
60.96885 234
60.98897 250
61.00908 254
61.02919 236
61.04931 270
61.06942 265
61.08954 275
61.10965 274
61.12976 229
61.14988 242
61.16999 267
61.1901 267
61.21022 280
61.23033 250
61.25045 265
61.27056 281
61.29067 235
61.31079 281
61.3309 267
61.35101 275
61.37113 290
61.39124 271
61.41135 278
61.43147 301
61.45158 264
61.4717 253
61.49181 306
61.51192 272
61.53204 298
61.55215 295
61.57226 275
61.59238 288
61.61249 301
61.63261 281
61.65272 276
61.67283 299
61.69295 270
61.71306 325
61.73317 282
61.75329 257
61.7734 278
61.79352 254
61.81363 277
61.83374 240
61.85386 265
61.87397 254
61.89408 272
61.9142 285
61.93431 285
61.95442 254
61.97454 237
61.99465 255
62.01477 240
62.03488 238
62.05499 260
62.07511 251
62.09522 233
62.11533 235
62.13545 256
62.15556 258
62.17568 233
62.19579 251
62.2159 267
62.23602 247
62.25613 230
62.27624 221
62.29636 246
62.31647 209
62.33659 250
62.3567 242
62.37681 232
62.39693 219
62.41704 216
62.43715 221
62.45727 205
62.47738 220
62.49749 252
62.51761 230
62.53772 223
62.55784 217
62.57795 226
62.59806 214
62.61818 211
62.63829 229
62.6584 219
62.67852 217
62.69863 201
62.71875 207
62.73886 224
62.75897 220
62.77909 218
62.7992 227
62.81931 214
62.83943 221
62.85954 207
62.87965 201
62.89977 218
62.91988 209
62.94 191
62.96011 201
62.98022 212
63.00034 213
63.02045 220
63.04056 215
63.06068 189
63.08079 200
63.10091 233
63.12102 225
63.14113 221
63.16125 201
63.18136 202
63.20147 209
63.22159 179
63.2417 214
63.26182 196
63.28193 200
63.30204 196
63.32216 200
63.34227 214
63.36238 199
63.3825 200
63.40261 196
63.42272 228
63.44284 229
63.46295 220
63.48307 228
63.50318 210
63.52329 215
63.54341 214
63.56352 203
63.58363 247
63.60375 228
63.62386 241
63.64398 234
63.66409 244
63.6842 226
63.70432 272
63.72443 292
63.74454 242
63.76466 274
63.78477 297
63.80489 294
63.825 320
63.84511 341
63.86523 376
63.88534 403
63.90545 443
63.92557 490
63.94568 458
63.96579 515
63.98591 490
64.00602 431
64.02614 445
64.04625 391
64.06636 327
64.08648 354
64.10659 365
64.1267 339
64.14682 350
64.16693 361
64.18705 332
64.20716 290
64.22727 230
64.24739 245
64.2675 237
64.28761 234
64.30773 195
64.32784 222
64.34796 205
64.36807 240
64.38818 185
64.4083 218
64.42841 188
64.44852 233
64.46864 208
64.48875 180
64.50886 174
64.52898 190
64.54909 188
64.56921 209
64.58932 206
64.60943 186
64.62955 203
64.64966 196
64.66977 183
64.68989 178
64.71 209
64.73012 227
64.75023 214
64.77034 209
64.79046 217
64.81057 187
64.83068 204
64.8508 180
64.87091 182
64.89102 204
64.91114 200
64.93125 194
64.95137 188
64.97148 185
64.99159 227
65.01171 206
65.03182 206
65.05193 199
65.07205 208
65.09216 221
65.11228 192
65.13239 217
65.1525 227
65.17262 204
65.19273 195
65.21284 206
65.23296 199
65.25307 224
65.27319 205
65.2933 210
65.31341 222
65.33353 228
65.35364 198
65.37375 200
65.39387 213
65.41398 228
65.43409 221
65.45421 212
65.47432 220
65.49444 216
65.51455 236
65.53466 204
65.55478 243
65.57489 221
65.595 232
65.61512 240
65.63523 246
65.65535 290
65.67546 268
65.69557 303
65.71569 320
65.7358 280
65.75591 283
65.77603 253
65.79614 244
65.81626 229
65.83637 233
65.85648 228
65.8766 254
65.89671 222
65.91682 256
65.93694 240
65.95705 238
65.97716 218
65.99728 222
66.01739 196
66.03751 209
66.05762 193
66.07773 227
66.09785 209
66.11796 193
66.13807 205
66.15819 231
66.1783 213
66.19842 204
66.21853 224
66.23864 211
66.25876 226
66.27887 198
66.29898 200
66.3191 205
66.33921 226
66.35933 224
66.37944 200
66.39955 232
66.41967 232
66.43978 170
66.45989 207
66.48001 183
66.50012 182
66.52023 225
66.54035 215
66.56046 215
66.58058 215
66.60069 191
66.6208 205
66.64092 207
66.66103 229
66.68114 226
66.70126 229
66.72137 224
66.74149 215
66.7616 202
66.78171 200
66.80183 208
66.82194 223
66.84205 206
66.86217 235
66.88228 214
66.90239 203
66.92251 221
66.94262 211
66.96274 210
66.98285 207
67.00296 253
67.02308 261
67.04319 186
67.0633 228
67.08342 223
67.10353 218
67.12365 229
67.14376 240
67.16387 228
67.18399 256
67.2041 252
67.22421 285
67.24433 270
67.26444 266
67.28456 286
67.30467 277
67.32478 303
67.3449 314
67.36501 303
67.38512 330
67.40524 350
67.42535 397
67.44546 465
67.46558 472
67.48569 488
67.50581 542
67.52592 634
67.54603 697
67.56615 791
67.58626 901
67.60637 978
67.62649 1100
67.6466 1138
67.66672 1193
67.68683 1135
67.70694 1151
67.72706 1045
67.74717 953
67.76728 867
67.7874 877
67.80751 876
67.82763 842
67.84774 988
67.86785 960
67.88797 1003
67.90808 1062
67.92819 1053
67.94831 1162
67.96842 1158
67.98853 1202
68.00865 1338
68.02876 1451
68.04888 1518
68.06899 1672
68.0891 1654
68.10922 1572
68.12933 1532
68.14944 1380
68.16956 1433
68.18967 1378
68.20979 1440
68.2299 1503
68.25001 1452
68.27013 1364
68.29024 1224
68.31035 1082
68.33047 907
68.35058 812
68.3707 682
68.39081 669
68.41092 652
68.43104 625
68.45115 558
68.47126 490
68.49138 473
68.51149 412
68.5316 323
68.55172 320
68.57183 268
68.59195 263
68.61206 256
68.63217 243
68.65229 248
68.6724 200
68.69251 266
68.71263 265
68.73274 214
68.75286 254
68.77297 217
68.79308 229
68.8132 264
68.83331 207
68.85342 207
68.87354 223
68.89365 220
68.91376 193
68.93388 191
68.95399 245
68.97411 209
68.99422 212
69.01433 223
69.03445 242
69.05456 230
69.07467 188
69.09479 206
69.1149 215
69.13502 235
69.15513 220
69.17524 224
69.19536 236
69.21547 194
69.23558 192
69.2557 202
69.27581 185
69.29593 198
69.31604 212
69.33615 202
69.35627 206
69.37638 204
69.39649 198
69.41661 213
69.43672 188
69.45683 208
69.47695 187
69.49706 200
69.51718 176
69.53729 225
69.5574 195
69.57752 216
69.59763 189
69.61774 194
69.63786 198
69.65797 197
69.67809 217
69.6982 230
69.71831 193
69.73843 183
69.75854 196
69.77865 192
69.79877 195
69.81888 200
69.839 206
69.85911 199
69.87922 222
69.89934 179
69.91945 197
69.93956 181
69.95968 213
69.97979 201
69.9999 204
70.02002 183
70.04013 186
70.06025 178
70.08036 222
70.10047 200
70.12059 199
70.1407 185
70.16081 217
70.18093 205
70.20104 200
70.22116 194
70.24127 199
70.26138 203
70.2815 201
70.30161 210
70.32172 231
70.34184 185
70.36195 196
70.38207 192
70.40218 218
70.42229 204
70.44241 165
70.46252 175
70.48263 176
70.50275 206
70.52286 191
70.54297 208
70.56309 182
70.5832 179
70.60332 194
70.62343 197
70.64354 177
70.66366 207
70.68377 215
70.70388 182
70.724 203
70.74411 201
70.76423 210
70.78434 197
70.80445 188
70.82457 191
70.84468 203
70.86479 196
70.88491 220
70.90502 203
70.92513 176
70.94525 201
70.96536 180
70.98548 208
71.00559 190
71.0257 182
71.04582 201
71.06593 196
71.08604 199
71.10616 207
71.12627 203
71.14639 197
71.1665 175
71.18661 199
71.20673 200
71.22684 212
71.24695 194
71.26707 200
71.28718 178
71.3073 204
71.32741 180
71.34752 170
71.36764 232
71.38775 206
71.40786 175
71.42798 206
71.44809 210
71.4682 200
71.48832 181
71.50843 189
71.52855 183
71.54866 175
71.56877 213
71.58889 216
71.609 168
71.62911 184
71.64923 202
71.66934 188
71.68946 187
71.70957 180
71.72968 210
71.7498 212
71.76991 217
71.79002 212
71.81014 225
71.83025 198
71.85037 209
71.87048 207
71.89059 225
71.91071 203
71.93082 199
71.95093 179
71.97105 209
71.99116 216
72.01127 227
72.03139 206
72.0515 187
72.07162 215
72.09173 224
72.11184 196
72.13196 234
72.15207 237
72.17218 214
72.1923 210
72.21241 200
72.23253 197
72.25264 229
72.27275 236
72.29287 226
72.31298 215
72.33309 208
72.35321 208
72.37332 196
72.39344 229
72.41355 218
72.43366 202
72.45378 217
72.47389 195
72.494 222
72.51412 214
72.53423 215
72.55434 191
72.57446 244
72.59457 235
72.61469 206
72.6348 219
72.65491 216
72.67503 223
72.69514 191
72.71525 224
72.73537 221
72.75548 216
72.7756 197
72.79571 222
72.81582 224
72.83594 233
72.85605 232
72.87616 237
72.89628 217
72.91639 237
72.9365 248
72.95662 227
72.97673 214
72.99685 235
73.01696 251
73.03707 249
73.05719 249
73.0773 255
73.09741 249
73.11753 213
73.13764 262
73.15776 248
73.17787 317
73.19798 331
73.2181 293
73.23821 334
73.25832 403
73.27844 399
73.29855 436
73.31867 476
73.33878 516
73.35889 506
73.37901 535
73.39912 520
73.41923 531
73.43935 524
73.45946 443
73.47957 449
73.49969 359
73.5198 352
73.53992 357
73.56003 377
73.58014 369
73.60026 377
73.62037 380
73.64048 337
73.6606 321
73.68071 350
73.70083 303
73.72094 252
73.74105 247
73.76117 239
73.78128 213
73.80139 229
73.82151 248
73.84162 195
73.86174 233
73.88185 229
73.90196 198
73.92208 232
73.94219 207
73.9623 201
73.98242 192
74.00253 217
74.02264 210
74.04276 177
74.06287 195
74.08299 191
74.1031 193
74.12321 224
74.14333 220
74.16344 236
74.18355 217
74.20367 209
74.22378 180
74.2439 198
74.26401 210
74.28412 189
74.30424 205
74.32435 228
74.34446 197
74.36458 213
74.38469 207
74.40481 200
74.42492 215
74.44503 195
74.46515 198
74.48526 214
74.50537 193
74.52549 196
74.5456 206
74.56571 207
74.58583 222
74.60594 205
74.62606 197
74.64617 209
74.66628 214
74.6864 207
74.70651 219
74.72662 208
74.74674 183
74.76685 243
74.78697 197
74.80708 193
74.82719 211
74.84731 181
74.86742 206
74.88753 208
74.90765 177
74.92776 221
74.94787 213
74.96799 217
74.9881 224
75.00822 200
