3.00117 20187
3.02128 19865
3.0414 19108
3.06151 18731
3.08162 18355
3.10174 17616
3.12185 17119
3.14197 16466
3.16208 16266
3.18219 15973
3.20231 14979
3.22242 14876
3.24253 14621
3.26265 13788
3.28276 13482
3.30288 12688
3.32299 12519
3.3431 12073
3.36322 11884
3.38333 11469
3.40344 11072
3.42356 10818
3.44367 10186
3.46379 9775
3.4839 9619
3.50401 9011
3.52413 9089
3.54424 8295
3.56435 8140
3.58447 8113
3.60458 7517
3.62469 7347
3.64481 7034
3.66492 6788
3.68504 6644
3.70515 6086
3.72526 5973
3.74538 5754
3.76549 5696
3.7856 5526
3.80572 4996
3.82583 4903
3.84595 4667
3.86606 4482
3.88617 4350
3.90629 3815
3.9264 3917
3.94651 3675
3.96663 3465
3.98674 3558
4.00686 3173
4.02697 3048
4.04708 2916
4.0672 2767
4.08731 2859
4.10742 2435
4.12754 2483
4.14765 2288
4.16776 2190
4.18788 2297
4.20799 1992
4.22811 1919
4.24822 1901
4.26833 1812
4.28845 1838
4.30856 1610
4.32867 1695
4.34879 1483
4.3689 1463
4.38902 1576
4.40913 1427
4.42924 1369
4.44936 1385
4.46947 1349
4.48958 1310
4.5097 1160
4.52981 1161
4.54992 1194
4.57004 1139
4.59015 1195
4.61027 995
4.63038 1015
4.65049 1073
4.67061 1023
4.69072 1033
4.71083 897
4.73095 931
4.75106 883
4.77118 840
4.79129 890
4.8114 795
4.83152 819
4.85163 780
4.87174 775
4.89186 786
4.91197 735
4.93209 710
4.9522 752
4.97231 657
4.99243 698
5.01254 646
5.03265 657
5.05277 626
5.07288 608
5.09299 579
5.11311 546
5.13322 529
5.15334 579
5.17345 551
5.19356 502
5.21368 510
5.23379 473
5.2539 532
5.27402 474
5.29413 425
5.31425 432
5.33436 418
5.35447 416
5.37459 353
5.3947 407
5.41481 433
5.43493 364
5.45504 388
5.47516 391
5.49527 349
5.51538 310
5.5355 357
5.55561 312
5.57572 317
5.59584 323
5.61595 263
5.63606 309
5.65618 296
5.67629 318
5.69641 276
5.71652 306
5.73663 239
5.75675 249
5.77686 290
5.79697 270
5.81709 265
5.8372 273
5.85732 259
5.87743 251
5.89754 242
5.91766 219
5.93777 255
5.95788 229
5.978 230
5.99811 260
6.01823 226
6.03834 240
6.05845 244
6.07857 203
6.09868 232
6.11879 204
6.13891 222
6.15902 198
6.17913 200
6.19925 221
6.21936 207
6.23948 214
6.25959 227
6.2797 193
6.29982 211
6.31993 177
6.34004 212
6.36016 221
6.38027 197
6.40039 189
6.4205 189
6.44061 202
6.46073 183
6.48084 175
6.50095 249
6.52107 173
6.54118 201
6.56129 191
6.58141 181
6.60152 185
6.62164 180
6.64175 176
6.66186 206
6.68198 188
6.70209 173
6.7222 217
6.74232 160
6.76243 216
6.78255 174
6.80266 187
6.82277 171
6.84289 171
6.863 183
6.88311 184
6.90323 208
6.92334 160
6.94346 197
6.96357 211
6.98368 165
7.0038 188
7.02391 169
7.04402 168
7.06414 186
7.08425 186
7.10436 203
7.12448 202
7.14459 199
7.16471 181
7.18482 186
7.20493 160
7.22505 191
7.24516 182
7.26527 213
7.28539 202
7.3055 185
7.32562 190
7.34573 178
7.36584 194
7.38596 218
7.40607 198
7.42618 183
7.4463 194
7.46641 207
7.48653 194
7.50664 192
7.52675 226
7.54687 213
7.56698 167
7.58709 204
7.60721 176
7.62732 192
7.64743 192
7.66755 196
7.68766 188
7.70778 209
7.72789 186
7.748 219
7.76812 201
7.78823 201
7.80834 199
7.82846 187
7.84857 198
7.86869 205
7.8888 215
7.90891 200
7.92903 207
7.94914 200
7.96925 196
7.98937 191
8.00948 198
8.0296 201
8.04971 225
8.06982 192
8.08994 216
8.11005 198
8.13016 200
8.15028 190
8.17039 188
8.1905 212
8.21062 184
8.23073 217
8.25085 183
8.27096 230
8.29107 189
8.31119 196
8.3313 225
8.35141 200
8.37153 217
8.39164 205
8.41176 197
8.43187 213
8.45198 212
8.4721 195
8.49221 218
8.51232 204
8.53244 214
8.55255 192
8.57266 235
8.59278 218
8.61289 206
8.63301 240
8.65312 206
8.67323 198
8.69335 212
8.71346 196
8.73357 202
8.75369 219
8.7738 192
8.79392 221
8.81403 198
8.83414 176
8.85426 185
8.87437 234
8.89448 231
8.9146 198
8.93471 198
8.95483 241
8.97494 185
8.99505 232
9.01517 226
9.03528 190
9.05539 239
9.07551 189
9.09562 200
9.11573 218
9.13585 223
9.15596 195
9.17608 183
9.19619 201
9.2163 205
9.23642 232
9.25653 209
9.27664 231
9.29676 206
9.31687 220
9.33699 237
9.3571 209
9.37721 240
9.39733 211
9.41744 248
9.43755 208
9.45767 201
9.47778 253
9.4979 208
9.51801 215
9.53812 221
9.55824 208
9.57835 227
9.59846 215
9.61858 201
9.63869 220
9.6588 198
9.67892 239
9.69903 216
9.71915 214
9.73926 236
9.75937 223
9.77949 251
9.7996 226
9.81971 188
9.83983 225
9.85994 199
9.88006 192
9.90017 218
9.92028 202
9.9404 202
9.96051 229
9.98062 210
10.00074 222
10.02085 217
10.04097 215
10.06108 201
10.08119 213
10.10131 202
10.12142 204
10.14153 219
10.16165 212
10.18176 230
10.20187 236
10.22199 236
10.2421 235
10.26222 236
10.28233 227
10.30244 211
10.32256 206
10.34267 224
10.36278 200
10.3829 216
10.40301 220
10.42313 215
10.44324 204
10.46335 194
10.48347 234
10.50358 186
10.52369 240
10.54381 224
10.56392 232
10.58403 211
10.60415 221
10.62426 196
10.64438 205
10.66449 224
10.6846 220
10.70472 228
10.72483 207
10.74494 246
10.76506 226
10.78517 225
10.80529 226
10.8254 205
10.84551 222
10.86563 228
10.88574 200
10.90585 196
10.92597 215
10.94608 197
10.9662 218
10.98631 218
11.00642 224
11.02654 246
11.04665 203
11.06676 227
11.08688 229
11.10699 220
11.1271 203
11.14722 246
11.16733 210
11.18745 220
11.20756 200
11.22767 255
11.24779 209
11.2679 209
11.28801 219
11.30813 198
11.32824 187
11.34836 195
11.36847 216
11.38858 231
11.4087 235
11.42881 197
11.44892 207
11.46904 195
11.48915 211
11.50927 215
11.52938 209
11.54949 225
11.56961 200
11.58972 242
11.60983 233
11.62995 225
11.65006 231
11.67017 207
11.69029 217
11.7104 215
11.73052 226
11.75063 209
11.77074 206
11.79086 259
11.81097 213
11.83108 213
11.8512 227
11.87131 198
11.89143 223
11.91154 263
11.93165 223
11.95177 225
11.97188 205
11.99199 220
12.01211 244
12.03222 259
12.05234 252
12.07245 222
12.09256 238
12.11268 225
12.13279 205
12.1529 236
12.17302 228
12.19313 214
12.21324 245
12.23336 229
12.25347 234
12.27359 248
12.2937 246
12.31381 244
12.33393 244
12.35404 217
12.37415 229
12.39427 243
12.41438 223
12.4345 197
12.45461 215
12.47472 186
12.49484 212
12.51495 227
12.53506 235
12.55518 239
12.57529 247
12.5954 265
12.61552 216
12.63563 209
12.65575 193
12.67586 197
12.69597 208
12.71609 213
12.7362 200
12.75631 218
12.77643 207
12.79654 211
12.81666 188
12.83677 201
12.85688 213
12.877 200
12.89711 229
12.91722 219
12.93734 225
12.95745 193
12.97757 211
12.99768 206
13.01779 218
13.03791 240
13.05802 216
13.07813 215
13.09825 214
13.11836 235
13.13847 251
13.15859 238
13.1787 234
13.19882 229
13.21893 221
13.23904 218
13.25916 207
13.27927 244
13.29938 225
13.3195 220
13.33961 248
13.35973 215
13.37984 233
13.39995 230
13.42007 243
13.44018 228
13.46029 216
13.48041 221
13.50052 219
13.52064 199
13.54075 219
13.56086 265
13.58098 253
13.60109 293
13.6212 299
13.64132 297
13.66143 327
13.68154 308
13.70166 315
13.72177 238
13.74189 192
13.762 211
13.78211 244
13.80223 183
13.82234 214
13.84245 214
13.86257 212
13.88268 214
13.9028 232
13.92291 207
13.94302 221
13.96314 212
13.98325 192
14.00336 198
14.02348 217
14.04359 199
14.06371 172
14.08382 224
14.10393 222
14.12405 184
14.14416 204
14.16427 207
14.18439 191
14.2045 181
14.22461 188
14.24473 203
14.26484 202
14.28496 174
14.30507 190
14.32518 187
14.3453 180
14.36541 221
14.38552 220
14.40564 182
14.42575 181
14.44587 185
14.46598 194
14.48609 196
14.50621 215
14.52632 163
14.54643 175
14.56655 186
14.58666 209
14.60677 201
14.62689 198
14.647 192
14.66712 183
14.68723 191
14.70734 230
14.72746 161
14.74757 194
14.76768 178
14.7878 192
14.80791 204
14.82803 205
14.84814 206
14.86825 211
14.88837 173
14.90848 190
14.92859 211
14.94871 184
14.96882 219
14.98894 211
15.00905 217
15.02916 228
15.04928 210
15.06939 248
15.0895 252
15.10962 223
15.12973 256
15.14984 218
15.16996 199
15.19007 216
15.21019 221
15.2303 217
15.25041 184
15.27053 216
15.29064 189
15.31075 213
15.33087 190
15.35098 200
15.3711 185
15.39121 187
15.41132 177
15.43144 166
15.45155 177
15.47166 175
15.49178 168
15.51189 189
15.53201 166
15.55212 182
15.57223 192
15.59235 200
15.61246 173
15.63257 176
15.65269 192
15.6728 188
15.69291 172
15.71303 191
15.73314 197
15.75326 186
15.77337 188
15.79348 158
15.8136 197
15.83371 176
15.85382 225
15.87394 184
15.89405 184
15.91417 169
15.93428 170
15.95439 163
15.97451 155
15.99462 171
16.01473 191
16.03485 202
16.05496 172
16.07508 160
16.09519 184
16.1153 188
16.13542 170
16.15553 178
16.17564 189
16.19576 165
16.21587 178
16.23598 166
16.2561 184
16.27621 162
16.29633 172
16.31644 154
16.33655 230
16.35667 177
16.37678 173
16.39689 178
16.41701 188
16.43712 188
16.45724 191
16.47735 164
16.49746 187
16.51758 168
16.53769 185
16.5578 190
16.57792 169
16.59803 182
16.61814 180
16.63826 171
16.65837 199
16.67849 191
16.6986 183
16.71871 160
16.73883 200
16.75894 183
16.77905 184
16.79917 172
16.81928 203
16.8394 182
16.85951 177
16.87962 189
16.89974 178
16.91985 181
16.93996 214
16.96008 187
16.98019 190
17.00031 176
17.02042 175
17.04053 214
17.06065 192
17.08076 163
17.10087 186
17.12099 192
17.1411 182
17.16121 178
17.18133 163
17.20144 191
17.22156 156
17.24167 196
17.26178 188
17.2819 168
17.30201 195
17.32212 178
17.34224 173
17.36235 181
17.38247 168
17.40258 171
17.42269 196
17.44281 174
17.46292 189
17.48303 178
17.50315 145
17.52326 181
17.54338 194
17.56349 190
17.5836 183
17.60372 196
17.62383 179
17.64394 200
17.66406 160
17.68417 189
17.70428 179
17.7244 201
17.74451 179
17.76463 171
17.78474 180
17.80485 178
17.82497 199
17.84508 186
17.86519 155
17.88531 200
17.90542 163
17.92554 204
17.94565 179
17.96576 193
17.98588 179
18.00599 166
18.0261 207
18.04622 183
18.06633 184
18.08645 179
18.10656 172
18.12667 206
18.14679 157
18.1669 173
18.18701 154
18.20713 183
18.22724 210
18.24735 206
18.26747 184
18.28758 177
18.3077 170
18.32781 194
18.34792 185
18.36804 181
18.38815 187
18.40826 177
18.42838 183
18.44849 206
18.46861 213
18.48872 169
18.50883 172
18.52895 182
18.54906 194
18.56917 171
18.58929 202
18.6094 169
18.62951 207
18.64963 202
18.66974 174
18.68986 196
18.70997 206
18.73008 190
18.7502 197
18.77031 201
18.79042 226
18.81054 214
18.83065 199
18.85077 229
18.87088 214
18.89099 203
18.91111 193
18.93122 232
18.95133 213
18.97145 190
18.99156 200
19.01168 197
19.03179 206
19.0519 214
19.07202 191
19.09213 232
19.11224 200
19.13236 197
19.15247 204
19.17258 212
19.1927 185
19.21281 193
19.23293 247
19.25304 194
19.27315 207
19.29327 233
19.31338 256
19.33349 224
19.35361 234
19.37372 235
19.39384 215
19.41395 228
19.43406 209
19.45418 218
19.47429 196
19.4944 235
19.51452 221
19.53463 214
19.55475 186
19.57486 196
19.59497 208
19.61509 228
19.6352 230
19.65531 254
19.67543 242
19.69554 250
19.71565 232
19.73577 246
19.75588 246
19.776 210
19.79611 229
19.81622 258
19.83634 245
19.85645 279
19.87656 289
19.89668 314
19.91679 308
19.93691 290
19.95702 372
19.97713 370
19.99725 336
20.01736 289
20.03747 356
20.05759 321
20.0777 324
20.09782 297
20.11793 298
20.13804 282
20.15816 276
20.17827 285
20.19838 297
20.2185 306
20.23861 339
20.25872 304
20.27884 309
20.29895 331
20.31907 324
20.33918 325
20.35929 307
20.37941 305
20.39952 329
20.41963 325
20.43975 335
20.45986 401
20.47998 362
20.50009 373
20.5202 396
20.54032 395
20.56043 366
20.58054 391
20.60066 396
20.62077 445
20.64088 474
20.661 532
20.68111 625
20.70123 758
20.72134 971
20.74145 1333
20.76157 1908
20.78168 2750
20.80179 3994
20.82191 5767
20.84202 7186
20.86214 7908
20.88225 7313
20.90236 5930
20.92248 4311
20.94259 2809
20.9627 1852
20.98282 1313
21.00293 1097
21.02305 1121
21.04316 1081
21.06327 990
21.08339 865
21.1035 739
21.12361 635
21.14373 510
21.16384 452
21.18395 405
21.20407 388
21.22418 363
21.2443 318
21.26441 305
21.28452 311
21.30464 299
21.32475 309
21.34486 291
21.36498 312
21.38509 284
21.40521 277
21.42532 305
21.44543 278
21.46555 264
21.48566 245
21.50577 294
21.52589 266
21.546 266
21.56612 261
21.58623 268
21.60634 256
21.62646 274
21.64657 259
21.66668 267
21.6868 267
21.70691 272
21.72702 260
21.74714 264
21.76725 272
21.78737 279
21.80748 297
21.82759 237
21.84771 256
21.86782 246
21.88793 269
21.90805 276
21.92816 275
21.94828 320
21.96839 332
21.9885 371
22.00862 365
22.02873 303
22.04884 318
22.06896 275
22.08907 297
22.10919 251
22.1293 288
22.14941 238
22.16953 259
22.18964 290
22.20975 289
22.22987 304
22.24998 310
22.27009 291
22.29021 335
22.31032 325
22.33044 328
22.35055 300
22.37066 313
22.39078 327
22.41089 370
22.431 326
22.45112 349
22.47123 332
22.49135 389
22.51146 343
22.53157 365
22.55169 355
22.5718 350
22.59191 307
22.61203 320
22.63214 317
22.65225 314
22.67237 288
22.69248 260
22.7126 274
22.73271 273
22.75282 272
22.77294 265
22.79305 290
22.81316 264
22.83328 256
22.85339 242
22.87351 261
22.89362 273
22.91373 276
22.93385 267
22.95396 288
22.97407 251
22.99419 315
23.0143 319
23.03442 301
23.05453 324
23.07464 329
23.09476 364
23.11487 356
23.13498 309
23.1551 323
23.17521 369
23.19532 388
23.21544 344
23.23555 371
23.25567 373
23.27578 342
23.29589 330
23.31601 336
23.33612 328
23.35623 314
23.37635 381
23.39646 366
23.41658 354
23.43669 371
23.4568 377
23.47692 393
23.49703 448
23.51714 431
23.53726 470
23.55737 479
23.57749 488
23.5976 521
23.61771 511
23.63783 432
23.65794 426
23.67805 431
23.69817 379
23.71828 409
23.73839 396
23.75851 373
23.77862 336
23.79874 334
23.81885 334
23.83896 347
23.85908 387
23.87919 373
23.8993 358
23.91942 374
23.93953 406
23.95965 421
23.97976 397
23.99987 437
24.01999 486
24.0401 454
24.06021 415
24.08033 348
24.10044 342
24.12056 281
24.14067 283
24.16078 281
24.1809 297
24.20101 295
24.22112 320
24.24124 289
24.26135 283
24.28146 331
24.30158 333
24.32169 347
24.34181 361
24.36192 346
24.38203 327
24.40215 319
24.42226 286
24.44237 288
24.46249 311
24.4826 261
24.50272 301
24.52283 298
24.54294 287
24.56306 265
24.58317 298
24.60328 292
24.6234 315
24.64351 306
24.66362 349
24.68374 296
24.70385 337
24.72397 346
24.74408 324
24.76419 314
24.78431 306
24.80442 301
24.82453 315
24.84465 294
24.86476 320
24.88488 307
24.90499 256
24.9251 288
24.94522 284
24.96533 308
24.98544 289
25.00556 275
25.02567 286
25.04579 269
25.0659 302
25.08601 239
25.10613 291
25.12624 266
25.14635 266
25.16647 283
25.18658 273
25.20669 290
25.22681 266
25.24692 279
25.26704 256
25.28715 271
25.30726 288
25.32738 266
25.34749 304
25.3676 280
25.38772 255
25.40783 319
25.42795 324
25.44806 347
25.46817 416
25.48829 431
25.5084 505
25.52851 566
25.54863 705
25.56874 647
25.58886 734
25.60897 773
25.62908 840
25.6492 826
25.66931 716
25.68942 661
25.70954 619
25.72965 540
25.74976 494
25.76988 461
25.78999 442
25.81011 425
25.83022 397
25.85033 403
25.87045 418
25.89056 457
25.91067 419
25.93079 381
25.9509 398
25.97102 473
25.99113 444
26.01124 464
26.03136 457
26.05147 453
26.07158 483
26.0917 537
26.11181 495
26.13193 549
26.15204 583
26.17215 626
26.19227 649
26.21238 744
26.23249 737
26.25261 787
26.27272 883
26.29283 903
26.31295 990
26.33306 1025
26.35318 1164
26.37329 1237
26.3934 1538
26.41352 1742
26.43363 2086
26.45374 2611
26.47386 3244
26.49397 4532
26.51409 6007
26.5342 8703
26.55431 12675
26.57443 17882
26.59454 24873
26.61465 31641
26.63477 35773
26.65488 33713
26.67499 27137
26.69511 20951
26.71522 16040
26.73534 10751
26.75545 5936
26.77556 3218
26.79568 2222
26.81579 1839
26.8359 1642
26.85602 1547
26.87613 1522
26.89625 1397
26.91636 1330
26.93647 1324
26.95659 1246
26.9767 1253
26.99681 1278
27.01693 1200
27.03704 1259
27.05716 1239
27.07727 1256
27.09738 1158
27.1175 1042
27.13761 963
27.15772 864
27.17784 755
27.19795 658
27.21806 590
27.23818 602
27.25829 630
27.27841 641
27.29852 630
27.31863 686
27.33875 710
27.35886 838
27.37897 991
27.39909 1080
27.4192 1350
27.43932 1500
27.45943 1745
27.47954 1738
27.49966 1745
27.51977 1473
27.53988 1340
27.56 1121
27.58011 912
27.60023 732
27.62034 596
27.64045 527
27.66057 455
27.68068 457
27.70079 469
27.72091 457
27.74102 469
27.76113 508
27.78125 497
27.80136 487
27.82148 495
27.84159 502
27.8617 508
27.88182 396
27.90193 446
27.92204 425
27.94216 429
27.96227 429
27.98239 413
28.0025 429
28.02261 403
28.04273 338
28.06284 380
28.08295 314
28.10307 301
28.12318 287
28.1433 307
28.16341 321
28.18352 303
28.20364 271
28.22375 313
28.24386 283
28.26398 300
28.28409 305
28.3042 305
28.32432 293
28.34443 286
28.36455 279
28.38466 284
28.40477 272
28.42489 256
28.445 256
28.46511 298
28.48523 248
28.50534 246
28.52546 263
28.54557 260
28.56568 251
28.5858 254
28.60591 259
28.62602 232
28.64614 227
28.66625 265
28.68636 246
28.70648 224
28.72659 234
28.74671 231
28.76682 208
28.78693 267
28.80705 245
28.82716 230
28.84727 240
28.86739 280
28.8875 234
28.90762 226
28.92773 247
28.94784 236
28.96796 240
28.98807 265
29.00818 221
29.0283 253
29.04841 241
29.06853 230
29.08864 227
29.10875 255
29.12887 258
29.14898 251
29.16909 227
29.18921 229
29.20932 258
29.22943 234
29.24955 246
29.26966 221
29.28978 250
29.30989 239
29.33 248
29.35012 265
29.37023 289
29.39034 301
29.41046 322
29.43057 323
29.45069 307
29.4708 321
29.49091 318
29.51103 360
29.53114 315
29.55125 296
29.57137 342
29.59148 315
29.6116 299
29.63171 298
29.65182 329
29.67194 317
29.69205 337
29.71216 358
29.73228 367
29.75239 384
29.7725 363
29.79262 400
29.81273 406
29.83285 412
29.85296 398
29.87307 359
29.89319 395
29.9133 401
29.93341 357
29.95353 386
29.97364 310
29.99376 323
30.01387 314
30.03398 350
30.0541 311
30.07421 322
30.09432 313
30.11444 333
30.13455 344
30.15467 335
30.17478 327
30.19489 331
30.21501 362
30.23512 366
30.25523 315
30.27535 292
30.29546 321
30.31557 295
30.33569 310
30.3558 324
30.37592 283
30.39603 279
30.41614 264
30.43626 290
30.45637 297
30.47648 276
30.4966 291
30.51671 278
30.53683 252
30.55694 274
30.57705 282
30.59717 258
30.61728 274
30.63739 260
30.65751 306
30.67762 331
30.69773 319
30.71785 396
30.73796 423
30.75808 460
30.77819 466
30.7983 481
30.81842 534
30.83853 457
30.85864 476
30.87876 415
30.89887 375
30.91899 354
30.9391 323
30.95921 283
30.97933 285
30.99944 231
31.01955 215
31.03967 222
31.05978 226
31.0799 232
31.10001 225
31.12012 185
31.14024 209
31.16035 196
31.18046 197
31.20058 191
31.22069 184
31.2408 205
31.26092 220
31.28103 209
31.30115 223
31.32126 182
31.34137 203
31.36149 219
31.3816 216
31.40171 211
31.42183 214
31.44194 192
31.46206 188
31.48217 196
31.50228 219
31.5224 194
31.54251 171
31.56262 177
31.58274 173
31.60285 192
31.62297 203
31.64308 193
31.66319 205
31.68331 211
31.70342 204
31.72353 195
31.74365 182
31.76376 185
31.78387 196
31.80399 181
31.8241 209
31.84422 194
31.86433 200
31.88444 188
31.90456 179
31.92467 188
31.94478 190
31.9649 202
31.98501 200
32.00513 201
32.02524 180
32.04535 213
32.06547 225
32.08558 244
32.10569 242
32.12581 231
32.14592 206
32.16604 234
32.18615 253
32.20626 252
32.22638 234
32.24649 265
32.2666 295
32.28672 271
32.30683 289
32.32694 283
32.34706 312
32.36717 273
32.38729 277
32.4074 241
32.42751 257
32.44763 253
32.46774 245
32.48785 221
32.50797 212
32.52808 193
32.5482 212
32.56831 216
32.58842 181
32.60854 158
32.62865 164
32.64876 179
32.66888 175
32.68899 173
32.7091 179
32.72922 142
32.74933 186
32.76945 174
32.78956 156
32.80967 164
32.82979 173
32.8499 182
32.87001 173
32.89013 173
32.91024 171
32.93036 168
32.95047 145
32.97058 191
32.9907 141
33.01081 134
33.03092 164
33.05104 169
33.07115 165
33.09127 158
33.11138 168
33.13149 171
33.15161 170
33.17172 166
33.19183 143
33.21195 165
33.23206 158
33.25217 156
33.27229 169
33.2924 166
33.31252 180
33.33263 146
33.35274 178
33.37286 161
33.39297 167
33.41308 174
33.4332 172
33.45331 151
33.47343 173
33.49354 167
33.51365 170
33.53377 164
33.55388 147
33.57399 188
33.59411 176
33.61422 158
33.63434 180
33.65445 175
33.67456 165
33.69468 153
33.71479 157
33.7349 166
33.75502 194
33.77513 177
33.79524 169
33.81536 186
33.83547 197
33.85559 176
33.8757 195
33.89581 189
33.91593 190
33.93604 175
33.95615 180
33.97627 192
33.99638 158
34.0165 165
34.03661 184
34.05672 177
34.07684 189
34.09695 208
34.11706 183
34.13718 215
34.15729 219
34.17741 244
34.19752 217
34.21763 280
34.23775 243
34.25786 220
34.27797 245
34.29809 246
34.3182 237
34.33831 225
34.35843 229
34.37854 251
34.39866 232
34.41877 270
34.43888 235
34.459 250
34.47911 246
34.49922 245
34.51934 217
34.53945 248
34.55957 247
34.57968 245
34.59979 251
34.61991 224
34.64002 260
34.66013 237
34.68025 261
34.70036 283
34.72047 253
34.74059 279
34.7607 288
34.78082 302
34.80093 289
34.82104 304
34.84116 283
34.86127 288
34.88138 291
34.9015 294
34.92161 303
34.94173 277
34.96184 297
34.98195 274
35.00207 280
35.02218 294
35.04229 294
35.06241 284
35.08252 266
35.10264 324
35.12275 296
35.14286 326
35.16298 257
35.18309 241
35.2032 267
35.22332 223
35.24343 271
35.26354 267
35.28366 242
35.30377 255
35.32389 251
35.344 283
35.36411 284
35.38423 227
35.40434 269
35.42445 302
35.44457 296
35.46468 325
35.4848 313
35.50491 346
35.52502 309
35.54514 323
35.56525 330
35.58536 348
35.60548 320
35.62559 300
35.64571 289
35.66582 243
35.68593 280
35.70605 249
35.72616 235
35.74627 228
35.76639 262
35.7865 232
35.80661 232
35.82673 211
35.84684 224
35.86696 199
35.88707 227
35.90718 223
35.9273 225
35.94741 215
35.96752 215
35.98764 210
36.00775 207
36.02787 214
36.04798 219
36.06809 243
36.08821 231
36.10832 238
36.12843 189
36.14855 225
36.16866 246
36.18878 247
36.20889 237
36.229 278
36.24912 267
36.26923 278
36.28934 295
36.30946 286
36.32957 319
36.34968 373
36.3698 444
36.38991 536
36.41003 708
36.43014 805
36.45025 1096
36.47037 1417
36.49048 1878
36.51059 2211
36.53071 2508
36.55082 2275
36.57094 1845
36.59105 1477
36.61116 1407
36.63128 1235
36.65139 1039
36.6715 678
36.69162 440
36.71173 328
36.73184 290
36.75196 261
36.77207 224
36.79219 254
36.8123 265
36.83241 246
36.85253 212
36.87264 221
36.89275 259
36.91287 243
36.93298 256
36.9531 233
36.97321 235
36.99332 234
37.01344 244
37.03355 235
37.05366 246
37.07378 248
37.09389 215
37.11401 243
37.13412 223
37.15423 215
37.17435 215
37.19446 219
37.21457 229
37.23469 210
37.2548 235
37.27491 199
37.29503 226
37.31514 228
37.33526 192
37.35537 194
37.37548 190
37.3956 170
37.41571 211
37.43582 168
37.45594 223
37.47605 203
37.49617 184
37.51628 218
37.53639 195
37.55651 194
37.57662 191
37.59673 202
37.61685 201
37.63696 183
37.65708 198
37.67719 206
37.6973 193
37.71742 200
37.73753 196
37.75764 201
37.77776 180
37.79787 203
37.81798 187
37.8381 195
37.85821 182
37.87833 188
37.89844 192
37.91855 184
37.93867 168
37.95878 164
37.97889 142
37.99901 173
38.01912 187
38.03924 177
38.05935 188
38.07946 182
38.09958 159
38.11969 191
38.1398 196
38.15992 197
38.18003 183
38.20015 181
38.22026 200
38.24037 171
38.26049 181
38.2806 200
38.30071 178
38.32083 208
38.34094 197
38.36105 210
38.38117 188
38.40128 190
38.4214 195
38.44151 211
38.46162 234
38.48174 246
38.50185 225
38.52196 246
38.54208 233
38.56219 246
38.58231 257
38.60242 236
38.62253 225
38.64265 206
38.66276 206
38.68287 212
38.70299 218
38.7231 198
38.74321 176
38.76333 174
38.78344 200
38.80356 173
38.82367 199
38.84378 168
38.8639 197
38.88401 192
38.90412 177
38.92424 190
38.94435 205
38.96447 164
38.98458 197
39.00469 182
39.02481 213
39.04492 204
39.06503 208
39.08515 219
39.10526 216
39.12538 219
39.14549 258
39.1656 248
39.18572 264
39.20583 265
39.22594 288
39.24606 317
39.26617 322
39.28628 437
39.3064 475
39.32651 587
39.34663 738
39.36674 943
39.38685 1194
39.40697 1493
39.42708 1887
39.44719 2153
39.46731 2081
39.48742 1821
39.50754 1388
39.52765 1203
39.54776 1244
39.56788 1099
39.58799 881
39.6081 565
39.62822 324
39.64833 305
39.66845 294
39.68856 222
39.70867 215
39.72879 253
39.7489 213
39.76901 213
39.78913 237
39.80924 202
39.82935 203
39.84947 191
39.86958 197
39.8897 187
39.90981 229
39.92992 224
39.95004 196
39.97015 206
39.99026 202
40.01038 211
40.03049 218
40.05061 261
40.07072 252
40.09083 263
40.11095 299
40.13106 369
40.15117 391
40.17129 479
40.1914 560
40.21152 699
40.23163 837
40.25174 977
40.27186 1186
40.29197 1130
40.31208 957
40.3322 753
40.35231 626
40.37242 694
40.39254 633
40.41265 526
40.43277 378
40.45288 272
40.47299 241
40.49311 199
40.51322 249
40.53333 194
40.55345 194
40.57356 228
40.59368 196
40.61379 203
40.6339 208
40.65402 172
40.67413 220
40.69424 187
40.71436 169
40.73447 165
40.75458 167
40.7747 165
40.79481 171
40.81493 184
40.83504 160
40.85515 191
40.87527 170
40.89538 165
40.91549 200
40.93561 172
40.95572 184
40.97584 227
40.99595 188
41.01606 187
41.03618 163
41.05629 170
41.0764 197
41.09652 163
41.11663 185
41.13675 177
41.15686 177
41.17697 187
41.19709 190
41.2172 192
41.23731 157
41.25743 191
41.27754 175
41.29765 179
41.31777 175
41.33788 183
41.358 171
41.37811 202
41.39822 169
41.41834 174
41.43845 171
41.45856 172
41.47868 203
41.49879 186
41.51891 186
41.53902 184
41.55913 174
41.57925 177
41.59936 219
41.61947 223
41.63959 217
41.6597 281
41.67982 275
41.69993 300
41.72004 320
41.74016 380
41.76027 369
41.78038 388
41.8005 375
41.82061 351
41.84072 309
41.86084 341
41.88095 252
41.90107 297
41.92118 261
41.94129 216
41.96141 210
41.98152 234
42.00163 195
42.02175 175
42.04186 207
42.06198 208
42.08209 205
42.1022 220
42.12232 228
42.14243 240
42.16254 250
42.18266 251
42.20277 287
42.22289 299
42.243 294
42.26311 357
42.28323 403
42.30334 507
42.32345 523
42.34357 744
42.36368 871
42.38379 1140
42.40391 1299
42.42402 1515
42.44414 1588
42.46425 1366
42.48436 1012
42.50448 935
42.52459 866
42.5447 855
42.56482 791
42.58493 617
42.60505 421
42.62516 329
42.64527 260
42.66539 265
42.6855 244
42.70561 261
42.72573 251
42.74584 238
42.76595 245
42.78607 235
42.80618 244
42.8263 237
42.84641 211
42.86652 214
42.88664 203
42.90675 208
42.92686 208
42.94698 200
42.96709 189
42.98721 211
43.00732 163
43.02743 174
43.04755 186
43.06766 189
43.08777 148
43.10789 174
43.128 162
43.14812 176
43.16823 150
43.18834 184
43.20846 161
43.22857 166
43.24868 153
43.2688 165
43.28891 165
43.30902 167
43.32914 148
43.34925 154
43.36937 156
43.38948 173
43.40959 175
43.42971 177
43.44982 183
43.46993 174
43.49005 178
43.51016 151
43.53028 169
43.55039 172
43.5705 163
43.59062 180
43.61073 186
43.63084 191
43.65096 169
43.67107 194
43.69119 196
43.7113 195
43.73141 200
43.75153 185
43.77164 217
43.79175 183
43.81187 177
43.83198 163
43.85209 176
43.87221 154
43.89232 182
43.91244 153
43.93255 180
43.95266 167
43.97278 174
43.99289 165
44.013 152
44.03312 175
44.05323 165
44.07335 155
44.09346 187
44.11357 186
44.13369 179
44.1538 175
44.17391 175
44.19403 178
44.21414 183
44.23426 177
44.25437 173
44.27448 151
44.2946 166
44.31471 171
44.33482 181
44.35494 160
44.37505 151
44.39516 159
44.41528 152
44.43539 158
44.45551 170
44.47562 140
44.49573 171
44.51585 172
44.53596 148
44.55607 146
44.57619 152
44.5963 161
44.61642 172
44.63653 155
44.65664 159
44.67676 161
44.69687 168
44.71698 170
44.7371 176
44.75721 152
44.77732 165
44.79744 154
44.81755 161
44.83767 173
44.85778 167
44.87789 169
44.89801 192
44.91812 162
44.93823 158
44.95835 163
44.97846 156
44.99858 181
45.01869 177
45.0388 169
45.05892 196
45.07903 162
45.09914 180
45.11926 163
45.13937 166
45.15949 154
45.1796 190
45.19971 160
45.21983 171
45.23994 170
45.26005 166
45.28017 176
45.30028 188
45.32039 173
45.34051 202
45.36062 177
45.38074 207
45.40085 196
45.42096 196
45.44108 212
45.46119 161
45.4813 223
45.50142 203
45.52153 234
45.54165 236
45.56176 297
45.58187 348
45.60199 311
45.6221 400
45.64221 397
45.66233 444
45.68244 522
45.70256 672
45.72267 796
45.74278 966
45.7629 1091
45.78301 1045
45.80312 1067
45.82324 791
45.84335 640
45.86346 636
45.88358 649
45.90369 618
45.92381 519
45.94392 385
45.96403 289
45.98415 245
46.00426 208
46.02437 250
46.04449 216
46.0646 203
46.08472 200
46.10483 197
46.12494 169
46.14506 186
46.16517 190
46.18528 192
46.2054 160
46.22551 177
46.24563 177
46.26574 150
46.28585 186
46.30597 189
46.32608 176
46.34619 170
46.36631 182
46.38642 151
46.40653 153
46.42665 158
46.44676 149
46.46688 153
46.48699 149
46.5071 173
46.52722 156
46.54733 149
46.56744 160
46.58756 165
46.60767 158
46.62779 145
46.6479 125
46.66801 163
46.68813 165
46.70824 174
46.72835 145
46.74847 170
46.76858 141
46.78869 167
46.80881 157
46.82892 167
46.84904 145
46.86915 157
46.88926 150
46.90938 159
46.92949 157
46.9496 172
46.96972 147
46.98983 181
47.00995 186
47.03006 178
47.05017 168
47.07029 168
47.0904 158
47.11051 187
47.13063 212
47.15074 221
47.17086 198
47.19097 202
47.21108 188
47.2312 205
47.25131 200
47.27142 177
47.29154 188
47.31165 199
47.33176 178
47.35188 168
47.37199 182
47.39211 198
47.41222 180
47.43233 212
47.45245 206
47.47256 203
47.49267 237
47.51279 176
47.5329 188
47.55302 206
47.57313 182
47.59324 188
47.61336 179
47.63347 171
47.65358 177
47.6737 161
47.69381 173
47.71393 159
47.73404 162
47.75415 129
47.77427 148
47.79438 167
47.81449 135
47.83461 134
47.85472 147
47.87483 138
47.89495 136
47.91506 146
47.93518 143
47.95529 137
47.9754 156
47.99552 136
48.01563 144
48.03574 170
48.05586 172
48.07597 152
48.09609 139
48.1162 135
48.13631 141
48.15643 159
48.17654 155
48.19665 156
48.21677 160
48.23688 140
48.257 155
48.27711 164
48.29722 148
48.31734 180
48.33745 166
48.35756 135
48.37768 157
48.39779 152
48.4179 160
48.43802 164
48.45813 154
48.47825 141
48.49836 155
48.51847 142
48.53859 149
48.5587 151
48.57881 187
48.59893 158
48.61904 155
48.63916 163
48.65927 175
48.67938 168
48.6995 176
48.71961 207
48.73972 172
48.75984 184
48.77995 161
48.80006 189
48.82018 185
48.84029 209
48.86041 185
48.88052 218
48.90063 196
48.92075 227
48.94086 200
48.96097 223
48.98109 202
49.0012 184
49.02132 217
49.04143 184
49.06154 201
49.08166 154
49.10177 182
49.12188 163
49.142 194
49.16211 204
49.18223 182
49.20234 195
49.22245 161
49.24257 169
49.26268 180
49.28279 168
49.30291 156
49.32302 154
49.34313 173
49.36325 182
49.38336 161
49.40348 179
49.42359 178
49.4437 190
49.46382 194
49.48393 180
49.50404 178
49.52416 177
49.54427 210
49.56439 190
49.5845 193
49.60461 196
49.62473 211
49.64484 185
49.66495 202
49.68507 220
49.70518 240
49.7253 226
49.74541 252
49.76552 244
49.78564 271
49.80575 316
49.82586 320
49.84598 375
49.86609 384
49.8862 459
49.90632 491
49.92643 561
49.94655 681
49.96666 758
49.98677 951
50.00689 1178
50.027 1533
50.04711 1914
50.06723 2308
50.08734 2855
50.10746 3183
50.12757 3230
50.14768 3064
50.1678 2261
50.18791 1709
50.20802 1622
50.22814 1725
50.24825 1686
50.26837 1628
50.28848 1360
50.30859 824
50.32871 581
50.34882 426
50.36893 366
50.38905 381
50.40916 374
50.42927 356
50.44939 349
50.4695 403
50.48962 398
50.50973 437
50.52984 422
50.54996 466
50.57007 466
50.59018 464
50.6103 430
50.63041 457
50.65053 423
50.67064 398
50.69075 364
50.71087 363
50.73098 380
50.75109 339
50.77121 308
50.79132 311
50.81143 268
50.83155 267
50.85166 250
50.87178 217
50.89189 219
50.912 216
50.93212 218
50.95223 189
50.97234 209
50.99246 181
51.01257 182
51.03269 174
51.0528 168
51.07291 198
51.09303 183
51.11314 176
51.13325 174
51.15337 160
51.17348 185
51.1936 155
51.21371 173
51.23382 174
51.25394 167
51.27405 153
51.29416 155
51.31428 148
51.33439 158
51.3545 150
51.37462 157
51.39473 170
51.41485 174
51.43496 170
51.45507 148
51.47519 142
51.4953 142
51.51541 130
51.53553 153
51.55564 136
51.57576 151
51.59587 144
51.61598 138
51.6361 168
51.65621 160
51.67632 143
51.69644 153
51.71655 153
51.73667 150
51.75678 135
51.77689 134
51.79701 153
51.81712 161
51.83723 163
51.85735 165
51.87746 128
51.89757 153
51.91769 141
51.9378 147
51.95792 156
51.97803 131
51.99814 133
52.01826 143
52.03837 175
52.05848 160
52.0786 152
52.09871 130
52.11883 155
52.13894 174
52.15905 160
52.17917 154
52.19928 157
52.21939 162
52.23951 138
52.25962 144
52.27974 141
52.29985 172
52.31996 152
52.34008 159
52.36019 159
52.3803 143
52.40042 165
52.42053 174
52.44064 159
52.46076 151
52.48087 170
52.50099 150
52.5211 159
52.54121 146
52.56133 150
52.58144 161
52.60155 160
52.62167 157
52.64178 147
52.6619 154
52.68201 121
52.70212 158
52.72224 169
52.74235 144
52.76246 154
52.78258 161
52.80269 157
52.8228 155
52.84292 130
52.86303 161
52.88315 144
52.90326 156
52.92337 141
52.94349 145
52.9636 138
52.98371 140
53.00383 143
53.02394 149
53.04406 158
53.06417 152
53.08428 161
53.1044 140
53.12451 136
53.14462 161
53.16474 162
53.18485 158
53.20497 167
53.22508 158
53.24519 194
53.26531 190
53.28542 162
53.30553 188
53.32565 160
53.34576 184
53.36587 229
53.38599 213
53.4061 178
53.42622 202
53.44633 196
53.46644 176
53.48656 196
53.50667 181
53.52678 201
53.5469 196
53.56701 187
53.58713 158
53.60724 152
53.62735 180
53.64747 147
53.66758 159
53.68769 167
53.70781 167
53.72792 144
53.74804 145
53.76815 167
53.78826 170
53.80838 144
53.82849 146
53.8486 145
53.86872 159
53.88883 184
53.90894 161
53.92906 140
53.94917 154
53.96929 148
53.9894 161
54.00951 146
54.02963 154
54.04974 147
54.06985 150
54.08997 142
54.11008 151
54.1302 137
54.15031 167
54.17042 157
54.19054 155
54.21065 149
54.23076 150
54.25088 161
54.27099 173
54.29111 179
54.31122 174
54.33133 141
54.35145 157
54.37156 159
54.39167 167
54.41179 164
54.4319 179
54.45201 194
54.47213 180
54.49224 174
54.51236 196
54.53247 191
54.55258 211
54.5727 207
54.59281 251
54.61292 229
54.63304 255
54.65315 262
54.67327 337
54.69338 336
54.71349 386
54.73361 441
54.75372 542
54.77383 622
54.79395 749
54.81406 930
54.83417 999
54.85429 1117
54.8744 966
54.89452 789
54.91463 610
54.93474 542
54.95486 575
54.97497 573
54.99508 596
55.0152 589
55.03531 497
55.05543 368
55.07554 291
55.09565 266
55.11577 264
55.13588 250
55.15599 275
55.17611 305
55.19622 306
55.21634 344
55.23645 412
55.25656 457
55.27668 472
55.29679 530
55.3169 538
55.33702 456
55.35713 429
55.37724 337
55.39736 317
55.41747 361
55.43759 319
55.4577 383
55.47781 352
55.49793 267
55.51804 236
55.53815 215
55.55827 213
55.57838 208
55.5985 189
55.61861 209
55.63872 169
55.65884 175
55.67895 177
55.69906 151
55.71918 165
55.73929 191
55.75941 180
55.77952 172
55.79963 147
55.81975 141
55.83986 161
55.85997 157
55.88009 139
55.9002 142
55.92031 153
55.94043 147
55.96054 151
55.98066 130
56.00077 129
56.02088 137
56.041 137
56.06111 137
56.08122 139
56.10134 162
56.12145 130
56.14157 137
56.16168 136
56.18179 157
56.20191 152
56.22202 139
56.24213 126
56.26225 122
56.28236 131
56.30248 175
56.32259 144
56.3427 154
56.36282 145
56.38293 135
56.40304 145
56.42316 126
56.44327 152
56.46338 134
56.4835 121
56.50361 145
56.52373 136
56.54384 144
56.56395 151
56.58407 159
56.60418 137
56.62429 173
56.64441 154
56.66452 145
56.68464 161
56.70475 159
56.72486 157
56.74498 176
56.76509 138
56.7852 154
56.80532 173
56.82543 155
56.84554 144
56.86566 153
56.88577 133
56.90589 156
56.926 154
56.94611 138
56.96623 159
56.98634 124
57.00645 162
57.02657 135
57.04668 125
57.0668 150
57.08691 153
57.10702 139
57.12714 177
57.14725 180
57.16736 184
57.18748 174
57.20759 216
57.22771 188
57.24782 161
57.26793 164
57.28805 180
57.30816 178
57.32827 167
57.34839 185
57.3685 148
57.38861 179
57.40873 172
57.42884 183
57.44896 151
57.46907 167
57.48918 163
57.5093 146
57.52941 151
57.54952 158
57.56964 143
57.58975 143
57.60987 149
57.62998 145
57.65009 152
57.67021 155
57.69032 133
57.71043 164
57.73055 141
57.75066 142
57.77078 115
57.79089 165
57.811 160
57.83112 131
57.85123 134
57.87134 152
57.89146 143
57.91157 150
57.93168 149
57.9518 133
57.97191 132
57.99203 148
58.01214 115
58.03225 153
58.05237 114
58.07248 115
58.09259 130
58.11271 140
58.13282 152
58.15294 123
58.17305 144
58.19316 159
58.21328 154
58.23339 143
58.2535 136
58.27362 138
58.29373 146
58.31385 152
58.33396 125
58.35407 141
58.37419 129
58.3943 141
58.41441 121
58.43453 152
58.45464 170
58.47475 148
58.49487 154
58.51498 167
58.5351 160
58.55521 163
58.57532 167
58.59544 182
58.61555 160
58.63566 153
58.65578 165
58.67589 163
58.69601 188
58.71612 184
58.73623 171
58.75635 137
58.77646 164
58.79657 166
58.81669 157
58.8368 163
58.85691 160
58.87703 168
58.89714 171
58.91726 134
58.93737 155
58.95748 142
58.9776 154
58.99771 164
59.01782 134
59.03794 143
59.05805 148
59.07817 142
59.09828 160
59.11839 139
59.13851 149
59.15862 152
59.17873 135
59.19885 144
59.21896 147
59.23908 131
59.25919 147
59.2793 120
59.29942 143
59.31953 150
59.33964 156
59.35976 158
59.37987 157
59.39998 161
59.4201 152
59.44021 167
59.46033 173
59.48044 199
59.50055 205
59.52067 198
59.54078 198
59.56089 218
59.58101 232
59.60112 255
59.62124 252
59.64135 264
59.66146 308
59.68158 292
59.70169 316
59.7218 396
59.74192 468
59.76203 528
59.78215 706
59.80226 775
59.82237 883
59.84249 1084
59.8626 1343
59.88271 1607
59.90283 1935
59.92294 2105
59.94305 2043
59.96317 1807
59.98328 1452
60.0034 1069
60.02351 952
60.04362 978
60.06374 1057
60.08385 1097
60.10396 1077
60.12408 902
60.14419 725
60.16431 487
60.18442 324
60.20453 299
60.22465 267
60.24476 221
60.26487 217
60.28499 210
60.3051 191
60.32522 193
60.34533 194
60.36544 190
60.38556 193
60.40567 174
60.42578 167
60.4459 178
60.46601 166
60.48612 173
60.50624 164
60.52635 149
60.54647 160
60.56658 165
60.58669 174
60.60681 154
60.62692 144
60.64703 162
60.66715 165
60.68726 168
60.70738 161
60.72749 169
60.7476 159
60.76772 163
60.78783 149
60.80794 166
60.82806 159
60.84817 153
60.86828 140
60.8884 161
60.90851 147
60.92863 163
60.94874 160
60.96885 151
60.98897 153
61.00908 155
61.02919 173
61.04931 159
61.06942 166
61.08954 168
61.10965 183
61.12976 160
61.14988 133
61.16999 156
61.1901 165
61.21022 144
61.23033 146
61.25045 161
61.27056 152
61.29067 167
61.31079 151
61.3309 146
61.35101 154
61.37113 168
61.39124 152
61.41135 147
61.43147 172
61.45158 163
61.4717 159
61.49181 138
61.51192 138
61.53204 147
61.55215 155
61.57226 145
61.59238 159
61.61249 157
61.63261 151
61.65272 159
61.67283 157
61.69295 141
61.71306 141
61.73317 148
61.75329 153
61.7734 157
61.79352 163
61.81363 155
61.83374 189
61.85386 155
61.87397 172
61.89408 172
61.9142 180
61.93431 149
61.95442 154
61.97454 143
61.99465 170
62.01477 167
62.03488 169
62.05499 162
62.07511 169
62.09522 165
62.11533 152
62.13545 158
62.15556 176
62.17568 177
62.19579 155
62.2159 161
62.23602 166
62.25613 146
62.27624 170
62.29636 156
62.31647 142
62.33659 183
62.3567 172
62.37681 162
62.39693 155
62.41704 119
62.43715 160
62.45727 127
62.47738 170
62.49749 155
62.51761 146
62.53772 179
62.55784 128
62.57795 154
62.59806 152
62.61818 148
62.63829 154
62.6584 186
62.67852 177
62.69863 167
62.71875 155
62.73886 166
62.75897 173
62.77909 153
62.7992 159
62.81931 155
62.83943 172
62.85954 170
62.87965 160
62.89977 155
62.91988 172
62.94 168
62.96011 170
62.98022 172
63.00034 137
63.02045 168
63.04056 161
63.06068 136
63.08079 152
63.10091 136
63.12102 155
63.14113 155
63.16125 162
63.18136 148
63.20147 136
63.22159 145
63.2417 143
63.26182 152
63.28193 156
63.30204 148
63.32216 146
63.34227 132
63.36238 133
63.3825 187
63.40261 120
63.42272 135
63.44284 136
63.46295 140
63.48307 135
63.50318 163
63.52329 157
63.54341 142
63.56352 144
63.58363 140
63.60375 138
63.62386 164
63.64398 169
63.66409 176
63.6842 158
63.70432 198
63.72443 207
63.74454 212
63.76466 203
63.78477 181
63.80489 207
63.825 228
63.84511 262
63.86523 272
63.88534 308
63.90545 329
63.92557 324
63.94568 378
63.96579 461
63.98591 465
64.00602 464
64.02614 524
64.04625 489
64.06636 373
64.08648 321
64.10659 280
64.1267 290
64.14682 320
64.16693 324
64.18705 309
64.20716 307
64.22727 247
64.24739 196
64.2675 210
64.28761 177
64.30773 198
64.32784 169
64.34796 152
64.36807 141
64.38818 170
64.4083 136
64.42841 130
64.44852 153
64.46864 158
64.48875 139
64.50886 135
64.52898 159
64.54909 135
64.56921 152
64.58932 140
64.60943 158
64.62955 150
64.64966 156
64.66977 136
64.68989 144
64.71 139
64.73012 131
64.75023 144
64.77034 163
64.79046 129
64.81057 131
64.83068 125
64.8508 136
64.87091 128
64.89102 140
64.91114 157
64.93125 156
64.95137 148
64.97148 157
64.99159 146
65.01171 129
65.03182 142
65.05193 142
65.07205 171
65.09216 154
65.11228 139
65.13239 156
65.1525 154
65.17262 133
65.19273 182
65.21284 163
65.23296 183
65.25307 134
65.27319 169
65.2933 137
65.31341 184
65.33353 169
65.35364 153
65.37375 163
65.39387 153
65.41398 160
65.43409 163
65.45421 164
65.47432 159
65.49444 162
65.51455 155
65.53466 162
65.55478 157
65.57489 165
65.595 172
65.61512 159
65.63523 164
65.65535 182
65.67546 169
65.69557 202
65.71569 209
65.7358 224
65.75591 219
65.77603 201
65.79614 182
65.81626 187
65.83637 170
65.85648 174
65.8766 165
65.89671 170
65.91682 162
65.93694 196
65.95705 178
65.97716 178
65.99728 173
66.01739 146
66.03751 163
66.05762 161
66.07773 172
66.09785 151
66.11796 147
66.13807 161
66.15819 149
66.1783 177
66.19842 141
66.21853 142
66.23864 160
66.25876 147
66.27887 137
66.29898 161
66.3191 144
66.33921 156
66.35933 179
66.37944 144
66.39955 170
66.41967 155
66.43978 167
66.45989 153
66.48001 141
66.50012 141
66.52023 150
66.54035 156
66.56046 129
66.58058 151
66.60069 157
66.6208 148
66.64092 152
66.66103 156
66.68114 146
66.70126 145
66.72137 163
66.74149 123
66.7616 149
66.78171 143
66.80183 148
66.82194 128
66.84205 145
66.86217 141
66.88228 155
66.90239 168
66.92251 147
66.94262 158
66.96274 158
66.98285 172
67.00296 139
67.02308 157
67.04319 169
67.0633 161
67.08342 149
67.10353 153
67.12365 175
67.14376 163
67.16387 167
67.18399 167
67.2041 180
67.22421 185
67.24433 152
67.26444 183
67.28456 170
67.30467 162
67.32478 202
67.3449 202
67.36501 215
67.38512 220
67.40524 236
67.42535 229
67.44546 258
67.46558 285
67.48569 290
67.50581 328
67.52592 357
67.54603 405
67.56615 506
67.58626 557
67.60637 679
67.62649 727
67.6466 858
67.66672 975
67.68683 1197
67.70694 1206
67.72706 1214
67.74717 1189
67.76728 866
67.7874 731
67.80751 680
67.82763 710
67.84774 730
67.86785 768
67.88797 868
67.90808 879
67.92819 870
67.94831 823
67.96842 810
67.98853 813
68.00865 857
68.02876 985
68.04888 1116
68.06899 1302
68.0891 1437
68.10922 1538
68.12933 1592
68.14944 1504
68.16956 1285
68.18967 1123
68.20979 1019
68.2299 1160
68.25001 1346
68.27013 1386
68.29024 1477
68.31035 1419
68.33047 1244
68.35058 979
68.3707 729
68.39081 621
68.41092 592
68.43104 558
68.45115 575
68.47126 527
68.49138 520
68.51149 479
68.5316 390
68.55172 314
68.57183 220
68.59195 216
68.61206 209
68.63217 192
68.65229 190
68.6724 189
68.69251 173
68.71263 183
68.73274 159
68.75286 188
68.77297 177
68.79308 174
68.8132 157
68.83331 158
68.85342 146
68.87354 158
68.89365 153
68.91376 135
68.93388 152
68.95399 154
68.97411 117
68.99422 150
69.01433 161
69.03445 147
69.05456 152
69.07467 143
69.09479 142
69.1149 135
69.13502 141
69.15513 139
69.17524 113
69.19536 144
69.21547 149
69.23558 133
69.2557 143
69.27581 132
69.29593 113
69.31604 140
69.33615 132
69.35627 131
69.37638 130
69.39649 137
69.41661 124
69.43672 135
69.45683 152
69.47695 128
69.49706 115
69.51718 129
69.53729 101
69.5574 139
69.57752 142
69.59763 138
69.61774 126
69.63786 134
69.65797 138
69.67809 134
69.6982 131
69.71831 146
69.73843 125
69.75854 117
69.77865 136
69.79877 128
69.81888 111
69.839 141
69.85911 112
69.87922 132
69.89934 118
69.91945 112
69.93956 120
69.95968 124
69.97979 114
69.9999 127
70.02002 154
70.04013 132
70.06025 115
70.08036 136
70.10047 102
70.12059 126
70.1407 134
70.16081 131
70.18093 135
70.20104 113
70.22116 152
70.24127 132
70.26138 139
70.2815 128
70.30161 128
70.32172 141
70.34184 151
70.36195 128
70.38207 135
70.40218 116
70.42229 114
70.44241 134
70.46252 124
70.48263 118
70.50275 110
70.52286 126
70.54297 135
70.56309 144
70.5832 123
70.60332 131
70.62343 127
70.64354 129
70.66366 131
70.68377 138
70.70388 123
70.724 107
70.74411 134
70.76423 120
70.78434 122
70.80445 130
70.82457 130
70.84468 127
70.86479 137
70.88491 151
70.90502 131
70.92513 140
70.94525 128
70.96536 135
70.98548 125
71.00559 128
71.0257 146
71.04582 136
71.06593 109
71.08604 133
71.10616 123
71.12627 107
71.14639 111
71.1665 114
71.18661 116
71.20673 132
71.22684 109
71.24695 124
71.26707 116
71.28718 130
71.3073 115
71.32741 104
71.34752 130
71.36764 121
71.38775 105
71.40786 126
71.42798 122
71.44809 147
71.4682 117
71.48832 128
71.50843 117
71.52855 166
71.54866 156
71.56877 172
71.58889 147
71.609 129
71.62911 150
71.64923 150
71.66934 140
71.68946 135
71.70957 131
71.72968 127
71.7498 133
71.76991 144
71.79002 128
71.81014 135
71.83025 153
71.85037 140
71.87048 120
71.89059 132
71.91071 136
71.93082 140
71.95093 134
71.97105 142
71.99116 136
72.01127 128
72.03139 138
72.0515 142
72.07162 120
72.09173 137
72.11184 140
72.13196 130
72.15207 141
72.17218 143
72.1923 141
72.21241 122
72.23253 124
72.25264 133
72.27275 158
72.29287 141
72.31298 136
72.33309 120
72.35321 133
72.37332 133
72.39344 147
72.41355 137
72.43366 123
72.45378 128
72.47389 122
72.494 136
72.51412 140
72.53423 142
72.55434 147
72.57446 125
72.59457 128
72.61469 140
72.6348 132
72.65491 146
72.67503 146
72.69514 136
72.71525 133
72.73537 129
72.75548 122
72.7756 141
72.79571 159
72.81582 107
72.83594 124
72.85605 146
72.87616 148
72.89628 156
72.91639 141
72.9365 140
72.95662 165
72.97673 148
72.99685 146
73.01696 147
73.03707 158
73.05719 161
73.0773 175
73.09741 172
73.11753 169
73.13764 198
73.15776 170
73.17787 178
73.19798 180
73.2181 216
73.23821 190
73.25832 211
73.27844 232
73.29855 274
73.31867 287
73.33878 331
73.35889 360
73.37901 406
73.39912 474
73.41923 470
73.43935 466
73.45946 496
73.47957 401
73.49969 347
73.5198 260
73.53992 287
73.56003 276
73.58014 296
73.60026 301
73.62037 299
73.64048 347
73.6606 320
73.68071 314
73.70083 271
73.72094 208
73.74105 185
73.76117 163
73.78128 161
73.80139 167
73.82151 158
73.84162 156
73.86174 148
73.88185 132
73.90196 132
73.92208 145
73.94219 136
73.9623 135
73.98242 132
74.00253 143
74.02264 135
74.04276 137
74.06287 139
74.08299 136
74.1031 136
74.12321 154
74.14333 129
74.16344 124
74.18355 155
74.20367 137
74.22378 141
74.2439 140
74.26401 155
74.28412 139
74.30424 146
74.32435 148
74.34446 145
74.36458 132
74.38469 148
74.40481 155
74.42492 133
74.44503 167
74.46515 116
74.48526 125
74.50537 138
74.52549 121
74.5456 132
74.56571 152
74.58583 119
74.60594 122
74.62606 133
74.64617 135
74.66628 123
74.6864 126
74.70651 149
74.72662 131
74.74674 141
74.76685 135
74.78697 124
74.80708 145
74.82719 151
74.84731 145
74.86742 133
74.88753 127
74.90765 164
74.92776 151
74.94787 111
74.96799 136
74.9881 133
75.00822 135
