3.00117 20705
3.02128 20122
3.0414 19427
3.06151 19154
3.08162 18741
3.10174 17925
3.12185 17590
3.14197 16775
3.16208 16162
3.18219 16077
3.20231 15382
3.22242 15367
3.24253 14722
3.26265 14058
3.28276 13957
3.30288 13172
3.32299 13146
3.3431 12501
3.36322 12146
3.38333 11607
3.40344 11220
3.42356 10808
3.44367 10326
3.46379 10055
3.4839 9914
3.50401 9400
3.52413 9299
3.54424 8962
3.56435 8401
3.58447 7989
3.60458 7717
3.62469 7710
3.64481 7491
3.66492 7227
3.68504 6923
3.70515 6430
3.72526 6408
3.74538 6008
3.76549 5873
3.7856 5619
3.80572 5223
3.82583 5341
3.84595 4881
3.86606 4712
3.88617 4503
3.90629 4282
3.9264 4209
3.94651 4023
3.96663 4020
3.98674 3584
4.00686 3533
4.02697 3409
4.04708 3295
4.0672 3043
4.08731 3004
4.10742 2759
4.12754 2644
4.14765 2652
4.16776 2414
4.18788 2345
4.20799 2230
4.22811 2143
4.24822 2233
4.26833 2016
4.28845 1939
4.30856 1870
4.32867 1929
4.34879 1924
4.3689 1779
4.38902 1747
4.40913 1626
4.42924 1628
4.44936 1657
4.46947 1531
4.48958 1529
4.5097 1458
4.52981 1402
4.54992 1506
4.57004 1367
4.59015 1307
4.61027 1319
4.63038 1268
4.65049 1280
4.67061 1126
4.69072 1136
4.71083 1094
4.73095 1153
4.75106 1168
4.77118 1069
4.79129 1043
4.8114 1011
4.83152 1047
4.85163 1070
4.87174 932
4.89186 955
4.91197 890
4.93209 909
4.9522 931
4.97231 858
4.99243 865
5.01254 794
5.03265 774
5.05277 876
5.07288 755
5.09299 766
5.11311 766
5.13322 688
5.15334 758
5.17345 690
5.19356 679
5.21368 672
5.23379 651
5.2539 660
5.27402 620
5.29413 647
5.31425 695
5.33436 604
5.35447 607
5.37459 539
5.3947 590
5.41481 535
5.43493 521
5.45504 516
5.47516 525
5.49527 524
5.51538 512
5.5355 447
5.55561 527
5.57572 497
5.59584 461
5.61595 485
5.63606 445
5.65618 464
5.67629 436
5.69641 437
5.71652 469
5.73663 414
5.75675 384
5.77686 445
5.79697 424
5.81709 383
5.8372 402
5.85732 386
5.87743 374
5.89754 399
5.91766 387
5.93777 394
5.95788 374
5.978 386
5.99811 386
6.01823 349
6.03834 330
6.05845 335
6.07857 368
6.09868 331
6.11879 350
6.13891 373
6.15902 388
6.17913 374
6.19925 358
6.21936 377
6.23948 363
6.25959 360
6.2797 361
6.29982 348
6.31993 326
6.34004 327
6.36016 318
6.38027 330
6.40039 313
6.4205 333
6.44061 296
6.46073 344
6.48084 352
6.50095 327
6.52107 345
6.54118 303
6.56129 378
6.58141 352
6.60152 307
6.62164 314
6.64175 327
6.66186 313
6.68198 289
6.70209 347
6.7222 309
6.74232 355
6.76243 306
6.78255 298
6.80266 313
6.82277 273
6.84289 321
6.863 298
6.88311 303
6.90323 256
6.92334 329
6.94346 292
6.96357 284
6.98368 267
7.0038 302
7.02391 312
7.04402 313
7.06414 286
7.08425 301
7.10436 307
7.12448 321
7.14459 309
7.16471 308
7.18482 318
7.20493 320
7.22505 284
7.24516 328
7.26527 311
7.28539 319
7.3055 288
7.32562 292
7.34573 276
7.36584 294
7.38596 327
7.40607 310
7.42618 297
7.4463 333
7.46641 304
7.48653 284
7.50664 293
7.52675 307
7.54687 308
7.56698 333
7.58709 295
7.60721 297
7.62732 307
7.64743 316
7.66755 316
7.68766 313
7.70778 334
7.72789 304
7.748 299
7.76812 305
7.78823 315
7.80834 331
7.82846 322
7.84857 292
7.86869 286
7.8888 261
7.90891 296
7.92903 297
7.94914 316
7.96925 317
7.98937 329
8.00948 277
8.0296 303
8.04971 310
8.06982 302
8.08994 291
8.11005 319
8.13016 326
8.15028 320
8.17039 304
8.1905 310
8.21062 315
8.23073 300
8.25085 310
8.27096 307
8.29107 321
8.31119 354
8.3313 318
8.35141 278
8.37153 301
8.39164 312
8.41176 337
8.43187 311
8.45198 352
8.4721 302
8.49221 350
8.51232 292
8.53244 309
8.55255 337
8.57266 316
8.59278 302
8.61289 315
8.63301 312
8.65312 305
8.67323 327
8.69335 293
8.71346 318
8.73357 311
8.75369 314
8.7738 336
8.79392 308
8.81403 307
8.83414 362
8.85426 285
8.87437 297
8.89448 291
8.9146 313
8.93471 339
8.95483 301
8.97494 303
8.99505 283
9.01517 338
9.03528 294
9.05539 311
9.07551 273
9.09562 316
9.11573 304
9.13585 296
9.15596 303
9.17608 309
9.19619 338
9.2163 284
9.23642 326
9.25653 295
9.27664 318
9.29676 285
9.31687 294
9.33699 295
9.3571 277
9.37721 296
9.39733 294
9.41744 302
9.43755 279
9.45767 302
9.47778 326
9.4979 269
9.51801 302
9.53812 294
9.55824 313
9.57835 298
9.59846 346
9.61858 308
9.63869 303
9.6588 323
9.67892 306
9.69903 268
9.71915 316
9.73926 309
9.75937 286
9.77949 342
9.7996 301
9.81971 341
9.83983 301
9.85994 301
9.88006 298
9.90017 285
9.92028 300
9.9404 302
9.96051 342
9.98062 308
10.00074 344
10.02085 297
10.04097 317
10.06108 276
10.08119 289
10.10131 308
10.12142 314
10.14153 331
10.16165 283
10.18176 320
10.20187 302
10.22199 316
10.2421 294
10.26222 299
10.28233 339
10.30244 309
10.32256 325
10.34267 302
10.36278 339
10.3829 307
10.40301 339
10.42313 302
10.44324 295
10.46335 328
10.48347 318
10.50358 341
10.52369 318
10.54381 303
10.56392 275
10.58403 318
10.60415 286
10.62426 342
10.64438 314
10.66449 300
10.6846 321
10.70472 316
10.72483 303
10.74494 309
10.76506 299
10.78517 330
10.80529 303
10.8254 321
10.84551 281
10.86563 337
10.88574 310
10.90585 306
10.92597 301
10.94608 303
10.9662 311
10.98631 292
11.00642 304
11.02654 313
11.04665 332
11.06676 282
11.08688 305
11.10699 312
11.1271 335
11.14722 328
11.16733 333
11.18745 335
11.20756 351
11.22767 304
11.24779 338
11.2679 306
11.28801 342
11.30813 339
11.32824 362
11.34836 331
11.36847 322
11.38858 356
11.4087 345
11.42881 340
11.44892 374
11.46904 337
11.48915 334
11.50927 347
11.52938 367
11.54949 398
11.56961 393
11.58972 378
11.60983 383
11.62995 379
11.65006 395
11.67017 402
11.69029 399
11.7104 394
11.73052 390
11.75063 392
11.77074 393
11.79086 459
11.81097 427
11.83108 452
11.8512 433
11.87131 443
11.89143 447
11.91154 455
11.93165 494
11.95177 476
11.97188 483
11.99199 522
12.01211 508
12.03222 540
12.05234 579
12.07245 561
12.09256 594
12.11268 586
12.13279 587
12.1529 650
12.17302 615
12.19313 711
12.21324 733
12.23336 729
12.25347 757
12.27359 756
12.2937 783
12.31381 797
12.33393 768
12.35404 779
12.37415 791
12.39427 736
12.41438 696
12.4345 572
12.45461 570
12.47472 542
12.49484 487
12.51495 502
12.53506 456
12.55518 455
12.57529 391
12.5954 408
12.61552 400
12.63563 429
12.65575 372
12.67586 395
12.69597 367
12.71609 378
12.7362 394
12.75631 331
12.77643 352
12.79654 302
12.81666 349
12.83677 344
12.85688 334
12.877 309
12.89711 334
12.91722 295
12.93734 298
12.95745 294
12.97757 288
12.99768 324
13.01779 292
13.03791 293
13.05802 292
13.07813 308
13.09825 277
13.11836 295
13.13847 295
13.15859 319
13.1787 280
13.19882 283
13.21893 283
13.23904 280
13.25916 255
13.27927 300
13.29938 270
13.3195 254
13.33961 264
13.35973 311
13.37984 245
13.39995 308
13.42007 288
13.44018 277
13.46029 251
13.48041 269
13.50052 266
13.52064 276
13.54075 243
13.56086 280
13.58098 276
13.60109 265
13.6212 266
13.64132 270
13.66143 235
13.68154 256
13.70166 300
13.72177 247
13.74189 248
13.762 265
13.78211 267
13.80223 273
13.82234 237
13.84245 266
13.86257 259
13.88268 255
13.9028 230
13.92291 266
13.94302 255
13.96314 261
13.98325 281
14.00336 251
14.02348 276
14.04359 293
14.06371 250
14.08382 246
14.10393 241
14.12405 281
14.14416 269
14.16427 246
14.18439 242
14.2045 250
14.22461 263
14.24473 254
14.26484 296
14.28496 275
14.30507 257
14.32518 237
14.3453 230
14.36541 231
14.38552 269
14.40564 238
14.42575 219
14.44587 267
14.46598 275
14.48609 243
14.50621 264
14.52632 234
14.54643 231
14.56655 243
14.58666 261
14.60677 251
14.62689 256
14.647 253
14.66712 211
14.68723 243
14.70734 240
14.72746 221
14.74757 249
14.76768 275
14.7878 239
14.80791 246
14.82803 230
14.84814 234
14.86825 206
14.88837 255
14.90848 233
14.92859 252
14.94871 226
14.96882 267
14.98894 269
15.00905 235
15.02916 242
15.04928 231
15.06939 240
15.0895 219
15.10962 239
15.12973 250
15.14984 242
15.16996 250
15.19007 279
15.21019 271
15.2303 240
15.25041 269
15.27053 246
15.29064 235
15.31075 234
15.33087 226
15.35098 235
15.3711 241
15.39121 210
15.41132 218
15.43144 237
15.45155 245
15.47166 228
15.49178 257
15.51189 238
15.53201 238
15.55212 216
15.57223 238
15.59235 244
15.61246 232
15.63257 239
15.65269 231
15.6728 258
15.69291 244
15.71303 215
15.73314 237
15.75326 209
15.77337 236
15.79348 244
15.8136 248
15.83371 231
15.85382 224
15.87394 242
15.89405 221
15.91417 212
15.93428 247
15.95439 213
15.97451 241
15.99462 227
16.01473 216
16.03485 226
16.05496 232
16.07508 237
16.09519 241
16.1153 227
16.13542 233
16.15553 229
16.17564 229
16.19576 230
16.21587 224
16.23598 231
16.2561 234
16.27621 236
16.29633 242
16.31644 257
16.33655 242
16.35667 212
16.37678 252
16.39689 254
16.41701 259
16.43712 223
16.45724 246
16.47735 214
16.49746 231
16.51758 234
16.53769 229
16.5578 207
16.57792 240
16.59803 227
16.61814 255
16.63826 228
16.65837 207
16.67849 260
16.6986 231
16.71871 205
16.73883 222
16.75894 237
16.77905 210
16.79917 222
16.81928 232
16.8394 257
16.85951 238
16.87962 222
16.89974 229
16.91985 229
16.93996 221
16.96008 247
16.98019 226
17.00031 233
17.02042 207
17.04053 201
17.06065 217
17.08076 228
17.10087 240
17.12099 207
17.1411 206
17.16121 258
17.18133 245
17.20144 232
17.22156 224
17.24167 213
17.26178 208
17.2819 214
17.30201 206
17.32212 217
17.34224 233
17.36235 251
17.38247 238
17.40258 217
17.42269 227
17.44281 226
17.46292 245
17.48303 248
17.50315 231
17.52326 246
17.54338 217
17.56349 243
17.5836 248
17.60372 227
17.62383 233
17.64394 230
17.66406 249
17.68417 252
17.70428 197
17.7244 266
17.74451 219
17.76463 236
17.78474 203
17.80485 257
17.82497 260
17.84508 281
17.86519 237
17.88531 271
17.90542 213
17.92554 272
17.94565 230
17.96576 257
17.98588 252
18.00599 280
18.0261 224
18.04622 241
18.06633 200
18.08645 246
18.10656 241
18.12667 275
18.14679 231
18.1669 243
18.18701 256
18.20713 233
18.22724 272
18.24735 241
18.26747 248
18.28758 246
18.3077 251
18.32781 221
18.34792 258
18.36804 295
18.38815 242
18.40826 245
18.42838 234
18.44849 237
18.46861 221
18.48872 252
18.50883 246
18.52895 218
18.54906 244
18.56917 276
18.58929 223
18.6094 236
18.62951 233
18.64963 258
18.66974 246
18.68986 218
18.70997 238
18.73008 255
18.7502 249
18.77031 267
18.79042 235
18.81054 270
18.83065 251
18.85077 259
18.87088 232
18.89099 251
18.91111 245
18.93122 243
18.95133 243
18.97145 258
18.99156 254
19.01168 227
19.03179 229
19.0519 229
19.07202 232
19.09213 250
19.11224 236
19.13236 265
19.15247 283
19.17258 231
19.1927 246
19.21281 264
19.23293 268
19.25304 263
19.27315 276
19.29327 248
19.31338 236
19.33349 239
19.35361 268
19.37372 260
19.39384 300
19.41395 282
19.43406 269
19.45418 284
19.47429 270
19.4944 267
19.51452 287
19.53463 308
19.55475 312
19.57486 311
19.59497 326
19.61509 393
19.6352 365
19.65531 400
19.67543 467
19.69554 476
19.71565 547
19.73577 521
19.75588 538
19.776 649
19.79611 701
19.81622 686
19.83634 720
19.85645 791
19.87656 790
19.89668 678
19.91679 737
19.93691 712
19.95702 688
19.97713 714
19.99725 700
20.01736 697
20.03747 672
20.05759 689
20.0777 671
20.09782 637
20.11793 677
20.13804 690
20.15816 661
20.17827 613
20.19838 619
20.2185 630
20.23861 621
20.25872 673
20.27884 665
20.29895 662
20.31907 708
20.33918 597
20.35929 703
20.37941 681
20.39952 673
20.41963 655
20.43975 673
20.45986 671
20.47998 681
20.50009 676
20.5202 634
20.54032 720
20.56043 711
20.58054 738
20.60066 781
20.62077 869
20.64088 990
20.661 1046
20.68111 1348
20.70123 1603
20.72134 2176
20.74145 2744
20.76157 3601
20.78168 4438
20.80179 5215
20.82191 5452
20.84202 5360
20.86214 4713
20.88225 3809
20.90236 2826
20.92248 2087
20.94259 1501
20.9627 1060
20.98282 829
21.00293 760
21.02305 714
21.04316 755
21.06327 677
21.08339 699
21.1035 652
21.12361 636
21.14373 625
21.16384 659
21.18395 627
21.20407 635
21.22418 627
21.2443 578
21.26441 641
21.28452 537
21.30464 569
21.32475 679
21.34486 561
21.36498 605
21.38509 616
21.40521 555
21.42532 604
21.44543 578
21.46555 608
21.48566 603
21.50577 574
21.52589 546
21.546 509
21.56612 535
21.58623 519
21.60634 546
21.62646 491
21.64657 454
21.66668 486
21.6868 425
21.70691 458
21.72702 448
21.74714 462
21.76725 450
21.78737 422
21.80748 430
21.82759 449
21.84771 466
21.86782 427
21.88793 495
21.90805 454
21.92816 421
21.94828 464
21.96839 465
21.9885 447
22.00862 391
22.02873 434
22.04884 436
22.06896 422
22.08907 389
22.10919 438
22.1293 413
22.14941 385
22.16953 414
22.18964 415
22.20975 372
22.22987 379
22.24998 415
22.27009 403
22.29021 376
22.31032 375
22.33044 427
22.35055 354
22.37066 391
22.39078 414
22.41089 364
22.431 409
22.45112 385
22.47123 388
22.49135 414
22.51146 363
22.53157 372
22.55169 402
22.5718 413
22.59191 395
22.61203 379
22.63214 381
22.65225 380
22.67237 363
22.69248 353
22.7126 354
22.73271 356
22.75282 359
22.77294 349
22.79305 352
22.81316 363
22.83328 396
22.85339 417
22.87351 320
22.89362 342
22.91373 365
22.93385 374
22.95396 356
22.97407 353
22.99419 335
23.0143 342
23.03442 352
23.05453 400
23.07464 396
23.09476 360
23.11487 387
23.13498 331
23.1551 405
23.17521 365
23.19532 344
23.21544 312
23.23555 369
23.25567 336
23.27578 361
23.29589 362
23.31601 337
23.33612 343
23.35623 371
23.37635 365
23.39646 346
23.41658 344
23.43669 351
23.4568 357
23.47692 345
23.49703 352
23.51714 354
23.53726 331
23.55737 354
23.57749 384
23.5976 339
23.61771 365
23.63783 385
23.65794 353
23.67805 346
23.69817 354
23.71828 378
23.73839 358
23.75851 354
23.77862 356
23.79874 339
23.81885 374
23.83896 362
23.85908 363
23.87919 399
23.8993 404
23.91942 381
23.93953 386
23.95965 391
23.97976 404
23.99987 426
24.01999 411
24.0401 372
24.06021 380
24.08033 369
24.10044 361
24.12056 372
24.14067 392
24.16078 395
24.1809 403
24.20101 368
24.22112 374
24.24124 368
24.26135 414
24.28146 381
24.30158 425
24.32169 415
24.34181 396
24.36192 391
24.38203 387
24.40215 399
24.42226 437
24.44237 437
24.46249 420
24.4826 481
24.50272 444
24.52283 414
24.54294 481
24.56306 554
24.58317 527
24.60328 449
24.6234 500
24.64351 476
24.66362 544
24.68374 610
24.70385 606
24.72397 592
24.74408 618
24.76419 617
24.78431 645
24.80442 704
24.82453 695
24.84465 715
24.86476 691
24.88488 728
24.90499 681
24.9251 639
24.94522 661
24.96533 603
24.98544 591
25.00556 596
25.02567 570
25.04579 560
25.0659 507
25.08601 538
25.10613 519
25.12624 549
25.14635 525
25.16647 534
25.18658 560
25.20669 556
25.22681 568
25.24692 562
25.26704 574
25.28715 513
25.30726 537
25.32738 482
25.34749 512
25.3676 489
25.38772 425
25.40783 429
25.42795 425
25.44806 450
25.46817 393
25.48829 415
25.5084 419
25.52851 397
25.54863 400
25.56874 436
25.58886 390
25.60897 449
25.62908 455
25.6492 460
25.66931 461
25.68942 488
25.70954 461
25.72965 476
25.74976 488
25.76988 506
25.78999 483
25.81011 460
25.83022 519
25.85033 520
25.87045 515
25.89056 484
25.91067 535
25.93079 523
25.9509 574
25.97102 483
25.99113 556
26.01124 552
26.03136 566
26.05147 589
26.07158 569
26.0917 608
26.11181 635
26.13193 631
26.15204 740
26.17215 714
26.19227 767
26.21238 828
26.23249 891
26.25261 893
26.27272 972
26.29283 1054
26.31295 1169
26.33306 1317
26.35318 1453
26.37329 1746
26.3934 2084
26.41352 2552
26.43363 3459
26.45374 4616
26.47386 6156
26.49397 8555
26.51409 11636
26.5342 15259
26.55431 19018
26.57443 22044
26.59454 23664
26.61465 23082
26.63477 20710
26.65488 17099
26.67499 13072
26.69511 9437
26.71522 6369
26.73534 4073
26.75545 2630
26.77556 1818
26.79568 1448
26.81579 1207
26.8359 1134
26.85602 997
26.87613 940
26.89625 920
26.91636 766
26.93647 731
26.95659 736
26.9767 611
26.99681 622
27.01693 567
27.03704 533
27.05716 500
27.07727 492
27.09738 489
27.1175 450
27.13761 452
27.15772 455
27.17784 448
27.19795 431
27.21806 461
27.23818 409
27.25829 423
27.27841 448
27.29852 425
27.31863 431
27.33875 455
27.35886 418
27.37897 451
27.39909 421
27.4192 442
27.43932 436
27.45943 444
27.47954 393
27.49966 392
27.51977 429
27.53988 399
27.56 361
27.58011 386
27.60023 382
27.62034 347
27.64045 362
27.66057 359
27.68068 381
27.70079 343
27.72091 332
27.74102 355
27.76113 379
27.78125 358
27.80136 363
27.82148 318
27.84159 333
27.8617 332
27.88182 375
27.90193 368
27.92204 344
27.94216 344
27.96227 340
27.98239 368
28.0025 338
28.02261 375
28.04273 366
28.06284 291
28.08295 345
28.10307 295
28.12318 337
28.1433 339
28.16341 317
28.18352 321
28.20364 336
28.22375 325
28.24386 342
28.26398 361
28.28409 288
28.3042 321
28.32432 311
28.34443 311
28.36455 312
28.38466 328
28.40477 325
28.42489 315
28.445 314
28.46511 313
28.48523 321
28.50534 317
28.52546 294
28.54557 322
28.56568 279
28.5858 312
28.60591 306
28.62602 287
28.64614 273
28.66625 328
28.68636 349
28.70648 295
28.72659 316
28.74671 298
28.76682 298
28.78693 299
28.80705 293
28.82716 333
28.84727 336
28.86739 297
28.8875 295
28.90762 289
28.92773 290
28.94784 260
28.96796 336
28.98807 294
29.00818 296
29.0283 306
29.04841 314
29.06853 306
29.08864 303
29.10875 278
29.12887 270
29.14898 262
29.16909 293
29.18921 285
29.20932 266
29.22943 300
29.24955 275
29.26966 295
29.28978 298
29.30989 260
29.33 263
29.35012 257
29.37023 261
29.39034 332
29.41046 316
29.43057 322
29.45069 293
29.4708 286
29.49091 280
29.51103 268
29.53114 283
29.55125 268
29.57137 269
29.59148 267
29.6116 283
29.63171 250
29.65182 290
29.67194 271
29.69205 291
29.71216 318
29.73228 274
29.75239 314
29.7725 282
29.79262 275
29.81273 283
29.83285 280
29.85296 309
29.87307 248
29.89319 276
29.9133 269
29.93341 283
29.95353 314
29.97364 280
29.99376 259
30.01387 282
30.03398 276
30.0541 257
30.07421 283
30.09432 285
30.11444 302
30.13455 278
30.15467 294
30.17478 265
30.19489 236
30.21501 276
30.23512 296
30.25523 275
30.27535 278
30.29546 290
30.31557 294
30.33569 276
30.3558 266
30.37592 305
30.39603 258
30.41614 288
30.43626 301
30.45637 267
30.47648 260
30.4966 254
30.51671 275
30.53683 264
30.55694 259
30.57705 271
30.59717 228
30.61728 245
30.63739 296
30.65751 277
30.67762 276
30.69773 234
30.71785 278
30.73796 250
30.75808 276
30.77819 255
30.7983 276
30.81842 272
30.83853 241
30.85864 252
30.87876 275
30.89887 264
30.91899 311
30.9391 246
30.95921 241
30.97933 277
30.99944 231
31.01955 236
31.03967 254
31.05978 235
31.0799 252
31.10001 270
31.12012 302
31.14024 277
31.16035 259
31.18046 263
31.20058 245
31.22069 244
31.2408 247
31.26092 293
31.28103 249
31.30115 258
31.32126 264
31.34137 207
31.36149 242
31.3816 270
31.40171 249
31.42183 229
31.44194 270
31.46206 287
31.48217 273
31.50228 273
31.5224 286
31.54251 242
31.56262 241
31.58274 276
31.60285 261
31.62297 254
31.64308 267
31.66319 239
31.68331 260
31.70342 229
31.72353 265
31.74365 269
31.76376 239
31.78387 267
31.80399 267
31.8241 250
31.84422 249
31.86433 266
31.88444 242
31.90456 244
31.92467 254
31.94478 234
31.9649 243
31.98501 222
32.00513 233
32.02524 255
32.04535 274
32.06547 248
32.08558 262
32.10569 248
32.12581 235
32.14592 256
32.16604 262
32.18615 285
32.20626 264
32.22638 253
32.24649 275
32.2666 256
32.28672 235
32.30683 259
32.32694 237
32.34706 257
32.36717 232
32.38729 244
32.4074 260
32.42751 258
32.44763 271
32.46774 253
32.48785 251
32.50797 280
32.52808 282
32.5482 277
32.56831 258
32.58842 234
32.60854 242
32.62865 263
32.64876 232
32.66888 262
32.68899 249
32.7091 234
32.72922 298
32.74933 242
32.76945 260
32.78956 262
32.80967 282
32.82979 277
32.8499 266
32.87001 279
32.89013 280
32.91024 267
32.93036 274
32.95047 273
32.97058 254
32.9907 296
33.01081 277
33.03092 249
33.05104 277
33.07115 275
33.09127 283
33.11138 313
33.13149 279
33.15161 299
33.17172 253
33.19183 295
33.21195 295
33.23206 286
33.25217 287
33.27229 282
33.2924 292
33.31252 271
33.33263 282
33.35274 291
33.37286 263
33.39297 286
33.41308 257
33.4332 265
33.45331 290
33.47343 277
33.49354 319
33.51365 249
33.53377 270
33.55388 270
33.57399 244
33.59411 264
33.61422 266
33.63434 287
33.65445 266
33.67456 273
33.69468 241
33.71479 264
33.7349 269
33.75502 236
33.77513 261
33.79524 254
33.81536 245
33.83547 292
33.85559 235
33.8757 240
33.89581 305
33.91593 259
33.93604 289
33.95615 227
33.97627 233
33.99638 247
34.0165 259
34.03661 248
34.05672 199
34.07684 280
34.09695 222
34.11706 264
34.13718 251
34.15729 237
34.17741 277
34.19752 228
34.21763 235
34.23775 248
34.25786 246
34.27797 232
34.29809 231
34.3182 247
34.33831 265
34.35843 274
34.37854 278
34.39866 246
34.41877 279
34.43888 251
34.459 286
34.47911 259
34.49922 285
34.51934 323
34.53945 320
34.55957 291
34.57968 324
34.59979 359
34.61991 350
34.64002 338
34.66013 336
34.68025 328
34.70036 387
34.72047 430
34.74059 405
34.7607 415
34.78082 454
34.80093 423
34.82104 440
34.84116 445
34.86127 468
34.88138 481
34.9015 495
34.92161 451
34.94173 496
34.96184 441
34.98195 468
35.00207 450
35.02218 428
35.04229 429
35.06241 442
35.08252 437
35.10264 424
35.12275 377
35.14286 408
35.16298 415
35.18309 415
35.2032 415
35.22332 353
35.24343 378
35.26354 383
35.28366 404
35.30377 368
35.32389 393
35.344 390
35.36411 375
35.38423 424
35.40434 415
35.42445 447
35.44457 441
35.46468 473
35.4848 411
35.50491 449
35.52502 446
35.54514 419
35.56525 406
35.58536 420
35.60548 452
35.62559 459
35.64571 431
35.66582 432
35.68593 457
35.70605 443
35.72616 452
35.74627 448
35.76639 481
35.7865 423
35.80661 418
35.82673 444
35.84684 462
35.86696 506
35.88707 457
35.90718 465
35.9273 418
35.94741 412
35.96752 368
35.98764 474
36.00775 406
36.02787 434
36.04798 440
36.06809 398
36.08821 453
36.10832 412
36.12843 421
36.14855 430
36.16866 439
36.18878 391
36.20889 401
36.229 423
36.24912 482
36.26923 483
36.28934 537
36.30946 596
36.32957 672
36.34968 671
36.3698 892
36.38991 1039
36.41003 1168
36.43014 1377
36.45025 1634
36.47037 1835
36.49048 1770
36.51059 1872
36.53071 1627
36.55082 1463
36.57094 1289
36.59105 1160
36.61116 973
36.63128 819
36.65139 652
36.6715 564
36.69162 477
36.71173 448
36.73184 414
36.75196 449
36.77207 400
36.79219 418
36.8123 414
36.83241 424
36.85253 460
36.87264 397
36.89275 425
36.91287 414
36.93298 421
36.9531 400
36.97321 386
36.99332 416
37.01344 406
37.03355 385
37.05366 369
37.07378 379
37.09389 372
37.11401 355
37.13412 390
37.15423 369
37.17435 355
37.19446 337
37.21457 361
37.23469 362
37.2548 360
37.27491 366
37.29503 377
37.31514 358
37.33526 347
37.35537 352
37.37548 379
37.3956 385
37.41571 357
37.43582 351
37.45594 349
37.47605 350
37.49617 363
37.51628 346
37.53639 366
37.55651 381
37.57662 418
37.59673 385
37.61685 396
37.63696 405
37.65708 381
37.67719 390
37.6973 394
37.71742 391
37.73753 409
37.75764 414
37.77776 400
37.79787 379
37.81798 422
37.8381 393
37.85821 386
37.87833 379
37.89844 383
37.91855 387
37.93867 351
37.95878 404
37.97889 383
37.99901 385
38.01912 357
38.03924 372
38.05935 382
38.07946 398
38.09958 364
38.11969 391
38.1398 378
38.15992 412
38.18003 456
38.20015 380
38.22026 415
38.24037 391
38.26049 433
38.2806 437
38.30071 426
38.32083 469
38.34094 456
38.36105 476
38.38117 433
38.40128 455
38.4214 475
38.44151 466
38.46162 482
38.48174 485
38.50185 410
38.52196 446
38.54208 467
38.56219 462
38.58231 399
38.60242 375
38.62253 410
38.64265 389
38.66276 413
38.68287 427
38.70299 400
38.7231 387
38.74321 387
38.76333 389
38.78344 377
38.80356 339
38.82367 372
38.84378 425
38.8639 360
38.88401 415
38.90412 371
38.92424 379
38.94435 380
38.96447 369
38.98458 398
39.00469 363
39.02481 388
39.04492 394
39.06503 387
39.08515 388
39.10526 397
39.12538 444
39.14549 460
39.1656 471
39.18572 435
39.20583 485
39.22594 535
39.24606 589
39.26617 668
39.28628 728
39.3064 918
39.32651 1040
39.34663 1223
39.36674 1461
39.38685 1622
39.40697 1629
39.42708 1651
39.44719 1481
39.46731 1339
39.48742 1191
39.50754 1078
39.52765 990
39.54776 815
39.56788 719
39.58799 534
39.6081 440
39.62822 371
39.64833 380
39.66845 358
39.68856 338
39.70867 326
39.72879 310
39.7489 326
39.76901 319
39.78913 316
39.80924 292
39.82935 308
39.84947 314
39.86958 296
39.8897 304
39.90981 304
39.92992 307
39.95004 340
39.97015 341
39.99026 325
40.01038 351
40.03049 345
40.05061 380
40.07072 382
40.09083 456
40.11095 507
40.13106 576
40.15117 679
40.17129 753
40.1914 805
40.21152 918
40.23163 906
40.25174 964
40.27186 892
40.29197 804
40.31208 735
40.3322 662
40.35231 578
40.37242 572
40.39254 439
40.41265 367
40.43277 356
40.45288 358
40.47299 304
40.49311 317
40.51322 301
40.53333 298
40.55345 305
40.57356 314
40.59368 302
40.61379 306
40.6339 285
40.65402 303
40.67413 303
40.69424 308
40.71436 295
40.73447 258
40.75458 307
40.7747 293
40.79481 290
40.81493 275
40.83504 275
40.85515 302
40.87527 280
40.89538 296
40.91549 274
40.93561 268
40.95572 291
40.97584 266
40.99595 312
41.01606 309
41.03618 278
41.05629 315
41.0764 314
41.09652 339
41.11663 301
41.13675 285
41.15686 305
41.17697 300
41.19709 279
41.2172 282
41.23731 276
41.25743 298
41.27754 290
41.29765 293
41.31777 281
41.33788 267
41.358 285
41.37811 282
41.39822 273
41.41834 281
41.43845 273
41.45856 279
41.47868 272
41.49879 275
41.51891 281
41.53902 273
41.55913 289
41.57925 259
41.59936 283
41.61947 300
41.63959 264
41.6597 283
41.67982 288
41.69993 278
41.72004 258
41.74016 295
41.76027 263
41.78038 276
41.8005 254
41.82061 233
41.84072 248
41.86084 274
41.88095 259
41.90107 286
41.92118 291
41.94129 255
41.96141 252
41.98152 279
42.00163 285
42.02175 283
42.04186 285
42.06198 301
42.08209 274
42.1022 326
42.12232 292
42.14243 323
42.16254 354
42.18266 391
42.20277 366
42.22289 427
42.243 508
42.26311 565
42.28323 589
42.30334 808
42.32345 883
42.34357 1017
42.36368 1086
42.38379 1156
42.40391 1196
42.42402 1118
42.44414 1050
42.46425 927
42.48436 855
42.50448 733
42.52459 651
42.5447 576
42.56482 462
42.58493 395
42.60505 303
42.62516 304
42.64527 267
42.66539 282
42.6855 275
42.70561 279
42.72573 263
42.74584 253
42.76595 264
42.78607 233
42.80618 276
42.8263 252
42.84641 278
42.86652 224
42.88664 235
42.90675 244
42.92686 236
42.94698 233
42.96709 219
42.98721 235
43.00732 234
43.02743 269
43.04755 211
43.06766 258
43.08777 232
43.10789 236
43.128 250
43.14812 231
43.16823 227
43.18834 242
43.20846 248
43.22857 220
43.24868 242
43.2688 239
43.28891 240
43.30902 219
43.32914 247
43.34925 240
43.36937 231
43.38948 213
43.40959 244
43.42971 224
43.44982 242
43.46993 247
43.49005 241
43.51016 224
43.53028 226
43.55039 240
43.5705 227
43.59062 211
43.61073 219
43.63084 245
43.65096 221
43.67107 252
43.69119 233
43.7113 246
43.73141 241
43.75153 247
43.77164 238
43.79175 252
43.81187 218
43.83198 227
43.85209 256
43.87221 245
43.89232 221
43.91244 215
43.93255 225
43.95266 264
43.97278 210
43.99289 222
44.013 241
44.03312 239
44.05323 242
44.07335 249
44.09346 219
44.11357 198
44.13369 241
44.1538 256
44.17391 240
44.19403 196
44.21414 213
44.23426 246
44.25437 231
44.27448 208
44.2946 219
44.31471 218
44.33482 250
44.35494 239
44.37505 218
44.39516 214
44.41528 251
44.43539 236
44.45551 250
44.47562 240
44.49573 256
44.51585 225
44.53596 237
44.55607 232
44.57619 229
44.5963 229
44.61642 227
44.63653 227
44.65664 213
44.67676 226
44.69687 226
44.71698 249
44.7371 235
44.75721 234
44.77732 254
44.79744 236
44.81755 227
44.83767 232
44.85778 261
44.87789 269
44.89801 225
44.91812 239
44.93823 243
44.95835 252
44.97846 268
44.99858 255
45.01869 264
45.0388 256
45.05892 251
45.07903 245
45.09914 272
45.11926 277
45.13937 250
45.15949 261
45.1796 293
45.19971 272
45.21983 249
45.23994 274
45.26005 245
45.28017 291
45.30028 284
45.32039 318
45.34051 294
45.36062 260
45.38074 320
45.40085 310
45.42096 304
45.44108 339
45.46119 351
45.4813 323
45.50142 355
45.52153 337
45.54165 393
45.56176 393
45.58187 433
45.60199 457
45.6221 534
45.64221 579
45.66233 641
45.68244 736
45.70256 827
45.72267 896
45.74278 952
45.7629 844
45.78301 793
45.80312 690
45.82324 612
45.84335 625
45.86346 569
45.88358 497
45.90369 465
45.92381 428
45.94392 377
45.96403 335
45.98415 304
46.00426 283
46.02437 261
46.04449 287
46.0646 276
46.08472 257
46.10483 285
46.12494 273
46.14506 266
46.16517 288
46.18528 235
46.2054 256
46.22551 253
46.24563 247
46.26574 240
46.28585 273
46.30597 274
46.32608 272
46.34619 257
46.36631 251
46.38642 269
46.40653 254
46.42665 300
46.44676 247
46.46688 266
46.48699 271
46.5071 284
46.52722 275
46.54733 256
46.56744 259
46.58756 282
46.60767 274
46.62779 257
46.6479 254
46.66801 266
46.68813 233
46.70824 262
46.72835 251
46.74847 273
46.76858 261
46.78869 277
46.80881 253
46.82892 252
46.84904 264
46.86915 274
46.88926 244
46.90938 247
46.92949 236
46.9496 249
46.96972 261
46.98983 258
47.00995 228
47.03006 245
47.05017 255
47.07029 233
47.0904 240
47.11051 229
47.13063 259
47.15074 251
47.17086 243
47.19097 268
47.21108 244
47.2312 232
47.25131 230
47.27142 230
47.29154 245
47.31165 246
47.33176 239
47.35188 252
47.37199 244
47.39211 249
47.41222 243
47.43233 245
47.45245 263
47.47256 263
47.49267 259
47.51279 265
47.5329 237
47.55302 262
47.57313 258
47.59324 234
47.61336 287
47.63347 237
47.65358 223
47.6737 256
47.69381 228
47.71393 238
47.73404 239
47.75415 242
47.77427 235
47.79438 251
47.81449 296
47.83461 268
47.85472 276
47.87483 265
47.89495 295
47.91506 231
47.93518 290
47.95529 273
47.9754 265
47.99552 253
48.01563 243
48.03574 268
48.05586 289
48.07597 253
48.09609 284
48.1162 283
48.13631 254
48.15643 242
48.17654 230
48.19665 227
48.21677 254
48.23688 251
48.257 228
48.27711 235
48.29722 258
48.31734 235
48.33745 256
48.35756 255
48.37768 247
48.39779 230
48.4179 246
48.43802 216
48.45813 274
48.47825 209
48.49836 251
48.51847 204
48.53859 280
48.5587 227
48.57881 246
48.59893 247
48.61904 242
48.63916 228
48.65927 238
48.67938 244
48.6995 222
48.71961 256
48.73972 251
48.75984 234
48.77995 259
48.80006 251
48.82018 272
48.84029 233
48.86041 245
48.88052 270
48.90063 268
48.92075 249
48.94086 252
48.96097 251
48.98109 228
49.0012 274
49.02132 245
49.04143 237
49.06154 216
49.08166 202
49.10177 246
49.12188 262
49.142 231
49.16211 260
49.18223 270
49.20234 254
49.22245 240
49.24257 253
49.26268 255
49.28279 245
49.30291 248
49.32302 280
49.34313 290
49.36325 240
49.38336 280
49.40348 305
49.42359 283
49.4437 245
49.46382 260
49.48393 251
49.50404 270
49.52416 255
49.54427 269
49.56439 289
49.5845 273
49.60461 314
49.62473 292
49.64484 291
49.66495 294
49.68507 344
49.70518 319
49.7253 319
49.74541 333
49.76552 349
49.78564 399
49.80575 400
49.82586 444
49.84598 478
49.86609 562
49.8862 652
49.90632 735
49.92643 880
49.94655 1047
49.96666 1211
49.98677 1457
50.00689 1894
50.027 2159
50.04711 2418
50.06723 2522
50.08734 2492
50.10746 2350
50.12757 2071
50.14768 1826
50.1678 1608
50.18791 1455
50.20802 1430
50.22814 1232
50.24825 1094
50.26837 850
50.28848 716
50.30859 482
50.32871 455
50.34882 367
50.36893 320
50.38905 363
50.40916 298
50.42927 291
50.44939 309
50.4695 306
50.48962 324
50.50973 297
50.52984 291
50.54996 306
50.57007 308
50.59018 300
50.6103 265
50.63041 294
50.65053 295
50.67064 289
50.69075 268
50.71087 244
50.73098 246
50.75109 245
50.77121 271
50.79132 242
50.81143 245
50.83155 268
50.85166 254
50.87178 242
50.89189 242
50.912 255
50.93212 253
50.95223 251
50.97234 257
50.99246 269
51.01257 265
51.03269 257
51.0528 252
51.07291 245
51.09303 234
51.11314 230
51.13325 220
51.15337 251
51.17348 268
51.1936 229
51.21371 227
51.23382 220
51.25394 228
51.27405 214
51.29416 245
51.31428 211
51.33439 200
51.3545 218
51.37462 228
51.39473 196
51.41485 210
51.43496 213
51.45507 235
51.47519 223
51.4953 217
51.51541 213
51.53553 210
51.55564 234
51.57576 224
51.59587 212
51.61598 214
51.6361 211
51.65621 248
51.67632 210
51.69644 233
51.71655 238
51.73667 214
51.75678 206
51.77689 210
51.79701 223
51.81712 229
51.83723 205
51.85735 193
51.87746 206
51.89757 206
51.91769 190
51.9378 221
51.95792 243
51.97803 209
51.99814 209
52.01826 213
52.03837 253
52.05848 236
52.0786 216
52.09871 217
52.11883 198
52.13894 179
52.15905 212
52.17917 219
52.19928 224
52.21939 206
52.23951 213
52.25962 213
52.27974 225
52.29985 211
52.31996 217
52.34008 214
52.36019 205
52.3803 224
52.40042 213
52.42053 197
52.44064 232
52.46076 206
52.48087 206
52.50099 251
52.5211 229
52.54121 214
52.56133 225
52.58144 245
52.60155 227
52.62167 211
52.64178 232
52.6619 212
52.68201 225
52.70212 250
52.72224 223
52.74235 248
52.76246 229
52.78258 205
52.80269 209
52.8228 214
52.84292 206
52.86303 245
52.88315 248
52.90326 226
52.92337 213
52.94349 229
52.9636 239
52.98371 263
53.00383 236
53.02394 243
53.04406 246
53.06417 245
53.08428 234
53.1044 253
53.12451 234
53.14462 250
53.16474 238
53.18485 253
53.20497 252
53.22508 242
53.24519 252
53.26531 280
53.28542 233
53.30553 264
53.32565 241
53.34576 274
53.36587 239
53.38599 276
53.4061 246
53.42622 262
53.44633 278
53.46644 245
53.48656 269
53.50667 297
53.52678 271
53.5469 256
53.56701 272
53.58713 269
53.60724 266
53.62735 287
53.64747 292
53.66758 266
53.68769 296
53.70781 300
53.72792 313
53.74804 298
53.76815 294
53.78826 274
53.80838 290
53.82849 292
53.8486 261
53.86872 289
53.88883 323
53.90894 284
53.92906 302
53.94917 293
53.96929 296
53.9894 300
54.00951 284
54.02963 275
54.04974 303
54.06985 318
54.08997 303
54.11008 291
54.1302 294
54.15031 316
54.17042 313
54.19054 276
54.21065 351
54.23076 349
54.25088 344
54.27099 352
54.29111 322
54.31122 328
54.33133 303
54.35145 336
54.37156 323
54.39167 349
54.41179 312
54.4319 356
54.45201 334
54.47213 351
54.49224 342
54.51236 358
54.53247 376
54.55258 343
54.5727 345
54.59281 410
54.61292 438
54.63304 448
54.65315 507
54.67327 537
54.69338 574
54.71349 675
54.73361 747
54.75372 817
54.77383 911
54.79395 933
54.81406 948
54.83417 897
54.85429 830
54.8744 749
54.89452 782
54.91463 706
54.93474 677
54.95486 619
54.97497 585
54.99508 590
55.0152 554
55.03531 458
55.05543 482
55.07554 396
55.09565 400
55.11577 434
55.13588 458
55.15599 510
55.17611 514
55.19622 564
55.21634 593
55.23645 579
55.25656 617
55.27668 608
55.29679 569
55.3169 557
55.33702 452
55.35713 491
55.37724 455
55.39736 417
55.41747 473
55.43759 443
55.4577 384
55.47781 368
55.49793 311
55.51804 334
55.53815 342
55.55827 310
55.57838 298
55.5985 316
55.61861 302
55.63872 264
55.65884 300
55.67895 303
55.69906 271
55.71918 294
55.73929 286
55.75941 299
55.77952 271
55.79963 253
55.81975 251
55.83986 288
55.85997 278
55.88009 267
55.9002 274
55.92031 247
55.94043 278
55.96054 245
55.98066 278
56.00077 264
56.02088 270
56.041 273
56.06111 265
56.08122 245
56.10134 275
56.12145 274
56.14157 299
56.16168 264
56.18179 256
56.20191 279
56.22202 266
56.24213 259
56.26225 274
56.28236 282
56.30248 262
56.32259 257
56.3427 250
56.36282 270
56.38293 281
56.40304 247
56.42316 254
56.44327 242
56.46338 267
56.4835 232
56.50361 272
56.52373 274
56.54384 270
56.56395 261
56.58407 265
56.60418 255
56.62429 268
56.64441 279
56.66452 249
56.68464 291
56.70475 257
56.72486 261
56.74498 266
56.76509 255
56.7852 253
56.80532 258
56.82543 276
56.84554 263
56.86566 238
56.88577 256
56.90589 244
56.926 235
56.94611 267
56.96623 254
56.98634 268
57.00645 226
57.02657 243
57.04668 255
57.0668 293
57.08691 286
57.10702 267
57.12714 229
57.14725 281
57.16736 276
57.18748 284
57.20759 299
57.22771 251
57.24782 267
57.26793 253
57.28805 263
57.30816 261
57.32827 255
57.34839 248
57.3685 241
57.38861 237
57.40873 232
57.42884 255
57.44896 232
57.46907 215
57.48918 235
57.5093 239
57.52941 253
57.54952 228
57.56964 239
57.58975 245
57.60987 223
57.62998 235
57.65009 219
57.67021 247
57.69032 263
57.71043 228
57.73055 220
57.75066 262
57.77078 252
57.79089 240
57.811 260
57.83112 229
57.85123 227
57.87134 249
57.89146 258
57.91157 249
57.93168 246
57.9518 232
57.97191 232
57.99203 243
58.01214 233
58.03225 231
58.05237 229
58.07248 248
58.09259 232
58.11271 255
58.13282 230
58.15294 227
58.17305 248
58.19316 218
58.21328 225
58.23339 237
58.2535 219
58.27362 246
58.29373 230
58.31385 245
58.33396 203
58.35407 256
58.37419 227
58.3943 226
58.41441 206
58.43453 218
58.45464 230
58.47475 213
58.49487 229
58.51498 225
58.5351 218
58.55521 220
58.57532 240
58.59544 253
58.61555 257
58.63566 241
58.65578 243
58.67589 258
58.69601 233
58.71612 216
58.73623 221
58.75635 230
58.77646 211
58.79657 239
58.81669 237
58.8368 204
58.85691 237
58.87703 240
58.89714 229
58.91726 252
58.93737 233
58.95748 236
58.9776 243
58.99771 244
59.01782 250
59.03794 219
59.05805 260
59.07817 241
59.09828 241
59.11839 237
59.13851 268
59.15862 240
59.17873 251
59.19885 259
59.21896 267
59.23908 239
59.25919 250
59.2793 247
59.29942 242
59.31953 245
59.33964 277
59.35976 263
59.37987 240
59.39998 275
59.4201 242
59.44021 313
59.46033 274
59.48044 276
59.50055 310
59.52067 339
59.54078 343
59.56089 333
59.58101 376
59.60112 340
59.62124 367
59.64135 443
59.66146 404
59.68158 480
59.70169 614
59.7218 626
59.74192 733
59.76203 816
59.78215 1005
59.80226 1111
59.82237 1289
59.84249 1428
59.8626 1637
59.88271 1739
59.90283 1646
59.92294 1524
59.94305 1378
59.96317 1180
59.98328 1077
60.0034 975
60.02351 969
60.04362 957
60.06374 931
60.08385 831
60.10396 691
60.12408 613
60.14419 484
60.16431 387
60.18442 351
60.20453 313
60.22465 319
60.24476 300
60.26487 268
60.28499 289
60.3051 279
60.32522 267
60.34533 247
60.36544 269
60.38556 236
60.40567 247
60.42578 256
60.4459 262
60.46601 247
60.48612 231
60.50624 243
60.52635 226
60.54647 243
60.56658 227
60.58669 258
60.60681 254
60.62692 233
60.64703 235
60.66715 239
60.68726 250
60.70738 247
60.72749 252
60.7476 249
60.76772 225
60.78783 220
60.80794 231
60.82806 237
60.84817 231
60.86828 229
60.8884 219
60.90851 235
60.92863 226
60.94874 221
60.96885 229
60.98897 226
61.00908 233
61.02919 240
61.04931 224
61.06942 264
61.08954 225
61.10965 248
61.12976 210
61.14988 224
61.16999 221
61.1901 248
61.21022 260
61.23033 252
61.25045 217
61.27056 235
61.29067 249
61.31079 234
61.3309 252
61.35101 229
61.37113 250
61.39124 236
61.41135 234
61.43147 245
61.45158 252
61.4717 265
61.49181 226
61.51192 227
61.53204 230
61.55215 258
61.57226 247
61.59238 237
61.61249 228
61.63261 269
61.65272 267
61.67283 256
61.69295 303
61.71306 270
61.73317 257
61.75329 289
61.7734 273
61.79352 289
61.81363 276
61.83374 297
61.85386 302
61.87397 328
61.89408 312
61.9142 329
61.93431 347
61.95442 341
61.97454 341
61.99465 387
62.01477 345
62.03488 354
62.05499 396
62.07511 397
62.09522 407
62.11533 376
62.13545 444
62.15556 424
62.17568 448
62.19579 444
62.2159 473
62.23602 438
62.25613 431
62.27624 429
62.29636 394
62.31647 380
62.33659 397
62.3567 371
62.37681 377
62.39693 353
62.41704 333
62.43715 354
62.45727 343
62.47738 319
62.49749 297
62.51761 330
62.53772 294
62.55784 313
62.57795 300
62.59806 284
62.61818 290
62.63829 283
62.6584 269
62.67852 266
62.69863 270
62.71875 269
62.73886 254
62.75897 290
62.77909 268
62.7992 273
62.81931 235
62.83943 255
62.85954 245
62.87965 261
62.89977 263
62.91988 224
62.94 273
62.96011 250
62.98022 261
63.00034 243
63.02045 226
63.04056 251
63.06068 253
63.08079 234
63.10091 266
63.12102 238
63.14113 236
63.16125 231
63.18136 255
63.20147 223
63.22159 252
63.2417 278
63.26182 236
63.28193 245
63.30204 263
63.32216 265
63.34227 264
63.36238 224
63.3825 212
63.40261 241
63.42272 289
63.44284 272
63.46295 249
63.48307 252
63.50318 281
63.52329 276
63.54341 251
63.56352 295
63.58363 266
63.60375 273
63.62386 268
63.64398 291
63.66409 273
63.6842 270
63.70432 248
63.72443 303
63.74454 286
63.76466 319
63.78477 324
63.80489 360
63.825 354
63.84511 373
63.86523 374
63.88534 428
63.90545 416
63.92557 450
63.94568 478
63.96579 516
63.98591 478
64.00602 454
64.02614 464
64.04625 405
64.06636 371
64.08648 381
64.10659 374
64.1267 375
64.14682 365
64.16693 351
64.18705 352
64.20716 309
64.22727 284
64.24739 287
64.2675 248
64.28761 255
64.30773 234
64.32784 273
64.34796 256
64.36807 243
64.38818 243
64.4083 229
64.42841 236
64.44852 225
64.46864 245
64.48875 218
64.50886 234
64.52898 253
64.54909 246
64.56921 234
64.58932 221
64.60943 216
64.62955 208
64.64966 241
64.66977 217
64.68989 214
64.71 219
64.73012 247
64.75023 223
64.77034 228
64.79046 229
64.81057 210
64.83068 243
64.8508 246
64.87091 226
64.89102 217
64.91114 241
64.93125 194
64.95137 211
64.97148 205
64.99159 233
65.01171 229
65.03182 225
65.05193 196
65.07205 220
65.09216 203
65.11228 245
65.13239 217
65.1525 225
65.17262 208
65.19273 251
65.21284 219
65.23296 201
65.25307 192
65.27319 201
65.2933 212
65.31341 212
65.33353 198
65.35364 228
65.37375 224
65.39387 225
65.41398 216
65.43409 237
65.45421 223
65.47432 234
65.49444 227
65.51455 222
65.53466 207
65.55478 256
65.57489 248
65.595 230
65.61512 256
65.63523 258
65.65535 271
65.67546 283
65.69557 272
65.71569 308
65.7358 271
65.75591 269
65.77603 266
65.79614 275
65.81626 239
65.83637 242
65.85648 232
65.8766 252
65.89671 251
65.91682 248
65.93694 237
65.95705 259
65.97716 226
65.99728 219
66.01739 222
66.03751 261
66.05762 205
66.07773 237
66.09785 231
66.11796 237
66.13807 248
66.15819 195
66.1783 235
66.19842 219
66.21853 246
66.23864 211
66.25876 223
66.27887 201
66.29898 219
66.3191 216
66.33921 201
66.35933 214
66.37944 232
66.39955 199
66.41967 233
66.43978 199
66.45989 227
66.48001 199
66.50012 220
66.52023 229
66.54035 235
66.56046 215
66.58058 223
66.60069 224
66.6208 211
66.64092 218
66.66103 239
66.68114 206
66.70126 207
66.72137 217
66.74149 221
66.7616 216
66.78171 202
66.80183 254
66.82194 213
66.84205 228
66.86217 207
66.88228 240
66.90239 255
66.92251 213
66.94262 241
66.96274 232
66.98285 212
67.00296 216
67.02308 229
67.04319 215
67.0633 235
67.08342 234
67.10353 241
67.12365 244
67.14376 247
67.16387 260
67.18399 269
67.2041 254
67.22421 262
67.24433 289
67.26444 277
67.28456 264
67.30467 311
67.32478 265
67.3449 341
67.36501 288
67.38512 347
67.40524 304
67.42535 339
67.44546 398
67.46558 424
67.48569 417
67.50581 476
67.52592 563
67.54603 626
67.56615 702
67.58626 750
67.60637 868
67.62649 973
67.6466 1060
67.66672 1095
67.68683 1031
67.70694 1080
67.72706 901
67.74717 807
67.76728 754
67.7874 741
67.80751 722
67.82763 822
67.84774 837
67.86785 900
67.88797 865
67.90808 870
67.92819 834
67.94831 887
67.96842 923
67.98853 1060
68.00865 1146
68.02876 1271
68.04888 1381
68.06899 1452
68.0891 1543
68.10922 1428
68.12933 1286
68.14944 1213
68.16956 1216
68.18967 1265
68.20979 1346
68.2299 1336
68.25001 1400
68.27013 1235
68.29024 1175
68.31035 1057
68.33047 878
68.35058 731
68.3707 711
68.39081 655
68.41092 580
68.43104 554
68.45115 544
68.47126 480
68.49138 452
68.51149 412
68.5316 349
68.55172 313
68.57183 305
68.59195 289
68.61206 291
68.63217 307
68.65229 293
68.6724 284
68.69251 257
68.71263 270
68.73274 244
68.75286 253
68.77297 251
68.79308 228
68.8132 238
68.83331 277
68.85342 231
68.87354 238
68.89365 237
68.91376 255
68.93388 241
68.95399 255
68.97411 245
68.99422 238
69.01433 237
69.03445 229
69.05456 209
69.07467 236
69.09479 227
69.1149 203
69.13502 213
69.15513 260
69.17524 208
69.19536 206
69.21547 224
69.23558 202
69.2557 225
69.27581 222
69.29593 222
69.31604 209
69.33615 198
69.35627 226
69.37638 213
69.39649 219
69.41661 239
69.43672 236
69.45683 212
69.47695 226
69.49706 217
69.51718 211
69.53729 203
69.5574 254
69.57752 226
69.59763 236
69.61774 207
69.63786 216
69.65797 217
69.67809 234
69.6982 245
69.71831 227
69.73843 235
69.75854 215
69.77865 245
69.79877 231
69.81888 240
69.839 201
69.85911 212
69.87922 221
69.89934 226
69.91945 206
69.93956 225
69.95968 246
69.97979 232
69.9999 191
70.02002 235
70.04013 224
70.06025 200
70.08036 233
70.10047 215
70.12059 225
70.1407 244
70.16081 213
70.18093 208
70.20104 224
70.22116 208
70.24127 216
70.26138 240
70.2815 210
70.30161 204
70.32172 237
70.34184 204
70.36195 203
70.38207 220
70.40218 224
70.42229 205
70.44241 213
70.46252 212
70.48263 196
70.50275 238
70.52286 241
70.54297 192
70.56309 186
70.5832 223
70.60332 204
70.62343 207
70.64354 231
70.66366 204
70.68377 223
70.70388 226
70.724 219
70.74411 209
70.76423 213
70.78434 217
70.80445 211
70.82457 215
70.84468 239
70.86479 219
70.88491 216
70.90502 238
70.92513 222
70.94525 203
70.96536 222
70.98548 200
71.00559 195
71.0257 200
71.04582 202
71.06593 190
71.08604 205
71.10616 203
71.12627 199
71.14639 230
71.1665 216
71.18661 213
71.20673 197
71.22684 177
71.24695 225
71.26707 195
71.28718 216
71.3073 250
71.32741 217
71.34752 209
71.36764 229
71.38775 218
71.40786 210
71.42798 226
71.44809 217
71.4682 216
71.48832 200
71.50843 212
71.52855 213
71.54866 231
71.56877 209
71.58889 220
71.609 200
71.62911 197
71.64923 219
71.66934 232
71.68946 215
71.70957 205
71.72968 198
71.7498 212
71.76991 229
71.79002 220
71.81014 227
71.83025 215
71.85037 212
71.87048 219
71.89059 199
71.91071 242
71.93082 223
71.95093 235
71.97105 200
71.99116 219
72.01127 198
72.03139 236
72.0515 235
72.07162 220
72.09173 233
72.11184 205
72.13196 233
72.15207 225
72.17218 251
72.1923 206
72.21241 192
72.23253 201
72.25264 219
72.27275 209
72.29287 219
72.31298 232
72.33309 216
72.35321 209
72.37332 236
72.39344 199
72.41355 223
72.43366 222
72.45378 214
72.47389 223
72.494 215
72.51412 209
72.53423 209
72.55434 209
72.57446 213
72.59457 229
72.61469 223
72.6348 200
72.65491 194
72.67503 216
72.69514 222
72.71525 201
72.73537 220
72.75548 229
72.7756 218
72.79571 203
72.81582 223
72.83594 194
72.85605 232
72.87616 220
72.89628 231
72.91639 239
72.9365 197
72.95662 236
72.97673 212
72.99685 234
73.01696 241
73.03707 258
73.05719 251
73.0773 237
73.09741 228
73.11753 244
73.13764 235
73.15776 302
73.17787 261
73.19798 312
73.2181 333
73.23821 318
73.25832 353
73.27844 412
73.29855 388
73.31867 434
73.33878 485
73.35889 530
73.37901 512
73.39912 558
73.41923 545
73.43935 500
73.45946 414
73.47957 388
73.49969 353
73.5198 364
73.53992 378
73.56003 392
73.58014 382
73.60026 423
73.62037 380
73.64048 348
73.6606 345
73.68071 339
73.70083 286
73.72094 267
73.74105 271
73.76117 262
73.78128 272
73.80139 258
73.82151 259
73.84162 233
73.86174 254
73.88185 236
73.90196 227
73.92208 227
73.94219 234
73.9623 214
73.98242 246
74.00253 244
74.02264 247
74.04276 228
74.06287 241
74.08299 224
74.1031 199
74.12321 220
74.14333 224
74.16344 217
74.18355 219
74.20367 225
74.22378 232
74.2439 220
74.26401 217
74.28412 215
74.30424 233
74.32435 218
74.34446 236
74.36458 238
74.38469 212
74.40481 210
74.42492 216
74.44503 230
74.46515 204
74.48526 238
74.50537 211
74.52549 236
74.5456 244
74.56571 213
74.58583 215
74.60594 230
74.62606 214
74.64617 221
74.66628 211
74.6864 233
74.70651 210
74.72662 215
74.74674 245
74.76685 224
74.78697 239
74.80708 223
74.82719 249
74.84731 229
74.86742 233
74.88753 236
74.90765 243
74.92776 235
74.94787 225
74.96799 223
74.9881 230
75.00822 215
