3.00117 21175
3.02128 20301
3.0414 19899
3.06151 19198
3.08162 18672
3.10174 18450
3.12185 17861
3.14197 17273
3.16208 16987
3.18219 16054
3.20231 15873
3.22242 15447
3.24253 14780
3.26265 14518
3.28276 14022
3.30288 13743
3.32299 13320
3.3431 12648
3.36322 12394
3.38333 11822
3.40344 11800
3.42356 11316
3.44367 11022
3.46379 10541
3.4839 10133
3.50401 9880
3.52413 9623
3.54424 9160
3.56435 8978
3.58447 8540
3.60458 8497
3.62469 7968
3.64481 7620
3.66492 7389
3.68504 6985
3.70515 7047
3.72526 6592
3.74538 6319
3.76549 6163
3.7856 5724
3.80572 5756
3.82583 5465
3.84595 5175
3.86606 4973
3.88617 4623
3.90629 4572
3.9264 4486
3.94651 4234
3.96663 4180
3.98674 3903
4.00686 3778
4.02697 3666
4.04708 3415
4.0672 3301
4.08731 3022
4.10742 3149
4.12754 3084
4.14765 2728
4.16776 2792
4.18788 2637
4.20799 2656
4.22811 2619
4.24822 2362
4.26833 2448
4.28845 2171
4.30856 2181
4.32867 2224
4.34879 1980
4.3689 2043
4.38902 1931
4.40913 1917
4.42924 1979
4.44936 1811
4.46947 1820
4.48958 1761
4.5097 1691
4.52981 1694
4.54992 1679
4.57004 1518
4.59015 1657
4.61027 1591
4.63038 1611
4.65049 1436
4.67061 1417
4.69072 1362
4.71083 1393
4.73095 1442
4.75106 1415
4.77118 1388
4.79129 1313
4.8114 1229
4.83152 1289
4.85163 1145
4.87174 1224
4.89186 1222
4.91197 1229
4.93209 1168
4.9522 1128
4.97231 1093
4.99243 1065
5.01254 1075
5.03265 1078
5.05277 921
5.07288 984
5.09299 1042
5.11311 1038
5.13322 1002
5.15334 989
5.17345 979
5.19356 953
5.21368 938
5.23379 960
5.2539 852
5.27402 896
5.29413 840
5.31425 811
5.33436 901
5.35447 826
5.37459 812
5.3947 856
5.41481 829
5.43493 762
5.45504 865
5.47516 753
5.49527 786
5.51538 760
5.5355 698
5.55561 752
5.57572 748
5.59584 757
5.61595 740
5.63606 733
5.65618 743
5.67629 710
5.69641 740
5.71652 739
5.73663 714
5.75675 639
5.77686 634
5.79697 678
5.81709 640
5.8372 680
5.85732 648
5.87743 671
5.89754 623
5.91766 719
5.93777 644
5.95788 682
5.978 634
5.99811 655
6.01823 684
6.03834 601
6.05845 591
6.07857 638
6.09868 650
6.11879 631
6.13891 627
6.15902 631
6.17913 648
6.19925 646
6.21936 648
6.23948 609
6.25959 589
6.2797 607
6.29982 631
6.31993 662
6.34004 628
6.36016 617
6.38027 631
6.40039 619
6.4205 583
6.44061 542
6.46073 611
6.48084 566
6.50095 628
6.52107 593
6.54118 624
6.56129 557
6.58141 612
6.60152 637
6.62164 619
6.64175 637
6.66186 576
6.68198 579
6.70209 601
6.7222 644
6.74232 591
6.76243 581
6.78255 594
6.80266 620
6.82277 580
6.84289 583
6.863 625
6.88311 620
6.90323 603
6.92334 604
6.94346 591
6.96357 597
6.98368 573
7.0038 610
7.02391 606
7.04402 612
7.06414 582
7.08425 639
7.10436 613
7.12448 586
7.14459 594
7.16471 591
7.18482 581
7.20493 547
7.22505 584
7.24516 557
7.26527 583
7.28539 543
7.3055 573
7.32562 599
7.34573 553
7.36584 608
7.38596 591
7.40607 570
7.42618 573
7.4463 601
7.46641 565
7.48653 606
7.50664 594
7.52675 624
7.54687 573
7.56698 571
7.58709 578
7.60721 555
7.62732 584
7.64743 590
7.66755 606
7.68766 574
7.70778 583
7.72789 596
7.748 545
7.76812 601
7.78823 588
7.80834 587
7.82846 550
7.84857 543
7.86869 547
7.8888 598
7.90891 602
7.92903 575
7.94914 573
7.96925 613
7.98937 617
8.00948 611
8.0296 550
8.04971 529
8.06982 622
8.08994 577
8.11005 599
8.13016 563
8.15028 593
8.17039 575
8.1905 587
8.21062 584
8.23073 565
8.25085 613
8.27096 549
8.29107 603
8.31119 552
8.3313 596
8.35141 584
8.37153 541
8.39164 533
8.41176 619
8.43187 575
8.45198 574
8.4721 579
8.49221 564
8.51232 625
8.53244 583
8.55255 556
8.57266 568
8.59278 613
8.61289 581
8.63301 639
8.65312 602
8.67323 583
8.69335 574
8.71346 628
8.73357 564
8.75369 575
8.7738 572
8.79392 613
8.81403 610
8.83414 592
8.85426 580
8.87437 607
8.89448 517
8.9146 611
8.93471 575
8.95483 579
8.97494 574
8.99505 584
9.01517 532
9.03528 562
9.05539 597
9.07551 545
9.09562 515
9.11573 569
9.13585 572
9.15596 564
9.17608 564
9.19619 544
9.2163 581
9.23642 527
9.25653 569
9.27664 604
9.29676 573
9.31687 588
9.33699 568
9.3571 602
9.37721 534
9.39733 591
9.41744 619
9.43755 568
9.45767 583
9.47778 652
9.4979 617
9.51801 574
9.53812 576
9.55824 559
9.57835 576
9.59846 538
9.61858 590
9.63869 602
9.6588 521
9.67892 566
9.69903 590
9.71915 531
9.73926 553
9.75937 587
9.77949 550
9.7996 572
9.81971 576
9.83983 507
9.85994 547
9.88006 573
9.90017 572
9.92028 532
9.9404 566
9.96051 585
9.98062 510
10.00074 585
10.02085 548
10.04097 556
10.06108 548
10.08119 545
10.10131 522
10.12142 598
10.14153 546
10.16165 565
10.18176 591
10.20187 567
10.22199 566
10.2421 561
10.26222 532
10.28233 567
10.30244 597
10.32256 538
10.34267 597
10.36278 541
10.3829 564
10.40301 600
10.42313 604
10.44324 609
10.46335 590
10.48347 572
10.50358 549
10.52369 537
10.54381 542
10.56392 564
10.58403 564
10.60415 555
10.62426 562
10.64438 554
10.66449 583
10.6846 534
10.70472 567
10.72483 538
10.74494 533
10.76506 569
10.78517 560
10.80529 557
10.8254 576
10.84551 612
10.86563 612
10.88574 578
10.90585 557
10.92597 599
10.94608 540
10.9662 606
10.98631 562
11.00642 587
11.02654 559
11.04665 569
11.06676 566
11.08688 565
11.10699 576
11.1271 598
11.14722 587
11.16733 593
11.18745 554
11.20756 535
11.22767 597
11.24779 647
11.2679 594
11.28801 592
11.30813 597
11.32824 571
11.34836 605
11.36847 578
11.38858 628
11.4087 592
11.42881 563
11.44892 585
11.46904 560
11.48915 649
11.50927 668
11.52938 600
11.54949 623
11.56961 633
11.58972 642
11.60983 639
11.62995 590
11.65006 615
11.67017 619
11.69029 610
11.7104 615
11.73052 664
11.75063 660
11.77074 636
11.79086 663
11.81097 664
11.83108 584
11.8512 662
11.87131 710
11.89143 679
11.91154 667
11.93165 744
11.95177 693
11.97188 760
11.99199 772
12.01211 760
12.03222 684
12.05234 762
12.07245 799
12.09256 836
12.11268 801
12.13279 859
12.1529 881
12.17302 879
12.19313 866
12.21324 910
12.23336 925
12.25347 855
12.27359 904
12.2937 900
12.31381 917
12.33393 940
12.35404 871
12.37415 840
12.39427 778
12.41438 778
12.4345 736
12.45461 740
12.47472 798
12.49484 687
12.51495 685
12.53506 677
12.55518 651
12.57529 640
12.5954 704
12.61552 591
12.63563 679
12.65575 652
12.67586 613
12.69597 592
12.71609 628
12.7362 619
12.75631 561
12.77643 594
12.79654 594
12.81666 545
12.83677 577
12.85688 573
12.877 587
12.89711 587
12.91722 586
12.93734 597
12.95745 567
12.97757 569
12.99768 558
13.01779 552
13.03791 591
13.05802 541
13.07813 571
13.09825 589
13.11836 529
13.13847 541
13.15859 565
13.1787 552
13.19882 551
13.21893 537
13.23904 521
13.25916 545
13.27927 566
13.29938 529
13.3195 594
13.33961 567
13.35973 539
13.37984 572
13.39995 540
13.42007 554
13.44018 561
13.46029 532
13.48041 534
13.50052 599
13.52064 501
13.54075 535
13.56086 541
13.58098 542
13.60109 560
13.6212 570
13.64132 531
13.66143 583
13.68154 523
13.70166 566
13.72177 549
13.74189 552
13.762 522
13.78211 539
13.80223 505
13.82234 520
13.84245 545
13.86257 544
13.88268 560
13.9028 560
13.92291 573
13.94302 534
13.96314 563
13.98325 537
14.00336 544
14.02348 563
14.04359 531
14.06371 547
14.08382 578
14.10393 563
14.12405 537
14.14416 587
14.16427 522
14.18439 557
14.2045 563
14.22461 527
14.24473 542
14.26484 579
14.28496 549
14.30507 559
14.32518 561
14.3453 522
14.36541 570
14.38552 528
14.40564 525
14.42575 482
14.44587 585
14.46598 533
14.48609 539
14.50621 509
14.52632 551
14.54643 563
14.56655 512
14.58666 534
14.60677 524
14.62689 548
14.647 526
14.66712 556
14.68723 524
14.70734 535
14.72746 528
14.74757 510
14.76768 536
14.7878 519
14.80791 523
14.82803 552
14.84814 518
14.86825 524
14.88837 537
14.90848 528
14.92859 552
14.94871 536
14.96882 552
14.98894 570
15.00905 531
15.02916 525
15.04928 565
15.06939 505
15.0895 558
15.10962 502
15.12973 538
15.14984 553
15.16996 555
15.19007 514
15.21019 497
15.2303 549
15.25041 514
15.27053 562
15.29064 514
15.31075 542
15.33087 588
15.35098 554
15.3711 497
15.39121 602
15.41132 554
15.43144 557
15.45155 514
15.47166 554
15.49178 533
15.51189 527
15.53201 521
15.55212 545
15.57223 533
15.59235 520
15.61246 522
15.63257 528
15.65269 563
15.6728 503
15.69291 539
15.71303 530
15.73314 596
15.75326 502
15.77337 529
15.79348 521
15.8136 554
15.83371 591
15.85382 534
15.87394 482
15.89405 534
15.91417 563
15.93428 520
15.95439 539
15.97451 530
15.99462 528
16.01473 516
16.03485 502
16.05496 511
16.07508 511
16.09519 538
16.1153 578
16.13542 525
16.15553 540
16.17564 526
16.19576 519
16.21587 531
16.23598 525
16.2561 499
16.27621 554
16.29633 513
16.31644 538
16.33655 488
16.35667 532
16.37678 544
16.39689 541
16.41701 551
16.43712 538
16.45724 536
16.47735 474
16.49746 544
16.51758 518
16.53769 555
16.5578 487
16.57792 555
16.59803 506
16.61814 494
16.63826 542
16.65837 502
16.67849 564
16.6986 488
16.71871 537
16.73883 539
16.75894 531
16.77905 512
16.79917 501
16.81928 493
16.8394 544
16.85951 534
16.87962 505
16.89974 529
16.91985 532
16.93996 576
16.96008 535
16.98019 499
17.00031 588
17.02042 510
17.04053 520
17.06065 536
17.08076 517
17.10087 538
17.12099 577
17.1411 482
17.16121 548
17.18133 483
17.20144 558
17.22156 544
17.24167 527
17.26178 544
17.2819 522
17.30201 577
17.32212 557
17.34224 535
17.36235 575
17.38247 512
17.40258 506
17.42269 565
17.44281 585
17.46292 533
17.48303 571
17.50315 560
17.52326 571
17.54338 534
17.56349 546
17.5836 599
17.60372 527
17.62383 559
17.64394 564
17.66406 553
17.68417 549
17.70428 553
17.7244 544
17.74451 526
17.76463 528
17.78474 555
17.80485 575
17.82497 533
17.84508 562
17.86519 531
17.88531 554
17.90542 572
17.92554 582
17.94565 560
17.96576 553
17.98588 578
18.00599 556
18.0261 566
18.04622 606
18.06633 531
18.08645 571
18.10656 541
18.12667 593
18.14679 559
18.1669 609
18.18701 552
18.20713 571
18.22724 626
18.24735 585
18.26747 539
18.28758 643
18.3077 544
18.32781 545
18.34792 590
18.36804 555
18.38815 539
18.40826 535
18.42838 561
18.44849 550
18.46861 554
18.48872 574
18.50883 536
18.52895 539
18.54906 526
18.56917 564
18.58929 539
18.6094 535
18.62951 601
18.64963 512
18.66974 538
18.68986 549
18.70997 544
18.73008 551
18.7502 545
18.77031 538
18.79042 526
18.81054 525
18.83065 538
18.85077 539
18.87088 566
18.89099 548
18.91111 560
18.93122 546
18.95133 526
18.97145 585
18.99156 518
19.01168 603
19.03179 553
19.0519 567
19.07202 574
19.09213 516
19.11224 576
19.13236 568
19.15247 520
19.17258 550
19.1927 575
19.21281 598
19.23293 587
19.25304 617
19.27315 551
19.29327 566
19.31338 586
19.33349 615
19.35361 571
19.37372 618
19.39384 585
19.41395 538
19.43406 589
19.45418 640
19.47429 576
19.4944 621
19.51452 589
19.53463 654
19.55475 635
19.57486 616
19.59497 644
19.61509 667
19.6352 682
19.65531 677
19.67543 787
19.69554 742
19.71565 820
19.73577 793
19.75588 911
19.776 815
19.79611 884
19.81622 878
19.83634 891
19.85645 847
19.87656 869
19.89668 880
19.91679 844
19.93691 815
19.95702 850
19.97713 788
19.99725 859
20.01736 780
20.03747 842
20.05759 819
20.0777 754
20.09782 805
20.11793 816
20.13804 777
20.15816 838
20.17827 822
20.19838 802
20.2185 825
20.23861 826
20.25872 796
20.27884 866
20.29895 817
20.31907 820
20.33918 823
20.35929 792
20.37941 864
20.39952 866
20.41963 810
20.43975 811
20.45986 858
20.47998 802
20.50009 762
20.5202 841
20.54032 824
20.56043 815
20.58054 816
20.60066 855
20.62077 900
20.64088 931
20.661 898
20.68111 1004
20.70123 1061
20.72134 1153
20.74145 1221
20.76157 1266
20.78168 1334
20.80179 1325
20.82191 1274
20.84202 1252
20.86214 1179
20.88225 1060
20.90236 1060
20.92248 955
20.94259 961
20.9627 847
20.98282 813
21.00293 875
21.02305 828
21.04316 866
21.06327 847
21.08339 786
21.1035 846
21.12361 799
21.14373 781
21.16384 797
21.18395 800
21.20407 793
21.22418 811
21.2443 863
21.26441 861
21.28452 820
21.30464 834
21.32475 741
21.34486 778
21.36498 749
21.38509 763
21.40521 793
21.42532 752
21.44543 780
21.46555 748
21.48566 754
21.50577 771
21.52589 756
21.546 773
21.56612 733
21.58623 757
21.60634 731
21.62646 739
21.64657 765
21.66668 709
21.6868 695
21.70691 681
21.72702 748
21.74714 710
21.76725 729
21.78737 717
21.80748 696
21.82759 723
21.84771 708
21.86782 709
21.88793 788
21.90805 735
21.92816 724
21.94828 652
21.96839 753
21.9885 742
22.00862 688
22.02873 690
22.04884 672
22.06896 684
22.08907 716
22.10919 683
22.1293 701
22.14941 709
22.16953 656
22.18964 655
22.20975 674
22.22987 683
22.24998 680
22.27009 634
22.29021 643
22.31032 672
22.33044 713
22.35055 665
22.37066 639
22.39078 619
22.41089 641
22.431 680
22.45112 679
22.47123 622
22.49135 686
22.51146 650
22.53157 636
22.55169 640
22.5718 648
22.59191 637
22.61203 688
22.63214 645
22.65225 631
22.67237 692
22.69248 617
22.7126 635
22.73271 622
22.75282 661
22.77294 612
22.79305 720
22.81316 633
22.83328 646
22.85339 637
22.87351 628
22.89362 600
22.91373 692
22.93385 640
22.95396 628
22.97407 626
22.99419 644
23.0143 653
23.03442 604
23.05453 647
23.07464 644
23.09476 658
23.11487 668
23.13498 643
23.1551 683
23.17521 614
23.19532 611
23.21544 670
23.23555 623
23.25567 616
23.27578 642
23.29589 654
23.31601 633
23.33612 642
23.35623 682
23.37635 647
23.39646 633
23.41658 667
23.43669 683
23.4568 638
23.47692 651
23.49703 635
23.51714 670
23.53726 639
23.55737 693
23.57749 644
23.5976 705
23.61771 671
23.63783 643
23.65794 728
23.67805 717
23.69817 763
23.71828 732
23.73839 789
23.75851 754
23.77862 791
23.79874 773
23.81885 764
23.83896 778
23.85908 722
23.87919 733
23.8993 750
23.91942 702
23.93953 701
23.95965 751
23.97976 764
23.99987 823
24.01999 784
24.0401 854
24.06021 841
24.08033 770
24.10044 773
24.12056 757
24.14067 751
24.16078 803
24.1809 759
24.20101 760
24.22112 704
24.24124 723
24.26135 674
24.28146 689
24.30158 687
24.32169 671
24.34181 667
24.36192 719
24.38203 712
24.40215 747
24.42226 745
24.44237 733
24.46249 753
24.4826 718
24.50272 737
24.52283 721
24.54294 710
24.56306 759
24.58317 821
24.60328 826
24.6234 742
24.64351 775
24.66362 835
24.68374 860
24.70385 862
24.72397 843
24.74408 870
24.76419 876
24.78431 879
24.80442 848
24.82453 904
24.84465 845
24.86476 925
24.88488 910
24.90499 865
24.9251 832
24.94522 777
24.96533 802
24.98544 846
25.00556 732
25.02567 798
25.04579 812
25.0659 746
25.08601 741
25.10613 716
25.12624 744
25.14635 764
25.16647 781
25.18658 740
25.20669 739
25.22681 731
25.24692 701
25.26704 704
25.28715 691
25.30726 690
25.32738 780
25.34749 659
25.3676 725
25.38772 736
25.40783 711
25.42795 711
25.44806 715
25.46817 701
25.48829 707
25.5084 701
25.52851 715
25.54863 697
25.56874 687
25.58886 735
25.60897 634
25.62908 652
25.6492 715
25.66931 674
25.68942 687
25.70954 676
25.72965 708
25.74976 629
25.76988 666
25.78999 668
25.81011 635
25.83022 660
25.85033 645
25.87045 692
25.89056 649
25.91067 682
25.93079 629
25.9509 632
25.97102 701
25.99113 617
26.01124 628
26.03136 663
26.05147 654
26.07158 660
26.0917 708
26.11181 687
26.13193 688
26.15204 710
26.17215 686
26.19227 710
26.21238 750
26.23249 731
26.25261 720
26.27272 822
26.29283 724
26.31295 812
26.33306 856
26.35318 878
26.37329 985
26.3934 1075
26.41352 1170
26.43363 1446
26.45374 1703
26.47386 1994
26.49397 2384
26.51409 2856
26.5342 3093
26.55431 3420
26.57443 3340
26.59454 3266
26.61465 2933
26.63477 2491
26.65488 2171
26.67499 1654
26.69511 1393
26.71522 1167
26.73534 944
26.75545 881
26.77556 804
26.79568 832
26.81579 749
26.8359 762
26.85602 737
26.87613 742
26.89625 722
26.91636 735
26.93647 713
26.95659 770
26.9767 676
26.99681 674
27.01693 744
27.03704 643
27.05716 669
27.07727 680
27.09738 635
27.1175 687
27.13761 664
27.15772 594
27.17784 637
27.19795 579
27.21806 650
27.23818 657
27.25829 663
27.27841 638
27.29852 623
27.31863 683
27.33875 645
27.35886 702
27.37897 671
27.39909 718
27.4192 733
27.43932 646
27.45943 690
27.47954 672
27.49966 613
27.51977 627
27.53988 650
27.56 634
27.58011 657
27.60023 633
27.62034 645
27.64045 616
27.66057 577
27.68068 622
27.70079 627
27.72091 635
27.74102 564
27.76113 607
27.78125 580
27.80136 633
27.82148 625
27.84159 620
27.8617 625
27.88182 630
27.90193 613
27.92204 678
27.94216 558
27.96227 585
27.98239 628
28.0025 596
28.02261 653
28.04273 593
28.06284 611
28.08295 647
28.10307 579
28.12318 565
28.1433 548
28.16341 604
28.18352 596
28.20364 652
28.22375 569
28.24386 589
28.26398 532
28.28409 553
28.3042 566
28.32432 578
28.34443 590
28.36455 575
28.38466 590
28.40477 648
28.42489 561
28.445 541
28.46511 608
28.48523 559
28.50534 606
28.52546 583
28.54557 591
28.56568 596
28.5858 605
28.60591 540
28.62602 549
28.64614 565
28.66625 601
28.68636 573
28.70648 556
28.72659 521
28.74671 589
28.76682 608
28.78693 613
28.80705 555
28.82716 594
28.84727 590
28.86739 528
28.8875 542
28.90762 583
28.92773 566
28.94784 602
28.96796 565
28.98807 570
29.00818 569
29.0283 583
29.04841 570
29.06853 602
29.08864 560
29.10875 574
29.12887 549
29.14898 620
29.16909 572
29.18921 574
29.20932 515
29.22943 591
29.24955 598
29.26966 564
29.28978 587
29.30989 578
29.33 578
29.35012 601
29.37023 574
29.39034 594
29.41046 570
29.43057 564
29.45069 555
29.4708 542
29.49091 610
29.51103 532
29.53114 586
29.55125 598
29.57137 595
29.59148 580
29.6116 576
29.63171 598
29.65182 551
29.67194 576
29.69205 574
29.71216 574
29.73228 632
29.75239 578
29.7725 581
29.79262 586
29.81273 605
29.83285 607
29.85296 592
29.87307 650
29.89319 579
29.9133 604
29.93341 603
29.95353 587
29.97364 638
29.99376 654
30.01387 614
30.03398 608
30.0541 592
30.07421 593
30.09432 627
30.11444 653
30.13455 663
30.15467 619
30.17478 594
30.19489 608
30.21501 617
30.23512 617
30.25523 593
30.27535 636
30.29546 643
30.31557 626
30.33569 625
30.3558 557
30.37592 600
30.39603 580
30.41614 624
30.43626 560
30.45637 593
30.47648 566
30.4966 589
30.51671 640
30.53683 569
30.55694 588
30.57705 584
30.59717 613
30.61728 571
30.63739 618
30.65751 602
30.67762 614
30.69773 614
30.71785 597
30.73796 550
30.75808 541
30.77819 580
30.7983 587
30.81842 611
30.83853 619
30.85864 590
30.87876 555
30.89887 599
30.91899 651
30.9391 570
30.95921 526
30.97933 556
30.99944 585
31.01955 581
31.03967 565
31.05978 610
31.0799 529
31.10001 640
31.12012 574
31.14024 608
31.16035 578
31.18046 580
31.20058 552
31.22069 555
31.2408 572
31.26092 600
31.28103 587
31.30115 615
31.32126 564
31.34137 600
31.36149 577
31.3816 618
31.40171 562
31.42183 599
31.44194 594
31.46206 566
31.48217 554
31.50228 587
31.5224 568
31.54251 607
31.56262 588
31.58274 618
31.60285 615
31.62297 599
31.64308 543
31.66319 581
31.68331 545
31.70342 536
31.72353 616
31.74365 573
31.76376 577
31.78387 637
31.80399 574
31.8241 607
31.84422 588
31.86433 583
31.88444 584
31.90456 549
31.92467 592
31.94478 564
31.9649 612
31.98501 608
32.00513 618
32.02524 642
32.04535 591
32.06547 644
32.08558 593
32.10569 589
32.12581 601
32.14592 648
32.16604 630
32.18615 645
32.20626 624
32.22638 653
32.24649 659
32.2666 684
32.28672 694
32.30683 740
32.32694 697
32.34706 744
32.36717 781
32.38729 782
32.4074 848
32.42751 812
32.44763 859
32.46774 868
32.48785 935
32.50797 850
32.52808 868
32.5482 790
32.56831 861
32.58842 867
32.60854 812
32.62865 828
32.64876 771
32.66888 722
32.68899 769
32.7091 755
32.72922 692
32.74933 674
32.76945 731
32.78956 756
32.80967 733
32.82979 701
32.8499 752
32.87001 732
32.89013 734
32.91024 779
32.93036 807
32.95047 846
32.97058 938
32.9907 928
33.01081 1038
33.03092 996
33.05104 993
33.07115 987
33.09127 977
33.11138 972
33.13149 944
33.15161 940
33.17172 853
33.19183 847
33.21195 839
33.23206 804
33.25217 769
33.27229 763
33.2924 715
33.31252 706
33.33263 674
33.35274 709
33.37286 701
33.39297 655
33.41308 628
33.4332 649
33.45331 706
33.47343 691
33.49354 666
33.51365 639
33.53377 679
33.55388 707
33.57399 613
33.59411 631
33.61422 652
33.63434 612
33.65445 645
33.67456 618
33.69468 611
33.71479 698
33.7349 621
33.75502 626
33.77513 601
33.79524 594
33.81536 636
33.83547 601
33.85559 595
33.8757 607
33.89581 583
33.91593 607
33.93604 619
33.95615 599
33.97627 646
33.99638 625
34.0165 631
34.03661 589
34.05672 671
34.07684 655
34.09695 684
34.11706 652
34.13718 590
34.15729 660
34.17741 677
34.19752 663
34.21763 657
34.23775 647
34.25786 658
34.27797 612
34.29809 667
34.3182 629
34.33831 623
34.35843 649
34.37854 640
34.39866 665
34.41877 644
34.43888 619
34.459 647
34.47911 638
34.49922 581
34.51934 640
34.53945 636
34.55957 653
34.57968 648
34.59979 690
34.61991 666
34.64002 654
34.66013 703
34.68025 665
34.70036 756
34.72047 760
34.74059 756
34.7607 719
34.78082 778
34.80093 757
34.82104 762
34.84116 819
34.86127 761
34.88138 797
34.9015 793
34.92161 784
34.94173 842
34.96184 799
34.98195 865
35.00207 832
35.02218 843
35.04229 834
35.06241 826
35.08252 878
35.10264 882
35.12275 918
35.14286 837
35.16298 925
35.18309 943
35.2032 976
35.22332 1023
35.24343 967
35.26354 969
35.28366 1025
35.30377 950
35.32389 935
35.344 1010
35.36411 940
35.38423 1017
35.40434 982
35.42445 1044
35.44457 995
35.46468 1044
35.4848 1078
35.50491 1114
35.52502 1022
35.54514 1036
35.56525 1107
35.58536 1055
35.60548 1104
35.62559 1026
35.64571 997
35.66582 1013
35.68593 960
35.70605 902
35.72616 958
35.74627 935
35.76639 859
35.7865 903
35.80661 959
35.82673 850
35.84684 890
35.86696 821
35.88707 870
35.90718 794
35.9273 717
35.94741 764
35.96752 774
35.98764 739
36.00775 834
36.02787 713
36.04798 734
36.06809 711
36.08821 763
36.10832 702
36.12843 705
36.14855 665
36.16866 726
36.18878 752
36.20889 725
36.229 697
36.24912 697
36.26923 678
36.28934 743
36.30946 757
36.32957 725
36.34968 794
36.3698 723
36.38991 812
36.41003 837
36.43014 800
36.45025 878
36.47037 839
36.49048 813
36.51059 843
36.53071 807
36.55082 815
36.57094 768
36.59105 749
36.61116 719
36.63128 722
36.65139 664
36.6715 658
36.69162 717
36.71173 691
36.73184 713
36.75196 724
36.77207 703
36.79219 659
36.8123 682
36.83241 729
36.85253 660
36.87264 725
36.89275 708
36.91287 679
36.93298 644
36.9531 698
36.97321 676
36.99332 702
37.01344 663
37.03355 669
37.05366 697
37.07378 664
37.09389 681
37.11401 653
37.13412 643
37.15423 634
37.17435 733
37.19446 671
37.21457 684
37.23469 637
37.2548 655
37.27491 652
37.29503 625
37.31514 683
37.33526 628
37.35537 650
37.37548 673
37.3956 678
37.41571 679
37.43582 629
37.45594 650
37.47605 689
37.49617 692
37.51628 676
37.53639 680
37.55651 630
37.57662 671
37.59673 686
37.61685 664
37.63696 643
37.65708 670
37.67719 656
37.6973 666
37.71742 712
37.73753 623
37.75764 661
37.77776 667
37.79787 656
37.81798 673
37.8381 648
37.85821 695
37.87833 694
37.89844 676
37.91855 730
37.93867 693
37.95878 680
37.97889 715
37.99901 658
38.01912 700
38.03924 732
38.05935 704
38.07946 706
38.09958 746
38.11969 647
38.1398 721
38.15992 747
38.18003 779
38.20015 722
38.22026 761
38.24037 754
38.26049 732
38.2806 747
38.30071 803
38.32083 732
38.34094 770
38.36105 754
38.38117 740
38.40128 764
38.4214 750
38.44151 734
38.46162 757
38.48174 673
38.50185 729
38.52196 671
38.54208 710
38.56219 741
38.58231 732
38.60242 642
38.62253 701
38.64265 662
38.66276 644
38.68287 662
38.70299 690
38.7231 642
38.74321 633
38.76333 693
38.78344 659
38.80356 684
38.82367 673
38.84378 669
38.8639 684
38.88401 730
38.90412 664
38.92424 642
38.94435 670
38.96447 646
38.98458 685
39.00469 736
39.02481 713
39.04492 669
39.06503 678
39.08515 707
39.10526 646
39.12538 727
39.14549 715
39.1656 723
39.18572 734
39.20583 677
39.22594 707
39.24606 678
39.26617 706
39.28628 758
39.3064 785
39.32651 766
39.34663 793
39.36674 779
39.38685 788
39.40697 782
39.42708 761
39.44719 753
39.46731 660
39.48742 721
39.50754 700
39.52765 706
39.54776 640
39.56788 647
39.58799 625
39.6081 585
39.62822 634
39.64833 571
39.66845 633
39.68856 610
39.70867 613
39.72879 567
39.7489 614
39.76901 623
39.78913 589
39.80924 630
39.82935 627
39.84947 594
39.86958 647
39.8897 622
39.90981 652
39.92992 661
39.95004 599
39.97015 654
39.99026 651
40.01038 648
40.03049 666
40.05061 673
40.07072 681
40.09083 629
40.11095 692
40.13106 733
40.15117 740
40.17129 734
40.1914 706
40.21152 783
40.23163 715
40.25174 695
40.27186 751
40.29197 727
40.31208 753
40.3322 707
40.35231 691
40.37242 644
40.39254 716
40.41265 681
40.43277 709
40.45288 656
40.47299 627
40.49311 677
40.51322 641
40.53333 651
40.55345 657
40.57356 703
40.59368 667
40.61379 696
40.6339 669
40.65402 665
40.67413 674
40.69424 650
40.71436 705
40.73447 663
40.75458 678
40.7747 702
40.79481 721
40.81493 674
40.83504 728
40.85515 701
40.87527 678
40.89538 651
40.91549 617
40.93561 674
40.95572 637
40.97584 702
40.99595 669
41.01606 657
41.03618 653
41.05629 674
41.0764 641
41.09652 604
41.11663 622
41.13675 596
41.15686 602
41.17697 636
41.19709 579
41.2172 608
41.23731 608
41.25743 603
41.27754 645
41.29765 668
41.31777 578
41.33788 610
41.358 627
41.37811 598
41.39822 599
41.41834 613
41.43845 615
41.45856 630
41.47868 639
41.49879 583
41.51891 603
41.53902 607
41.55913 622
41.57925 600
41.59936 573
41.61947 585
41.63959 610
41.6597 602
41.67982 656
41.69993 655
41.72004 597
41.74016 637
41.76027 625
41.78038 563
41.8005 563
41.82061 605
41.84072 557
41.86084 569
41.88095 579
41.90107 597
41.92118 581
41.94129 548
41.96141 616
41.98152 597
42.00163 573
42.02175 553
42.04186 575
42.06198 615
42.08209 568
42.1022 676
42.12232 563
42.14243 583
42.16254 575
42.18266 609
42.20277 643
42.22289 594
42.243 610
42.26311 624
42.28323 637
42.30334 716
42.32345 692
42.34357 696
42.36368 704
42.38379 679
42.40391 637
42.42402 659
42.44414 656
42.46425 632
42.48436 606
42.50448 591
42.52459 661
42.5447 640
42.56482 624
42.58493 601
42.60505 572
42.62516 624
42.64527 527
42.66539 571
42.6855 546
42.70561 603
42.72573 529
42.74584 594
42.76595 572
42.78607 637
42.80618 601
42.8263 577
42.84641 626
42.86652 577
42.88664 585
42.90675 614
42.92686 647
42.94698 604
42.96709 590
42.98721 581
43.00732 582
43.02743 589
43.04755 580
43.06766 608
43.08777 567
43.10789 559
43.128 579
43.14812 564
43.16823 597
43.18834 562
43.20846 576
43.22857 577
43.24868 576
43.2688 610
43.28891 615
43.30902 590
43.32914 637
43.34925 550
43.36937 606
43.38948 623
43.40959 574
43.42971 559
43.44982 557
43.46993 566
43.49005 556
43.51016 596
43.53028 582
43.55039 620
43.5705 541
43.59062 625
43.61073 559
43.63084 539
43.65096 583
43.67107 576
43.69119 550
43.7113 593
43.73141 573
43.75153 555
43.77164 554
43.79175 565
43.81187 545
43.83198 547
43.85209 556
43.87221 585
43.89232 575
43.91244 552
43.93255 570
43.95266 583
43.97278 547
43.99289 596
44.013 561
44.03312 563
44.05323 554
44.07335 572
44.09346 585
44.11357 595
44.13369 582
44.1538 596
44.17391 556
44.19403 579
44.21414 595
44.23426 558
44.25437 557
44.27448 544
44.2946 551
44.31471 543
44.33482 530
44.35494 587
44.37505 598
44.39516 592
44.41528 610
44.43539 527
44.45551 537
44.47562 534
44.49573 612
44.51585 575
44.53596 594
44.55607 575
44.57619 532
44.5963 583
44.61642 569
44.63653 542
44.65664 548
44.67676 563
44.69687 549
44.71698 606
44.7371 574
44.75721 585
44.77732 585
44.79744 609
44.81755 605
44.83767 547
44.85778 527
44.87789 545
44.89801 600
44.91812 556
44.93823 565
44.95835 568
44.97846 606
44.99858 586
45.01869 580
45.0388 569
45.05892 599
45.07903 584
45.09914 619
45.11926 582
45.13937 529
45.15949 579
45.1796 609
45.19971 630
45.21983 604
45.23994 579
45.26005 605
45.28017 570
45.30028 606
45.32039 597
45.34051 591
45.36062 578
45.38074 599
45.40085 636
45.42096 610
45.44108 569
45.46119 599
45.4813 610
45.50142 609
45.52153 630
45.54165 643
45.56176 632
45.58187 592
45.60199 653
45.6221 657
45.64221 623
45.66233 697
45.68244 733
45.70256 660
45.72267 682
45.74278 689
45.7629 649
45.78301 631
45.80312 663
45.82324 625
45.84335 664
45.86346 618
45.88358 612
45.90369 557
45.92381 543
45.94392 589
45.96403 600
45.98415 606
46.00426 631
46.02437 592
46.04449 541
46.0646 577
46.08472 580
46.10483 556
46.12494 583
46.14506 582
46.16517 560
46.18528 584
46.2054 585
46.22551 587
46.24563 570
46.26574 570
46.28585 579
46.30597 568
46.32608 535
46.34619 589
46.36631 554
46.38642 545
46.40653 557
46.42665 565
46.44676 605
46.46688 547
46.48699 580
46.5071 567
46.52722 561
46.54733 617
46.56744 599
46.58756 589
46.60767 579
46.62779 528
46.6479 600
46.66801 629
46.68813 594
46.70824 595
46.72835 555
46.74847 581
46.76858 595
46.78869 623
46.80881 541
46.82892 530
46.84904 582
46.86915 624
46.88926 598
46.90938 578
46.92949 609
46.9496 553
46.96972 550
46.98983 540
47.00995 562
47.03006 590
47.05017 579
47.07029 605
47.0904 570
47.11051 577
47.13063 585
47.15074 574
47.17086 602
47.19097 576
47.21108 562
47.2312 563
47.25131 607
47.27142 595
47.29154 575
47.31165 516
47.33176 538
47.35188 556
47.37199 571
47.39211 565
47.41222 652
47.43233 582
47.45245 571
47.47256 547
47.49267 594
47.51279 594
47.5329 565
47.55302 557
47.57313 603
47.59324 550
47.61336 564
47.63347 613
47.65358 630
47.6737 603
47.69381 554
47.71393 554
47.73404 562
47.75415 610
47.77427 573
47.79438 603
47.81449 576
47.83461 598
47.85472 589
47.87483 607
47.89495 609
47.91506 566
47.93518 551
47.95529 560
47.9754 569
47.99552 583
48.01563 614
48.03574 600
48.05586 562
48.07597 573
48.09609 593
48.1162 612
48.13631 556
48.15643 591
48.17654 593
48.19665 571
48.21677 585
48.23688 605
48.257 597
48.27711 548
48.29722 588
48.31734 618
48.33745 625
48.35756 612
48.37768 597
48.39779 632
48.4179 631
48.43802 635
48.45813 555
48.47825 575
48.49836 614
48.51847 586
48.53859 621
48.5587 641
48.57881 617
48.59893 623
48.61904 638
48.63916 664
48.65927 629
48.67938 659
48.6995 659
48.71961 666
48.73972 664
48.75984 648
48.77995 620
48.80006 642
48.82018 565
48.84029 640
48.86041 673
48.88052 606
48.90063 656
48.92075 619
48.94086 607
48.96097 626
48.98109 655
49.0012 634
49.02132 646
49.04143 636
49.06154 631
49.08166 665
49.10177 630
49.12188 617
49.142 643
49.16211 643
49.18223 618
49.20234 687
49.22245 697
49.24257 668
49.26268 698
49.28279 672
49.30291 669
49.32302 697
49.34313 678
49.36325 730
49.38336 661
49.40348 671
49.42359 690
49.4437 704
49.46382 691
49.48393 640
49.50404 613
49.52416 673
49.54427 620
49.56439 663
49.5845 608
49.60461 620
49.62473 649
49.64484 636
49.66495 654
49.68507 611
49.70518 634
49.7253 622
49.74541 643
49.76552 608
49.78564 625
49.80575 602
49.82586 677
49.84598 603
49.86609 633
49.8862 631
49.90632 703
49.92643 729
49.94655 783
49.96666 745
49.98677 851
50.00689 809
50.027 806
50.04711 866
50.06723 823
50.08734 787
50.10746 778
50.12757 806
50.14768 720
50.1678 699
50.18791 710
50.20802 676
50.22814 677
50.24825 657
50.26837 644
50.28848 629
50.30859 565
50.32871 604
50.34882 620
50.36893 549
50.38905 597
50.40916 590
50.42927 590
50.44939 624
50.4695 620
50.48962 589
50.50973 595
50.52984 610
50.54996 610
50.57007 622
50.59018 617
50.6103 564
50.63041 590
50.65053 609
50.67064 565
50.69075 634
50.71087 599
50.73098 584
50.75109 587
50.77121 584
50.79132 524
50.81143 563
50.83155 529
50.85166 608
50.87178 592
50.89189 590
50.912 602
50.93212 558
50.95223 587
50.97234 588
50.99246 572
51.01257 539
51.03269 587
51.0528 578
51.07291 577
51.09303 541
51.11314 602
51.13325 546
51.15337 562
51.17348 600
51.1936 557
51.21371 570
51.23382 615
51.25394 572
51.27405 553
51.29416 523
51.31428 580
51.33439 563
51.3545 568
51.37462 565
51.39473 574
51.41485 546
51.43496 562
51.45507 558
51.47519 555
51.4953 550
51.51541 521
51.53553 586
51.55564 535
51.57576 541
51.59587 542
51.61598 535
51.6361 571
51.65621 562
51.67632 576
51.69644 563
51.71655 550
51.73667 564
51.75678 549
51.77689 553
51.79701 562
51.81712 566
51.83723 574
51.85735 558
51.87746 515
51.89757 535
51.91769 563
51.9378 530
51.95792 568
51.97803 558
51.99814 555
52.01826 558
52.03837 578
52.05848 553
52.0786 563
52.09871 564
52.11883 619
52.13894 566
52.15905 625
52.17917 522
52.19928 557
52.21939 527
52.23951 586
52.25962 579
52.27974 582
52.29985 600
52.31996 539
52.34008 558
52.36019 581
52.3803 569
52.40042 556
52.42053 545
52.44064 578
52.46076 570
52.48087 563
52.50099 599
52.5211 572
52.54121 581
52.56133 573
52.58144 603
52.60155 621
52.62167 587
52.64178 591
52.6619 595
52.68201 608
52.70212 611
52.72224 604
52.74235 576
52.76246 592
52.78258 655
52.80269 642
52.8228 592
52.84292 573
52.86303 652
52.88315 678
52.90326 671
52.92337 653
52.94349 683
52.9636 682
52.98371 723
53.00383 680
53.02394 756
53.04406 673
53.06417 736
53.08428 699
53.1044 693
53.12451 700
53.14462 684
53.16474 654
53.18485 674
53.20497 664
53.22508 698
53.24519 631
53.26531 669
53.28542 641
53.30553 654
53.32565 669
53.34576 645
53.36587 680
53.38599 633
53.4061 685
53.42622 677
53.44633 647
53.46644 664
53.48656 638
53.50667 616
53.52678 643
53.5469 641
53.56701 679
53.58713 676
53.60724 646
53.62735 671
53.64747 628
53.66758 642
53.68769 661
53.70781 718
53.72792 690
53.74804 649
53.76815 764
53.78826 723
53.80838 720
53.82849 735
53.8486 743
53.86872 814
53.88883 748
53.90894 741
53.92906 790
53.94917 794
53.96929 771
53.9894 789
54.00951 772
54.02963 765
54.04974 743
54.06985 757
54.08997 793
54.11008 739
54.1302 763
54.15031 732
54.17042 751
54.19054 752
54.21065 779
54.23076 704
54.25088 729
54.27099 679
54.29111 706
54.31122 684
54.33133 705
54.35145 736
54.37156 711
54.39167 680
54.41179 660
54.4319 660
54.45201 690
54.47213 697
54.49224 684
54.51236 667
54.53247 708
54.55258 709
54.5727 645
54.59281 671
54.61292 648
54.63304 669
54.65315 721
54.67327 703
54.69338 731
54.71349 714
54.73361 688
54.75372 722
54.77383 708
54.79395 735
54.81406 702
54.83417 650
54.85429 725
54.8744 730
54.89452 697
54.91463 663
54.93474 656
54.95486 735
54.97497 720
54.99508 664
55.0152 681
55.03531 715
55.05543 607
55.07554 675
55.09565 745
55.11577 680
55.13588 646
55.15599 646
55.17611 676
55.19622 694
55.21634 654
55.23645 697
55.25656 659
55.27668 689
55.29679 656
55.3169 668
55.33702 705
55.35713 673
55.37724 658
55.39736 615
55.41747 616
55.43759 680
55.4577 611
55.47781 640
55.49793 645
55.51804 638
55.53815 608
55.55827 643
55.57838 640
55.5985 592
55.61861 607
55.63872 631
55.65884 583
55.67895 621
55.69906 620
55.71918 616
55.73929 617
55.75941 612
55.77952 585
55.79963 562
55.81975 618
55.83986 604
55.85997 609
55.88009 619
55.9002 617
55.92031 597
55.94043 618
55.96054 554
55.98066 602
56.00077 586
56.02088 620
56.041 595
56.06111 628
56.08122 588
56.10134 599
56.12145 631
56.14157 609
56.16168 601
56.18179 625
56.20191 612
56.22202 631
56.24213 555
56.26225 580
56.28236 676
56.30248 631
56.32259 611
56.3427 608
56.36282 624
56.38293 641
56.40304 612
56.42316 615
56.44327 579
56.46338 616
56.4835 603
56.50361 586
56.52373 597
56.54384 589
56.56395 592
56.58407 616
56.60418 599
56.62429 624
56.64441 593
56.66452 625
56.68464 666
56.70475 663
56.72486 609
56.74498 634
56.76509 631
56.7852 648
56.80532 614
56.82543 603
56.84554 598
56.86566 612
56.88577 637
56.90589 586
56.926 618
56.94611 624
56.96623 580
56.98634 598
57.00645 602
57.02657 610
57.04668 577
57.0668 606
57.08691 608
57.10702 581
57.12714 610
57.14725 631
57.16736 590
57.18748 635
57.20759 611
57.22771 656
57.24782 581
57.26793 599
57.28805 620
57.30816 617
57.32827 563
57.34839 609
57.3685 585
57.38861 643
57.40873 617
57.42884 627
57.44896 629
57.46907 638
57.48918 551
57.5093 631
57.52941 629
57.54952 630
57.56964 640
57.58975 586
57.60987 617
57.62998 599
57.65009 615
57.67021 618
57.69032 588
57.71043 655
57.73055 629
57.75066 612
57.77078 594
57.79089 606
57.811 579
57.83112 586
57.85123 568
57.87134 539
57.89146 577
57.91157 580
57.93168 604
57.9518 563
57.97191 598
57.99203 547
58.01214 559
58.03225 588
58.05237 578
58.07248 564
58.09259 625
58.11271 569
58.13282 565
58.15294 609
58.17305 598
58.19316 542
58.21328 570
58.23339 565
58.2535 648
58.27362 577
58.29373 588
58.31385 579
58.33396 564
58.35407 556
58.37419 605
58.3943 562
58.41441 537
58.43453 541
58.45464 593
58.47475 553
58.49487 566
58.51498 573
58.5351 571
58.55521 616
58.57532 565
58.59544 583
58.61555 561
58.63566 582
58.65578 535
58.67589 575
58.69601 598
58.71612 594
58.73623 617
58.75635 590
58.77646 575
58.79657 558
58.81669 580
58.8368 561
58.85691 604
58.87703 557
58.89714 584
58.91726 571
58.93737 582
58.95748 591
58.9776 595
58.99771 527
59.01782 578
59.03794 572
59.05805 566
59.07817 576
59.09828 584
59.11839 581
59.13851 540
59.15862 619
59.17873 578
59.19885 565
59.21896 573
59.23908 586
59.25919 571
59.2793 521
59.29942 611
59.31953 608
59.33964 605
59.35976 599
59.37987 568
59.39998 589
59.4201 620
59.44021 575
59.46033 645
59.48044 577
59.50055 606
59.52067 580
59.54078 587
59.56089 603
59.58101 564
59.60112 578
59.62124 619
59.64135 590
59.66146 645
59.68158 591
59.70169 616
59.7218 644
59.74192 673
59.76203 678
59.78215 733
59.80226 766
59.82237 712
59.84249 784
59.8626 744
59.88271 748
59.90283 733
59.92294 790
59.94305 716
59.96317 700
59.98328 663
60.0034 699
60.02351 698
60.04362 633
60.06374 642
60.08385 664
60.10396 627
60.12408 623
60.14419 683
60.16431 565
60.18442 562
60.20453 639
60.22465 592
60.24476 637
60.26487 624
60.28499 574
60.3051 590
60.32522 586
60.34533 622
60.36544 637
60.38556 578
60.40567 569
60.42578 624
60.4459 590
60.46601 564
60.48612 602
60.50624 559
60.52635 600
60.54647 578
60.56658 604
60.58669 586
60.60681 543
60.62692 603
60.64703 547
60.66715 584
60.68726 597
60.70738 532
60.72749 563
60.7476 558
60.76772 590
60.78783 564
60.80794 550
60.82806 570
60.84817 556
60.86828 566
60.8884 538
60.90851 554
60.92863 597
60.94874 581
60.96885 549
60.98897 574
61.00908 601
61.02919 565
61.04931 582
61.06942 629
61.08954 602
61.10965 610
61.12976 629
61.14988 605
61.16999 627
61.1901 598
61.21022 598
61.23033 595
61.25045 651
61.27056 643
61.29067 635
61.31079 635
61.3309 601
61.35101 607
61.37113 604
61.39124 604
61.41135 661
61.43147 627
61.45158 643
61.4717 645
61.49181 671
61.51192 668
61.53204 615
61.55215 660
61.57226 630
61.59238 654
61.61249 608
61.63261 598
61.65272 632
61.67283 665
61.69295 644
61.71306 650
61.73317 658
61.75329 653
61.7734 613
61.79352 653
61.81363 658
61.83374 612
61.85386 682
61.87397 661
61.89408 662
61.9142 665
61.93431 680
61.95442 730
61.97454 712
61.99465 683
62.01477 711
62.03488 726
62.05499 739
62.07511 746
62.09522 775
62.11533 717
62.13545 788
62.15556 816
62.17568 792
62.19579 799
62.2159 753
62.23602 787
62.25613 744
62.27624 764
62.29636 771
62.31647 814
62.33659 815
62.3567 733
62.37681 733
62.39693 773
62.41704 750
62.43715 775
62.45727 729
62.47738 713
62.49749 700
62.51761 717
62.53772 708
62.55784 713
62.57795 719
62.59806 676
62.61818 661
62.63829 710
62.6584 663
62.67852 652
62.69863 705
62.71875 654
62.73886 698
62.75897 671
62.77909 644
62.7992 659
62.81931 652
62.83943 630
62.85954 633
62.87965 614
62.89977 611
62.91988 605
62.94 654
62.96011 682
62.98022 635
63.00034 584
63.02045 643
63.04056 626
63.06068 684
63.08079 644
63.10091 696
63.12102 626
63.14113 644
63.16125 640
63.18136 657
63.20147 598
63.22159 620
63.2417 668
63.26182 702
63.28193 651
63.30204 661
63.32216 630
63.34227 640
63.36238 683
63.3825 673
63.40261 645
63.42272 616
63.44284 650
63.46295 692
63.48307 676
63.50318 684
63.52329 598
63.54341 605
63.56352 620
63.58363 648
63.60375 640
63.62386 653
63.64398 669
63.66409 643
63.6842 610
63.70432 648
63.72443 671
63.74454 705
63.76466 723
63.78477 716
63.80489 671
63.825 702
63.84511 719
63.86523 737
63.88534 652
63.90545 724
63.92557 710
63.94568 714
63.96579 725
63.98591 706
64.00602 655
64.02614 707
64.04625 664
64.06636 676
64.08648 688
64.10659 644
64.1267 689
64.14682 667
64.16693 614
64.18705 664
64.20716 615
64.22727 634
64.24739 644
64.2675 620
64.28761 611
64.30773 610
64.32784 567
64.34796 593
64.36807 610
64.38818 585
64.4083 588
64.42841 573
64.44852 602
64.46864 605
64.48875 613
64.50886 620
64.52898 597
64.54909 585
64.56921 558
64.58932 605
64.60943 588
64.62955 583
64.64966 550
64.66977 604
64.68989 557
64.71 613
64.73012 572
64.75023 589
64.77034 615
64.79046 612
64.81057 575
64.83068 633
64.8508 568
64.87091 622
64.89102 562
64.91114 601
64.93125 613
64.95137 525
64.97148 581
64.99159 562
65.01171 575
65.03182 575
65.05193 551
65.07205 559
65.09216 555
65.11228 588
65.13239 569
65.1525 571
65.17262 577
65.19273 563
65.21284 571
65.23296 568
65.25307 587
65.27319 525
65.2933 552
65.31341 593
65.33353 578
65.35364 554
65.37375 530
65.39387 559
65.41398 540
65.43409 593
65.45421 547
65.47432 558
65.49444 557
65.51455 557
65.53466 561
65.55478 585
65.57489 591
65.595 615
65.61512 574
65.63523 567
65.65535 568
65.67546 585
65.69557 615
65.71569 593
65.7358 557
65.75591 560
65.77603 571
65.79614 561
65.81626 521
65.83637 571
65.85648 579
65.8766 549
65.89671 533
65.91682 560
65.93694 556
65.95705 576
65.97716 580
65.99728 572
66.01739 581
66.03751 593
66.05762 548
66.07773 597
66.09785 571
66.11796 560
66.13807 596
66.15819 592
66.1783 589
66.19842 562
66.21853 544
66.23864 578
66.25876 581
66.27887 540
66.29898 601
66.3191 546
66.33921 583
66.35933 549
66.37944 545
66.39955 532
66.41967 559
66.43978 565
66.45989 541
66.48001 552
66.50012 546
66.52023 541
66.54035 578
66.56046 539
66.58058 552
66.60069 525
66.6208 537
66.64092 578
66.66103 514
66.68114 547
66.70126 540
66.72137 586
66.74149 537
66.7616 554
66.78171 564
66.80183 572
66.82194 530
66.84205 557
66.86217 573
66.88228 571
66.90239 573
66.92251 586
66.94262 568
66.96274 561
66.98285 547
67.00296 540
67.02308 596
67.04319 587
67.0633 584
67.08342 613
67.10353 565
67.12365 587
67.14376 549
67.16387 591
67.18399 606
67.2041 600
67.22421 549
67.24433 591
67.26444 563
67.28456 561
67.30467 557
67.32478 607
67.3449 637
67.36501 560
67.38512 609
67.40524 610
67.42535 601
67.44546 621
67.46558 537
67.48569 617
67.50581 635
67.52592 602
67.54603 641
67.56615 637
67.58626 685
67.60637 652
67.62649 643
67.6466 681
67.66672 715
67.68683 669
67.70694 641
67.72706 688
67.74717 668
67.76728 617
67.7874 641
67.80751 650
67.82763 623
67.84774 651
67.86785 708
67.88797 675
67.90808 655
67.92819 659
67.94831 656
67.96842 672
67.98853 702
68.00865 710
68.02876 706
68.04888 710
68.06899 735
68.0891 679
68.10922 683
68.12933 703
68.14944 697
68.16956 739
68.18967 719
68.20979 716
68.2299 718
68.25001 687
68.27013 725
68.29024 729
68.31035 661
68.33047 628
68.35058 654
68.3707 577
68.39081 622
68.41092 582
68.43104 614
68.45115 622
68.47126 587
68.49138 576
68.51149 592
68.5316 582
68.55172 588
68.57183 561
68.59195 567
68.61206 576
68.63217 575
68.65229 582
68.6724 573
68.69251 546
68.71263 615
68.73274 588
68.75286 546
68.77297 566
68.79308 586
68.8132 537
68.83331 542
68.85342 547
68.87354 559
68.89365 559
68.91376 605
68.93388 581
68.95399 551
68.97411 584
68.99422 549
69.01433 569
69.03445 535
69.05456 581
69.07467 566
69.09479 520
69.1149 608
69.13502 551
69.15513 583
69.17524 536
69.19536 588
69.21547 532
69.23558 601
69.2557 563
69.27581 549
69.29593 616
69.31604 581
69.33615 572
69.35627 551
69.37638 573
69.39649 526
69.41661 536
69.43672 539
69.45683 541
69.47695 554
69.49706 570
69.51718 555
69.53729 582
69.5574 598
69.57752 563
69.59763 565
69.61774 587
69.63786 621
69.65797 617
69.67809 579
69.6982 556
69.71831 584
69.73843 540
69.75854 549
69.77865 594
69.79877 590
69.81888 626
69.839 558
69.85911 556
69.87922 578
69.89934 558
69.91945 578
69.93956 581
69.95968 550
69.97979 535
69.9999 582
70.02002 581
70.04013 600
70.06025 617
70.08036 572
70.10047 556
70.12059 583
70.1407 598
70.16081 561
70.18093 588
70.20104 586
70.22116 558
70.24127 548
70.26138 521
70.2815 571
70.30161 582
70.32172 563
70.34184 559
70.36195 573
70.38207 559
70.40218 554
70.42229 571
70.44241 579
70.46252 579
70.48263 584
70.50275 550
70.52286 598
70.54297 568
70.56309 554
70.5832 566
70.60332 598
70.62343 564
70.64354 590
70.66366 537
70.68377 587
70.70388 538
70.724 580
70.74411 567
70.76423 595
70.78434 555
70.80445 533
70.82457 567
70.84468 584
70.86479 524
70.88491 566
70.90502 573
70.92513 553
70.94525 524
70.96536 557
70.98548 561
71.00559 583
71.0257 564
71.04582 533
71.06593 572
71.08604 578
71.10616 580
71.12627 608
71.14639 507
71.1665 571
71.18661 511
71.20673 563
71.22684 630
71.24695 603
71.26707 571
71.28718 579
71.3073 608
71.32741 560
71.34752 571
71.36764 601
71.38775 588
71.40786 561
71.42798 572
71.44809 538
71.4682 562
71.48832 608
71.50843 569
71.52855 629
71.54866 538
71.56877 546
71.58889 570
71.609 577
71.62911 552
71.64923 547
71.66934 562
71.68946 584
71.70957 575
71.72968 599
71.7498 591
71.76991 585
71.79002 591
71.81014 607
71.83025 570
71.85037 588
71.87048 618
71.89059 584
71.91071 573
71.93082 596
71.95093 534
71.97105 654
71.99116 628
72.01127 610
72.03139 632
72.0515 599
72.07162 605
72.09173 591
72.11184 589
72.13196 589
72.15207 565
72.17218 568
72.1923 570
72.21241 618
72.23253 586
72.25264 606
72.27275 580
72.29287 579
72.31298 564
72.33309 588
72.35321 605
72.37332 533
72.39344 547
72.41355 548
72.43366 552
72.45378 553
72.47389 571
72.494 597
72.51412 560
72.53423 560
72.55434 557
72.57446 584
72.59457 584
72.61469 585
72.6348 528
72.65491 587
72.67503 565
72.69514 580
72.71525 549
72.73537 616
72.75548 557
72.7756 585
72.79571 563
72.81582 572
72.83594 559
72.85605 522
72.87616 593
72.89628 556
72.91639 551
72.9365 557
72.95662 554
72.97673 543
72.99685 536
73.01696 546
73.03707 607
73.05719 580
73.0773 600
73.09741 581
73.11753 626
73.13764 536
73.15776 571
73.17787 593
73.19798 604
73.2181 626
73.23821 644
73.25832 538
73.27844 596
73.29855 611
73.31867 566
73.33878 587
73.35889 649
73.37901 622
73.39912 635
73.41923 567
73.43935 585
73.45946 632
73.47957 624
73.49969 561
73.5198 608
73.53992 589
73.56003 589
73.58014 591
73.60026 549
73.62037 637
73.64048 597
73.6606 555
73.68071 577
73.70083 562
73.72094 622
73.74105 572
73.76117 555
73.78128 584
73.80139 590
73.82151 558
73.84162 598
73.86174 554
73.88185 592
73.90196 546
73.92208 584
73.94219 600
73.9623 634
73.98242 547
74.00253 576
74.02264 498
74.04276 566
74.06287 559
74.08299 576
74.1031 597
74.12321 589
74.14333 561
74.16344 577
74.18355 574
74.20367 519
74.22378 558
74.2439 548
74.26401 595
74.28412 546
74.30424 540
74.32435 573
74.34446 575
74.36458 520
74.38469 593
74.40481 570
74.42492 560
74.44503 580
74.46515 572
74.48526 566
74.50537 565
74.52549 593
74.5456 563
74.56571 619
74.58583 564
74.60594 565
74.62606 601
74.64617 582
74.66628 560
74.6864 544
74.70651 579
74.72662 550
74.74674 556
74.76685 555
74.78697 605
74.80708 577
74.82719 590
74.84731 529
74.86742 582
74.88753 578
74.90765 559
74.92776 567
74.94787 582
74.96799 566
74.9881 584
75.00822 536
