3.00117 20289
3.02128 19465
3.0414 19584
3.06151 18888
3.08162 18159
3.10174 17952
3.12185 17218
3.14197 16963
3.16208 16173
3.18219 15694
3.20231 15415
3.22242 14861
3.24253 14612
3.26265 13840
3.28276 13584
3.30288 13228
3.32299 12738
3.3431 12258
3.36322 11818
3.38333 11547
3.40344 11374
3.42356 10630
3.44367 10697
3.46379 9952
3.4839 9613
3.50401 9523
3.52413 8871
3.54424 8825
3.56435 8257
3.58447 8213
3.60458 7798
3.62469 7553
3.64481 7410
3.66492 6896
3.68504 6659
3.70515 6534
3.72526 6086
3.74538 6053
3.76549 5623
3.7856 5344
3.80572 5346
3.82583 4999
3.84595 4802
3.86606 4464
3.88617 4612
3.90629 4323
3.9264 3900
3.94651 3963
3.96663 3646
3.98674 3675
4.00686 3478
4.02697 3091
4.04708 3188
4.0672 2864
4.08731 2851
4.10742 2830
4.12754 2576
4.14765 2522
4.16776 2392
4.18788 2277
4.20799 2268
4.22811 1987
4.24822 2113
4.26833 1938
4.28845 1917
4.30856 2010
4.32867 1722
4.34879 1750
4.3689 1699
4.38902 1602
4.40913 1605
4.42924 1468
4.44936 1465
4.46947 1406
4.48958 1419
4.5097 1492
4.52981 1307
4.54992 1342
4.57004 1202
4.59015 1237
4.61027 1266
4.63038 1119
4.65049 1096
4.67061 1112
4.69072 1100
4.71083 1088
4.73095 1025
4.75106 940
4.77118 1027
4.79129 985
4.8114 1018
4.83152 882
4.85163 923
4.87174 954
4.89186 842
4.91197 896
4.93209 776
4.9522 831
4.97231 870
4.99243 782
5.01254 734
5.03265 694
5.05277 641
5.07288 706
5.09299 705
5.11311 651
5.13322 601
5.15334 614
5.17345 658
5.19356 573
5.21368 571
5.23379 547
5.2539 498
5.27402 571
5.29413 554
5.31425 569
5.33436 489
5.35447 450
5.37459 488
5.3947 502
5.41481 443
5.43493 459
5.45504 421
5.47516 397
5.49527 396
5.51538 404
5.5355 401
5.55561 387
5.57572 400
5.59584 427
5.61595 375
5.63606 365
5.65618 364
5.67629 361
5.69641 378
5.71652 350
5.73663 368
5.75675 352
5.77686 304
5.79697 303
5.81709 296
5.8372 324
5.85732 319
5.87743 305
5.89754 320
5.91766 295
5.93777 294
5.95788 301
5.978 257
5.99811 292
6.01823 271
6.03834 283
6.05845 256
6.07857 264
6.09868 251
6.11879 268
6.13891 241
6.15902 248
6.17913 250
6.19925 220
6.21936 283
6.23948 257
6.25959 299
6.2797 238
6.29982 241
6.31993 241
6.34004 253
6.36016 230
6.38027 238
6.40039 222
6.4205 238
6.44061 272
6.46073 201
6.48084 252
6.50095 217
6.52107 256
6.54118 247
6.56129 243
6.58141 251
6.60152 240
6.62164 231
6.64175 251
6.66186 241
6.68198 254
6.70209 246
6.7222 205
6.74232 225
6.76243 224
6.78255 260
6.80266 198
6.82277 227
6.84289 217
6.863 221
6.88311 209
6.90323 213
6.92334 239
6.94346 272
6.96357 232
6.98368 226
7.0038 217
7.02391 240
7.04402 229
7.06414 240
7.08425 230
7.10436 193
7.12448 201
7.14459 221
7.16471 235
7.18482 218
7.20493 207
7.22505 231
7.24516 219
7.26527 208
7.28539 210
7.3055 205
7.32562 221
7.34573 234
7.36584 202
7.38596 196
7.40607 225
7.42618 198
7.4463 209
7.46641 206
7.48653 218
7.50664 247
7.52675 200
7.54687 254
7.56698 223
7.58709 227
7.60721 243
7.62732 220
7.64743 237
7.66755 238
7.68766 237
7.70778 217
7.72789 232
7.748 221
7.76812 243
7.78823 207
7.80834 219
7.82846 222
7.84857 245
7.86869 245
7.8888 222
7.90891 220
7.92903 220
7.94914 224
7.96925 247
7.98937 236
8.00948 224
8.0296 215
8.04971 244
8.06982 243
8.08994 219
8.11005 236
8.13016 231
8.15028 241
8.17039 217
8.1905 195
8.21062 234
8.23073 217
8.25085 249
8.27096 237
8.29107 226
8.31119 251
8.3313 248
8.35141 211
8.37153 208
8.39164 260
8.41176 259
8.43187 257
8.45198 204
8.4721 239
8.49221 250
8.51232 247
8.53244 227
8.55255 235
8.57266 244
8.59278 261
8.61289 242
8.63301 263
8.65312 240
8.67323 275
8.69335 251
8.71346 271
8.73357 259
8.75369 292
8.7738 271
8.79392 301
8.81403 292
8.83414 295
8.85426 252
8.87437 250
8.89448 255
8.9146 282
8.93471 260
8.95483 229
8.97494 262
8.99505 242
9.01517 254
9.03528 252
9.05539 262
9.07551 251
9.09562 249
9.11573 228
9.13585 240
9.15596 235
9.17608 229
9.19619 236
9.2163 255
9.23642 257
9.25653 247
9.27664 255
9.29676 203
9.31687 230
9.33699 220
9.3571 223
9.37721 236
9.39733 224
9.41744 236
9.43755 235
9.45767 255
9.47778 206
9.4979 252
9.51801 250
9.53812 228
9.55824 234
9.57835 226
9.59846 234
9.61858 236
9.63869 245
9.6588 211
9.67892 205
9.69903 255
9.71915 227
9.73926 234
9.75937 253
9.77949 236
9.7996 258
9.81971 231
9.83983 225
9.85994 246
9.88006 220
9.90017 232
9.92028 253
9.9404 235
9.96051 245
9.98062 208
10.00074 244
10.02085 246
10.04097 233
10.06108 221
10.08119 247
10.10131 247
10.12142 204
10.14153 238
10.16165 197
10.18176 232
10.20187 244
10.22199 277
10.2421 240
10.26222 249
10.28233 244
10.30244 277
10.32256 237
10.34267 198
10.36278 230
10.3829 217
10.40301 235
10.42313 229
10.44324 233
10.46335 242
10.48347 249
10.50358 223
10.52369 219
10.54381 263
10.56392 260
10.58403 244
10.60415 250
10.62426 255
10.64438 224
10.66449 249
10.6846 250
10.70472 276
10.72483 238
10.74494 240
10.76506 223
10.78517 264
10.80529 232
10.8254 240
10.84551 245
10.86563 233
10.88574 220
10.90585 249
10.92597 251
10.94608 224
10.9662 239
10.98631 256
11.00642 223
11.02654 222
11.04665 234
11.06676 258
11.08688 247
11.10699 245
11.1271 275
11.14722 264
11.16733 262
11.18745 228
11.20756 209
11.22767 231
11.24779 242
11.2679 244
11.28801 265
11.30813 210
11.32824 264
11.34836 244
11.36847 269
11.38858 258
11.4087 229
11.42881 234
11.44892 246
11.46904 277
11.48915 250
11.50927 269
11.52938 241
11.54949 275
11.56961 266
11.58972 251
11.60983 258
11.62995 267
11.65006 285
11.67017 245
11.69029 256
11.7104 263
11.73052 260
11.75063 286
11.77074 254
11.79086 237
11.81097 271
11.83108 263
11.8512 240
11.87131 276
11.89143 267
11.91154 266
11.93165 293
11.95177 309
11.97188 294
11.99199 273
12.01211 297
12.03222 313
12.05234 296
12.07245 324
12.09256 289
12.11268 285
12.13279 287
12.1529 296
12.17302 321
12.19313 328
12.21324 311
12.23336 311
12.25347 319
12.27359 315
12.2937 329
12.31381 314
12.33393 278
12.35404 352
12.37415 335
12.39427 299
12.41438 262
12.4345 303
12.45461 318
12.47472 284
12.49484 295
12.51495 270
12.53506 258
12.55518 279
12.57529 224
12.5954 254
12.61552 250
12.63563 271
12.65575 238
12.67586 242
12.69597 232
12.71609 244
12.7362 227
12.75631 226
12.77643 227
12.79654 211
12.81666 206
12.83677 219
12.85688 234
12.877 202
12.89711 226
12.91722 207
12.93734 212
12.95745 255
12.97757 222
12.99768 244
13.01779 235
13.03791 234
13.05802 286
13.07813 268
13.09825 288
13.11836 279
13.13847 252
13.15859 298
13.1787 288
13.19882 257
13.21893 254
13.23904 263
13.25916 229
13.27927 207
13.29938 237
13.3195 214
13.33961 196
13.35973 202
13.37984 225
13.39995 258
13.42007 242
13.44018 237
13.46029 219
13.48041 245
13.50052 271
13.52064 252
13.54075 289
13.56086 289
13.58098 331
13.60109 354
13.6212 364
13.64132 334
13.66143 312
13.68154 292
13.70166 289
13.72177 280
13.74189 273
13.762 233
13.78211 243
13.80223 237
13.82234 242
13.84245 231
13.86257 232
13.88268 242
13.9028 238
13.92291 230
13.94302 201
13.96314 220
13.98325 192
14.00336 236
14.02348 199
14.04359 190
14.06371 209
14.08382 199
14.10393 206
14.12405 201
14.14416 208
14.16427 201
14.18439 185
14.2045 195
14.22461 181
14.24473 189
14.26484 206
14.28496 189
14.30507 195
14.32518 200
14.3453 223
14.36541 211
14.38552 194
14.40564 196
14.42575 198
14.44587 200
14.46598 214
14.48609 215
14.50621 186
14.52632 189
14.54643 167
14.56655 191
14.58666 195
14.60677 188
14.62689 215
14.647 199
14.66712 214
14.68723 139
14.70734 214
14.72746 200
14.74757 209
14.76768 221
14.7878 211
14.80791 218
14.82803 229
14.84814 269
14.86825 282
14.88837 297
14.90848 271
14.92859 324
14.94871 318
14.96882 255
14.98894 243
15.00905 255
15.02916 250
15.04928 219
15.06939 233
15.0895 227
15.10962 193
15.12973 245
15.14984 252
15.16996 237
15.19007 206
15.21019 272
15.2303 231
15.25041 210
15.27053 215
15.29064 233
15.31075 205
15.33087 192
15.35098 189
15.3711 197
15.39121 201
15.41132 195
15.43144 192
15.45155 153
15.47166 189
15.49178 174
15.51189 187
15.53201 198
15.55212 186
15.57223 212
15.59235 170
15.61246 184
15.63257 163
15.65269 200
15.6728 194
15.69291 184
15.71303 202
15.73314 171
15.75326 163
15.77337 169
15.79348 194
15.8136 183
15.83371 182
15.85382 169
15.87394 185
15.89405 154
15.91417 180
15.93428 184
15.95439 224
15.97451 181
15.99462 188
16.01473 167
16.03485 191
16.05496 165
16.07508 185
16.09519 192
16.1153 171
16.13542 189
16.15553 174
16.17564 194
16.19576 176
16.21587 175
16.23598 204
16.2561 172
16.27621 202
16.29633 179
16.31644 150
16.33655 176
16.35667 185
16.37678 156
16.39689 177
16.41701 159
16.43712 162
16.45724 157
16.47735 190
16.49746 218
16.51758 179
16.53769 189
16.5578 189
16.57792 162
16.59803 185
16.61814 207
16.63826 144
16.65837 188
16.67849 207
16.6986 189
16.71871 173
16.73883 169
16.75894 176
16.77905 188
16.79917 178
16.81928 179
16.8394 203
16.85951 171
16.87962 180
16.89974 186
16.91985 192
16.93996 170
16.96008 180
16.98019 164
17.00031 200
17.02042 193
17.04053 178
17.06065 165
17.08076 162
17.10087 154
17.12099 173
17.1411 189
17.16121 191
17.18133 196
17.20144 182
17.22156 193
17.24167 168
17.26178 167
17.2819 188
17.30201 198
17.32212 173
17.34224 186
17.36235 196
17.38247 165
17.40258 178
17.42269 182
17.44281 188
17.46292 171
17.48303 198
17.50315 161
17.52326 171
17.54338 172
17.56349 178
17.5836 175
17.60372 182
17.62383 176
17.64394 188
17.66406 161
17.68417 189
17.70428 178
17.7244 172
17.74451 170
17.76463 203
17.78474 170
17.80485 184
17.82497 194
17.84508 174
17.86519 173
17.88531 161
17.90542 188
17.92554 179
17.94565 184
17.96576 187
17.98588 160
18.00599 171
18.0261 180
18.04622 181
18.06633 178
18.08645 201
18.10656 172
18.12667 170
18.14679 186
18.1669 175
18.18701 191
18.20713 184
18.22724 181
18.24735 184
18.26747 182
18.28758 186
18.3077 173
18.32781 181
18.34792 209
18.36804 159
18.38815 173
18.40826 176
18.42838 176
18.44849 184
18.46861 197
18.48872 177
18.50883 182
18.52895 202
18.54906 169
18.56917 161
18.58929 170
18.6094 153
18.62951 202
18.64963 197
18.66974 179
18.68986 184
18.70997 188
18.73008 206
18.7502 185
18.77031 198
18.79042 233
18.81054 194
18.83065 218
18.85077 190
18.87088 164
18.89099 176
18.91111 188
18.93122 187
18.95133 205
18.97145 199
18.99156 189
19.01168 171
19.03179 185
19.0519 198
19.07202 168
19.09213 156
19.11224 180
19.13236 202
19.15247 204
19.17258 209
19.1927 226
19.21281 232
19.23293 224
19.25304 242
19.27315 235
19.29327 266
19.31338 247
19.33349 258
19.35361 229
19.37372 194
19.39384 207
19.41395 203
19.43406 222
19.45418 219
19.47429 229
19.4944 192
19.51452 221
19.53463 230
19.55475 222
19.57486 255
19.59497 230
19.61509 242
19.6352 281
19.65531 258
19.67543 265
19.69554 299
19.71565 278
19.73577 293
19.75588 287
19.776 358
19.79611 373
19.81622 366
19.83634 364
19.85645 363
19.87656 376
19.89668 378
19.91679 375
19.93691 380
19.95702 359
19.97713 349
19.99725 364
20.01736 327
20.03747 345
20.05759 360
20.0777 359
20.09782 349
20.11793 360
20.13804 331
20.15816 334
20.17827 351
20.19838 328
20.2185 339
20.23861 346
20.25872 378
20.27884 370
20.29895 380
20.31907 375
20.33918 363
20.35929 354
20.37941 400
20.39952 371
20.41963 371
20.43975 420
20.45986 395
20.47998 404
20.50009 438
20.5202 402
20.54032 463
20.56043 440
20.58054 466
20.60066 477
20.62077 498
20.64088 544
20.661 632
20.68111 825
20.70123 993
20.72134 1312
20.74145 1708
20.76157 2288
20.78168 2828
20.80179 3475
20.82191 4137
20.84202 4289
20.86214 4202
20.88225 3632
20.90236 2770
20.92248 2349
20.94259 1811
20.9627 1590
20.98282 1445
21.00293 1540
21.02305 1376
21.04316 1313
21.06327 1096
21.08339 882
21.1035 698
21.12361 538
21.14373 494
21.16384 476
21.18395 358
21.20407 403
21.22418 392
21.2443 371
21.26441 408
21.28452 355
21.30464 336
21.32475 349
21.34486 345
21.36498 314
21.38509 336
21.40521 355
21.42532 346
21.44543 342
21.46555 312
21.48566 325
21.50577 342
21.52589 360
21.546 328
21.56612 294
21.58623 325
21.60634 319
21.62646 328
21.64657 296
21.66668 319
21.6868 300
21.70691 275
21.72702 289
21.74714 294
21.76725 293
21.78737 291
21.80748 312
21.82759 300
21.84771 311
21.86782 318
21.88793 315
21.90805 316
21.92816 319
21.94828 371
21.96839 366
21.9885 405
22.00862 404
22.02873 382
22.04884 369
22.06896 329
22.08907 343
22.10919 339
22.1293 331
22.14941 312
22.16953 321
22.18964 329
22.20975 377
22.22987 387
22.24998 448
22.27009 423
22.29021 468
22.31032 493
22.33044 439
22.35055 434
22.37066 389
22.39078 375
22.41089 359
22.431 363
22.45112 295
22.47123 356
22.49135 315
22.51146 330
22.53157 339
22.55169 330
22.5718 358
22.59191 352
22.61203 350
22.63214 371
22.65225 328
22.67237 349
22.69248 308
22.7126 285
22.73271 288
22.75282 306
22.77294 263
22.79305 260
22.81316 308
22.83328 289
22.85339 291
22.87351 293
22.89362 333
22.91373 331
22.93385 355
22.95396 336
22.97407 369
22.99419 428
23.0143 414
23.03442 455
23.05453 464
23.07464 463
23.09476 549
23.11487 614
23.13498 597
23.1551 641
23.17521 733
23.19532 689
23.21544 669
23.23555 602
23.25567 536
23.27578 489
23.29589 496
23.31601 457
23.33612 392
23.35623 400
23.37635 386
23.39646 409
23.41658 368
23.43669 360
23.4568 403
23.47692 375
23.49703 408
23.51714 358
23.53726 400
23.55737 394
23.57749 408
23.5976 359
23.61771 366
23.63783 413
23.65794 392
23.67805 400
23.69817 408
23.71828 387
23.73839 452
23.75851 424
23.77862 429
23.79874 462
23.81885 453
23.83896 474
23.85908 471
23.87919 517
23.8993 619
23.91942 603
23.93953 671
23.95965 695
23.97976 658
23.99987 647
24.01999 694
24.0401 607
24.06021 512
24.08033 454
24.10044 444
24.12056 353
24.14067 354
24.16078 375
24.1809 385
24.20101 354
24.22112 410
24.24124 382
24.26135 450
24.28146 435
24.30158 462
24.32169 475
24.34181 461
24.36192 400
24.38203 413
24.40215 378
24.42226 373
24.44237 320
24.46249 336
24.4826 293
24.50272 314
24.52283 327
24.54294 320
24.56306 315
24.58317 347
24.60328 389
24.6234 398
24.64351 398
24.66362 410
24.68374 446
24.70385 418
24.72397 456
24.74408 432
24.76419 456
24.78431 440
24.80442 479
24.82453 388
24.84465 412
24.86476 420
24.88488 410
24.90499 414
24.9251 376
24.94522 392
24.96533 378
24.98544 354
25.00556 372
25.02567 320
25.04579 297
25.0659 308
25.08601 341
25.10613 321
25.12624 319
25.14635 332
25.16647 315
25.18658 318
25.20669 331
25.22681 319
25.24692 329
25.26704 375
25.28715 371
25.30726 379
25.32738 370
25.34749 407
25.3676 416
25.38772 465
25.40783 521
25.42795 629
25.44806 633
25.46817 812
25.48829 853
25.5084 923
25.52851 957
25.54863 946
25.56874 984
25.58886 903
25.60897 953
25.62908 997
25.6492 890
25.66931 852
25.68942 733
25.70954 605
25.72965 519
25.74976 455
25.76988 513
25.78999 409
25.81011 435
25.83022 380
25.85033 422
25.87045 423
25.89056 416
25.91067 382
25.93079 410
25.9509 406
25.97102 415
25.99113 411
26.01124 447
26.03136 424
26.05147 463
26.07158 471
26.0917 464
26.11181 511
26.13193 515
26.15204 572
26.17215 604
26.19227 624
26.21238 685
26.23249 736
26.25261 818
26.27272 989
26.29283 1036
26.31295 1172
26.33306 1308
26.35318 1518
26.37329 1639
26.3934 2047
26.41352 2390
26.43363 2713
26.45374 3348
26.47386 4432
26.49397 5708
26.51409 7704
26.5342 9842
26.55431 12494
26.57443 15299
26.59454 17723
26.61465 18733
26.63477 18382
26.65488 15816
26.67499 12407
26.69511 9254
26.71522 6740
26.73534 4373
26.75545 2623
26.77556 1763
26.79568 1409
26.81579 1246
26.8359 1120
26.85602 1077
26.87613 1056
26.89625 1028
26.91636 1032
26.93647 1079
26.95659 1183
26.9767 1324
26.99681 1346
27.01693 1537
27.03704 1483
27.05716 1488
27.07727 1360
27.09738 1252
27.1175 1035
27.13761 1016
27.15772 879
27.17784 871
27.19795 758
27.21806 797
27.23818 795
27.25829 951
27.27841 1035
27.29852 1152
27.31863 1328
27.33875 1551
27.35886 1766
27.37897 1955
27.39909 2079
27.4192 2274
27.43932 2253
27.45943 2260
27.47954 2013
27.49966 1865
27.51977 1573
27.53988 1298
27.56 1115
27.58011 781
27.60023 689
27.62034 628
27.64045 562
27.66057 490
27.68068 466
27.70079 526
27.72091 508
27.74102 493
27.76113 528
27.78125 483
27.80136 520
27.82148 507
27.84159 550
27.8617 532
27.88182 534
27.90193 544
27.92204 561
27.94216 535
27.96227 538
27.98239 464
28.0025 447
28.02261 416
28.04273 382
28.06284 357
28.08295 338
28.10307 320
28.12318 314
28.1433 312
28.16341 340
28.18352 334
28.20364 359
28.22375 330
28.24386 307
28.26398 302
28.28409 291
28.3042 343
28.32432 290
28.34443 285
28.36455 301
28.38466 267
28.40477 252
28.42489 281
28.445 256
28.46511 277
28.48523 291
28.50534 271
28.52546 263
28.54557 241
28.56568 239
28.5858 253
28.60591 263
28.62602 263
28.64614 278
28.66625 257
28.68636 271
28.70648 252
28.72659 253
28.74671 243
28.76682 274
28.78693 248
28.80705 236
28.82716 263
28.84727 252
28.86739 250
28.8875 243
28.90762 256
28.92773 225
28.94784 234
28.96796 279
28.98807 227
29.00818 289
29.0283 253
29.04841 228
29.06853 236
29.08864 240
29.10875 275
29.12887 251
29.14898 247
29.16909 262
29.18921 271
29.20932 300
29.22943 285
29.24955 294
29.26966 286
29.28978 309
29.30989 342
29.33 367
29.35012 449
29.37023 470
29.39034 521
29.41046 540
29.43057 549
29.45069 501
29.4708 529
29.49091 515
29.51103 417
29.53114 405
29.55125 412
29.57137 380
29.59148 369
29.6116 350
29.63171 355
29.65182 328
29.67194 329
29.69205 324
29.71216 347
29.73228 287
29.75239 356
29.7725 293
29.79262 323
29.81273 314
29.83285 305
29.85296 319
29.87307 348
29.89319 400
29.9133 369
29.93341 373
29.95353 365
29.97364 387
29.99376 425
30.01387 477
30.03398 517
30.0541 490
30.07421 484
30.09432 513
30.11444 582
30.13455 580
30.15467 643
30.17478 640
30.19489 638
30.21501 622
30.23512 576
30.25523 450
30.27535 501
30.29546 395
30.31557 368
30.33569 353
30.3558 351
30.37592 349
30.39603 334
30.41614 305
30.43626 339
30.45637 328
30.47648 298
30.4966 355
30.51671 314
30.53683 324
30.55694 332
30.57705 384
30.59717 366
30.61728 406
30.63739 479
30.65751 492
30.67762 545
30.69773 611
30.71785 642
30.73796 634
30.75808 619
30.77819 632
30.7983 584
30.81842 556
30.83853 581
30.85864 539
30.87876 473
30.89887 447
30.91899 412
30.9391 388
30.95921 379
30.97933 298
30.99944 267
31.01955 244
31.03967 243
31.05978 263
31.0799 240
31.10001 255
31.12012 247
31.14024 229
31.16035 233
31.18046 232
31.20058 229
31.22069 241
31.2408 233
31.26092 209
31.28103 239
31.30115 230
31.32126 242
31.34137 220
31.36149 223
31.3816 228
31.40171 231
31.42183 213
31.44194 220
31.46206 221
31.48217 215
31.50228 214
31.5224 227
31.54251 195
31.56262 245
31.58274 193
31.60285 228
31.62297 219
31.64308 231
31.66319 221
31.68331 190
31.70342 222
31.72353 206
31.74365 211
31.76376 202
31.78387 242
31.80399 195
31.8241 226
31.84422 203
31.86433 201
31.88444 210
31.90456 217
31.92467 203
31.94478 255
31.9649 244
31.98501 255
32.00513 260
32.02524 251
32.04535 297
32.06547 309
32.08558 316
32.10569 324
32.12581 311
32.14592 328
32.16604 311
32.18615 281
32.20626 311
32.22638 307
32.24649 306
32.2666 301
32.28672 290
32.30683 306
32.32694 333
32.34706 305
32.36717 341
32.38729 357
32.4074 416
32.42751 357
32.44763 360
32.46774 334
32.48785 324
32.50797 299
32.52808 286
32.5482 287
32.56831 240
32.58842 222
32.60854 199
32.62865 233
32.64876 210
32.66888 207
32.68899 237
32.7091 200
32.72922 212
32.74933 191
32.76945 203
32.78956 189
32.80967 201
32.82979 200
32.8499 220
32.87001 210
32.89013 172
32.91024 209
32.93036 188
32.95047 191
32.97058 177
32.9907 210
33.01081 189
33.03092 200
33.05104 195
33.07115 217
33.09127 183
33.11138 224
33.13149 194
33.15161 183
33.17172 203
33.19183 215
33.21195 217
33.23206 222
33.25217 222
33.27229 210
33.2924 180
33.31252 188
33.33263 193
33.35274 196
33.37286 184
33.39297 224
33.41308 206
33.4332 213
33.45331 211
33.47343 192
33.49354 202
33.51365 205
33.53377 203
33.55388 175
33.57399 237
33.59411 189
33.61422 195
33.63434 212
33.65445 194
33.67456 187
33.69468 204
33.71479 176
33.7349 223
33.75502 250
33.77513 215
33.79524 218
33.81536 229
33.83547 220
33.85559 219
33.8757 215
33.89581 243
33.91593 226
33.93604 245
33.95615 210
33.97627 216
33.99638 273
34.0165 260
34.03661 278
34.05672 314
34.07684 295
34.09695 385
34.11706 407
34.13718 436
34.15729 475
34.17741 449
34.19752 483
34.21763 468
34.23775 439
34.25786 461
34.27797 395
34.29809 388
34.3182 362
34.33831 343
34.35843 329
34.37854 324
34.39866 347
34.41877 331
34.43888 335
34.459 364
34.47911 335
34.49922 329
34.51934 372
34.53945 366
34.55957 347
34.57968 428
34.59979 399
34.61991 404
34.64002 415
34.66013 396
34.68025 356
34.70036 371
34.72047 364
34.74059 364
34.7607 367
34.78082 359
34.80093 368
34.82104 407
34.84116 385
34.86127 406
34.88138 395
34.9015 403
34.92161 397
34.94173 410
34.96184 426
34.98195 429
35.00207 406
35.02218 378
35.04229 424
35.06241 409
35.08252 390
35.10264 381
35.12275 396
35.14286 414
35.16298 384
35.18309 411
35.2032 377
35.22332 401
35.24343 366
35.26354 375
35.28366 431
35.30377 364
35.32389 372
35.344 386
35.36411 407
35.38423 413
35.40434 457
35.42445 421
35.44457 462
35.46468 508
35.4848 470
35.50491 474
35.52502 455
35.54514 498
35.56525 474
35.58536 403
35.60548 419
35.62559 398
35.64571 363
35.66582 349
35.68593 338
35.70605 328
35.72616 319
35.74627 309
35.76639 287
35.7865 289
35.80661 339
35.82673 323
35.84684 320
35.86696 319
35.88707 286
35.90718 301
35.9273 306
35.94741 299
35.96752 265
35.98764 293
36.00775 304
36.02787 283
36.04798 255
36.06809 268
36.08821 265
36.10832 282
36.12843 267
36.14855 293
36.16866 256
36.18878 253
36.20889 311
36.229 306
36.24912 315
36.26923 314
36.28934 331
36.30946 390
36.32957 394
36.34968 476
36.3698 516
36.38991 663
36.41003 723
36.43014 857
36.45025 1114
36.47037 1293
36.49048 1266
36.51059 1456
36.53071 1338
36.55082 1308
36.57094 1024
36.59105 930
36.61116 755
36.63128 726
36.65139 579
36.6715 436
36.69162 352
36.71173 339
36.73184 316
36.75196 312
36.77207 274
36.79219 296
36.8123 347
36.83241 341
36.85253 376
36.87264 344
36.89275 377
36.91287 398
36.93298 429
36.9531 385
36.97321 389
36.99332 328
37.01344 380
37.03355 333
37.05366 376
37.07378 337
37.09389 293
37.11401 315
37.13412 287
37.15423 302
37.17435 315
37.19446 273
37.21457 296
37.23469 276
37.2548 276
37.27491 259
37.29503 283
37.31514 248
37.33526 276
37.35537 269
37.37548 247
37.3956 252
37.41571 260
37.43582 236
37.45594 233
37.47605 236
37.49617 263
37.51628 230
37.53639 296
37.55651 243
37.57662 261
37.59673 283
37.61685 246
37.63696 255
37.65708 284
37.67719 273
37.6973 288
37.71742 278
37.73753 269
37.75764 253
37.77776 218
37.79787 214
37.81798 245
37.8381 259
37.85821 219
37.87833 237
37.89844 238
37.91855 263
37.93867 210
37.95878 216
37.97889 238
37.99901 227
38.01912 235
38.03924 217
38.05935 230
38.07946 251
38.09958 252
38.11969 241
38.1398 259
38.15992 237
38.18003 258
38.20015 262
38.22026 238
38.24037 289
38.26049 293
38.2806 273
38.30071 264
38.32083 255
38.34094 291
38.36105 310
38.38117 287
38.40128 304
38.4214 309
38.44151 316
38.46162 324
38.48174 352
38.50185 364
38.52196 337
38.54208 340
38.56219 364
38.58231 338
38.60242 332
38.62253 309
38.64265 295
38.66276 281
38.68287 280
38.70299 263
38.7231 265
38.74321 254
38.76333 230
38.78344 245
38.80356 202
38.82367 212
38.84378 218
38.8639 250
38.88401 235
38.90412 258
38.92424 256
38.94435 249
38.96447 231
38.98458 243
39.00469 245
39.02481 241
39.04492 245
39.06503 298
39.08515 245
39.10526 257
39.12538 257
39.14549 283
39.1656 262
39.18572 309
39.20583 308
39.22594 334
39.24606 368
39.26617 407
39.28628 471
39.3064 576
39.32651 683
39.34663 781
39.36674 942
39.38685 1107
39.40697 1177
39.42708 1233
39.44719 1235
39.46731 1138
39.48742 1053
39.50754 933
39.52765 722
39.54776 702
39.56788 582
39.58799 454
39.6081 407
39.62822 301
39.64833 276
39.66845 242
39.68856 253
39.70867 239
39.72879 241
39.7489 229
39.76901 213
39.78913 217
39.80924 197
39.82935 250
39.84947 206
39.86958 248
39.8897 237
39.90981 239
39.92992 252
39.95004 237
39.97015 267
39.99026 247
40.01038 254
40.03049 265
40.05061 272
40.07072 309
40.09083 324
40.11095 341
40.13106 406
40.15117 441
40.17129 538
40.1914 583
40.21152 666
40.23163 688
40.25174 729
40.27186 715
40.29197 696
40.31208 619
40.3322 493
40.35231 488
40.37242 481
40.39254 418
40.41265 333
40.43277 302
40.45288 248
40.47299 239
40.49311 247
40.51322 274
40.53333 230
40.55345 262
40.57356 250
40.59368 218
40.61379 225
40.6339 221
40.65402 212
40.67413 233
40.69424 214
40.71436 203
40.73447 228
40.75458 202
40.7747 223
40.79481 233
40.81493 193
40.83504 225
40.85515 210
40.87527 221
40.89538 213
40.91549 227
40.93561 189
40.95572 221
40.97584 211
40.99595 215
41.01606 191
41.03618 224
41.05629 216
41.0764 222
41.09652 215
41.11663 217
41.13675 228
41.15686 227
41.17697 210
41.19709 207
41.2172 235
41.23731 228
41.25743 240
41.27754 242
41.29765 203
41.31777 231
41.33788 173
41.358 217
41.37811 248
41.39822 212
41.41834 248
41.43845 223
41.45856 255
41.47868 250
41.49879 289
41.51891 282
41.53902 261
41.55913 261
41.57925 294
41.59936 310
41.61947 339
41.63959 404
41.6597 389
41.67982 418
41.69993 505
41.72004 486
41.74016 628
41.76027 641
41.78038 579
41.8005 562
41.82061 574
41.84072 521
41.86084 442
41.88095 395
41.90107 391
41.92118 365
41.94129 318
41.96141 316
41.98152 260
42.00163 269
42.02175 231
42.04186 233
42.06198 282
42.08209 225
42.1022 270
42.12232 236
42.14243 278
42.16254 301
42.18266 290
42.20277 300
42.22289 328
42.243 364
42.26311 399
42.28323 452
42.30334 522
42.32345 627
42.34357 706
42.36368 816
42.38379 945
42.40391 942
42.42402 961
42.44414 915
42.46425 846
42.48436 676
42.50448 620
42.52459 592
42.5447 550
42.56482 487
42.58493 400
42.60505 365
42.62516 308
42.64527 311
42.66539 285
42.6855 311
42.70561 324
42.72573 290
42.74584 306
42.76595 306
42.78607 266
42.80618 317
42.8263 248
42.84641 271
42.86652 259
42.88664 229
42.90675 224
42.92686 219
42.94698 232
42.96709 214
42.98721 195
43.00732 207
43.02743 201
43.04755 206
43.06766 196
43.08777 212
43.10789 199
43.128 217
43.14812 205
43.16823 215
43.18834 221
43.20846 202
43.22857 200
43.24868 210
43.2688 226
43.28891 233
43.30902 213
43.32914 189
43.34925 203
43.36937 204
43.38948 209
43.40959 184
43.42971 207
43.44982 230
43.46993 230
43.49005 213
43.51016 227
43.53028 228
43.55039 227
43.5705 233
43.59062 213
43.61073 216
43.63084 213
43.65096 212
43.67107 193
43.69119 200
43.7113 207
43.73141 197
43.75153 196
43.77164 194
43.79175 180
43.81187 204
43.83198 197
43.85209 207
43.87221 191
43.89232 208
43.91244 233
43.93255 203
43.95266 209
43.97278 174
43.99289 193
44.013 227
44.03312 210
44.05323 229
44.07335 211
44.09346 218
44.11357 215
44.13369 227
44.1538 210
44.17391 206
44.19403 247
44.21414 229
44.23426 219
44.25437 219
44.27448 213
44.2946 205
44.31471 216
44.33482 220
44.35494 207
44.37505 187
44.39516 193
44.41528 161
44.43539 191
44.45551 200
44.47562 189
44.49573 236
44.51585 204
44.53596 197
44.55607 199
44.57619 202
44.5963 191
44.61642 214
44.63653 205
44.65664 209
44.67676 212
44.69687 202
44.71698 202
44.7371 188
44.75721 197
44.77732 188
44.79744 219
44.81755 215
44.83767 179
44.85778 188
44.87789 214
44.89801 203
44.91812 217
44.93823 217
44.95835 180
44.97846 209
44.99858 217
45.01869 218
45.0388 186
45.05892 209
45.07903 223
45.09914 208
45.11926 212
45.13937 219
45.15949 205
45.1796 223
45.19971 229
45.21983 214
45.23994 203
45.26005 213
45.28017 233
45.30028 229
45.32039 244
45.34051 205
45.36062 273
45.38074 265
45.40085 292
45.42096 266
45.44108 301
45.46119 313
45.4813 326
45.50142 366
45.52153 366
45.54165 391
45.56176 411
45.58187 407
45.60199 437
45.6221 427
45.64221 498
45.66233 563
45.68244 649
45.70256 644
45.72267 720
45.74278 730
45.7629 826
45.78301 671
45.80312 660
45.82324 567
45.84335 469
45.86346 454
45.88358 465
45.90369 419
45.92381 361
45.94392 354
45.96403 295
45.98415 279
46.00426 215
46.02437 248
46.04449 242
46.0646 255
46.08472 220
46.10483 252
46.12494 222
46.14506 228
46.16517 261
46.18528 246
46.2054 229
46.22551 252
46.24563 250
46.26574 232
46.28585 222
46.30597 183
46.32608 206
46.34619 216
46.36631 184
46.38642 209
46.40653 204
46.42665 220
46.44676 206
46.46688 173
46.48699 183
46.5071 185
46.52722 181
46.54733 192
46.56744 196
46.58756 198
46.60767 183
46.62779 215
46.6479 186
46.66801 180
46.68813 205
46.70824 184
46.72835 189
46.74847 192
46.76858 184
46.78869 179
46.80881 210
46.82892 216
46.84904 225
46.86915 206
46.88926 213
46.90938 209
46.92949 213
46.9496 223
46.96972 264
46.98983 250
47.00995 266
47.03006 298
47.05017 290
47.07029 291
47.0904 300
47.11051 311
47.13063 305
47.15074 283
47.17086 254
47.19097 269
47.21108 237
47.2312 236
47.25131 267
47.27142 222
47.29154 217
47.31165 225
47.33176 240
47.35188 206
47.37199 248
47.39211 256
47.41222 259
47.43233 248
47.45245 230
47.47256 253
47.49267 262
47.51279 231
47.5329 226
47.55302 231
47.57313 230
47.59324 191
47.61336 207
47.63347 221
47.65358 205
47.6737 171
47.69381 209
47.71393 182
47.73404 216
47.75415 179
47.77427 200
47.79438 164
47.81449 192
47.83461 188
47.85472 210
47.87483 197
47.89495 190
47.91506 181
47.93518 201
47.95529 199
47.9754 206
47.99552 165
48.01563 174
48.03574 191
48.05586 187
48.07597 184
48.09609 175
48.1162 211
48.13631 195
48.15643 218
48.17654 187
48.19665 204
48.21677 193
48.23688 196
48.257 193
48.27711 214
48.29722 189
48.31734 197
48.33745 195
48.35756 189
48.37768 196
48.39779 201
48.4179 209
48.43802 184
48.45813 183
48.47825 202
48.49836 180
48.51847 204
48.53859 195
48.5587 212
48.57881 200
48.59893 201
48.61904 204
48.63916 187
48.65927 215
48.67938 216
48.6995 254
48.71961 239
48.73972 240
48.75984 250
48.77995 260
48.80006 257
48.82018 240
48.84029 262
48.86041 252
48.88052 252
48.90063 269
48.92075 279
48.94086 281
48.96097 275
48.98109 288
49.0012 260
49.02132 289
49.04143 280
49.06154 251
49.08166 240
49.10177 252
49.12188 240
49.142 273
49.16211 218
49.18223 226
49.20234 230
49.22245 214
49.24257 218
49.26268 218
49.28279 210
49.30291 241
49.32302 218
49.34313 202
49.36325 213
49.38336 201
49.40348 220
49.42359 192
49.4437 204
49.46382 194
49.48393 214
49.50404 226
49.52416 206
49.54427 233
49.56439 242
49.5845 223
49.60461 229
49.62473 245
49.64484 249
49.66495 249
49.68507 247
49.70518 267
49.7253 301
49.74541 281
49.76552 312
49.78564 301
49.80575 333
49.82586 369
49.84598 392
49.86609 410
49.8862 511
49.90632 558
49.92643 581
49.94655 708
49.96666 808
49.98677 968
50.00689 1229
50.027 1390
50.04711 1663
50.06723 1873
50.08734 2013
50.10746 2026
50.12757 1859
50.14768 1715
50.1678 1387
50.18791 1194
50.20802 1052
50.22814 1106
50.24825 1043
50.26837 906
50.28848 685
50.30859 526
50.32871 462
50.34882 440
50.36893 405
50.38905 458
50.40916 479
50.42927 518
50.44939 611
50.4695 615
50.48962 640
50.50973 618
50.52984 610
50.54996 558
50.57007 546
50.59018 541
50.6103 512
50.63041 512
50.65053 464
50.67064 469
50.69075 437
50.71087 423
50.73098 387
50.75109 377
50.77121 371
50.79132 369
50.81143 367
50.83155 353
50.85166 349
50.87178 335
50.89189 314
50.912 296
50.93212 324
50.95223 277
50.97234 326
50.99246 298
51.01257 263
51.03269 250
51.0528 229
51.07291 228
51.09303 222
51.11314 230
51.13325 241
51.15337 229
51.17348 235
51.1936 212
51.21371 207
51.23382 227
51.25394 234
51.27405 198
51.29416 181
51.31428 190
51.33439 214
51.3545 191
51.37462 163
51.39473 168
51.41485 167
51.43496 179
51.45507 179
51.47519 161
51.4953 200
51.51541 185
51.53553 166
51.55564 154
51.57576 187
51.59587 181
51.61598 187
51.6361 175
51.65621 190
51.67632 182
51.69644 192
51.71655 173
51.73667 205
51.75678 163
51.77689 173
51.79701 183
51.81712 178
51.83723 155
51.85735 166
51.87746 174
51.89757 180
51.91769 183
51.9378 183
51.95792 170
51.97803 191
51.99814 199
52.01826 161
52.03837 188
52.05848 183
52.0786 171
52.09871 185
52.11883 196
52.13894 162
52.15905 210
52.17917 178
52.19928 170
52.21939 162
52.23951 177
52.25962 169
52.27974 171
52.29985 171
52.31996 193
52.34008 222
52.36019 190
52.3803 202
52.40042 191
52.42053 185
52.44064 188
52.46076 178
52.48087 207
52.50099 181
52.5211 190
52.54121 231
52.56133 213
52.58144 209
52.60155 172
52.62167 212
52.64178 198
52.6619 198
52.68201 228
52.70212 189
52.72224 209
52.74235 196
52.76246 208
52.78258 225
52.80269 189
52.8228 188
52.84292 216
52.86303 194
52.88315 216
52.90326 195
52.92337 179
52.94349 197
52.9636 205
52.98371 175
53.00383 207
53.02394 186
53.04406 163
53.06417 170
53.08428 172
53.1044 182
53.12451 201
53.14462 177
53.16474 188
53.18485 191
53.20497 201
53.22508 177
53.24519 186
53.26531 204
53.28542 198
53.30553 175
53.32565 193
53.34576 221
53.36587 190
53.38599 204
53.4061 187
53.42622 209
53.44633 204
53.46644 184
53.48656 200
53.50667 202
53.52678 209
53.5469 219
53.56701 202
53.58713 210
53.60724 219
53.62735 215
53.64747 206
53.66758 192
53.68769 201
53.70781 197
53.72792 172
53.74804 195
53.76815 203
53.78826 200
53.80838 196
53.82849 201
53.8486 198
53.86872 195
53.88883 218
53.90894 226
53.92906 193
53.94917 218
53.96929 216
53.9894 227
54.00951 209
54.02963 226
54.04974 218
54.06985 213
54.08997 222
54.11008 214
54.1302 203
54.15031 237
54.17042 199
54.19054 205
54.21065 243
54.23076 218
54.25088 222
54.27099 212
54.29111 201
54.31122 228
54.33133 242
54.35145 222
54.37156 232
54.39167 248
54.41179 222
54.4319 244
54.45201 210
54.47213 215
54.49224 255
54.51236 241
54.53247 264
54.55258 258
54.5727 242
54.59281 264
54.61292 305
54.63304 271
54.65315 316
54.67327 325
54.69338 381
54.71349 416
54.73361 494
54.75372 550
54.77383 598
54.79395 667
54.81406 719
54.83417 664
54.85429 692
54.8744 652
54.89452 543
54.91463 467
54.93474 514
54.95486 478
54.97497 527
54.99508 451
55.0152 419
55.03531 332
55.05543 352
55.07554 317
55.09565 277
55.11577 257
55.13588 281
55.15599 316
55.17611 367
55.19622 349
55.21634 393
55.23645 397
55.25656 407
55.27668 468
55.29679 449
55.3169 453
55.33702 409
55.35713 398
55.37724 352
55.39736 363
55.41747 375
55.43759 327
55.4577 355
55.47781 320
55.49793 287
55.51804 277
55.53815 259
55.55827 254
55.57838 255
55.5985 240
55.61861 241
55.63872 263
55.65884 242
55.67895 239
55.69906 261
55.71918 196
55.73929 210
55.75941 185
55.77952 214
55.79963 216
55.81975 204
55.83986 211
55.85997 183
55.88009 188
55.9002 226
55.92031 201
55.94043 212
55.96054 201
55.98066 180
56.00077 198
56.02088 198
56.041 206
56.06111 213
56.08122 197
56.10134 202
56.12145 207
56.14157 180
56.16168 203
56.18179 181
56.20191 187
56.22202 198
56.24213 191
56.26225 196
56.28236 181
56.30248 190
56.32259 211
56.3427 177
56.36282 170
56.38293 192
56.40304 188
56.42316 194
56.44327 188
56.46338 194
56.4835 185
56.50361 200
56.52373 165
56.54384 208
56.56395 211
56.58407 221
56.60418 208
56.62429 212
56.64441 200
56.66452 205
56.68464 195
56.70475 209
56.72486 230
56.74498 230
56.76509 239
56.7852 217
56.80532 249
56.82543 214
56.84554 212
56.86566 191
56.88577 210
56.90589 179
56.926 203
56.94611 210
56.96623 189
56.98634 174
57.00645 176
57.02657 177
57.04668 213
57.0668 177
57.08691 214
57.10702 206
57.12714 235
57.14725 218
57.16736 200
57.18748 214
57.20759 252
57.22771 229
57.24782 217
57.26793 250
57.28805 247
57.30816 219
57.32827 226
57.34839 217
57.3685 236
57.38861 231
57.40873 219
57.42884 203
57.44896 211
57.46907 192
57.48918 210
57.5093 201
57.52941 213
57.54952 201
57.56964 169
57.58975 173
57.60987 189
57.62998 215
57.65009 181
57.67021 182
57.69032 181
57.71043 195
57.73055 168
57.75066 184
57.77078 188
57.79089 211
57.811 160
57.83112 192
57.85123 203
57.87134 185
57.89146 181
57.91157 212
57.93168 196
57.9518 186
57.97191 191
57.99203 190
58.01214 187
58.03225 194
58.05237 174
58.07248 187
58.09259 207
58.11271 215
58.13282 205
58.15294 180
58.17305 217
58.19316 203
58.21328 221
58.23339 180
58.2535 197
58.27362 206
58.29373 183
58.31385 201
58.33396 210
58.35407 194
58.37419 209
58.3943 220
58.41441 181
58.43453 194
58.45464 219
58.47475 212
58.49487 216
58.51498 190
58.5351 225
58.55521 238
58.57532 241
58.59544 242
58.61555 235
58.63566 225
58.65578 238
58.67589 252
58.69601 200
58.71612 212
58.73623 230
58.75635 209
58.77646 221
58.79657 203
58.81669 184
58.8368 202
58.85691 199
58.87703 180
58.89714 187
58.91726 155
58.93737 194
58.95748 177
58.9776 171
58.99771 189
59.01782 175
59.03794 176
59.05805 174
59.07817 194
59.09828 161
59.11839 192
59.13851 178
59.15862 176
59.17873 217
59.19885 183
59.21896 189
59.23908 184
59.25919 190
59.2793 194
59.29942 196
59.31953 212
59.33964 223
59.35976 196
59.37987 216
59.39998 227
59.4201 199
59.44021 220
59.46033 227
59.48044 252
59.50055 219
59.52067 257
59.54078 255
59.56089 255
59.58101 255
59.60112 292
59.62124 319
59.64135 307
59.66146 321
59.68158 379
59.70169 428
59.7218 441
59.74192 502
59.76203 557
59.78215 689
59.80226 753
59.82237 904
59.84249 1001
59.8626 1145
59.88271 1243
59.90283 1384
59.92294 1324
59.94305 1191
59.96317 1081
59.98328 961
60.0034 789
60.02351 758
60.04362 787
60.06374 772
60.08385 714
60.10396 723
60.12408 567
60.14419 463
60.16431 335
60.18442 317
60.20453 325
60.22465 288
60.24476 256
60.26487 272
60.28499 240
60.3051 248
60.32522 226
60.34533 230
60.36544 227
60.38556 218
60.40567 226
60.42578 233
60.4459 209
60.46601 206
60.48612 216
60.50624 205
60.52635 185
60.54647 221
60.56658 194
60.58669 213
60.60681 205
60.62692 214
60.64703 209
60.66715 200
60.68726 212
60.70738 197
60.72749 184
60.7476 207
60.76772 210
60.78783 200
60.80794 215
60.82806 215
60.84817 221
60.86828 205
60.8884 192
60.90851 236
60.92863 199
60.94874 194
60.96885 196
60.98897 220
61.00908 225
61.02919 248
61.04931 240
61.06942 260
61.08954 294
61.10965 287
61.12976 271
61.14988 263
61.16999 284
61.1901 230
61.21022 245
61.23033 233
61.25045 235
61.27056 240
61.29067 241
61.31079 227
61.3309 228
61.35101 243
61.37113 219
61.39124 220
61.41135 218
61.43147 199
61.45158 208
61.4717 237
61.49181 197
61.51192 216
61.53204 226
61.55215 221
61.57226 192
61.59238 187
61.61249 206
61.63261 201
61.65272 196
61.67283 223
61.69295 217
61.71306 193
61.73317 214
61.75329 229
61.7734 185
61.79352 218
61.81363 200
61.83374 209
61.85386 212
61.87397 201
61.89408 222
61.9142 199
61.93431 214
61.95442 225
61.97454 224
61.99465 207
62.01477 231
62.03488 226
62.05499 241
62.07511 229
62.09522 253
62.11533 246
62.13545 217
62.15556 236
62.17568 215
62.19579 231
62.2159 247
62.23602 250
62.25613 224
62.27624 245
62.29636 233
62.31647 253
62.33659 231
62.3567 235
62.37681 226
62.39693 230
62.41704 218
62.43715 244
62.45727 216
62.47738 243
62.49749 254
62.51761 232
62.53772 238
62.55784 227
62.57795 248
62.59806 217
62.61818 255
62.63829 242
62.6584 236
62.67852 230
62.69863 230
62.71875 220
62.73886 238
62.75897 237
62.77909 243
62.7992 237
62.81931 233
62.83943 215
62.85954 222
62.87965 227
62.89977 229
62.91988 247
62.94 222
62.96011 225
62.98022 249
63.00034 262
63.02045 258
63.04056 274
63.06068 231
63.08079 265
63.10091 277
63.12102 233
63.14113 239
63.16125 231
63.18136 223
63.20147 229
63.22159 239
63.2417 257
63.26182 209
63.28193 262
63.30204 227
63.32216 181
63.34227 225
63.36238 225
63.3825 210
63.40261 232
63.42272 211
63.44284 218
63.46295 200
63.48307 218
63.50318 205
63.52329 222
63.54341 196
63.56352 215
63.58363 213
63.60375 247
63.62386 243
63.64398 205
63.66409 237
63.6842 250
63.70432 238
63.72443 262
63.74454 276
63.76466 306
63.78477 271
63.80489 298
63.825 326
63.84511 368
63.86523 335
63.88534 419
63.90545 412
63.92557 442
63.94568 432
63.96579 435
63.98591 481
64.00602 471
64.02614 438
64.04625 415
64.06636 362
64.08648 312
64.10659 329
64.1267 311
64.14682 346
64.16693 298
64.18705 338
64.20716 267
64.22727 269
64.24739 235
64.2675 208
64.28761 211
64.30773 214
64.32784 197
64.34796 186
64.36807 201
64.38818 189
64.4083 179
64.42841 191
64.44852 186
64.46864 193
64.48875 194
64.50886 181
64.52898 172
64.54909 188
64.56921 182
64.58932 191
64.60943 163
64.62955 177
64.64966 180
64.66977 182
64.68989 175
64.71 175
64.73012 175
64.75023 178
64.77034 182
64.79046 198
64.81057 175
64.83068 211
64.8508 218
64.87091 210
64.89102 198
64.91114 216
64.93125 198
64.95137 216
64.97148 212
64.99159 198
65.01171 217
65.03182 207
65.05193 199
65.07205 207
65.09216 220
65.11228 255
65.13239 237
65.1525 260
65.17262 260
65.19273 238
65.21284 252
65.23296 278
65.25307 239
65.27319 245
65.2933 241
65.31341 252
65.33353 227
65.35364 243
65.37375 208
65.39387 205
65.41398 207
65.43409 228
65.45421 231
65.47432 200
65.49444 183
65.51455 226
65.53466 187
65.55478 216
65.57489 196
65.595 209
65.61512 186
65.63523 222
65.65535 196
65.67546 235
65.69557 208
65.71569 205
65.7358 218
65.75591 211
65.77603 224
65.79614 197
65.81626 208
65.83637 179
65.85648 209
65.8766 165
65.89671 202
65.91682 212
65.93694 204
65.95705 203
65.97716 201
65.99728 193
66.01739 203
66.03751 188
66.05762 190
66.07773 192
66.09785 198
66.11796 222
66.13807 203
66.15819 230
66.1783 251
66.19842 234
66.21853 245
66.23864 244
66.25876 226
66.27887 232
66.29898 276
66.3191 224
66.33921 197
66.35933 232
66.37944 224
66.39955 195
66.41967 214
66.43978 229
66.45989 222
66.48001 210
66.50012 230
66.52023 203
66.54035 204
66.56046 181
66.58058 192
66.60069 216
66.6208 202
66.64092 173
66.66103 179
66.68114 171
66.70126 194
66.72137 191
66.74149 169
66.7616 173
66.78171 166
66.80183 203
66.82194 180
66.84205 208
66.86217 185
66.88228 197
66.90239 177
66.92251 205
66.94262 197
66.96274 202
66.98285 205
67.00296 210
67.02308 187
67.04319 219
67.0633 250
67.08342 197
67.10353 203
67.12365 210
67.14376 204
67.16387 207
67.18399 207
67.2041 213
67.22421 200
67.24433 213
67.26444 232
67.28456 222
67.30467 213
67.32478 233
67.3449 202
67.36501 235
67.38512 259
67.40524 232
67.42535 271
67.44546 303
67.46558 290
67.48569 325
67.50581 363
67.52592 362
67.54603 457
67.56615 455
67.58626 513
67.60637 632
67.62649 688
67.6466 747
67.66672 798
67.68683 870
67.70694 855
67.72706 807
67.74717 725
67.76728 679
67.7874 606
67.80751 573
67.82763 577
67.84774 655
67.86785 676
67.88797 687
67.90808 741
67.92819 682
67.94831 673
67.96842 705
67.98853 739
68.00865 808
68.02876 904
68.04888 1020
68.06899 1061
68.0891 1139
68.10922 1163
68.12933 1128
68.14944 992
68.16956 972
68.18967 873
68.20979 939
68.2299 985
68.25001 995
68.27013 1089
68.29024 1038
68.31035 943
68.33047 797
68.35058 667
68.3707 553
68.39081 525
68.41092 447
68.43104 470
68.45115 469
68.47126 407
68.49138 364
68.51149 378
68.5316 317
68.55172 272
68.57183 248
68.59195 239
68.61206 234
68.63217 233
68.65229 219
68.6724 224
68.69251 209
68.71263 221
68.73274 199
68.75286 207
68.77297 219
68.79308 219
68.8132 209
68.83331 224
68.85342 200
68.87354 197
68.89365 191
68.91376 182
68.93388 225
68.95399 183
68.97411 213
68.99422 200
69.01433 184
69.03445 178
69.05456 199
69.07467 193
69.09479 191
69.1149 176
69.13502 167
69.15513 182
69.17524 191
69.19536 185
69.21547 172
69.23558 170
69.2557 174
69.27581 160
69.29593 162
69.31604 180
69.33615 194
69.35627 175
69.37638 176
69.39649 170
69.41661 177
69.43672 186
69.45683 178
69.47695 162
69.49706 182
69.51718 183
69.53729 179
69.5574 177
69.57752 193
69.59763 169
69.61774 179
69.63786 191
69.65797 179
69.67809 162
69.6982 182
69.71831 175
69.73843 176
69.75854 153
69.77865 170
69.79877 190
69.81888 165
69.839 170
69.85911 183
69.87922 177
69.89934 189
69.91945 184
69.93956 178
69.95968 170
69.97979 165
69.9999 179
70.02002 173
70.04013 181
70.06025 200
70.08036 172
70.10047 203
70.12059 194
70.1407 161
70.16081 185
70.18093 185
70.20104 180
70.22116 175
70.24127 155
70.26138 180
70.2815 188
70.30161 167
70.32172 180
70.34184 188
70.36195 189
70.38207 182
70.40218 183
70.42229 181
70.44241 156
70.46252 159
70.48263 172
70.50275 167
70.52286 159
70.54297 185
70.56309 199
70.5832 184
70.60332 184
70.62343 182
70.64354 192
70.66366 192
70.68377 198
70.70388 212
70.724 193
70.74411 181
70.76423 198
70.78434 190
70.80445 182
70.82457 180
70.84468 179
70.86479 195
70.88491 171
70.90502 158
70.92513 202
70.94525 167
70.96536 171
70.98548 172
71.00559 146
71.0257 164
71.04582 172
71.06593 178
71.08604 161
71.10616 181
71.12627 161
71.14639 174
71.1665 168
71.18661 154
71.20673 161
71.22684 183
71.24695 174
71.26707 168
71.28718 171
71.3073 190
71.32741 175
71.34752 177
71.36764 187
71.38775 158
71.40786 200
71.42798 179
71.44809 191
71.4682 221
71.48832 206
71.50843 198
71.52855 218
71.54866 221
71.56877 205
71.58889 218
71.609 194
71.62911 214
71.64923 203
71.66934 201
71.68946 211
71.70957 213
71.72968 208
71.7498 173
71.76991 201
71.79002 203
71.81014 186
71.83025 188
71.85037 189
71.87048 162
71.89059 205
71.91071 198
71.93082 189
71.95093 206
71.97105 197
71.99116 199
72.01127 218
72.03139 228
72.0515 214
72.07162 210
72.09173 203
72.11184 230
72.13196 193
72.15207 222
72.17218 207
72.1923 228
72.21241 204
72.23253 213
72.25264 220
72.27275 230
72.29287 212
72.31298 227
72.33309 208
72.35321 212
72.37332 215
72.39344 200
72.41355 211
72.43366 202
72.45378 203
72.47389 174
72.494 203
72.51412 193
72.53423 179
72.55434 191
72.57446 199
72.59457 199
72.61469 189
72.6348 177
72.65491 175
72.67503 200
72.69514 172
72.71525 201
72.73537 185
72.75548 221
72.7756 197
72.79571 192
72.81582 184
72.83594 212
72.85605 193
72.87616 190
72.89628 201
72.91639 221
72.9365 183
72.95662 226
72.97673 222
72.99685 233
73.01696 229
73.03707 262
73.05719 249
73.0773 250
73.09741 252
73.11753 252
73.13764 250
73.15776 257
73.17787 220
73.19798 268
73.2181 241
73.23821 255
73.25832 300
73.27844 278
73.29855 331
73.31867 329
73.33878 345
73.35889 400
73.37901 403
73.39912 440
73.41923 450
73.43935 423
73.45946 413
73.47957 377
73.49969 348
73.5198 313
73.53992 280
73.56003 313
73.58014 350
73.60026 348
73.62037 359
73.64048 334
73.6606 311
73.68071 310
73.70083 260
73.72094 236
73.74105 205
73.76117 230
73.78128 180
73.80139 204
73.82151 197
73.84162 213
73.86174 219
73.88185 217
73.90196 209
73.92208 196
73.94219 195
73.9623 195
73.98242 197
74.00253 211
74.02264 166
74.04276 176
74.06287 177
74.08299 192
74.1031 180
74.12321 186
74.14333 170
74.16344 183
74.18355 187
74.20367 178
74.22378 175
74.2439 189
74.26401 192
74.28412 177
74.30424 196
74.32435 188
74.34446 169
74.36458 194
74.38469 193
74.40481 186
74.42492 181
74.44503 190
74.46515 196
74.48526 180
74.50537 215
74.52549 194
74.5456 207
74.56571 210
74.58583 211
74.60594 215
74.62606 207
74.64617 203
74.66628 200
74.6864 181
74.70651 190
74.72662 179
74.74674 212
74.76685 197
74.78697 187
74.80708 215
74.82719 211
74.84731 211
74.86742 213
74.88753 211
74.90765 213
74.92776 192
74.94787 220
74.96799 213
74.9881 186
75.00822 186
