3.00117 23684.5327040909
3.02128 22788.6284280138
3.0414 22310
3.06151 21617.6969400685
3.08162 21219.7359348078
3.10174 20798.4396322226
3.12185 19940.0756813203
3.14197 19840.5341416511
3.16208 19012.9100343766
3.18219 18441.0900063133
3.20231 18299.7515894735
3.22242 17431.1540441827
3.24253 16946.7652378553
3.26265 16594.4467775751
3.28276 15430.5569353993
3.30288 15796.2452637011
3.32299 14811.2926740334
3.3431 14830
3.36322 13947.2016308544
3.38333 13675.0703731838
3.40344 13562.9288997285
3.42356 12803.9995748804
3.44367 12608.4657703848
3.46379 12013.3073567847
3.4839 11622
3.50401 11446.8095814432
3.52413 10925.4286660749
3.54424 10717.4598581599
3.56435 10243.4346348453
3.58447 9806.2266209624
3.60458 9742.31630846087
3.62469 9232.14785052366
3.64481 9087.77292819563
3.66492 8383.57989007156
3.68504 8369.98668723249
3.70515 8019.40060784002
3.72526 7446.37476487981
3.74538 7516.11172853404
3.76549 7086.21969490948
3.7856 6842
3.80572 6628.64532522439
3.82583 6223.57416499379
3.84595 6058.47426982516
3.86606 5739.63760224639
3.88617 5527.14825951339
3.90629 5416.12539396341
3.9264 5123
3.94651 5116.8862934016
3.96663 4657.43708036616
3.98674 4562.14799588671
4.00686 4533.58364098684
4.02697 4118.3465122263
4.04708 4113.03963945673
4.0672 3871
4.08731 3601.9519404163
4.10742 3618.97987309818
4.12754 3459.50410403391
4.14765 3226.39597275368
4.16776 3100.38013978025
4.18788 2907.03291911748
4.20799 2966.03951133559
4.22811 2730.91209138005
4.24822 2677.92314046686
4.26833 2501.69879559669
4.28845 2362.85028994058
4.30856 2342.07257500418
4.32867 2291.01392688683
4.34879 2271.06942178136
4.3689 2076
4.38902 2106.95645116598
4.40913 1973.91883497488
4.42924 2012.96036094205
4.44936 1894.20833605235
4.46947 1863.01538016365
4.48958 1842.01013312087
4.5097 1840
4.52981 1774.94093797307
4.54992 1660.95613291771
4.57004 1652.8591972066
4.59015 1532.14646176305
4.61027 1568.91795268264
4.63038 1565.06171766767
4.65049 1495.01422634113
4.67061 1488.97424162642
4.69072 1410.98365039715
4.71083 1461.05058096562
4.73095 1408.68727150607
4.75106 1295.05590614655
4.77118 1315.04245714805
4.79129 1223.00843462589
4.8114 1298
4.83152 1276.94211159141
4.85163 1207.85583493396
4.87174 1140.06692243552
4.89186 1228.95110376201
4.91197 1190.96956557407
4.93209 1232.04860360446
4.9522 1033
4.97231 1100.05720192687
4.99243 1127.89264752495
5.01254 1043.00276466082
5.03265 1101.03634030162
5.05277 1006.0801369037
5.07288 1022.00793961375
5.09299 949.042381268226
5.11311 919.019802453313
5.13322 954.944222170323
5.15334 863.032338536226
5.17345 955.988067455727
5.19356 837.148344388777
5.21368 863.972575428149
5.23379 826.034183216531
5.2539 788
5.27402 836.021067368776
5.29413 786.839627085455
5.31425 712.091393569216
5.33436 800.000981084143
5.35447 711.057030752436
5.37459 752.994167854174
5.3947 704
5.41481 736.027898175026
5.43493 749.915235058341
5.45504 653.85006178719
5.47516 638.949368107238
5.49527 665.985150320641
5.51538 655.016990455315
5.5355 653
5.55561 664.984848231006
5.57572 599.943628072417
5.59584 584.028407110885
5.61595 599.008618341398
5.63606 579.030775585201
5.65618 571.018664821928
5.67629 554.990781725679
5.69641 591.002238852762
5.71652 549.948559195673
5.73663 522.997591973384
5.75675 538.055535904239
5.77686 543.055003054659
5.79697 506.011652633325
5.81709 527.993242973344
5.8372 516
5.85732 517.019474598713
5.87743 537.001882525836
5.89754 513.932700601328
5.91766 492.995606001759
5.93777 518.9400042501
5.95788 532.045771407578
5.978 465
5.99811 504.016627608475
6.01823 495.96572705212
6.03834 469.913235908963
6.05845 422.060035908152
6.07857 434.946987470957
6.09868 460.004047570068
6.11879 445.993085641352
6.13891 484.010131105732
6.15902 478.000533885571
6.17913 475.930580283825
6.19925 422.043295726552
6.21936 496.921104684347
6.23948 467.041188066754
6.25959 456.997015712518
6.2797 453
6.29982 424.996659723115
6.31993 450.043663689644
6.34004 457.970595094692
6.36016 435.029768005096
6.38027 423.044939741977
6.40039 399.984809135494
6.4205 472
6.44061 467.977147056802
6.46073 426.990969946053
6.48084 439.972866794659
6.50095 407.990738795748
6.52107 447.96606561219
6.54118 431.025362980432
6.56129 408.02026996444
6.58141 378.014710042029
6.60152 441.021485305618
6.62164 406.941857295399
6.64175 419.073783311461
6.66186 436.999102176713
6.68198 433.986780774821
6.70209 446.013259698924
6.7222 393
6.74232 412.042722982358
6.76243 439.998131174924
6.78255 409.890082534657
6.80266 387.955953423618
6.82277 435.949453472524
6.84289 429.017113797343
6.863 406
6.88311 431.99403590737
6.90323 395.001625705199
6.92334 439.057800358828
6.94346 422.07183438756
6.96357 395.024760986274
6.98368 386.0056005198
7.0038 389
7.02391 421.013064444406
7.04402 430.999824502563
7.06414 418.937043379357
7.08425 386.01990666714
7.10436 403.962434196567
7.12448 406.007399865675
7.14459 400.000535950302
7.16471 403.001357669065
7.18482 399.990189375732
7.20493 399.036924139028
7.22505 422.950080378427
7.24516 378.014659237146
7.26527 403.0151615487
7.28539 367.990871231979
7.3055 422
7.32562 352.962280027094
7.34573 389.088708918495
7.36584 416.984180793324
7.38596 395.019002364434
7.40607 398.015917720236
7.42618 379.992724640942
7.4463 405
7.46641 384.999340030548
7.48653 406.009105003897
7.50664 382.94164633749
7.52675 375.947308827197
7.54687 404.984134257435
7.56698 394.009497160842
7.58709 402.989296366824
7.60721 408.984288785539
7.62732 378.029653968435
7.64743 446.035272476287
7.66755 405.898472030625
7.68766 404.966633945283
7.70778 415.996081200605
7.72789 408.011675838353
7.748 381
7.76812 386.017469423425
7.78823 398.998173184711
7.80834 382.956633722363
7.82846 379.937691260421
7.84857 423.970827183818
7.86869 413.005094615293
7.8888 410
7.90891 378.995262602825
7.92903 397.029426400558
7.94914 396.969194627527
7.96925 391.932648610773
7.98937 434.968576375656
8.00948 412.050800640364
8.0296 370
8.04971 390.01584715072
8.06982 405.99227769727
8.08994 391.004265694259
8.11005 412.043333433185
8.13016 412.017651416177
8.15028 401.014923878475
8.17039 386.004536365102
8.1905 394
8.21062 424.001236217535
8.23073 400.978226408883
8.25085 394.925770206923
8.27096 369.918699823664
8.29107 444.975360843568
8.31119 400.008106589833
8.3313 431
8.35141 402.999326688232
8.37153 438.029598420847
8.39164 424.975610985124
8.41176 431.977887194489
8.43187 435.003270242323
8.45198 428.014230959971
8.4721 431
8.49221 468.973859948674
8.51232 375.997614878236
8.53244 457.052822981918
8.55255 410.997159124195
8.57266 477.937041856155
8.59278 451.00707711161
8.61289 486.988195150423
8.63301 489.013071224329
8.65312 532.006232113859
8.67323 500.976793937664
8.69335 531.132456485382
8.71346 569.981744830872
8.73357 589.870994922495
8.75369 709.967898336688
8.7738 734
8.79392 887.115534789074
8.81403 930.052999917373
8.83414 1014.24500504735
8.85426 1142.78233932403
8.87437 1169.14492192826
8.89448 1003.13934603263
8.9146 931
8.93471 823.915799725131
8.95483 652.850752265864
8.97494 612.874296173841
8.99505 517.135077235513
9.01517 511.037099999927
9.03528 452.040908839737
9.05539 443.007371962393
9.07551 411.990259097155
9.09562 406.985273463497
9.11573 389.014553512336
9.13585 412.984895580195
9.15596 386.983150114265
9.17608 429.976899569888
9.19619 409.017522416166
9.2163 386
9.23642 396.053181663219
9.25653 448.984422954228
9.27664 387.927975157694
9.29676 398.989514069165
9.31687 372.048814441912
9.33699 374.973376373911
9.3571 443
9.37721 414.970393020909
9.39733 379.021877927942
9.41744 410.978375763631
9.43755 377.93591908579
9.45767 444.985595132965
9.47778 386.039688754127
9.4979 390
9.51801 348.995026582998
9.53812 384.037229268982
9.55824 396.0024409165
9.57835 396.991662544777
9.59846 384.047040216819
9.61858 375.965134783381
9.63869 430.987928965819
9.6588 408
9.67892 405.041621048684
9.69903 434.924904069462
9.71915 350.992745686313
9.73926 432.888996490492
9.75937 405.087405512698
9.77949 368.0081615255
9.7996 376
9.81971 416.005937490333
9.83983 405.003150108941
9.85994 414.953709510328
9.88006 378.973928302174
9.90017 429.976005660522
9.92028 390.043810786518
9.9404 372
9.96051 362.007936680608
9.98062 412.069927795433
10.00074 459.993688403505
10.02085 415.120000737216
10.04097 385.042548055711
10.06108 364.987843159844
10.08119 395.993798860794
10.10131 379.991539177395
10.12142 376.998637160469
10.14153 371.997717969513
10.16165 381.048666473746
10.18176 397.003648187445
10.20187 381.018477035192
10.22199 382.995379478353
10.2421 383
10.26222 363.005942663561
10.28233 379.979126259806
10.30244 351.027436825812
10.32256 399.963205044973
10.34267 382.98823296034
10.36278 412.014166058041
10.3829 357
10.40301 375.008886425798
10.42313 368.989743415219
10.44324 375.019350344554
10.46335 387.938431040712
10.48347 405.02826247908
10.50358 363.023615842864
10.52369 373.989682668297
10.54381 388.007840116932
10.56392 397.988276632694
10.58403 368.961581586622
10.60415 368.061975382661
10.62426 389.02771924599
10.64438 357.99933143344
10.66449 383.003435009815
10.6846 344
10.70472 382.063465753194
10.72483 419.981656574309
10.74494 375.934403577283
10.76506 372.99349854591
10.78517 369.996905777907
10.80529 390.978922626672
10.8254 433
10.84551 413.978629637049
10.86563 386.020154004156
10.88574 416.99636981507
10.90585 383.037364204436
10.92597 397.992575256198
10.94608 384.998804881566
10.9662 390
10.98631 345.007150641603
11.00642 413.045331291264
11.02654 394.906627089022
11.04665 370.959563420245
11.06676 406.963995611108
11.08688 401.995389408246
11.10699 410.01375493446
11.1271 362
11.14722 390.023267262412
11.16733 378.957012206411
11.18745 371.086882711029
11.20756 421.964539976091
11.22767 401.024814605297
11.24779 428.965400834021
11.2679 479
11.28801 390.963820000679
11.30813 386.059402054945
11.32824 423.019096699866
11.34836 398.083453370939
11.36847 378.960729822076
11.38858 424.982724503218
11.4087 406
11.42881 409.997965800179
11.44892 402.01880266004
11.46904 430.983175054741
11.48915 388.066666257214
11.50927 397.974882214066
11.52938 401.998558428197
11.54949 399.009754240612
11.56961 378.002513185426
11.58972 416.050261416641
11.60983 438.963870279146
11.62995 395.965422555969
11.65006 422.93681662953
11.67017 437.980947228762
11.69029 447.005375324378
11.7104 426
11.73052 446.029646762211
11.75063 455.964507715503
11.77074 417.962464852733
11.79086 431.946038910286
11.81097 440.035252210976
11.83108 412.989493145582
11.8512 455
11.87131 447.99494349923
11.89143 457.03071433298
11.91154 463.951819667433
11.93165 440.929810935931
11.95177 511.917610058276
11.97188 508.047562299455
11.99199 463.005377539101
12.01211 478.000451046631
12.03222 479.054875595145
12.05234 562.060962363395
12.07245 535.981604032045
12.09256 568.960614966386
12.11268 557.008822262091
12.13279 568.992207846287
12.1529 581
12.17302 599.001478294075
12.19313 608.084853138946
12.21324 682.040503892461
12.23336 650.024297198374
12.25347 706.845664516283
12.27359 771.019229757519
12.2937 695
12.31381 800.03167172912
12.33393 765.914321913272
12.35404 754.056206846379
12.37415 782.018986008918
12.39427 728.113006513711
12.41438 681.98948661906
12.4345 724
12.45461 685.958646670014
12.47472 602.948624051517
12.49484 577.931931148522
12.51495 531.067292435898
12.53506 531.990444269044
12.55518 511.051827383608
12.57529 463.001647974139
12.5954 488
12.61552 436.940785044621
12.63563 404.989544232193
12.65575 412.031565671678
12.67586 419.003607075382
12.69597 415.990365006547
12.71609 423.006013224601
12.7362 400
12.75631 411.00016675162
12.77643 400.007027896627
12.79654 412.974021035488
12.81666 375.053998074471
12.83677 380.961361514046
12.85688 400.001507764645
12.877 387
12.89711 406.013108846754
12.91722 404.950471515086
12.93734 341.961539068494
12.95745 367.959983994759
12.97757 358.990994572866
12.99768 373.025176582231
13.01779 332.991356060061
13.03791 393.007745498201
13.05802 349.971256193283
13.07813 365.024178195288
13.09825 366.02990312813
13.11836 380.038276291666
13.13847 348.979328154044
13.15859 399.988353918824
13.1787 366
13.19882 336.010449678314
13.21893 358.990381000431
13.23904 342.065922229221
13.25916 399.012707172936
13.27927 333.05215984887
13.29938 362.962393678175
13.3195 373
13.33961 373.990099101624
13.35973 338.960881073366
13.37984 342.057630957682
13.39995 365.029098667816
13.42007 340.9780391579
13.44018 380.999435595891
13.46029 336.015790005943
13.48041 344.007628000999
13.50052 357.033199934654
13.52064 396.01437892716
13.54075 365.911171517762
13.56086 346.028045098608
13.58098 343.973722536464
13.60109 379.994866796901
13.6212 360
13.64132 353.990152872747
13.66143 346.025635326521
13.68154 369.978725726855
13.70166 340.978767898584
13.72177 390.953553637338
13.74189 381.007410104537
13.762 376
13.78211 349.99395680819
13.80223 348.976252704739
13.82234 336.067152056322
13.84245 401.902057483773
13.86257 396.017413127906
13.88268 385.043414840317
13.9028 339
13.92291 397.008960527604
13.94302 357.969532861053
13.96314 366.02315872334
13.98325 362.009774120273
14.00336 364.997969687145
14.02348 355.020988229509
14.04359 341.99283807774
14.06371 376.013140405139
14.08382 372.972979706728
14.10393 342.974866525098
14.12405 350.063933901078
14.14416 375.974507691195
14.16427 372.016744592459
14.18439 369.992988724002
14.2045 377
14.22461 329.993403834803
14.24473 344.981010684672
14.26484 304.977835090004
14.28496 341.904668122338
14.30507 353.054769726531
14.32518 309.996833593475
14.3453 356
14.36541 342.982624226522
14.38552 325.014020200824
14.40564 362.071048643006
14.42575 368.069457251663
14.44587 335.00754708397
14.46598 361.970244421196
14.48609 364.013697612496
14.50621 328.990712712824
14.52632 326.991310785028
14.54643 317.026242239626
14.56655 352.033731595828
14.58666 350.940643436862
14.60677 386.046303059788
14.62689 313.009522573747
14.647 362
14.66712 337.952348333912
14.68723 313.013704443349
14.70734 340.034568130731
14.72746 342.977735796109
14.74757 357.016793510133
14.76768 325.019869009675
14.7878 333
14.80791 351.010856828682
14.82803 362.975570300255
14.84814 330.967098631811
14.86825 346.914626742982
14.88837 374.983392515104
14.90848 363.030507968709
14.92859 335.00418176945
14.94871 337.994628877549
14.96882 315.994564681562
14.98894 334.041327023405
15.00905 337.970797061879
15.02916 325.00154057175
15.04928 338.982165373041
15.06939 348.999472376643
15.0895 351
15.10962 366.997474961669
15.12973 350.994314201859
15.14984 363.011754122552
15.16996 358.991712982263
15.19007 363.03366908457
15.21019 329.001842015292
15.2303 352
15.25041 338.006710121821
15.27053 368.98918286549
15.29064 330.988394591272
15.31075 360.983889629807
15.33087 329.038800521523
15.35098 329.995588568727
15.3711 335
15.39121 369.003725298168
15.41132 351.994734625977
15.43144 353.937696771263
15.45155 301.054898285501
15.47166 321.952463110237
15.49178 327.992448856915
15.51189 338.003102098776
15.53201 321.999711769011
15.55212 325.97272010673
15.57223 293.034585790237
15.59235 353.039931404271
15.61246 321.007076515481
15.63257 362.958006039823
15.65269 340.025749042127
15.6728 306
15.69291 332.999346790853
15.71303 309.00927852475
15.73314 349.049305589822
15.75326 344.000778597356
15.77337 357.994519182569
15.79348 334.043933337725
15.8136 303
15.83371 342.017898568895
15.85382 350.992012085271
15.87394 332.938422720556
15.89405 311.962927528395
15.91417 351.957646544814
15.93428 343.03508458564
15.95439 319.991660439262
15.97451 361.010975290916
15.99462 348.981951156445
16.01473 341.990353417405
16.03485 339.034898694416
16.05496 358.997470974228
16.07508 343.007204121056
16.09519 344.00862707438
16.1153 319
16.13542 357.037514958339
16.15553 362.964712670246
16.17564 334.981598078665
16.19576 351.9453304557
16.21587 358.047332061136
16.23598 316.008323966765
16.2561 351
16.27621 367.994271813651
16.29633 342.967279539695
16.31644 332.988656414216
16.33655 328.993102578711
16.35667 336.990126497077
16.37678 340.993257244822
16.39689 342.00931589761
16.41701 316.998112663641
16.43712 336.015904473073
16.45724 330.963694274527
16.47735 318.007424533813
16.49746 323.034934846755
16.51758 308.959938548296
16.53769 375.992413908384
16.5578 335
16.57792 349.999148857536
16.59803 315.954183541619
16.61814 322.079348310106
16.63826 363.970457588295
16.65837 348.032355236802
16.67849 332.012003465676
16.6986 306
16.71871 327.020069964125
16.73883 360.01252882731
16.75894 348.983856533804
16.77905 349.022062525032
16.79917 328.028740651437
16.81928 332.962364072646
16.8394 367
16.85951 310.978647851008
16.87962 322.051801847376
16.89974 369.017268896976
16.91985 342.066279641453
16.93996 341.966237639362
16.96008 359.987417908845
16.98019 353.017162193526
17.00031 314.995249332739
17.02042 342.039620040774
17.04053 363.995844174536
17.06065 345.958117741022
17.08076 342.9856666212
17.10087 349.004298486543
17.12099 332.014224850493
17.1411 322
17.16121 374.004668534855
17.18133 339.9702689262
17.20144 358.045003375659
17.22156 364.991324754981
17.24167 360.051000399803
17.26178 318.008438389975
17.2819 341
17.30201 328.998983292596
17.32212 352.030230253216
17.34224 369.000914061158
17.36235 363.99072089953
17.38247 374.996152758429
17.40258 366.007927642514
17.42269 359.009310758916
17.44281 332.991977222702
17.46292 343.035132232708
17.48303 375.001368987423
17.50315 358.014564310304
17.52326 389.959180169409
17.54338 387.998115044943
17.56349 398.002037264646
17.5836 379
17.60372 382.005964274411
17.62383 376.973787488614
17.64394 370.056280648289
17.66406 426.892901634183
17.68417 465.934643044755
17.70428 508.983084465604
17.7244 501
17.74451 532.039088281346
17.76463 610.028795045249
17.78474 559.856008421321
17.80485 519.998743837703
17.82497 519.077774883796
17.84508 428.067334166077
17.86519 410.002182190067
17.88531 394.993125128546
17.90542 386.990735012499
17.92554 382.024071301719
17.94565 400.000131283527
17.96576 385.006582380752
17.98588 397.992824882793
18.00599 381.018653339066
18.0261 351
18.04622 379.024055577605
18.06633 369.937748257384
18.08645 329.9890689148
18.10656 351.989308195213
18.12667 327.038979424974
18.14679 322.994011035974
18.1669 330
18.18701 322.018600617668
18.20713 372.988841802486
18.22724 325.002104520699
18.24735 379.94046456677
18.26747 351.028162342762
18.28758 354.026394814088
18.3077 310
18.32781 360.017817637528
18.34792 357.99845195511
18.36804 366.982955404271
18.38815 343.022480501189
18.40826 350.012258388244
18.42838 323.025990781821
18.44849 319.98973863577
18.46861 352.015194892369
18.48872 371.01011066066
18.50883 364.951832657924
18.52895 334.019637312155
18.54906 368.974843263081
18.56917 345.038249375563
18.58929 344.991141669166
18.6094 358
18.62951 332.98649306617
18.64963 317.992984778507
18.66974 321.019939294351
18.68986 335.963330052915
18.70997 358.955159407461
18.73008 374.024474259221
18.7502 332
18.77031 358.013085928142
18.79042 364.003128079153
18.81054 368.988288186166
18.83065 358.98655832254
18.85077 379.974277022445
18.87088 376.023156753843
18.89099 353.002516584969
18.91111 352.98727580782
18.93122 320.008279478924
18.95133 372.073954469946
18.97145 384.970768940509
18.99156 364.052470881476
19.01168 336.029349196344
19.03179 324.986402795804
19.0519 369
19.07202 346.962597752695
19.09213 329.017006948504
19.11224 356.038192164145
19.13236 354.026196118161
19.15247 344.003856169196
19.17258 353.976700229674
19.1927 368
19.21281 329.990657282668
19.23293 349.055796297934
19.25304 366.960508419331
19.27315 338.97009003946
19.29327 388.9437152043
19.31338 390.009679285182
19.33349 382.009828203193
19.35361 356.994924816406
19.37372 365.009578202104
19.39384 363.985374288573
19.41395 364.041804652165
19.43406 389.964344913311
19.45418 394.99575162302
19.47429 408.9890517499
19.4944 424
19.51452 414.014242351983
19.53463 433.96737578412
19.55475 382.94991376394
19.57486 418.886158298725
19.59497 451.007290430581
19.61509 438.988750092936
19.6352 492
19.65531 510.020376860165
19.67543 565.026585237101
19.69554 557.056709448666
19.71565 639.770601820735
19.73577 701.945077564661
19.75588 737.945512483261
19.776 815
19.79611 889.03285516878
19.81622 952.063478079691
19.83634 1021.14886942598
19.85645 1095.83104579602
19.87656 1145.94520725441
19.89668 1136.05745887533
19.91679 1061.0255201501
19.93691 1028.97105560194
19.95702 919.861516952483
19.97713 802.90587213432
19.99725 771.870034373492
20.01736 690.131528677075
20.03747 664.009740695698
20.05759 654.007916332283
20.0777 637
20.09782 635.002137981675
20.11793 632.985364981297
20.13804 623.002086993328
20.15816 633.983033471252
20.17827 629.02568715188
20.19838 611.00856600708
20.2185 611
20.23861 608.004609567267
20.25872 617.986425053418
20.27884 599.036390361117
20.29895 627.080609454518
20.31907 556.026111435467
20.33918 605.961266460124
20.35929 592.014967872498
20.37941 584.007698899915
20.39952 600.995204565389
20.41963 588.023482937886
20.43975 624.027505731858
20.45986 606.01203881288
20.47998 619.998882657312
20.50009 605.999198051754
20.5202 623
20.54032 625.049680211917
20.56043 703.058393052513
20.58054 681.928562930727
20.60066 674.959301792531
20.62077 729.853576653918
20.64088 812.002064585434
20.661 777
20.68111 912.047387026385
20.70123 951.133124581783
20.72134 1131.40945527727
20.74145 1316.54449469884
20.76157 1544.55116151722
20.78168 1963.4485531626
20.80179 2573.71702840062
20.82191 3050.21334658109
20.84202 3408.21669437169
20.86214 3430.6853674239
20.88225 3106.78780011205
20.90236 2516.25979210464
20.92248 1911.56041131062
20.94259 1416.2046735598
20.9627 1075
20.98282 825.840112825549
21.00293 749.951809299593
21.02305 722.952748591662
21.04316 697.099912896784
21.06327 650.993711684103
21.08339 704.97169990232
21.1035 725
21.12361 699.983755348091
21.14373 671.972284105789
21.16384 666.010017163869
21.18395 675.974263279924
21.20407 670.051442933081
21.22418 638.983400346349
21.2443 677
21.26441 634.007251416003
21.28452 702.028286031909
21.30464 671.971021100157
21.32475 691.007800129928
21.34486 649.082972369442
21.36498 645.965419895282
21.38509 690.985832004947
21.40521 681.979787491054
21.42532 644.99608278588
21.44543 647.932022314227
21.46555 600.127005638212
21.48566 701.993766664473
21.50577 606.068902302778
21.52589 663.966729155305
21.546 667
21.56612 640.014998139475
21.58623 682.034863501337
21.60634 659.902818208693
21.62646 621.02120527101
21.64657 623.028412837222
21.66668 581.032839563736
21.6868 555
21.70691 495.995090998324
21.72702 545.062361909583
21.74714 571.974151060318
21.76725 534.107835758444
21.78737 504.025703001256
21.80748 492.01379571081
21.82759 484.99220006311
21.84771 511.004011198139
21.86782 498.994022863481
21.88793 499.97463578131
21.90805 471.982312858252
21.92816 489.969304674004
21.94828 494.985734910665
21.96839 507.010842552381
21.9885 476
22.00862 517.990989183717
22.02873 461.967084986374
22.04884 490.027200921446
22.06896 471.010984317261
22.08907 494.965067139767
22.10919 473.040795263771
22.1293 396
22.14941 471.02230800008
22.16953 462.016038390326
22.18964 495.975003657911
22.20975 450.983524772986
22.22987 507.967142009726
22.24998 470.037175497053
22.27009 469.993347321287
22.29021 486.015844981064
22.31032 520.009200172845
22.33044 492.904407674098
22.35055 481.164414834941
22.37066 558.042776813233
22.39078 460.043312226717
22.41089 509.974462971858
22.431 498
22.45112 466.007910643086
22.47123 504.051030278996
22.49135 497.878146083255
22.51146 443.041512521488
22.53157 459.971699975557
22.55169 458.004940624376
22.5718 449
22.59191 441.003847478195
22.61203 451.985450529914
22.63214 437.038113989863
22.65225 485.913665149042
22.67237 487.012382529395
22.69248 483.010398113326
22.7126 465
22.73271 472.020357389634
22.75282 520.017119398422
22.77294 511.014183551661
22.79305 553.861250836355
22.81316 594.957534997635
22.83328 603.990968857195
22.85339 624.983905338873
22.87351 660.014667632895
22.89362 681.017603228402
22.91373 689.984640615846
22.93385 659.901235607656
22.95396 611.133644175267
22.97407 550.031300419581
22.99419 562.996677759203
23.0143 541
23.03442 508.962550392151
23.05453 477.991526222219
23.07464 493.024966442406
23.09476 483.05837831739
23.11487 458.00018954976
23.13498 461.036134110543
23.1551 410
23.17521 460.013320244082
23.19532 435.969263402743
23.21544 430.013709641538
23.23555 438.969581029041
23.25567 455.967111892427
23.27578 474.992429656283
23.29589 458.023074652766
23.31601 402.981104948661
23.33612 405.039236477164
23.35623 456.058740413397
23.37635 454.882690872228
23.39646 406.99506231206
23.41658 450.97453233339
23.43669 435.010331750156
23.4568 434
23.47692 437.000800296629
23.49703 435.994458845806
23.51714 442.057902257195
23.53726 481.950411541005
23.55737 484.004759156128
23.57749 475.016485810192
23.5976 452
23.61771 525.011885799069
23.63783 498.003791201332
23.65794 538.010599749573
23.67805 499.051294235682
23.69817 527.929639210227
23.71828 564.970213591946
23.73839 594.983010745233
23.75851 639.027594606567
23.77862 682.004925071787
23.79874 672.047070439135
23.81885 723.059266147441
23.83896 703.05166226579
23.85908 676.060613895962
23.87919 597.023984365103
23.8993 589
23.91942 558.963723033491
23.93953 535.991409110948
23.95965 527.91665662306
23.97976 481.049458713791
23.99987 490.966659009444
24.01999 495.011212485597
24.0401 470
24.06021 501.010425295149
24.08033 496.988388909492
24.10044 503.0323517543
24.12056 496.119271430662
24.14067 424.019926956749
24.16078 476.944487755651
24.1809 486
24.20101 465.001658536444
24.22112 494.034330456437
24.24124 511.999168403794
24.26135 496.066301343128
24.28146 475.00756214716
24.30158 483.994370422572
24.32169 480.001898433702
24.34181 482.001792943295
24.36192 478.986443680657
24.38203 463.995329181555
24.40215 474.027986281094
24.42226 479.988035015345
24.44237 494.958889080634
24.46249 518.001131302091
24.4826 496
24.50272 497.000800905077
24.52283 488.986724534866
24.54294 493.045467947769
24.56306 516.00329579922
24.58317 500.988741233401
24.60328 530.983800050618
24.6234 521
24.64351 525.007958241218
24.66362 544.01749319441
24.68374 578.144841370781
24.70385 641.04501461765
24.72397 566.054717520191
24.74408 609.929010602708
24.76419 647.00287947263
24.78431 637.016407533853
24.80442 695.017882100192
24.82453 668.986385097335
24.84465 701.091534047181
24.86476 699.095463923111
24.88488 653.985989384321
24.90499 688.020706520792
24.9251 603
24.94522 686.03684420964
24.96533 634.921928043653
24.98544 626.990975604788
25.00556 611.996816333338
25.02567 623.020533178018
25.04579 576.027022160254
25.0659 549
25.08601 560.986566702636
25.10613 509.972999902816
25.12624 519.953567181249
25.14635 474.983502922188
25.16647 541.906312267135
25.18658 546.044354217984
25.20669 503.999130917373
25.22681 547.020116851862
25.24692 552.983451305587
25.26704 541.01611032052
25.28715 569.080829560545
25.30726 578.053912170089
25.32738 537.0201011471
25.34749 549.988169735473
25.3676 581
25.38772 657.068634269979
25.40783 680.950450582819
25.42795 661.18858479562
25.44806 791.87628685094
25.46817 761.038156978627
25.48829 790.981653878818
25.5084 788
25.52851 724.964769561156
25.54863 689.040913105334
25.56874 718.887298748422
25.58886 578.263425886913
25.60897 524.991774801248
25.62908 543.992101119445
25.6492 535
25.66931 536.999904408973
25.68942 520.966070398562
25.70954 486.973299343464
25.72965 507.879339111644
25.74976 547.001592123598
25.76988 518.014780295265
25.78999 530.993956828473
25.81011 526.99665423328
25.83022 521.987833882006
25.85033 513.020352819012
25.87045 529.954558772311
25.89056 492.006926092308
25.91067 525.969546067005
25.93079 507.016383897321
25.9509 509
25.97102 579.007171656149
25.99113 533.978217108264
26.01124 575.078792876437
26.03136 566.094715037667
26.05147 522.012260776063
26.07158 552.959082111185
26.0917 570
26.11181 566.023457544929
26.13193 636.032406217382
26.15204 603.959184174021
26.17215 627.910269729953
26.19227 661.925271780989
26.21238 710.987488685579
26.23249 701.990133314765
26.25261 763.031837983471
26.27272 795.003040436193
26.29283 803.065316346916
26.31295 853.997491972149
26.33306 836.877156246065
26.35318 982.860051591788
26.37329 1057.98073908064
26.3934 1122
26.41352 1311.23273832512
26.43363 1576.45515114711
26.45374 1943.8811602379
26.47386 2493.66113734258
26.49397 3249.8332669604
26.51409 4177.37858811523
26.5342 5775
26.55431 7643.98160042042
26.57443 9781.46915269198
26.59454 12104.1813673163
26.61465 13785.818407618
26.63477 14299.9580517226
26.65488 12597.2718209559
26.67499 10191.2684619941
26.69511 7809.06839146329
26.71522 6288.34913242615
26.73534 4332.19040385493
26.75545 2800.16106741629
26.77556 1977.16611214516
26.79568 1564.21817078981
26.81579 1438.07565272957
26.8359 1220
26.85602 1064.85148919246
26.87613 930.902173823087
26.89625 911.882733730953
26.91636 809.22043360216
26.93647 722.117339942448
26.95659 664.004892970442
26.9767 667
26.99681 596.998810189206
27.01693 644.986295925746
27.03704 564.885465221012
27.05716 570.965199722309
27.07727 559.044960338543
27.09738 530.019789703824
27.1175 529
27.13761 544.993215543328
27.15772 505.966020972449
27.17784 498.018628893592
27.19795 500.052656854736
27.21806 474.987344915807
27.23818 505.986709257631
27.25829 481.020738683999
27.27841 444.985291132819
27.29852 437.027866637388
27.31863 490.07866661064
27.33875 508.942637896915
27.35886 465.070004499771
27.37897 460.969912309427
27.39909 475.007766187743
27.4192 450
27.43932 509.079785328086
27.45943 549.954804536003
27.47954 471.859585850268
27.49966 455.938891092577
27.51977 487.010313414256
27.53988 444.038540506495
27.56 449
27.58011 509.02116844876
27.60023 513.965530015398
27.62034 488.979620279787
27.64045 500.937969578604
27.66057 532.936804902682
27.68068 560.017230859627
27.70079 520.005890670128
27.72091 549.015709519756
27.74102 568.029312265378
27.76113 615.072660837431
27.78125 653.076491129227
27.80136 677.966312179373
27.82148 698.961039732803
27.84159 727.013237874638
27.8617 684
27.88182 757.026619557182
27.90193 697.868690089721
27.92204 631.900901015633
27.94216 597.030425764408
27.96227 579.070886867072
27.98239 507.032072292687
28.0025 473
28.02261 460.9885526053
28.04273 439.004034468257
28.06284 463.036634884394
28.08295 452.092396580252
28.10307 420.993609503213
28.12318 449.986324522677
28.1433 423
28.16341 393.01387640725
28.18352 437.986685093375
28.20364 373.937069683152
28.22375 408.125802494771
28.24386 428.017601781028
28.26398 422.970702479277
28.28409 468.993083016063
28.3042 424
28.32432 365.002067735176
28.34443 419.088029255964
28.36455 437.952143158419
28.38466 399.083018082129
28.40477 388.941115922492
28.42489 432.008686864074
28.445 366
28.46511 386.016596079548
28.48523 396.996957894807
28.50534 409.08727430819
28.52546 453.011340421552
28.54557 400.072247805033
28.56568 396.968995306928
28.5858 431
28.60591 426.996248289834
28.62602 435.02549142264
28.64614 445.924348431658
28.66625 388.035300820065
28.68636 418.97193706905
28.70648 406.98500769363
28.72659 438.008694845344
28.74671 390.002015428227
28.76682 430.980536577564
28.78693 357.966958223887
28.80705 406.083668183822
28.82716 400.967653310776
28.84727 439.995406621774
28.86739 402.012534374652
28.8875 404
28.90762 387.021307211608
28.92773 423.977299265011
28.94784 368.970210255651
28.96796 403.970303147886
28.98807 376.035541918122
29.00818 380.988837253561
29.0283 397
29.04841 420.970654110135
29.06853 333.00303041686
29.08864 423.114888361467
29.10875 398.094199441448
29.12887 397.972344157787
29.14898 405.015277372888
29.16909 376.011439750488
29.18921 366.996670021248
29.20932 363.010708655782
29.22943 391.053348780808
29.24955 406.945623690153
29.26966 377.974793151567
29.28978 416.001669723541
29.30989 371.013311637391
29.33 391
29.35012 398.976201590372
29.37023 368.993963115608
29.39034 394.050442135261
29.41046 393.050314932017
29.43057 368.998897798101
29.45069 404.971104045309
29.4708 439
29.49091 378.978386510349
29.51103 385.052352643453
29.53114 416.028190379421
29.55125 408.056410624425
29.57137 401.948443755485
29.59148 467.936145341034
29.6116 470
29.63171 376.004351956263
29.65182 481.085067765306
29.67194 492.999892865156
29.69205 503.959746587395
29.71216 488.895495157066
29.73228 582.957280528086
29.75239 558.008448787503
29.7725 593
29.79262 637.03387764016
29.81273 655.996663499738
29.83285 661.116697600649
29.85296 738.874856486246
29.87307 737.106165149121
29.89319 651.020822619381
29.9133 660
29.93341 641.992547563732
29.95353 616.885660170608
29.97364 522.928629906002
29.99376 539.027257947707
30.01387 479.061366534146
30.03398 487.975226925817
30.0541 488
30.07421 438.977230637911
30.09432 428.034521974096
30.11444 477.041961537208
30.13455 457.079439202417
30.15467 428.060053185969
30.17478 401.972245373189
30.19489 458.989364621925
30.21501 419.970504697433
30.23512 384.99391796953
30.25523 407.067021386641
30.27535 440.986230745703
30.29546 416.985824821398
30.31557 437.051977965804
30.33569 362.016075744946
30.3558 392
30.37592 391.00324143121
30.39603 408.009047390365
30.41614 401.004745508607
30.43626 404.054688847056
30.45637 361.018467105312
30.47648 375.010237501621
30.4966 346
30.51671 384.001227914076
30.53683 345.972141143266
30.55694 373.078754048113
30.57705 389.026710927895
30.59717 369.013136134594
30.61728 373.999154905267
30.63739 368.997297866191
30.65751 386.006659208896
30.67762 389.000979455659
30.69773 384.969630287246
30.71785 366.028345882994
30.73796 395.984678249223
30.75808 380.997374133512
30.77819 407.991213640935
30.7983 402
30.81842 394.984431765516
30.83853 376.996726376648
30.85864 390.019019575065
30.87876 391.982334746198
30.89887 409.977878307155
30.91899 407.011493479833
30.9391 385
30.95921 405.003221874531
30.97933 391.988655520028
30.99944 404.041955191704
31.01955 422.960104039389
31.03967 438.970915083567
31.05978 451.009932805839
31.0799 442
31.10001 503.023720604266
31.12012 508.980680597779
31.14024 509.095666639439
31.16035 578.909146108538
31.18046 567.04115125848
31.20058 577.957084510851
31.22069 616.002484265443
31.2408 579
31.26092 582.986156039011
31.28103 548.978404918139
31.30115 552.955038827731
31.32126 496.142540847403
31.34137 451.996791406994
31.36149 473.003154554924
31.3816 436
31.40171 430.989702786498
31.42183 397.990332647692
31.44194 418.015658976229
31.46206 405.007830968215
31.48217 410.02399287872
31.50228 380.006563701406
31.5224 392
31.54251 360.998203719525
31.56262 387.011178842703
31.58274 379.025061041392
31.60285 406.011680363194
31.62297 373.017631827978
31.64308 394.981333578653
31.66319 395.997106758588
31.68331 395.980561307509
31.70342 338.979506917433
31.72353 374.083219935492
31.74365 405.996181223618
31.76376 396.961879104113
31.78387 435.977834259989
31.80399 413.01507023651
31.8241 394
31.84422 388.033699712815
31.86433 439.028806665984
31.88444 429.023204526708
31.90456 476.905444085061
31.92467 496.001730894288
31.94478 487.012668460533
31.9649 476
31.98501 483.016087583306
32.00513 525.038149747962
32.02524 522.970529725055
32.04535 513.005621902757
32.06547 515.995586529246
32.08558 495.063185655805
32.10569 434.995903232596
32.12581 490.007610485777
32.14592 442.954552150257
32.16604 439.029034218761
32.18615 442.96837865755
32.20626 427.993469029007
32.22638 434.027159327298
32.24649 387.008428803628
32.2666 414
32.28672 421.982075451592
32.30683 396.979145638437
32.32694 398.004032300761
32.34706 397.982421513292
32.36717 427.921610550398
32.38729 464.010472980586
32.4074 407
32.42751 432.024743631585
32.44763 466.013667332238
32.46774 462.006940064123
32.48785 464.072023156153
32.50797 422.011150284746
32.52808 444.998438938972
32.5482 420
32.56831 451.017429230007
32.58842 451.960599991046
32.60854 407.988686590468
32.62865 439.934883111359
32.64876 430.065820217499
32.66888 398.019601230274
32.68899 392.001093957332
32.7091 396
32.72922 429.023123161937
32.74933 421.94387505718
32.76945 389.017785146636
32.78956 431.92282269762
32.80967 435.036668905153
32.82979 412.000162800455
32.8499 425
32.87001 413.009982528557
32.89013 446.984944044008
32.91024 396.944038525073
32.93036 412.959206568845
32.95047 423.959558401441
32.97058 454.005957312548
32.9907 419
33.01081 426.998350036639
33.03092 419.031008101501
33.05104 469.009458111299
33.07115 431.035013843823
33.09127 456.976804810088
33.11138 448.994029316909
33.13149 473.994345320637
33.15161 461.993824776562
33.17172 451.972450886773
33.19183 414.973270883585
33.21195 427.06107994228
33.23206 450.945538299557
33.25217 480.958809385895
33.27229 484.019253418248
33.2924 421
33.31252 408.021338919667
33.33263 441.040254245468
33.35274 443.957237518059
33.37286 417.025457830116
33.39297 428.958358909664
33.41308 445.014791061043
33.4332 417
33.45331 439.006915142011
33.47343 432.994935390714
33.49354 437.993537822198
33.51365 429.981650189698
33.53377 437.043668343552
33.55388 393.00109695465
33.57399 433.987854495123
33.59411 413.983338733176
33.61422 403.016565862998
33.63434 437.071655167572
33.65445 452.973053900864
33.67456 417.104118938732
33.69468 384.983571946773
33.71479 420.002468643232
33.7349 382
33.75502 417.018018648403
33.77513 395.962475805013
33.79524 390.003100713875
33.81536 393.97442214959
33.83547 400.034337559315
33.85559 359.012724864695
33.8757 361
33.89581 368.009647664364
33.91593 384.979257922907
33.93604 353.988039071603
33.95615 380.935979977481
33.97627 383.014964994319
33.99638 375.003529022942
34.0165 377
34.03661 381.999895287186
34.05672 379.000643904557
34.07684 380.989304540752
34.09695 370.015079066566
34.11706 373.982729992179
34.13718 380.995701673678
34.15729 384.996489876959
34.17741 393.001713767005
34.19752 397.015088955991
34.21763 415.002876308094
34.23775 403.995067576294
34.25786 409.023658103609
34.27797 389.988702738121
34.29809 428.979429975769
34.3182 436
34.33831 387.987887510422
34.35843 409.07689057013
34.37854 459.062351010653
34.39866 463.029779018865
34.41877 452.984519595497
34.43888 483.963887294322
34.459 520
34.47911 564.010910520338
34.49922 558.983838481837
34.51934 569.115770143195
34.53945 639.93543471611
34.55957 621.009715437306
34.57968 653.958268476926
34.59979 668.010074447449
34.61991 647.009054703358
34.64002 689.010488736667
34.66013 653.940872151181
34.68025 648.062493775233
34.70036 670.0256206978
34.72047 630.041433780788
34.74059 639.983215914767
34.7607 673
34.78082 670.972488891058
34.80093 661.07899415579
34.82104 750.106164595335
34.84116 769.880592455245
34.86127 865.91944173124
34.88138 880.942816914456
34.9015 991
34.92161 1005.97713468162
34.94173 988.125629613088
34.96184 1132.17503888733
34.98195 1116.12957678423
35.00207 1082.04454240753
35.02218 1049.02942028892
35.04229 1006.03974248112
35.06241 912.970769973938
35.08252 899.997073115574
35.10264 860.829539707446
35.12275 769.888882658962
35.14286 772.998480477831
35.16298 729.080599503902
35.18309 654.016701933911
35.2032 669
35.22332 679.970972766968
35.24343 619.901989864984
35.26354 581.995995656385
35.28366 584.067667584607
35.30377 535.999785908447
35.32389 580.98807733744
35.344 564
35.36411 564.98807054941
35.38423 522.977444942646
35.40434 550.079181653537
35.42445 572.985781552108
35.44457 554.075942579068
35.46468 514.976145289463
35.4848 565
35.50491 508.002307108356
35.52502 575.023927952968
35.54514 522.88816135293
35.56525 519.910978938287
35.58536 556.96975019272
35.60548 549.0092656384
35.62559 551.99648899379
35.64571 564.01297657709
35.66582 585.990647879969
35.68593 541.918374310336
35.70605 530.150321209924
35.72616 615.931398013493
35.74627 583.059767251968
35.76639 577.994208787174
35.7865 581
35.80661 562.996889698165
35.82673 572.015880317837
35.84684 578.017224301842
35.86696 576.065904285977
35.88707 536.003146386309
35.90718 583.935150905998
35.9273 615
35.94741 568.988289960593
35.96752 585.025784428416
35.98764 585.941829742531
36.00775 551.026691307797
36.02787 562.994937348662
36.04798 554.990825162251
36.06809 566.015599348722
36.08821 506.98625347573
36.10832 522.009997166937
36.12843 505.976593722228
36.14855 506.011873741547
36.16866 506.006761300558
36.18878 499.012124926276
36.20889 492.993455341448
36.229 522
36.24912 523.965916915548
36.26923 503.076892820193
36.28934 585.023043456422
36.30946 526.056779567534
36.32957 582.85566579439
36.34968 660.953696657374
36.3698 680
36.38991 714.039390374358
36.41003 837.21804732511
36.43014 962.159939032522
36.45025 1023.77086144964
36.47037 1168.74518382093
36.49048 1332.84894938859
36.51059 1431.99443627886
36.53071 1369.95758075201
36.55082 1280.87753010145
36.57094 1148.82995255809
36.59105 1081.67227837794
36.61116 940.026907611937
36.63128 992.082472102697
36.65139 763.092164268927
36.6715 694
36.69162 588.944526746975
36.71173 593.990526853142
36.73184 546.910173050184
36.75196 531.997758960285
36.77207 541.961336488908
36.79219 567.998439041033
36.8123 538
36.83241 502.000251543024
36.85253 536.063383896229
36.87264 561.012969802693
36.89275 547.087949185622
36.91287 512.017735864242
36.93298 520.995324942404
36.9531 520
36.97321 530.978471699437
36.99332 476.023795401871
37.01344 552.021642549808
37.03355 479.144242410268
37.05366 488.935771888148
37.07378 497.017098110197
37.09389 472.007166333485
37.11401 470.998388253487
37.13412 464.003320489113
37.15423 477.011865616845
37.17435 467.942142054743
37.19446 450.98573368246
37.21457 467.012285588766
37.23469 440.003489305726
37.2548 465
37.27491 470.989528840664
37.29503 443.986473010101
37.31514 458.036826738271
37.33526 458.045540983007
37.35537 436.98508169896
37.37548 477.957586423244
37.3956 499
37.41571 495.994680778302
37.43582 487.001242833586
37.45594 498.023383724128
37.47605 500.023020800361
37.49617 502.940012938023
37.51628 546.01366685019
37.53639 487.016382494111
37.55651 508.015599998511
37.57662 516.997402599573
37.59673 507.968715926329
37.61685 505.125789078569
37.63696 577.943797302051
37.65708 538.06476213191
37.67719 512.981487820265
37.6973 566
37.71742 527.004601839487
37.73753 581.039977998163
37.75764 565.003775619236
37.77776 594.985265828892
37.79787 570.024863989018
37.81798 570.015789097667
37.8381 540
37.85821 546.992977650788
37.87833 502.933035712945
37.89844 476.967599358058
37.91855 474.935419531376
37.93867 501.023306772038
37.95878 454.026047392147
37.97889 466.990958092723
37.99901 455.979826087877
38.01912 413.985108423276
38.03924 433.062889249554
38.05935 454.021164936253
38.07946 453.011360979289
38.09958 452.988766646605
38.11969 464.003233519969
38.1398 444
38.15992 447.004441202677
38.18003 457.049848652051
38.20015 490.985014545813
38.22026 457.018481680855
38.24037 485.957749531346
38.26049 489.003911810204
38.2806 486
38.30071 489.999041726047
38.32083 497.056062295066
38.34094 532.961726208192
38.36105 477.050527602293
38.38117 508.957236503271
38.40128 509.995268453566
38.4214 527
38.44151 524.006033178599
38.46162 531.960403290767
38.48174 468.964045060644
38.50185 496.982312095638
38.52196 472.996609672177
38.54208 497.014195020647
38.56219 437.026089986885
38.58231 423.000996840594
38.60242 434.035246623141
38.62253 472.005004452825
38.64265 444.959965944593
38.66276 455.97401954246
38.68287 457.000160830161
38.70299 449.016724182982
38.7231 408
38.74321 436.021923254046
38.76333 443.916331380186
38.78344 377.005798430732
38.80356 454.847347631017
38.82367 462.082528806528
38.84378 395.034948965591
38.8639 408
38.88401 426.998382723651
38.90412 411.991439472578
38.92424 408.967528057796
38.94435 398.913574479916
38.96447 452.986298815716
38.98458 408.043854774611
39.00469 404.988531912821
39.02481 441.025274209524
39.04492 486.016638478984
39.06503 460.913556871179
39.08515 420.042282610354
39.10526 474.936856158632
39.12538 461.021164224202
39.14549 459.995823755418
39.1656 471
39.18572 499.03776701923
39.20583 524.988757576819
39.22594 500.995970908989
39.24606 527.951453260544
39.26617 552.910207387709
39.28628 630.956519684532
39.3064 632
39.32651 704.082733992333
39.34663 869.064786904949
39.36674 833.091899367025
39.38685 982.720270791526
39.40697 1017.91348387325
39.42708 1135.88611255099
39.44719 1199.98492636883
39.46731 1178.94696124749
39.48742 999.796941135954
39.50754 837.801186559702
39.52765 797.996027797504
39.54776 785.103756706669
39.56788 703.074092352049
39.58799 628.060204328404
39.6081 478
39.62822 427.986557660187
39.64833 413.967760518188
39.66845 398.024738811859
39.68856 430.935156547558
39.70867 445.994892206357
39.72879 445.002085270435
39.7489 425
39.76901 374.996424027155
39.78913 400.005155256962
39.80924 375.992240087418
39.82935 415.851620322362
39.84947 444.046277216293
39.86958 402.974369605629
39.8897 482
39.90981 442.964173467446
39.92992 407.021515954494
39.95004 461.079041065658
39.97015 477.920354888915
39.99026 521.970713611581
40.01038 495.03927296444
40.03049 476.99591056061
40.05061 502.013684634655
40.07072 521.013646690972
40.09083 528.997911491446
40.11095 518.964684382608
40.13106 530.872961962878
40.15117 623.890233834518
40.17129 649.001867368158
40.1914 660
40.21152 727.039130244981
40.23163 747.080518580681
40.25174 839.161617484664
40.27186 850.138962801391
40.29197 750.103052472506
40.31208 734.00232205085
40.3322 690
40.35231 600.003518898016
40.37242 664.998544290063
40.39254 562.775658824568
40.41265 508.044248355781
40.43277 497.019709522204
40.45288 481.010325477599
40.47299 461.026515944776
40.49311 409.003842514587
40.51322 458.013487513189
40.53333 406.898081565315
40.55345 380.064211943109
40.57356 429.932809107085
40.59368 426.023167206559
40.61379 419.985344733223
40.6339 452
40.65402 403.989279563125
40.67413 432.000039340906
40.69424 394.966893403088
40.71436 420.933777001497
40.73447 436.986011127356
40.75458 453.971891039913
40.7747 471
40.79481 441.007227787182
40.81493 493.042379679129
40.83504 474.947259855289
40.85515 473.948889926517
40.87527 489.020327929978
40.89538 461.004838094119
40.91549 473.007492543217
40.93561 440.001108014306
40.95572 472.003259583461
40.97584 436.951212619806
40.99595 449.065048740664
41.01606 469.962825725852
41.03618 479.011118681498
41.05629 451.015357154792
41.0764 441
41.09652 465.993211455022
41.11663 433.978291264505
41.13675 448.027879470851
41.15686 431.077772327769
41.17697 390.042848926681
41.19709 387.987673616884
41.2172 424
41.23731 454.023473799505
41.25743 479.921834141574
41.27754 392.957897657595
41.29765 447.898679557458
41.31777 436.019124986257
41.33788 444.001474261896
41.358 439
41.37811 473.990135921208
41.39822 405.952577881969
41.41834 414.061170722703
41.43845 418.097383111163
41.45856 371.006211138321
41.47868 410.970068983132
41.49879 406.006045925718
41.51891 408.00475141321
41.53902 412.994952302725
41.55913 403.998072773715
41.57925 411.010705630825
41.59936 408.007818076049
41.61947 405.009824923933
41.63959 390.011790329511
41.6597 372
41.67982 394.025934179426
41.69993 406.997414509441
41.72004 393.961699537293
41.74016 380.998329851083
41.76027 387.007377811156
41.78038 376.993021154515
41.8005 399
41.82061 398.002422017547
41.84072 417.021687800739
41.86084 423.971882863859
41.88095 405.002956248937
41.90107 431.935962705987
41.92118 458.011438873823
41.94129 426.007324450361
41.96141 436.002146810943
41.98152 429.006368730044
42.00163 449.013676969042
42.02175 439.97465715658
42.04186 445.955241696255
42.06198 465.004808460183
42.08209 445.003004974866
42.1022 460
42.12232 460.998231665847
42.14243 469.030162783498
42.16254 490.015884677978
42.18266 477.05568959498
42.20277 461.970095772335
42.22289 494.000718141063
42.243 473
42.26311 556.055841715982
42.28323 636.031469428197
42.30334 636.085813214924
42.32345 730.775223301109
42.34357 799.870965934757
42.36368 903.917710009092
42.38379 951.980652392911
42.40391 1010.03969308843
42.42402 1076.01386026603
42.44414 1003.69352741817
42.46425 844.772937596999
42.48436 812.110734582707
42.50448 737.009101547715
42.52459 783.996067104918
42.5447 712
42.56482 628.916987766071
42.58493 535.855235406639
42.60505 451.851940075401
42.62516 418.036324262939
42.64527 404.016258788186
42.66539 393.006564141401
42.6855 378
42.70561 365.994775015284
42.72573 365.025934420264
42.74584 384.996155588857
42.76595 367.00893003342
42.78607 379.002523994714
42.80618 356.022410527532
42.8263 357
42.84641 385.003208828507
42.86652 370.990430715932
42.88664 376.01011673893
42.90675 374.996872900783
42.92686 381.984418613602
42.94698 382.011496955566
42.96709 363.009227361403
42.98721 362.012815391967
43.00732 392.002507265182
43.02743 359.937262973052
43.04755 333.979330500777
43.06766 342.951785854036
43.08777 365.989076988303
43.10789 354.010123735446
43.128 346
43.14812 367.002825076027
43.16823 348.975209740914
43.18834 350.025289560025
43.20846 357.020333217078
43.22857 336.020720773845
43.24868 344.970509135488
43.2688 368
43.28891 336.990791808013
43.30902 339.998884898029
43.32914 324.973993437111
43.34925 341.853158948973
43.36937 401.988627983937
43.38948 358.040862828083
43.40959 344.008658852744
43.42971 317.99538081101
43.44982 335.027500405543
43.46993 348.987593663989
43.49005 335.013762583027
43.51016 351.015454333671
43.53028 318.025337600185
43.55039 324.984293832769
43.5705 346
43.59062 325.035906677265
43.61073 395.029569334346
43.63084 347.906704662007
43.65096 340.988369406278
43.67107 342.986929479482
43.69119 360.990519866403
43.7113 371
43.73141 361.993983359374
43.75153 356.006550032556
43.77164 355.953320098601
43.79175 337.912063767042
43.81187 402.96581099137
43.83198 363.051331233072
43.85209 350.986349429688
43.87221 377.993373001088
43.89232 336.983821997403
43.91244 358.036893136851
43.93255 349.952378780038
43.95266 339.991870598828
43.97278 366.946392095742
43.99289 407.009302424903
44.013 365
44.03312 425.012185577591
44.05323 375.952998521854
44.07335 398.082272622445
44.09346 397.07507059541
44.11357 351.034638898155
44.13369 364.982930426685
44.1538 393
44.17391 377.978681093238
44.19403 346.027760927825
44.21414 399.0633282968
44.23426 378.098830532972
44.25437 343.997139221902
44.27448 366.991325289565
44.2946 354
44.31471 371.014942660903
44.33482 379.964650557578
44.35494 323.942186362805
44.37505 343.891561906934
44.39516 372.996773240208
44.41528 351.028619827067
44.43539 335.0002678898
44.45551 349.012375215351
44.47562 365.994038998341
44.49573 345.985062610296
44.51585 356.040220124356
44.53596 360.025216157349
44.55607 342.011252122858
44.57619 344.002624923579
44.5963 328
44.61642 332.022587018221
44.63653 359.02326475941
44.65664 352.955796105234
44.67676 341.955733048182
44.69687 388.938406184841
44.71698 391.039964333496
44.7371 346
44.75721 370.007309778053
44.77732 352.97165380361
44.79744 344.042486661749
44.81755 377.955656118371
44.83767 373.00878826816
44.85778 370.018164096345
44.87789 337.014428755776
44.89801 323.998135024439
44.91812 344.064732089485
44.93823 410.002383860111
44.95835 356.918119499197
44.97846 369.979598854044
44.99858 359.99894338784
45.01869 380.990822423627
45.0388 387
45.05892 398.007882965565
45.07903 410.046507000186
45.09914 439.987043135145
45.11926 411.00397840013
45.13937 430.022831258129
45.15949 384.008692995395
45.1796 416
45.19971 449.019825629256
45.21983 482.997618272345
45.23994 452.956708080828
45.26005 463.921728947827
45.28017 488.99428000686
45.30028 496.947944997459
45.32039 568.986727091205
45.34051 532.974687711565
45.36062 520.029850969398
45.38074 562.03575127048
45.40085 542.917244489933
45.42096 511.074568359747
45.44108 490.972530543284
45.46119 528.011033652465
45.4813 468
45.50142 522.034845777993
45.52153 498.940716930972
45.54165 479.994873244209
45.56176 494.928769439257
45.58187 517.045135498136
45.60199 466.000694824917
45.6221 517
45.64221 521.01167934879
45.66233 570.043907682671
45.68244 582.082894151185
45.70256 659.854671393468
45.72267 711.91742976751
45.74278 758.997324319613
45.7629 743
45.78301 797.001256133356
45.80312 707.858136272612
45.82324 583.858335689111
45.84335 568.973143563209
45.86346 576.985239313023
45.88358 581.004430356656
45.90369 562.017188274419
45.92381 518.978455999897
45.94392 476.953009310727
45.96403 438.988417156887
45.98415 449.993649998538
46.00426 426.041546974034
46.02437 425.978787883437
46.04449 435.004505368289
46.0646 421
46.08472 436.986825456495
46.10483 386.915923549988
46.12494 356.997420361194
46.14506 378.925765959767
46.16517 406.001691571169
46.18528 384.017451647218
46.2054 380
46.22551 371.002770001871
46.24563 387.008217156953
46.26574 375.974656429929
46.28585 379.939531314761
46.30597 392.054513683879
46.32608 335.012808633979
46.34619 378.975755101378
46.36631 381.97955649214
46.38642 342.004637101413
46.40653 383.038328078119
46.42665 372.963618537285
46.44676 364.047647275759
46.46688 342.979480808562
46.48699 390.988932365369
46.5071 377
46.52722 387.998870817769
46.54733 372.9999450555
46.56744 392.026747137448
46.58756 384.041040689936
46.60767 366.013285572295
46.62779 373.986998414449
46.6479 394
46.66801 355.983407037832
46.68813 342.988293421057
46.70824 348.081193695586
46.72835 400.954682874164
46.74847 371.067112362108
46.76858 342.015198404161
46.78869 346.983098914447
46.80881 385.004115225548
46.82892 370.001844855651
46.84904 387.98682042202
46.86915 353.941029946778
46.88926 355.98893157778
46.90938 352.00438378846
46.92949 351.99996746761
46.9496 347
46.96972 341.010336907434
46.98983 362.021458202685
47.00995 366.017486809512
47.03006 364.072243175849
47.05017 320.995106590398
47.07029 368.981221106327
47.0904 372
47.11051 364.977796331888
47.13063 313.004228290968
47.15074 364.061260604954
47.17086 349.035646546662
47.19097 354.979392533286
47.21108 359.007296412672
47.2312 343
47.25131 324.993530756421
47.27142 324.01538346917
47.29154 351.05817779734
47.31165 363.038515282671
47.33176 342.982946149896
47.35188 363.019009015399
47.37199 326.990041563248
47.39211 394.015827145762
47.41222 364.966654198962
47.43233 355.982598077298
47.45245 347.065151722331
47.47256 390.976727543421
47.49267 368.015374207979
47.51279 381.998837618603
47.5329 361
47.55302 351.987889692244
47.57313 345.030938844218
47.59324 374.996801836257
47.61336 342.045874740051
47.63347 351.962664469837
47.65358 361.019949251054
47.6737 330
47.69381 350.0147622297
47.71393 371.022284663821
47.73404 373.96521651213
47.75415 352.004703296661
47.77427 360.02510575817
47.79438 329.996676905015
47.81449 363.992404562356
47.83461 359.01128684169
47.85472 396.993101155712
47.87483 343.939960171305
47.89495 348.052580573401
47.91506 357.010680703243
47.93518 353.981909044011
47.95529 377.003707719012
47.9754 337
47.99552 331.026505900067
48.01563 365.025061913027
48.03574 364.010025825147
48.05586 377.996138165471
48.07597 365.01475018829
48.09609 356.014154791849
48.1162 324
48.13631 359.017171327787
48.15643 364.976291150833
48.17654 346.985999785557
48.19665 348.017118525934
48.21677 347.943864907899
48.23688 396.996823151721
48.257 346
48.27711 328.007072965798
48.29722 357.032090480351
48.31734 361.917671906621
48.33745 317.032333434431
48.35756 373.949840546952
48.37768 353.006096066304
48.39779 383.985456735504
48.4179 369
48.43802 310.000085094809
48.45813 362.062388393991
48.47825 362.978731813249
48.49836 366.985370708414
48.51847 371.990821204647
48.53859 370.011417791213
48.5587 345
48.57881 372.005025189723
48.59893 361.004252378073
48.61904 390.065131086652
48.63916 405.997925735595
48.65927 397.024070999931
48.67938 381.011432646373
48.6995 381
48.71961 396.000116845607
48.73972 373.964115851253
48.75984 349.006109938017
48.77995 367.985738429049
48.80006 359.986214847969
48.82018 376.009575495516
48.84029 348.00214574189
48.86041 368.001380675196
48.88052 340.972229518385
48.90063 338.028317003316
48.92075 357.000166226219
48.94086 345.990685092448
48.96097 368.974330458381
48.98109 364.009640534592
49.0012 351
49.02132 361.987914351006
49.04143 331.977738199622
49.06154 351.077721935621
49.08166 380.989219769109
49.10177 371.001624642668
49.12188 376.016054149037
49.142 356
49.16211 389.987582491011
49.18223 316.943257559352
49.20234 347.096725884323
49.22245 373.964454150253
49.24257 381.006246803131
49.26268 371.006429947238
49.28279 370.999995896465
49.30291 365.995735339029
49.32302 364.013236239217
49.34313 369.951272413903
49.36325 330.037776983761
49.38336 389.936937986523
49.40348 364.040069783984
49.42359 356.98484774813
49.4437 396
49.46382 380.984292499583
49.48393 378.996864694181
49.50404 377.02425657049
49.52416 396.985717682417
49.54427 380.047805592135
49.56439 364.987556011317
49.5845 413
49.60461 401.981341524095
49.62473 363.958446905186
49.64484 355.015948787657
49.66495 380.884537911841
49.68507 411.038814658038
49.70518 369.975148982384
49.7253 431
49.74541 356.996679035051
49.76552 429.035097654493
49.78564 406.024538081626
49.80575 471.104557337306
49.82586 454.072594466802
49.84598 437.995213428641
49.86609 471.964631802149
49.8862 548
49.90632 558.023952529469
49.92643 610.07339722901
49.94655 661.219556004115
49.96666 784.758559769904
49.98677 891.824111734285
50.00689 1007.96209069528
50.027 1081
50.04711 1280.08055560854
50.06723 1401.25046590835
50.08734 1610.31300315536
50.10746 1648.11264780323
50.12757 1544.19328548148
50.14768 1383.21904759605
50.1678 1161
50.18791 1090.94948596386
50.20802 944.897090246424
50.22814 950.184701757964
50.24825 1014.15149985228
50.26837 841.262810854828
50.28848 711.143058441799
50.30859 549.062056058149
50.32871 482.979397178284
50.34882 435.951558743795
50.36893 400.985379519682
50.38905 403.980101459587
50.40916 377.059600657049
50.42927 360.005889936135
50.44939 361.99968439428
50.4695 362
50.48962 373.00271123379
50.50973 372.017399675839
50.52984 385.979494307663
50.54996 359.018410498907
50.57007 382.942595025855
50.59018 402.015544602869
50.6103 363
50.63041 358.013312034888
50.65053 381.978647380279
50.67064 349.006418964655
50.69075 385.967123591379
50.71087 364.016631385628
50.73098 375.998744327776
50.75109 356.008868085727
50.77121 350.997524666308
50.79132 355.034567718627
50.81143 396.001622651105
50.83155 354.901897066214
50.85166 342.010004539152
50.87178 338.988202961889
50.89189 358.995756333547
50.912 355
50.93212 361.992253468732
50.95223 344.998516748909
50.97234 352.96987450707
50.99246 324.996584292348
51.01257 363.938189389929
51.03269 377.005626120914
51.0528 354
51.07291 345.009801207719
51.09303 378.028818390669
51.11314 372.973851107879
51.13325 360.051129808291
51.15337 344.982729558767
51.17348 376.975067288618
51.1936 361
51.21371 295.993517673325
51.23382 336.040807654692
51.25394 333.925926471107
51.27405 301.984963396351
51.29416 334.967691856357
51.31428 335.968908607511
51.33439 368.021059158804
51.3545 289
51.37462 367.049855067324
51.39473 343.950490259006
51.41485 337.989308443995
51.43496 327.995198658604
51.45507 347.963195990082
51.47519 361.001019716017
51.4953 352
51.51541 355.000845002949
51.53553 347.978490064282
51.55564 340.02182944373
51.57576 358.993205928987
51.59587 337.050346314734
51.61598 315.000448602894
51.6361 335
51.65621 350.995408384231
51.67632 329.992511271751
51.69644 345.042686651758
51.71655 348.060247913115
51.73667 311.039562670193
51.75678 307.989917743214
51.77689 319.993574761718
51.79701 330.002090228583
51.81712 326.991301838217
51.83723 318.996656702574
51.85735 318.984390553817
51.87746 313.975539703902
51.89757 337.978961818199
51.91769 333.005748518125
51.9378 330
51.95792 341.002887355924
51.97803 334.992800409825
51.99814 329.966956425122
52.01826 310.007133481264
52.03837 329.953598339951
52.05848 349.003783113887
52.0786 335
52.09871 354.010850753535
52.11883 364.000696240287
52.13894 360.994590887654
52.15905 360.003907855992
52.17917 354.017835462316
52.19928 344.995623718486
52.21939 356.998365306804
52.23951 355.006219889401
52.25962 375.000737553976
52.27974 359.998917015381
52.29985 364.929265137675
52.31996 327.963521583549
52.34008 382.990787813625
52.36019 338.012505644989
52.3803 355
52.40042 329.972343577887
52.42053 334.061373092203
52.44064 369.966955402501
52.46076 320.03261722012
52.48087 350.9619410956
52.50099 344.006700547685
52.5211 346
52.54121 367.014317272692
52.56133 385.987188546439
52.58144 363.992816981307
52.60155 379.987640454102
52.62167 370.992923500598
52.64178 389.994067309477
52.6619 371
52.68201 350.99554854365
52.70212 372.067035900982
52.72224 432.971009623624
52.74235 375.00000077079
52.76246 434.958941708518
52.78258 384.054607643127
52.80269 373.99208452424
52.8228 391
52.84292 397.004415543865
52.86303 409.036005078419
52.88315 417.905412277451
52.90326 359.043190430281
52.92337 394.916027612752
52.94349 421.00865753277
52.9636 379
52.98371 377.011694849118
53.00383 407.03656872744
53.02394 415.990788077607
53.04406 414.964375728537
53.06417 423.068566202171
53.08428 358.004740963514
53.1044 414
53.12451 396.985714171362
53.14462 382.984391135586
53.16474 369.014900621633
53.18485 388.990906071216
53.20497 376.001735686221
53.22508 395.97822458063
53.24519 404.001175099921
53.26531 392.989347451312
53.28542 368.983088678937
53.30553 368.021607816581
53.32565 387.032716732177
53.34576 393.978656586437
53.36587 399.030105397435
53.38599 371.997929085191
53.4061 407
53.42622 413.008987122389
53.44633 441.057514175646
53.46644 466.99758502584
53.48656 434.108038502077
53.50667 387.031723176489
53.52678 398.966114939936
53.5469 428
53.56701 414.991160544503
53.58713 408.004745093229
53.60724 408.97425314175
53.62735 394.976122962881
53.64747 416.006634541876
53.66758 396.985717832037
53.68769 444.983168597355
53.70781 443.995708479663
53.72792 442.99475254753
53.74804 429.975490983422
53.76815 421.979055213181
53.78826 422.950454436692
53.80838 450.007202364489
53.82849 430.985965785019
53.8486 488
53.86872 433.948014704031
53.88883 434.058235911794
53.90894 459.948680096313
53.92906 410.015060847134
53.94917 446.973990867646
53.96929 425.008396567866
53.9894 435
54.00951 437.999711663941
54.02963 444.022739175651
54.04974 456.993335010068
54.06985 445.989656487137
54.08997 461.997474066327
54.11008 449.998825897084
54.1302 458
54.15031 418.98997723695
54.17042 432.021087865961
54.19054 435.972733800732
54.21065 412.064966886227
54.23076 405.943556325564
54.25088 447.979782102353
54.27099 441.002251360595
54.29111 449.000378657754
54.31122 437.992467308908
54.33133 434.981411857783
54.35145 417.993402079936
54.37156 431.972104052055
54.39167 439.981369530708
54.41179 452.001984282458
54.4319 436
54.45201 440.00096999175
54.47213 438.009982806212
54.49224 453.020657046084
54.51236 442.071660135991
54.53247 416.961588528558
54.55258 466.992347248976
54.5727 439
54.59281 490.011032092166
54.61292 480.024285922768
54.63304 532.01256175387
54.65315 488.0633620951
54.67327 509.955807970575
54.69338 525.979115331503
54.71349 546.002779095027
54.73361 545.029098559132
54.75372 659.110273007589
54.77383 723.047761003386
54.79395 741.017395695367
54.81406 743.994207586014
54.83417 766.911626783568
54.85429 818.008958842483
54.8744 734
54.89452 679.948306320011
54.91463 628.96833727298
54.93474 629.974188910032
54.95486 609.967815725483
54.97497 642.02327214106
54.99508 597.989486712485
55.0152 643
55.03531 543.961974184467
55.05543 524.964057398408
55.07554 482.979256138648
55.09565 515.904213033068
55.11577 539.959408136392
55.13588 555.030108926147
55.15599 504.006927810804
55.17611 546.029272260073
55.19622 569.976542023513
55.21634 531.986798716432
55.23645 568.110941274934
55.25656 592.9782858026
55.27668 610.959892068352
55.29679 639.017026258813
55.3169 565
55.33702 577.01308849885
55.35713 541.879626018059
55.37724 471.988807316825
55.39736 518.932553845063
55.41747 513.010790333861
55.43759 525.992056627397
55.4577 533
55.47781 532.995862951019
55.49793 508.937115554248
55.51804 462.933881069268
55.53815 460.922806206365
55.55827 483.04603456233
55.57838 419.033096512617
55.5985 443
55.61861 471.007226922355
55.63872 483.018138258616
55.65884 503.017041104187
55.67895 503.974179435761
55.69906 517.016293470261
55.71918 485.034184835587
55.73929 480.981294463791
55.75941 524.000395231312
55.77952 481.962258744163
55.79963 472.997106183539
55.81975 465.994237126499
55.83986 465.025236522427
55.85997 448.001325997894
55.88009 465.990510393613
55.9002 462
55.92031 445.02572727751
55.94043 512.969455454608
55.96054 416.891288069939
55.98066 446.918730697207
56.00077 450.014458687156
56.02088 438.028861722011
56.041 410
56.06111 435.999862789213
56.08122 406.986266674921
56.10134 407.943356052153
56.12145 368.965700327541
56.14157 420.98157571792
56.16168 371.056517382761
56.18179 362.979694963489
56.20191 407.000675522653
56.22202 370.977731063799
56.24213 394.073711777521
56.26225 412.877307696548
56.28236 347.980045960344
56.30248 427.94572444596
56.32259 412.017948777016
56.3427 399
56.36282 405.003751328942
56.38293 403.995626285205
56.40304 400.991930973421
56.42316 400.97987584089
56.44327 416.982723943164
56.46338 413.020238124132
56.4835 393
56.50361 418.02182652208
56.52373 440.956027311702
56.54384 388.973490581783
56.56395 422.928965167352
56.58407 414.038699148887
56.60418 392.017636114006
56.62429 384.995129108715
56.64441 398.99974909547
56.66452 390.007154209562
56.68464 405.985633316666
56.70475 376.956219657017
56.72486 386.959017899289
56.74498 402.986858285476
56.76509 409.003680013205
56.7852 393
56.80532 395.019648492381
56.82543 407.969526581605
56.84554 371.985530673318
56.86566 391.997097844229
56.88577 361.047120347394
56.90589 365.976745377959
56.926 417
56.94611 396.998215928842
56.96623 412.98493076371
56.98634 373.94962897993
57.00645 375.998884203952
57.02657 374.960200926439
57.04668 417.981402023206
57.0668 394
57.08691 366.001202959256
57.10702 390.022535540238
57.12714 399.011800426742
57.14725 404.010942666918
57.16736 392.01856835669
57.18748 388.006295899526
57.20759 386.990230752469
57.22771 407.993874234861
57.24782 379.005519551033
57.26793 408.989978233245
57.28805 369.985217148116
57.30816 394.028495708838
57.32827 345.017523014745
57.34839 380.989115457831
57.3685 377
57.38861 409.992158347446
57.40873 357.978772058328
57.42884 392.03802633095
57.44896 379.992481046731
57.46907 403.001914546192
57.48918 382.989498804317
57.5093 411
57.52941 366.003495941222
57.54952 413.9981728789
57.56964 358.958339487016
57.58975 396.91444449143
57.60987 390.035296453115
57.62998 382.981807528164
57.65009 405.002290492047
57.67021 385.003107120807
57.69032 403.976805126114
57.71043 353.990769046018
57.73055 398.075726472821
57.75066 380.07472062231
57.77078 361.988303378177
57.79089 384.9973273147
57.811 355
57.83112 318.010439341463
57.85123 365.063381486969
57.87134 370.95704422917
57.89146 344.037589787218
57.91157 347.957607817663
57.93168 384.972033431733
57.9518 384
57.97191 343.990045878735
57.99203 347.002760510803
58.01214 332.959180315856
58.03225 329.927617582183
58.05237 369.977566520563
58.07248 353.01989840984
58.09259 347.002013103409
58.11271 343.003078383901
58.13282 358.012266140272
58.15294 362.002911178106
58.17305 361.984591634237
58.19316 355.989430678169
58.21328 367.00002684568
58.23339 357.001069630275
58.2535 355
58.27362 320.000798462327
58.29373 356.040930319903
58.31385 345.918535420123
58.33396 318.02027904794
58.35407 335.934656690083
58.37419 376.994081158015
58.3943 362
58.41441 360.996660703948
58.43453 349.001701513833
58.45464 353.962638864349
58.47475 321.0244006793
58.49487 337.984835602436
58.51498 334.988837031181
58.5351 363
58.55521 353.983229685039
58.57532 322.995006860247
58.59544 340.023686087578
58.61555 339.979374458488
58.63566 358.976564154424
58.65578 355.01022028151
58.67589 348.001818555109
58.69601 352.007905769003
58.71612 358.97319872396
58.73623 322.002618973901
58.75635 358.042788932995
58.77646 344.009304087257
58.79657 362.975484933196
58.81669 367.994509382504
58.8368 379
58.85691 348.991177467984
58.87703 356.021754766987
58.89714 363.002760232294
58.91726 361.010176036298
58.93737 358.989439755123
58.95748 362.0201293989
58.9776 338
58.99771 374.006105208899
59.01782 355.993863158284
59.03794 382.072745984804
59.05805 395.057473167578
59.07817 358.024172090916
59.09828 379.957541034516
59.11839 406.005252448848
59.13851 376.995371306028
59.15862 393.008831682424
59.17873 392.027978177707
59.19885 428.052939050447
59.21896 417.057430310935
59.23908 396.001809605434
59.25919 407.995508173274
59.2793 409
59.29942 405.966243275022
59.31953 362.989394372817
59.33964 397.0710472814
59.35976 410.983918760709
59.37987 417.012384700633
59.39998 405.989847067841
59.4201 425
59.44021 394.995727098714
59.46033 413.010547180735
59.48044 398.984341749572
59.50055 404.998988988772
59.52067 398.990600934978
59.54078 422.971850579379
59.56089 438.001222588808
59.58101 422.990842994101
59.60112 419.01903831125
59.62124 450.045662562564
59.64135 462.044654594206
59.66146 483.985974916271
59.68158 470.022204870289
59.70169 466.984457170308
59.7218 523
59.74192 566.040543257252
59.76203 624.125153330616
59.78215 698.049285913319
59.80226 703.848626327759
59.82237 832.880061423675
59.84249 849.979584891088
59.8626 967
59.88271 1095.03175892233
59.90283 1123.08222284905
59.92294 1205.09173696244
59.94305 1151.38454161863
59.96317 967.210172841056
59.98328 884.083115226744
60.0034 778
60.02351 723.985868349673
60.04362 734.073366135942
60.06374 822.054855548556
60.08385 763.239941502633
60.10396 697.032481531876
60.12408 684.075328575069
60.14419 552.057475910314
60.16431 493.98395983809
60.18442 462.97756099539
60.20453 433.914073621905
60.22465 373.96462830458
60.24476 408.921597207818
60.26487 407.066377805566
60.28499 362.999606149793
60.3051 392
60.32522 357.999484841134
60.34533 397.031567310612
60.36544 375.93952692292
60.38556 359.026619506231
60.40567 356.959491333604
60.42578 395.984474054021
60.4459 377
60.46601 369.010467734711
60.48612 391.990285685543
60.50624 365.01179368899
60.52635 406.92348864528
60.54647 398.044960935676
60.56658 388.964348641783
60.58669 437.996723931528
60.60681 405.994526136699
60.62692 429.010522698455
60.64703 398.921643174813
60.66715 364.011165939065
60.68726 394.955289929316
60.70738 390.016457867316
60.72749 382.996142950747
60.7476 396
60.76772 387.993342927167
60.78783 378.958626482658
60.80794 353.02492687715
60.82806 396.937816719025
60.84817 386.057955762335
60.86828 360.983881339936
60.8884 391
60.90851 356.006801568103
60.92863 409.015807559346
60.94874 362.92923355564
60.96885 378.896868432011
60.98897 406.997460481123
61.00908 387.023923203132
61.02919 375.999269435415
61.04931 378.997075762218
61.06942 375.018947328846
61.08954 398.979561665103
61.10965 353.897026138411
61.12976 348.94838060874
61.14988 376.993246126407
61.16999 361.008444217208
61.1901 358
61.21022 368.021445428972
61.23033 385.990572959261
61.25045 362.971540492473
61.27056 372.97394918391
61.29067 379.984991776617
61.31079 397.989231290212
61.3309 412
61.35101 395.987544952797
61.37113 385.029637249546
61.39124 428.083260546748
61.41135 439.062875462916
61.43147 405.014667997417
61.45158 423.98071997247
61.4717 428
61.49181 430.998134981046
61.51192 433.028521112155
61.53204 469.006229735506
61.55215 456.923944194453
61.57226 517.957559075346
61.59238 482.040103291809
61.61249 474.994570784773
61.63261 495.017716654697
61.65272 529.008596351143
61.67283 530.051880628276
61.69295 583.036027671624
61.71306 538.136135163526
61.73317 515.912874719107
61.75329 597.992894238682
61.7734 550
61.79352 587.006090643322
61.81363 535.920159939804
61.83374 520.014063220845
61.85386 523.027179634538
61.87397 504.996185512594
61.89408 521.999732297478
61.9142 496
61.93431 487.008373167178
61.95442 518.029085729434
61.97454 508.864740586691
61.99465 436.007182893915
62.01477 493.947928583794
62.03488 483.992500945952
62.05499 514.00256034173
62.07511 476.996118643913
62.09522 503.003482138343
62.11533 469.959113733484
62.13545 475.055439986373
62.15556 489.009596879465
62.17568 470.018038737452
62.19579 457.009283054587
62.2159 460
62.23602 538.01033967603
62.25613 487.969003921824
62.27624 518.02600716428
62.29636 477.127339173527
62.31647 440.981792020024
62.33659 481.985178433022
62.3567 474
62.37681 442.991397234592
62.39693 450.044200662281
62.41704 469.95986262034
62.43715 431.014299625194
62.45727 452.015947206952
62.47738 417.990344522691
62.49749 463.996209186141
62.51761 421.986055393974
62.53772 427.996669656147
62.55784 399.950861154429
62.57795 397.023181539092
62.59806 401.018952972424
62.61818 394.977378136113
62.63829 428.000273303063
62.6584 390
62.67852 381.00132496599
62.69863 381.00462580971
62.71875 386.003202151837
62.73886 387.974833458555
62.75897 405.987982736325
62.77909 394.013302437804
62.7992 367
62.81931 368.010411235321
62.83943 385.987019987412
62.85954 364.003363902918
62.87965 392.943512874096
62.89977 397.98608238936
62.91988 409.011958507063
62.94 385
62.96011 410.007685172379
62.98022 392.962403138823
63.00034 357.959575705334
63.02045 353.00199188418
63.04056 363.917255040946
63.06068 406.006761831776
63.08079 354.021957851956
63.10091 346.001645027818
63.12102 354.030739249629
63.14113 387.998760984483
63.16125 355.945679109892
63.18136 367.943980934262
63.20147 388.987731652495
63.22159 388.998966070021
63.2417 382
63.26182 344.013070768322
63.28193 396.040688787414
63.30204 379.971115713428
63.32216 385.998459261092
63.34227 371.02314903762
63.36238 369.98684089653
63.3825 387
63.40261 378.985880434548
63.42272 348.989038638089
63.44284 366.066868335939
63.46295 387.023699161129
63.48307 360.02033086732
63.50318 360.016997862375
63.52329 337.992021384625
63.54341 387.01681077392
63.56352 380.977756439063
63.58363 372.015917690765
63.60375 388.00191109103
63.62386 376.003509924712
63.64398 380.017585358572
63.66409 353.996741287436
63.6842 389
63.70432 382.003936801983
63.72443 409.03872884133
63.74454 404.922523887871
63.76466 364.009779683145
63.78477 393.961248124511
63.80489 396.00141195175
63.825 402
63.84511 421.019975590453
63.86523 455.987935440322
63.88534 419.977851782071
63.90545 454.877526149939
63.92557 489.964294086659
63.94568 523.938190839609
63.96579 569.017659807995
63.98591 496.999599978989
64.00602 565.026855326832
64.02614 508.857588768964
64.04625 480.01139287794
64.06636 486.030915706726
64.08648 448.038166499308
64.10659 430.998031729454
64.1267 449
64.14682 463.9931552284
64.16693 442.976044337522
64.18705 429.923119520523
64.20716 394.014072390622
64.22727 422.942582760273
64.24739 438.00736883021
64.2675 407
64.28761 387.986728590056
64.30773 360.993806873785
64.32784 367.967004275857
64.34796 341.972980689471
64.36807 379.006807935799
64.38818 338.006940177294
64.4083 383
64.42841 392.997540574432
64.44852 377.960735980645
64.46864 335.983625001416
64.48875 363.924860974519
64.50886 372.009371952304
64.52898 366.005240104177
64.54909 363.000612120381
64.56921 366.00506841122
64.58932 363.963625224459
64.60943 308.947619231324
64.62955 321.12012504943
64.64966 362.992715078209
64.66977 336.027399697688
64.68989 341.996699127096
64.71 342
64.73012 356.999171737384
64.75023 337.972266306895
64.77034 334.012431944912
64.79046 341.98898831536
64.81057 343.997719401655
64.83068 344.005609950941
64.8508 340
64.87091 360.008658562666
64.89102 363.993319532128
64.91114 350.964987501261
64.93125 339.987133480613
64.95137 352.995557337657
64.97148 336.028827765448
64.99159 323.987094867364
65.01171 359.998536142165
65.03182 326.994737241317
65.05193 360.036285967848
65.07205 360.017139968598
65.09216 370.04335051521
65.11228 332.003677840402
65.13239 369.98189769518
65.1525 365
65.17262 322.994102582311
65.19273 353.045941618416
65.21284 350.933552221592
65.23296 331.920960202335
65.25307 393.994560202423
65.27319 336.020754648249
65.2933 347
65.31341 360.01229543199
65.33353 378.962453282322
65.35364 321.923528775717
65.37375 329.92083625414
65.39387 346.025048568529
65.41398 320.991516459096
65.43409 355.993786582902
65.45421 341.000803789775
65.47432 371.026038712895
65.49444 361.913490305302
65.51455 320.99402427676
65.53466 360.900829820356
65.55478 378.02608895404
65.57489 334.012798141968
65.595 350
65.61512 376.974490842878
65.63523 325.97803659808
65.65535 353.031894171558
65.67546 335.019101053385
65.69557 349.975289156189
65.71569 353.999798949838
65.7358 355
65.75591 361.016527930673
65.77603 407.03922250531
65.79614 391.909123743079
65.81626 352.01646591812
65.83637 373.962415400891
65.85648 373.029247241966
65.8766 335
65.89671 333.003593086076
65.91682 341.013496434779
65.93694 356.014982748143
65.95705 345.078353636153
65.97716 321.967032485491
65.99728 359.990245274149
66.01739 334.009768939289
66.03751 345.011799561588
66.05762 351.978799084731
66.07773 319.979731886902
66.09785 325.994476703714
66.11796 314.985220446434
66.13807 341.969401799908
66.15819 344.00115968922
66.1783 345
66.19842 344.01088548388
66.21853 351.969250257077
66.23864 318.992656616707
66.25876 345.965789166372
66.27887 337.016742834234
66.29898 345.972504779397
66.3191 359
66.33921 318.010980606419
66.35933 381.016686864401
66.37944 319.877723373973
66.39955 307.960803998042
66.41967 331.948227038073
66.43978 352.022419257592
66.45989 312.002162109446
66.48001 342.004861209121
66.50012 319.989176740241
66.52023 339.037147627093
66.54035 336.905862508923
66.56046 301.969030676608
66.58058 356.964387598801
66.60069 341.020701033298
66.6208 319
66.64092 353.010603311918
66.66103 339.000713867771
66.68114 353.981214950081
66.70126 322.026808107209
66.72137 345.941034771786
66.74149 368.003291469039
66.7616 334
66.78171 309.012682956557
66.80183 352.001471338604
66.82194 308.94057255773
66.84205 323.914642630209
66.86217 347.985698426659
66.88228 339.027360580517
66.90239 314.999261126929
66.92251 341.013666671564
66.94262 350.996576144327
66.96274 341.978606880635
66.98285 334.9961839913
67.00296 334.01399879006
67.02308 331.979401440671
67.04319 364.991485385089
67.0633 359
67.08342 343.952533154046
67.10353 303.046119408205
67.12365 380.080913742023
67.14376 342.087611077612
67.16387 335.982638593596
67.18399 349.989358245107
67.2041 358
67.22421 326.015680597409
67.24433 385.983793350463
67.26444 313.950797210934
67.28456 359.93735451369
67.30467 348.994595978672
67.32478 376.995146655227
67.3449 352
67.36501 379.028373293741
67.38512 406.950994217124
67.40524 333.003649539223
67.42535 405.904040707924
67.44546 383.01267505096
67.46558 417.977553320792
67.48569 406.007366192989
67.50581 420.021237707292
67.52592 468.029906868472
67.54603 477.011888786805
67.56615 505.122411201181
67.58626 568.859924774164
67.60637 634.912889860486
67.62649 673.994406770317
67.6466 689
67.66672 778.065352665439
67.68683 806.043704417039
67.70694 828.940615079935
67.72706 755.123755146189
67.74717 721.066617884757
67.76728 650.073765971522
67.7874 596
67.80751 572.98927472957
67.82763 574.080854888753
67.84774 649.065977661631
67.86785 639.972745669305
67.88797 677.985573858666
67.90808 656.001388224463
67.92819 687.98717766113
67.94831 675.979259445665
67.96842 631.973131371156
67.98853 639.058027036593
68.00865 702.203324009372
68.02876 780.882220275324
68.04888 839.906048031337
68.06899 937.983093309178
68.0891 933
68.10922 1025.03140424793
68.12933 969.903528631194
68.14944 930.890759027984
68.16956 849.154648557921
68.18967 807.007937307192
68.20979 826.983737150959
68.2299 870
68.25001 934.017039741958
68.27013 940.014067894047
68.29024 964.036169357385
68.31035 931.26968471196
68.33047 794.139938128266
68.35058 742.08346833295
68.3707 619
68.39081 570.976502610462
68.41092 517.981445098707
68.43104 536.033864305221
68.45115 535.003493957311
68.47126 548.967742451219
68.49138 532.074912101907
68.51149 431.034208604187
68.5316 409
68.55172 374.975959297056
68.57183 374.015753134892
68.59195 382.007357934377
68.61206 362.11546444901
68.63217 310.975564277563
68.65229 377.98013551886
68.6724 358
68.69251 346.002183756995
68.71263 358.026167225368
68.73274 374.018875579359
68.75286 368.050478921015
68.77297 343.00142971505
68.79308 361.989060558655
68.8132 356
68.83331 358.997919728675
68.85342 341.978740303048
68.87354 331.011336564315
68.89365 346.966537421704
68.91376 350.005212886875
68.93388 350.990987152637
68.95399 355.009273778488
68.97411 326.996814427369
68.99422 338.996345610787
69.01433 327.031392346152
69.03445 376.076554480454
69.05456 365.06006766865
69.07467 340.02695213192
69.09479 339.986398667226
69.1149 371
69.13502 344.981309404241
69.15513 358.051795728141
69.17524 377.958106485019
69.19536 340.008521398997
69.21547 372.965007571073
69.23558 369.002346939987
69.2557 374
69.27581 359.008236067514
69.29593 409.07449773249
69.31604 423.957312405057
69.33615 390.051901207357
69.35627 401.941619407945
69.37638 428.021629409479
69.39649 393.988026171984
69.41661 454.001602110388
69.43672 396.971948046303
69.45683 413.984767454868
69.47695 370.977084318011
69.49706 399.989767955613
69.51718 375.996383853604
69.53729 417.98299361815
69.5574 408
69.57752 365.987331578562
69.59763 383.030534698132
69.61774 382.963755020585
69.63786 361.026669456988
69.65797 368.955196331518
69.67809 390.009857293307
69.6982 354
69.71831 393.005684369912
69.73843 376.02375310006
69.75854 410.958553285914
69.77865 341.092284416998
69.79877 353.006631565505
69.81888 329.978141267292
69.839 383
69.85911 353.010919674882
69.87922 413.999065986094
69.89934 343.909378519654
69.91945 361.061554929057
69.93956 361.004939395596
69.95968 363.008921886744
69.97979 349.997316728284
69.9999 371
70.02002 363.991292454996
70.04013 370.030965812915
70.06025 381.949569642931
70.08036 349.999173309128
70.10047 388.940631015009
70.12059 397.009176424522
70.1407 376
70.16081 392.011471479426
70.18093 412.030841470563
70.20104 420.962632635387
70.22116 388.034385482943
70.24127 394.984795166687
70.26138 386.029285565578
70.2815 358
70.30161 377.007872511954
70.32172 376.997018730346
70.34184 373.974421428738
70.36195 360.983937869398
70.38207 378.001409529011
70.40218 354.02340571652
70.42229 342.006459708888
70.44241 336.01068935918
70.46252 373.019994671703
70.48263 367.991041966137
70.50275 368.979948602666
70.52286 354.007324990826
70.54297 362.99270412566
70.56309 353.009355472065
70.5832 329
70.60332 307.007352214427
70.62343 331.012240349539
70.64354 328.04515968739
70.66366 364.000444561625
70.68377 319.073150408828
70.70388 305.977927420698
70.724 334
70.74411 307.981810606888
70.76423 295.036195784166
70.78434 337.053270022865
70.80445 332.050547289777
70.82457 314.021674319001
70.84468 306.996653245133
70.86479 319.990543767977
70.88491 335.002279655419
70.90502 325.980719200642
70.92513 308.992420710877
70.94525 324.084213533453
70.96536 355.979328520345
70.98548 337.036524818181
71.00559 313.994765413627
71.0257 346
71.04582 359.038234638981
71.06593 401.989335970126
71.08604 341.877986933853
71.10616 317.004500125514
71.12627 337.912352739095
71.14639 387.011391262798
71.1665 314
71.18661 345.026242139843
71.20673 361.957953194214
71.22684 323.993548911813
71.24695 350.97995059164
71.26707 327.029798168923
71.28718 329.991303301817
71.3073 331
71.32741 335.009115795009
71.34752 349.986775452042
71.36764 313.943711206889
71.38775 316.931831803077
71.40786 342.988671102107
71.42798 331.007891723193
71.44809 330.006456275551
71.4682 315
71.48832 340.998429808921
71.50843 303.942103229191
71.52855 303.106931432791
71.54866 351.978954549911
71.56877 319.056265542248
71.58889 309.992951480602
71.609 330
71.62911 336.004011292312
71.64923 350.020629937327
71.66934 347.945369296601
71.68946 312.035187556224
71.70957 320.973842596924
71.72968 332.989506972762
71.7498 342
71.76991 333.989681124273
71.79002 318.00764321476
71.81014 341.022089282557
71.83025 336.988001473846
71.85037 353.987358859677
71.87048 349.002613651511
71.89059 347.009439944666
71.91071 328.007765665162
71.93082 356.986662308143
71.95093 298.926485735486
71.97105 300.098911266266
71.99116 351.903093228013
72.01127 370.037482122579
72.03139 326.012886725308
72.0515 326
72.07162 322.02701866863
72.09173 372.049035923533
72.11184 373.994416757594
72.13196 368.06659038658
72.15207 321.033069544849
72.17218 334.977281853097
72.1923 345
72.21241 347.000971604521
72.23253 356.033448636229
72.25264 369.955013356219
72.27275 328.039064445397
72.29287 351.952837842279
72.31298 364.999717393971
72.33309 354.013264164957
72.35321 331.002205016765
72.37332 355.011941392769
72.39344 349.002947620169
72.41355 345.888298338965
72.43366 289.997229914734
72.45378 355.930690368937
72.47389 364.028857255641
72.494 299
72.51412 344.031587966057
72.53423 336.992850793716
72.55434 356.046890832527
72.57446 362.028821812476
72.59457 343.007058359109
72.61469 343.011803936885
72.6348 312
72.65491 351.01043239528
72.67503 337.981122470976
72.69514 342.00548686135
72.71525 339.981133337493
72.73537 361.960021775044
72.75548 368.030551705285
72.7756 333
72.79571 384.020760842558
72.81582 381.970848582106
72.83594 366.042803304289
72.85605 398.021922291987
72.87616 357.026526597777
72.89628 386.971434843962
72.91639 387.005719942456
72.9365 375
72.95662 362.011222136568
72.97673 382.99650538338
72.99685 356.95745499919
73.01696 370.931051205635
73.03707 399.988901463553
73.05719 393.997614225411
73.0773 405
73.09741 373.990912653777
73.11753 377.001110846577
73.13764 367.9944304249
73.15776 377.973449879144
73.17787 392.963700326478
73.19798 413.005639178949
73.2181 388
73.23821 399.014764453632
73.25832 417.987812256117
73.27844 391.996498986429
73.29855 431.848696335259
73.31867 479.967091854331
73.33878 474.022666149008
73.35889 455.002915927213
73.37901 472.019998008495
73.39912 518.033913615883
73.41923 538.031925859182
73.43935 546.918533816966
73.45946 490.067681983167
73.47957 480.047231813226
73.49969 427.014019989182
73.5198 428
73.53992 398.990945690122
73.56003 419.031731704066
73.58014 431.039814956067
73.60026 454.987129257632
73.62037 445.006134994276
73.64048 452.99611651971
73.6606 432
73.68071 387.000004669047
73.70083 409.976782310858
73.72094 360.967874859008
73.74105 380.02432690887
73.76117 342.997792980235
73.78128 386.975568462537
73.80139 367.013701373575
73.82151 348.985876982017
73.84162 316.991107827151
73.86174 330.014427918686
73.88185 337.099214195953
73.90196 379.039605388874
73.92208 322.005476678006
73.94219 360.007619672765
73.9623 296
73.98242 349.026439579742
74.00253 321.973777533881
74.02264 339.027739464806
74.04276 329.033972528767
74.06287 329.959204676959
74.08299 356.005696585578
74.1031 326
74.12321 365.006067071465
74.14333 342.993418857331
74.16344 361.99338855289
74.18355 329.059770428149
74.20367 336.963354898673
74.22378 347.020159180594
74.2439 319
74.26401 349.007761905952
74.28412 342.00383840887
74.30424 348.9382276115
74.32435 299.020884540174
74.34446 338.930703628379
74.36458 345.989761102515
74.38469 361.004962454413
74.40481 328.989405097817
74.42492 342.038096666401
74.44503 371.995742976863
74.46515 336.895125742479
74.48526 321.9569647312
74.50537 351.998673574581
74.52549 324.009401291354
74.5456 333
74.56571 335.992063372487
74.58583 321.015125576068
74.60594 346.011127231385
74.62606 330.01081154348
74.64617 345.975856965733
74.66628 345.014149527373
74.6864 335
74.70651 349.999061798029
74.72662 327.978815240469
74.74674 324.01817194113
74.76685 320.096981078392
74.78697 285.950774414254
74.80708 354.988475139458
74.82719 299.019877055694
74.84731 324.027452100026
74.86742 363.011084735576
74.88753 353.985266875341
74.90765 348.966070090168
74.92776 326.038492597479
74.94787 320.989204726176
74.96799 334.991384133292
74.9881 349
75.00822 349.997770836543
