3.00117 19734
3.02128 19475
3.0414 18973
3.06151 18429
3.08162 17878
3.10174 17528
3.12185 17043
3.14197 16529
3.16208 15819
3.18219 15788
3.20231 15469
3.22242 14827
3.24253 14540
3.26265 14131
3.28276 13667
3.30288 13077
3.32299 12991
3.3431 12092
3.36322 11865
3.38333 11926
3.40344 11139
3.42356 11176
3.44367 10516
3.46379 10373
3.4839 9860
3.50401 9741
3.52413 9409
3.54424 9025
3.56435 8580
3.58447 8407
3.60458 8041
3.62469 7832
3.64481 7273
3.66492 7238
3.68504 6988
3.70515 6391
3.72526 6449
3.74538 6003
3.76549 6031
3.7856 5585
3.80572 5336
3.82583 5263
3.84595 5012
3.86606 4755
3.88617 4616
3.90629 4430
3.9264 4296
3.94651 3999
3.96663 3918
3.98674 3820
4.00686 3469
4.02697 3400
4.04708 3312
4.0672 3123
4.08731 3009
4.10742 2863
4.12754 2736
4.14765 2620
4.16776 2562
4.18788 2452
4.20799 2379
4.22811 2260
4.24822 2174
4.26833 2046
4.28845 1990
4.30856 1854
4.32867 1883
4.34879 1788
4.3689 1720
4.38902 1670
4.40913 1586
4.42924 1779
4.44936 1651
4.46947 1560
4.48958 1567
4.5097 1425
4.52981 1466
4.54992 1523
4.57004 1391
4.59015 1359
4.61027 1412
4.63038 1316
4.65049 1354
4.67061 1196
4.69072 1211
4.71083 1147
4.73095 1175
4.75106 1167
4.77118 1109
4.79129 1120
4.8114 1062
4.83152 1067
4.85163 1002
4.87174 945
4.89186 919
4.91197 966
4.93209 886
4.9522 974
4.97231 856
4.99243 897
5.01254 915
5.03265 836
5.05277 886
5.07288 866
5.09299 815
5.11311 800
5.13322 777
5.15334 829
5.17345 722
5.19356 711
5.21368 712
5.23379 703
5.2539 691
5.27402 659
5.29413 669
5.31425 692
5.33436 684
5.35447 618
5.37459 620
5.3947 595
5.41481 585
5.43493 567
5.45504 624
5.47516 622
5.49527 566
5.51538 565
5.5355 534
5.55561 503
5.57572 534
5.59584 603
5.61595 490
5.63606 513
5.65618 476
5.67629 506
5.69641 514
5.71652 518
5.73663 516
5.75675 506
5.77686 523
5.79697 453
5.81709 456
5.8372 439
5.85732 429
5.87743 418
5.89754 441
5.91766 469
5.93777 430
5.95788 419
5.978 461
5.99811 423
6.01823 394
6.03834 448
6.05845 427
6.07857 419
6.09868 409
6.11879 423
6.13891 385
6.15902 428
6.17913 430
6.19925 374
6.21936 423
6.23948 387
6.25959 415
6.2797 398
6.29982 380
6.31993 391
6.34004 380
6.36016 381
6.38027 355
6.40039 408
6.4205 392
6.44061 398
6.46073 390
6.48084 373
6.50095 390
6.52107 399
6.54118 354
6.56129 388
6.58141 387
6.60152 394
6.62164 384
6.64175 367
6.66186 380
6.68198 360
6.70209 418
6.7222 392
6.74232 399
6.76243 379
6.78255 401
6.80266 400
6.82277 390
6.84289 365
6.863 388
6.88311 377
6.90323 407
6.92334 360
6.94346 392
6.96357 386
6.98368 380
7.0038 350
7.02391 331
7.04402 324
7.06414 356
7.08425 373
7.10436 378
7.12448 356
7.14459 362
7.16471 361
7.18482 343
7.20493 372
7.22505 367
7.24516 362
7.26527 403
7.28539 384
7.3055 360
7.32562 358
7.34573 356
7.36584 383
7.38596 428
7.40607 355
7.42618 369
7.4463 351
7.46641 334
7.48653 353
7.50664 372
7.52675 383
7.54687 333
7.56698 405
7.58709 374
7.60721 366
7.62732 406
7.64743 380
7.66755 370
7.68766 388
7.70778 389
7.72789 400
7.748 376
7.76812 346
7.78823 405
7.80834 393
7.82846 361
7.84857 427
7.86869 371
7.8888 372
7.90891 399
7.92903 375
7.94914 376
7.96925 402
7.98937 357
8.00948 416
8.0296 375
8.04971 361
8.06982 419
8.08994 366
8.11005 432
8.13016 376
8.15028 409
8.17039 387
8.1905 434
8.21062 395
8.23073 415
8.25085 405
8.27096 392
8.29107 393
8.31119 412
8.3313 393
8.35141 391
8.37153 375
8.39164 418
8.41176 420
8.43187 420
8.45198 432
8.4721 409
8.49221 395
8.51232 446
8.53244 437
8.55255 403
8.57266 466
8.59278 516
8.61289 444
8.63301 445
8.65312 482
8.67323 527
8.69335 547
8.71346 533
8.73357 600
8.75369 564
8.7738 640
8.79392 644
8.81403 641
8.83414 622
8.85426 666
8.87437 630
8.89448 655
8.9146 600
8.93471 569
8.95483 519
8.97494 482
8.99505 455
9.01517 427
9.03528 476
9.05539 420
9.07551 399
9.09562 395
9.11573 389
9.13585 404
9.15596 387
9.17608 407
9.19619 349
9.2163 385
9.23642 364
9.25653 409
9.27664 391
9.29676 351
9.31687 341
9.33699 372
9.3571 399
9.37721 348
9.39733 348
9.41744 383
9.43755 377
9.45767 349
9.47778 353
9.4979 343
9.51801 342
9.53812 346
9.55824 338
9.57835 374
9.59846 377
9.61858 408
9.63869 330
9.6588 348
9.67892 343
9.69903 385
9.71915 337
9.73926 306
9.75937 390
9.77949 383
9.7996 331
9.81971 330
9.83983 303
9.85994 316
9.88006 350
9.90017 342
9.92028 321
9.9404 405
9.96051 338
9.98062 333
10.00074 373
10.02085 353
10.04097 334
10.06108 341
10.08119 325
10.10131 343
10.12142 363
10.14153 357
10.16165 350
10.18176 376
10.20187 327
10.22199 352
10.2421 336
10.26222 362
10.28233 325
10.30244 379
10.32256 348
10.34267 361
10.36278 371
10.3829 318
10.40301 369
10.42313 366
10.44324 391
10.46335 342
10.48347 353
10.50358 328
10.52369 371
10.54381 353
10.56392 347
10.58403 363
10.60415 321
10.62426 339
10.64438 340
10.66449 332
10.6846 309
10.70472 351
10.72483 329
10.74494 381
10.76506 367
10.78517 375
10.80529 384
10.8254 412
10.84551 396
10.86563 353
10.88574 362
10.90585 337
10.92597 366
10.94608 357
10.9662 368
10.98631 375
11.00642 381
11.02654 346
11.04665 336
11.06676 330
11.08688 383
11.10699 323
11.1271 379
11.14722 368
11.16733 374
11.18745 368
11.20756 356
11.22767 396
11.24779 395
11.2679 341
11.28801 374
11.30813 366
11.32824 379
11.34836 389
11.36847 378
11.38858 368
11.4087 407
11.42881 391
11.44892 355
11.46904 367
11.48915 378
11.50927 387
11.52938 364
11.54949 394
11.56961 400
11.58972 394
11.60983 419
11.62995 411
11.65006 414
11.67017 357
11.69029 425
11.7104 401
11.73052 408
11.75063 425
11.77074 444
11.79086 454
11.81097 458
11.83108 441
11.8512 448
11.87131 444
11.89143 466
11.91154 448
11.93165 448
11.95177 430
11.97188 486
11.99199 492
12.01211 485
12.03222 499
12.05234 506
12.07245 519
12.09256 581
12.11268 559
12.13279 524
12.1529 563
12.17302 629
12.19313 550
12.21324 585
12.23336 499
12.25347 586
12.27359 547
12.2937 537
12.31381 554
12.33393 532
12.35404 573
12.37415 607
12.39427 500
12.41438 533
12.4345 563
12.45461 509
12.47472 514
12.49484 468
12.51495 487
12.53506 504
12.55518 409
12.57529 481
12.5954 460
12.61552 428
12.63563 443
12.65575 396
12.67586 422
12.69597 408
12.71609 409
12.7362 395
12.75631 408
12.77643 378
12.79654 368
12.81666 384
12.83677 397
12.85688 336
12.877 372
12.89711 380
12.91722 395
12.93734 390
12.95745 395
12.97757 368
12.99768 390
13.01779 359
13.03791 355
13.05802 368
13.07813 365
13.09825 351
13.11836 354
13.13847 346
13.15859 317
13.1787 366
13.19882 359
13.21893 360
13.23904 353
13.25916 350
13.27927 313
13.29938 306
13.3195 323
13.33961 343
13.35973 312
13.37984 350
13.39995 331
13.42007 358
13.44018 333
13.46029 304
13.48041 303
13.50052 306
13.52064 306
13.54075 326
13.56086 381
13.58098 332
13.60109 351
13.6212 395
13.64132 403
13.66143 372
13.68154 366
13.70166 332
13.72177 361
13.74189 292
13.762 329
13.78211 325
13.80223 335
13.82234 324
13.84245 299
13.86257 342
13.88268 301
13.9028 340
13.92291 344
13.94302 326
13.96314 335
13.98325 325
14.00336 345
14.02348 313
14.04359 314
14.06371 326
14.08382 306
14.10393 306
14.12405 305
14.14416 305
14.16427 309
14.18439 329
14.2045 324
14.22461 338
14.24473 322
14.26484 305
14.28496 341
14.30507 290
14.32518 347
14.3453 292
14.36541 329
14.38552 292
14.40564 297
14.42575 327
14.44587 322
14.46598 305
14.48609 300
14.50621 301
14.52632 325
14.54643 292
14.56655 295
14.58666 294
14.60677 286
14.62689 335
14.647 286
14.66712 263
14.68723 308
14.70734 319
14.72746 302
14.74757 299
14.76768 311
14.7878 304
14.80791 298
14.82803 310
14.84814 310
14.86825 299
14.88837 331
14.90848 348
14.92859 352
14.94871 346
14.96882 303
14.98894 298
15.00905 327
15.02916 319
15.04928 285
15.06939 286
15.0895 305
15.10962 297
15.12973 333
15.14984 286
15.16996 309
15.19007 364
15.21019 346
15.2303 307
15.25041 333
15.27053 324
15.29064 326
15.31075 357
15.33087 325
15.35098 311
15.3711 320
15.39121 326
15.41132 328
15.43144 280
15.45155 300
15.47166 339
15.49178 312
15.51189 315
15.53201 313
15.55212 323
15.57223 307
15.59235 281
15.61246 288
15.63257 317
15.65269 290
15.6728 309
15.69291 296
15.71303 308
15.73314 318
15.75326 328
15.77337 279
15.79348 261
15.8136 297
15.83371 296
15.85382 282
15.87394 291
15.89405 305
15.91417 271
15.93428 301
15.95439 300
15.97451 308
15.99462 315
16.01473 286
16.03485 312
16.05496 280
16.07508 298
16.09519 271
16.1153 314
16.13542 320
16.15553 277
16.17564 282
16.19576 297
16.21587 299
16.23598 303
16.2561 290
16.27621 264
16.29633 313
16.31644 278
16.33655 311
16.35667 306
16.37678 330
16.39689 302
16.41701 308
16.43712 326
16.45724 317
16.47735 325
16.49746 301
16.51758 303
16.53769 312
16.5578 329
16.57792 305
16.59803 307
16.61814 300
16.63826 327
16.65837 297
16.67849 292
16.6986 268
16.71871 310
16.73883 282
16.75894 288
16.77905 317
16.79917 279
16.81928 292
16.8394 331
16.85951 318
16.87962 279
16.89974 284
16.91985 307
16.93996 313
16.96008 307
16.98019 319
17.00031 327
17.02042 328
17.04053 284
17.06065 346
17.08076 301
17.10087 313
17.12099 332
17.1411 296
17.16121 307
17.18133 305
17.20144 347
17.22156 281
17.24167 305
17.26178 317
17.2819 299
17.30201 360
17.32212 323
17.34224 311
17.36235 323
17.38247 319
17.40258 320
17.42269 321
17.44281 293
17.46292 305
17.48303 327
17.50315 318
17.52326 327
17.54338 382
17.56349 347
17.5836 360
17.60372 348
17.62383 355
17.64394 379
17.66406 392
17.68417 386
17.70428 375
17.7244 388
17.74451 402
17.76463 405
17.78474 417
17.80485 360
17.82497 358
17.84508 364
17.86519 396
17.88531 380
17.90542 341
17.92554 357
17.94565 349
17.96576 322
17.98588 391
18.00599 367
18.0261 287
18.04622 286
18.06633 350
18.08645 303
18.10656 320
18.12667 349
18.14679 307
18.1669 311
18.18701 345
18.20713 323
18.22724 369
18.24735 329
18.26747 349
18.28758 379
18.3077 336
18.32781 285
18.34792 308
18.36804 323
18.38815 346
18.40826 291
18.42838 309
18.44849 365
18.46861 346
18.48872 306
18.50883 324
18.52895 315
18.54906 318
18.56917 314
18.58929 299
18.6094 324
18.62951 293
18.64963 351
18.66974 321
18.68986 317
18.70997 301
18.73008 300
18.7502 301
18.77031 338
18.79042 347
18.81054 310
18.83065 320
18.85077 345
18.87088 297
18.89099 323
18.91111 328
18.93122 325
18.95133 348
18.97145 345
18.99156 299
19.01168 310
19.03179 345
19.0519 338
19.07202 323
19.09213 328
19.11224 330
19.13236 358
19.15247 365
19.17258 358
19.1927 324
19.21281 391
19.23293 370
19.25304 327
19.27315 351
19.29327 362
19.31338 365
19.33349 353
19.35361 362
19.37372 353
19.39384 382
19.41395 364
19.43406 377
19.45418 358
19.47429 398
19.4944 385
19.51452 419
19.53463 442
19.55475 529
19.57486 466
19.59497 541
19.61509 648
19.6352 711
19.65531 692
19.67543 809
19.69554 866
19.71565 839
19.73577 878
19.75588 946
19.776 912
19.79611 919
19.81622 928
19.83634 905
19.85645 878
19.87656 892
19.89668 865
19.91679 823
19.93691 812
19.95702 747
19.97713 687
19.99725 693
20.01736 723
20.03747 668
20.05759 658
20.0777 645
20.09782 648
20.11793 626
20.13804 645
20.15816 663
20.17827 651
20.19838 658
20.2185 658
20.23861 699
20.25872 689
20.27884 744
20.29895 690
20.31907 692
20.33918 702
20.35929 737
20.37941 684
20.39952 694
20.41963 740
20.43975 704
20.45986 730
20.47998 640
20.50009 661
20.5202 628
20.54032 651
20.56043 691
20.58054 673
20.60066 681
20.62077 682
20.64088 735
20.661 760
20.68111 836
20.70123 919
20.72134 1055
20.74145 1115
20.76157 1389
20.78168 1557
20.80179 1767
20.82191 1858
20.84202 1994
20.86214 1972
20.88225 1906
20.90236 1565
20.92248 1369
20.94259 1211
20.9627 1172
20.98282 1083
21.00293 1043
21.02305 978
21.04316 951
21.06327 906
21.08339 845
21.1035 812
21.12361 721
21.14373 695
21.16384 751
21.18395 754
21.20407 654
21.22418 684
21.2443 653
21.26441 652
21.28452 669
21.30464 685
21.32475 663
21.34486 707
21.36498 664
21.38509 709
21.40521 641
21.42532 618
21.44543 652
21.46555 610
21.48566 636
21.50577 607
21.52589 601
21.546 612
21.56612 591
21.58623 622
21.60634 570
21.62646 583
21.64657 626
21.66668 594
21.6868 581
21.70691 501
21.72702 542
21.74714 572
21.76725 483
21.78737 507
21.80748 517
21.82759 465
21.84771 502
21.86782 519
21.88793 446
21.90805 499
21.92816 481
21.94828 450
21.96839 460
21.9885 503
22.00862 510
22.02873 446
22.04884 455
22.06896 465
22.08907 465
22.10919 448
22.1293 497
22.14941 473
22.16953 497
22.18964 469
22.20975 520
22.22987 527
22.24998 546
22.27009 553
22.29021 553
22.31032 543
22.33044 530
22.35055 540
22.37066 543
22.39078 491
22.41089 507
22.431 456
22.45112 484
22.47123 446
22.49135 474
22.51146 444
22.53157 476
22.55169 493
22.5718 475
22.59191 470
22.61203 467
22.63214 493
22.65225 477
22.67237 480
22.69248 542
22.7126 468
22.73271 471
22.75282 468
22.77294 527
22.79305 468
22.81316 439
22.83328 478
22.85339 532
22.87351 484
22.89362 495
22.91373 462
22.93385 487
22.95396 484
22.97407 433
22.99419 485
23.0143 517
23.03442 519
23.05453 507
23.07464 583
23.09476 548
23.11487 568
23.13498 578
23.1551 565
23.17521 633
23.19532 619
23.21544 585
23.23555 573
23.25567 551
23.27578 507
23.29589 503
23.31601 474
23.33612 479
23.35623 525
23.37635 477
23.39646 453
23.41658 468
23.43669 448
23.4568 444
23.47692 467
23.49703 467
23.51714 480
23.53726 429
23.55737 439
23.57749 470
23.5976 430
23.61771 468
23.63783 471
23.65794 499
23.67805 477
23.69817 480
23.71828 482
23.73839 473
23.75851 472
23.77862 526
23.79874 519
23.81885 549
23.83896 549
23.85908 562
23.87919 585
23.8993 588
23.91942 566
23.93953 633
23.95965 612
23.97976 678
23.99987 700
24.01999 664
24.0401 627
24.06021 607
24.08033 626
24.10044 620
24.12056 630
24.14067 609
24.16078 609
24.1809 624
24.20101 667
24.22112 655
24.24124 697
24.26135 681
24.28146 710
24.30158 689
24.32169 663
24.34181 712
24.36192 717
24.38203 702
24.40215 698
24.42226 659
24.44237 618
24.46249 610
24.4826 599
24.50272 565
24.52283 611
24.54294 581
24.56306 612
24.58317 578
24.60328 592
24.6234 633
24.64351 600
24.66362 623
24.68374 641
24.70385 647
24.72397 602
24.74408 635
24.76419 666
24.78431 655
24.80442 670
24.82453 663
24.84465 656
24.86476 671
24.88488 612
24.90499 668
24.9251 652
24.94522 639
24.96533 597
24.98544 617
25.00556 624
25.02567 626
25.04579 577
25.0659 612
25.08601 601
25.10613 578
25.12624 585
25.14635 635
25.16647 634
25.18658 650
25.20669 649
25.22681 666
25.24692 738
25.26704 694
25.28715 682
25.30726 662
25.32738 682
25.34749 674
25.3676 692
25.38772 627
25.40783 636
25.42795 683
25.44806 697
25.46817 746
25.48829 729
25.5084 731
25.52851 754
25.54863 719
25.56874 725
25.58886 694
25.60897 673
25.62908 654
25.6492 644
25.66931 650
25.68942 662
25.70954 559
25.72965 597
25.74976 570
25.76988 575
25.78999 538
25.81011 553
25.83022 520
25.85033 536
25.87045 509
25.89056 524
25.91067 538
25.93079 490
25.9509 488
25.97102 539
25.99113 525
26.01124 537
26.03136 484
26.05147 463
26.07158 545
26.0917 563
26.11181 559
26.13193 600
26.15204 592
26.17215 629
26.19227 607
26.21238 639
26.23249 669
26.25261 658
26.27272 795
26.29283 824
26.31295 933
26.33306 978
26.35318 1113
26.37329 1184
26.3934 1425
26.41352 1503
26.43363 1729
26.45374 2102
26.47386 2483
26.49397 3152
26.51409 3963
26.5342 4658
26.55431 5523
26.57443 6389
26.59454 6931
26.61465 7320
26.63477 7034
26.65488 6361
26.67499 5378
26.69511 4419
26.71522 3392
26.73534 2495
26.75545 1894
26.77556 1532
26.79568 1333
26.81579 1108
26.8359 1011
26.85602 1012
26.87613 889
26.89625 896
26.91636 824
26.93647 845
26.95659 800
26.9767 820
26.99681 892
27.01693 827
27.03704 852
27.05716 840
27.07727 833
27.09738 832
27.1175 746
27.13761 718
27.15772 682
27.17784 672
27.19795 611
27.21806 690
27.23818 651
27.25829 729
27.27841 773
27.29852 821
27.31863 915
27.33875 934
27.35886 1043
27.37897 1041
27.39909 991
27.4192 1061
27.43932 1064
27.45943 1019
27.47954 999
27.49966 901
27.51977 848
27.53988 819
27.56 674
27.58011 596
27.60023 561
27.62034 512
27.64045 550
27.66057 511
27.68068 480
27.70079 449
27.72091 440
27.74102 454
27.76113 488
27.78125 483
27.80136 461
27.82148 497
27.84159 499
27.8617 448
27.88182 465
27.90193 444
27.92204 436
27.94216 459
27.96227 444
27.98239 475
28.0025 414
28.02261 452
28.04273 417
28.06284 402
28.08295 433
28.10307 396
28.12318 431
28.1433 421
28.16341 447
28.18352 405
28.20364 401
28.22375 400
28.24386 435
28.26398 423
28.28409 417
28.3042 447
28.32432 442
28.34443 374
28.36455 417
28.38466 458
28.40477 427
28.42489 412
28.445 396
28.46511 421
28.48523 379
28.50534 417
28.52546 405
28.54557 425
28.56568 407
28.5858 460
28.60591 420
28.62602 419
28.64614 440
28.66625 431
28.68636 388
28.70648 456
28.72659 413
28.74671 415
28.76682 449
28.78693 397
28.80705 416
28.82716 431
28.84727 457
28.86739 463
28.8875 457
28.90762 489
28.92773 508
28.94784 491
28.96796 520
28.98807 543
29.00818 530
29.0283 542
29.04841 535
29.06853 562
29.08864 552
29.10875 523
29.12887 503
29.14898 575
29.16909 507
29.18921 551
29.20932 492
29.22943 506
29.24955 500
29.26966 486
29.28978 507
29.30989 521
29.33 484
29.35012 503
29.37023 527
29.39034 512
29.41046 532
29.43057 534
29.45069 499
29.4708 489
29.49091 482
29.51103 525
29.53114 447
29.55125 456
29.57137 420
29.59148 421
29.6116 468
29.63171 467
29.65182 418
29.67194 403
29.69205 441
29.71216 440
29.73228 444
29.75239 498
29.7725 462
29.79262 432
29.81273 449
29.83285 452
29.85296 466
29.87307 412
29.89319 458
29.9133 454
29.93341 430
29.95353 434
29.97364 458
29.99376 487
30.01387 466
30.03398 471
30.0541 476
30.07421 499
30.09432 490
30.11444 484
30.13455 549
30.15467 528
30.17478 504
30.19489 577
30.21501 538
30.23512 521
30.25523 504
30.27535 495
30.29546 475
30.31557 443
30.33569 469
30.3558 411
30.37592 432
30.39603 423
30.41614 412
30.43626 412
30.45637 406
30.47648 459
30.4966 476
30.51671 403
30.53683 438
30.55694 410
30.57705 439
30.59717 442
30.61728 428
30.63739 480
30.65751 517
30.67762 472
30.69773 526
30.71785 501
30.73796 553
30.75808 456
30.77819 480
30.7983 488
30.81842 502
30.83853 464
30.85864 499
30.87876 411
30.89887 424
30.91899 432
30.9391 438
30.95921 402
30.97933 421
30.99944 424
31.01955 415
31.03967 423
31.05978 354
31.0799 377
31.10001 419
31.12012 371
31.14024 433
31.16035 398
31.18046 385
31.20058 342
31.22069 388
31.2408 436
31.26092 364
31.28103 346
31.30115 388
31.32126 373
31.34137 366
31.36149 397
31.3816 364
31.40171 355
31.42183 357
31.44194 355
31.46206 350
31.48217 361
31.50228 405
31.5224 362
31.54251 374
31.56262 367
31.58274 357
31.60285 350
31.62297 327
31.64308 369
31.66319 367
31.68331 341
31.70342 346
31.72353 366
31.74365 337
31.76376 347
31.78387 353
31.80399 373
31.8241 369
31.84422 343
31.86433 380
31.88444 353
31.90456 369
31.92467 338
31.94478 363
31.9649 364
31.98501 394
32.00513 420
32.02524 390
32.04535 431
32.06547 347
32.08558 422
32.10569 409
32.12581 393
32.14592 339
32.16604 427
32.18615 398
32.20626 373
32.22638 389
32.24649 384
32.2666 365
32.28672 380
32.30683 354
32.32694 386
32.34706 358
32.36717 379
32.38729 411
32.4074 412
32.42751 419
32.44763 381
32.46774 402
32.48785 389
32.50797 376
32.52808 383
32.5482 386
32.56831 374
32.58842 380
32.60854 351
32.62865 355
32.64876 346
32.66888 342
32.68899 369
32.7091 352
32.72922 352
32.74933 351
32.76945 337
32.78956 355
32.80967 363
32.82979 377
32.8499 374
32.87001 399
32.89013 384
32.91024 372
32.93036 388
32.95047 414
32.97058 367
32.9907 429
33.01081 430
33.03092 430
33.05104 456
33.07115 437
33.09127 454
33.11138 450
33.13149 442
33.15161 447
33.17172 418
33.19183 443
33.21195 452
33.23206 425
33.25217 405
33.27229 404
33.2924 412
33.31252 451
33.33263 449
33.35274 414
33.37286 453
33.39297 440
33.41308 437
33.4332 406
33.45331 409
33.47343 440
33.49354 420
33.51365 408
33.53377 449
33.55388 401
33.57399 425
33.59411 431
33.61422 405
33.63434 425
33.65445 403
33.67456 386
33.69468 379
33.71479 391
33.7349 349
33.75502 406
33.77513 380
33.79524 374
33.81536 371
33.83547 342
33.85559 402
33.8757 395
33.89581 393
33.91593 383
33.93604 393
33.95615 388
33.97627 390
33.99638 407
34.0165 405
34.03661 415
34.05672 450
34.07684 426
34.09695 458
34.11706 436
34.13718 502
34.15729 474
34.17741 498
34.19752 493
34.21763 546
34.23775 493
34.25786 493
34.27797 508
34.29809 475
34.3182 501
34.33831 486
34.35843 488
34.37854 521
34.39866 546
34.41877 496
34.43888 538
34.459 508
34.47911 602
34.49922 593
34.51934 593
34.53945 620
34.55957 592
34.57968 601
34.59979 652
34.61991 672
34.64002 723
34.66013 673
34.68025 682
34.70036 689
34.72047 676
34.74059 744
34.7607 751
34.78082 814
34.80093 763
34.82104 813
34.84116 876
34.86127 951
34.88138 938
34.9015 903
34.92161 962
34.94173 944
34.96184 883
34.98195 982
35.00207 886
35.02218 830
35.04229 777
35.06241 745
35.08252 679
35.10264 665
35.12275 696
35.14286 613
35.16298 674
35.18309 654
35.2032 583
35.22332 575
35.24343 585
35.26354 570
35.28366 542
35.30377 572
35.32389 585
35.344 569
35.36411 575
35.38423 562
35.40434 586
35.42445 540
35.44457 570
35.46468 577
35.4848 595
35.50491 607
35.52502 588
35.54514 616
35.56525 664
35.58536 601
35.60548 657
35.62559 580
35.64571 605
35.66582 595
35.68593 546
35.70605 602
35.72616 559
35.74627 537
35.76639 554
35.7865 543
35.80661 504
35.82673 583
35.84684 529
35.86696 572
35.88707 543
35.90718 525
35.9273 580
35.94741 525
35.96752 531
35.98764 546
36.00775 555
36.02787 511
36.04798 501
36.06809 511
36.08821 521
36.10832 486
36.12843 481
36.14855 500
36.16866 470
36.18878 442
36.20889 468
36.229 493
36.24912 480
36.26923 484
36.28934 494
36.30946 524
36.32957 573
36.34968 592
36.3698 625
36.38991 592
36.41003 699
36.43014 792
36.45025 749
36.47037 890
36.49048 878
36.51059 932
36.53071 871
36.55082 891
36.57094 792
36.59105 815
36.61116 736
36.63128 641
36.65139 649
36.6715 574
36.69162 568
36.71173 579
36.73184 551
36.75196 529
36.77207 530
36.79219 546
36.8123 590
36.83241 529
36.85253 554
36.87264 586
36.89275 556
36.91287 589
36.93298 582
36.9531 551
36.97321 542
36.99332 533
37.01344 564
37.03355 554
37.05366 503
37.07378 503
37.09389 519
37.11401 516
37.13412 478
37.15423 481
37.17435 482
37.19446 488
37.21457 492
37.23469 481
37.2548 469
37.27491 473
37.29503 491
37.31514 482
37.33526 474
37.35537 495
37.37548 492
37.3956 517
37.41571 493
37.43582 545
37.45594 493
37.47605 493
37.49617 494
37.51628 523
37.53639 509
37.55651 526
37.57662 524
37.59673 478
37.61685 495
37.63696 517
37.65708 542
37.67719 494
37.6973 499
37.71742 526
37.73753 509
37.75764 471
37.77776 528
37.79787 517
37.81798 499
37.8381 531
37.85821 509
37.87833 445
37.89844 466
37.91855 483
37.93867 489
37.95878 508
37.97889 441
37.99901 480
38.01912 425
38.03924 455
38.05935 490
38.07946 508
38.09958 475
38.11969 495
38.1398 494
38.15992 520
38.18003 499
38.20015 508
38.22026 509
38.24037 529
38.26049 502
38.2806 510
38.30071 531
38.32083 514
38.34094 524
38.36105 477
38.38117 516
38.40128 566
38.4214 511
38.44151 523
38.46162 517
38.48174 516
38.50185 563
38.52196 525
38.54208 515
38.56219 515
38.58231 438
38.60242 471
38.62253 472
38.64265 462
38.66276 430
38.68287 445
38.70299 433
38.7231 425
38.74321 426
38.76333 440
38.78344 396
38.80356 429
38.82367 427
38.84378 418
38.8639 407
38.88401 441
38.90412 429
38.92424 443
38.94435 443
38.96447 393
38.98458 446
39.00469 387
39.02481 404
39.04492 418
39.06503 457
39.08515 444
39.10526 410
39.12538 442
39.14549 469
39.1656 443
39.18572 462
39.20583 478
39.22594 487
39.24606 490
39.26617 520
39.28628 550
39.3064 587
39.32651 560
39.34663 651
39.36674 697
39.38685 788
39.40697 757
39.42708 748
39.44719 787
39.46731 732
39.48742 699
39.50754 633
39.52765 581
39.54776 554
39.56788 538
39.58799 497
39.6081 461
39.62822 438
39.64833 452
39.66845 396
39.68856 398
39.70867 381
39.72879 396
39.7489 443
39.76901 380
39.78913 448
39.80924 395
39.82935 412
39.84947 453
39.86958 394
39.8897 458
39.90981 433
39.92992 463
39.95004 425
39.97015 429
39.99026 430
40.01038 444
40.03049 419
40.05061 461
40.07072 488
40.09083 461
40.11095 480
40.13106 516
40.15117 515
40.17129 551
40.1914 587
40.21152 546
40.23163 585
40.25174 612
40.27186 547
40.29197 632
40.31208 533
40.3322 509
40.35231 518
40.37242 496
40.39254 491
40.41265 497
40.43277 440
40.45288 459
40.47299 437
40.49311 397
40.51322 420
40.53333 393
40.55345 409
40.57356 421
40.59368 409
40.61379 449
40.6339 406
40.65402 405
40.67413 445
40.69424 428
40.71436 451
40.73447 417
40.75458 422
40.7747 437
40.79481 419
40.81493 405
40.83504 387
40.85515 400
40.87527 439
40.89538 407
40.91549 401
40.93561 431
40.95572 405
40.97584 419
40.99595 402
41.01606 414
41.03618 414
41.05629 435
41.0764 421
41.09652 423
41.11663 411
41.13675 411
41.15686 411
41.17697 420
41.19709 414
41.2172 432
41.23731 441
41.25743 398
41.27754 417
41.29765 418
41.31777 387
41.33788 399
41.358 468
41.37811 395
41.39822 420
41.41834 424
41.43845 390
41.45856 398
41.47868 436
41.49879 405
41.51891 415
41.53902 435
41.55913 413
41.57925 400
41.59936 478
41.61947 386
41.63959 469
41.6597 486
41.67982 480
41.69993 464
41.72004 516
41.74016 514
41.76027 502
41.78038 517
41.8005 557
41.82061 521
41.84072 452
41.86084 501
41.88095 496
41.90107 466
41.92118 454
41.94129 473
41.96141 464
41.98152 460
42.00163 450
42.02175 427
42.04186 409
42.06198 402
42.08209 390
42.1022 430
42.12232 407
42.14243 389
42.16254 469
42.18266 466
42.20277 445
42.22289 449
42.243 438
42.26311 517
42.28323 508
42.30334 565
42.32345 551
42.34357 602
42.36368 596
42.38379 625
42.40391 700
42.42402 654
42.44414 634
42.46425 578
42.48436 555
42.50448 536
42.52459 532
42.5447 496
42.56482 465
42.58493 399
42.60505 437
42.62516 393
42.64527 399
42.66539 370
42.6855 380
42.70561 386
42.72573 388
42.74584 380
42.76595 386
42.78607 355
42.80618 409
42.8263 360
42.84641 357
42.86652 373
42.88664 372
42.90675 379
42.92686 342
42.94698 375
42.96709 347
42.98721 333
43.00732 327
43.02743 325
43.04755 352
43.06766 356
43.08777 341
43.10789 330
43.128 376
43.14812 361
43.16823 366
43.18834 324
43.20846 336
43.22857 326
43.24868 330
43.2688 333
43.28891 319
43.30902 355
43.32914 325
43.34925 336
43.36937 355
43.38948 311
43.40959 337
43.42971 338
43.44982 359
43.46993 337
43.49005 350
43.51016 329
43.53028 362
43.55039 360
43.5705 382
43.59062 323
43.61073 336
43.63084 321
43.65096 348
43.67107 311
43.69119 340
43.7113 326
43.73141 310
43.75153 342
43.77164 357
43.79175 366
43.81187 342
43.83198 297
43.85209 353
43.87221 307
43.89232 378
43.91244 340
43.93255 314
43.95266 325
43.97278 341
43.99289 363
44.013 339
44.03312 325
44.05323 342
44.07335 346
44.09346 311
44.11357 320
44.13369 342
44.1538 370
44.17391 309
44.19403 317
44.21414 328
44.23426 343
44.25437 343
44.27448 300
44.2946 336
44.31471 397
44.33482 378
44.35494 354
44.37505 360
44.39516 301
44.41528 337
44.43539 336
44.45551 331
44.47562 344
44.49573 333
44.51585 361
44.53596 320
44.55607 366
44.57619 366
44.5963 366
44.61642 346
44.63653 327
44.65664 354
44.67676 359
44.69687 320
44.71698 362
44.7371 354
44.75721 338
44.77732 352
44.79744 362
44.81755 356
44.83767 353
44.85778 383
44.87789 348
44.89801 360
44.91812 365
44.93823 365
44.95835 363
44.97846 386
44.99858 387
45.01869 392
45.0388 384
45.05892 419
45.07903 382
45.09914 413
45.11926 363
45.13937 434
45.15949 415
45.1796 450
45.19971 413
45.21983 464
45.23994 437
45.26005 405
45.28017 466
45.30028 419
45.32039 452
45.34051 441
45.36062 475
45.38074 428
45.40085 453
45.42096 479
45.44108 470
45.46119 438
45.4813 473
45.50142 456
45.52153 475
45.54165 457
45.56176 471
45.58187 501
45.60199 511
45.6221 517
45.64221 516
45.66233 530
45.68244 521
45.70256 567
45.72267 570
45.74278 582
45.7629 568
45.78301 573
45.80312 531
45.82324 501
45.84335 471
45.86346 427
45.88358 444
45.90369 435
45.92381 468
45.94392 405
45.96403 401
45.98415 390
46.00426 406
46.02437 363
46.04449 364
46.0646 377
46.08472 386
46.10483 377
46.12494 374
46.14506 343
46.16517 356
46.18528 414
46.2054 394
46.22551 423
46.24563 361
46.26574 356
46.28585 375
46.30597 386
46.32608 406
46.34619 371
46.36631 364
46.38642 401
46.40653 394
46.42665 400
46.44676 322
46.46688 378
46.48699 345
46.5071 374
46.52722 375
46.54733 354
46.56744 357
46.58756 327
46.60767 347
46.62779 362
46.6479 351
46.66801 352
46.68813 365
46.70824 364
46.72835 341
46.74847 350
46.76858 359
46.78869 340
46.80881 340
46.82892 352
46.84904 357
46.86915 346
46.88926 365
46.90938 333
46.92949 325
46.9496 346
46.96972 346
46.98983 347
47.00995 363
47.03006 372
47.05017 347
47.07029 341
47.0904 364
47.11051 373
47.13063 352
47.15074 340
47.17086 350
47.19097 333
47.21108 360
47.2312 339
47.25131 381
47.27142 335
47.29154 329
47.31165 330
47.33176 362
47.35188 331
47.37199 350
47.39211 332
47.41222 350
47.43233 384
47.45245 374
47.47256 345
47.49267 372
47.51279 341
47.5329 334
47.55302 357
47.57313 324
47.59324 330
47.61336 340
47.63347 306
47.65358 347
47.6737 361
47.69381 380
47.71393 376
47.73404 354
47.75415 358
47.77427 322
47.79438 353
47.81449 317
47.83461 374
47.85472 367
47.87483 335
47.89495 385
47.91506 346
47.93518 347
47.95529 402
47.9754 348
47.99552 385
48.01563 379
48.03574 404
48.05586 356
48.07597 323
48.09609 340
48.1162 360
48.13631 374
48.15643 387
48.17654 325
48.19665 271
48.21677 328
48.23688 311
48.257 340
48.27711 334
48.29722 296
48.31734 299
48.33745 327
48.35756 303
48.37768 319
48.39779 356
48.4179 325
48.43802 309
48.45813 319
48.47825 315
48.49836 350
48.51847 325
48.53859 342
48.5587 308
48.57881 333
48.59893 326
48.61904 317
48.63916 303
48.65927 334
48.67938 351
48.6995 351
48.71961 328
48.73972 330
48.75984 355
48.77995 351
48.80006 378
48.82018 328
48.84029 349
48.86041 326
48.88052 369
48.90063 360
48.92075 354
48.94086 354
48.96097 342
48.98109 352
49.0012 372
49.02132 354
49.04143 351
49.06154 330
49.08166 368
49.10177 321
49.12188 354
49.142 339
49.16211 329
49.18223 342
49.20234 334
49.22245 352
49.24257 332
49.26268 340
49.28279 351
49.30291 358
49.32302 372
49.34313 346
49.36325 352
49.38336 368
49.40348 337
49.42359 392
49.4437 344
49.46382 313
49.48393 384
49.50404 369
49.52416 390
49.54427 355
49.56439 347
49.5845 346
49.60461 351
49.62473 336
49.64484 352
49.66495 344
49.68507 354
49.70518 347
49.7253 350
49.74541 342
49.76552 411
49.78564 373
49.80575 382
49.82586 413
49.84598 453
49.86609 460
49.8862 464
49.90632 510
49.92643 526
49.94655 578
49.96666 590
49.98677 684
50.00689 722
50.027 866
50.04711 903
50.06723 909
50.08734 959
50.10746 954
50.12757 853
50.14768 871
50.1678 748
50.18791 700
50.20802 671
50.22814 691
50.24825 584
50.26837 563
50.28848 472
50.30859 419
50.32871 431
50.34882 421
50.36893 457
50.38905 390
50.40916 443
50.42927 421
50.44939 407
50.4695 449
50.48962 401
50.50973 445
50.52984 429
50.54996 457
50.57007 417
50.59018 448
50.6103 384
50.63041 425
50.65053 410
50.67064 349
50.69075 374
50.71087 383
50.73098 361
50.75109 347
50.77121 410
50.79132 361
50.81143 374
50.83155 384
50.85166 368
50.87178 341
50.89189 362
50.912 346
50.93212 362
50.95223 316
50.97234 321
50.99246 377
51.01257 329
51.03269 318
51.0528 356
51.07291 327
51.09303 360
51.11314 329
51.13325 314
51.15337 317
51.17348 340
51.1936 309
51.21371 292
51.23382 345
51.25394 318
51.27405 319
51.29416 302
51.31428 329
51.33439 317
51.3545 319
51.37462 296
51.39473 329
51.41485 303
51.43496 347
51.45507 318
51.47519 307
51.4953 283
51.51541 298
51.53553 316
51.55564 311
51.57576 311
51.59587 306
51.61598 292
51.6361 330
51.65621 306
51.67632 284
51.69644 290
51.71655 323
51.73667 296
51.75678 321
51.77689 326
51.79701 330
51.81712 319
51.83723 308
51.85735 302
51.87746 307
51.89757 296
51.91769 326
51.9378 293
51.95792 298
51.97803 294
51.99814 325
52.01826 309
52.03837 299
52.05848 325
52.0786 299
52.09871 273
52.11883 279
52.13894 344
52.15905 292
52.17917 300
52.19928 309
52.21939 320
52.23951 314
52.25962 316
52.27974 300
52.29985 318
52.31996 324
52.34008 291
52.36019 312
52.3803 278
52.40042 275
52.42053 312
52.44064 306
52.46076 339
52.48087 339
52.50099 334
52.5211 345
52.54121 317
52.56133 343
52.58144 335
52.60155 339
52.62167 310
52.64178 312
52.6619 341
52.68201 340
52.70212 336
52.72224 294
52.74235 303
52.76246 332
52.78258 333
52.80269 330
52.8228 339
52.84292 326
52.86303 293
52.88315 366
52.90326 306
52.92337 322
52.94349 337
52.9636 308
52.98371 339
53.00383 332
53.02394 323
53.04406 343
53.06417 343
53.08428 332
53.1044 334
53.12451 341
53.14462 319
53.16474 334
53.18485 339
53.20497 367
53.22508 370
53.24519 370
53.26531 379
53.28542 361
53.30553 368
53.32565 354
53.34576 384
53.36587 372
53.38599 364
53.4061 360
53.42622 388
53.44633 382
53.46644 412
53.48656 387
53.50667 384
53.52678 402
53.5469 384
53.56701 399
53.58713 405
53.60724 395
53.62735 389
53.64747 377
53.66758 398
53.68769 361
53.70781 374
53.72792 383
53.74804 421
53.76815 423
53.78826 394
53.80838 395
53.82849 391
53.8486 439
53.86872 412
53.88883 403
53.90894 415
53.92906 381
53.94917 439
53.96929 451
53.9894 383
54.00951 404
54.02963 429
54.04974 421
54.06985 431
54.08997 460
54.11008 433
54.1302 416
54.15031 418
54.17042 412
54.19054 443
54.21065 417
54.23076 396
54.25088 399
54.27099 445
54.29111 391
54.31122 407
54.33133 423
54.35145 414
54.37156 402
54.39167 416
54.41179 435
54.4319 368
54.45201 394
54.47213 410
54.49224 415
54.51236 449
54.53247 417
54.55258 442
54.5727 419
54.59281 458
54.61292 471
54.63304 434
54.65315 491
54.67327 515
54.69338 513
54.71349 558
54.73361 548
54.75372 533
54.77383 576
54.79395 585
54.81406 602
54.83417 617
54.85429 615
54.8744 581
54.89452 540
54.91463 580
54.93474 559
54.95486 555
54.97497 573
54.99508 552
55.0152 516
55.03531 522
55.05543 514
55.07554 497
55.09565 485
55.11577 493
55.13588 443
55.15599 506
55.17611 508
55.19622 490
55.21634 537
55.23645 478
55.25656 490
55.27668 505
55.29679 487
55.3169 505
55.33702 459
55.35713 510
55.37724 455
55.39736 495
55.41747 467
55.43759 483
55.4577 487
55.47781 453
55.49793 459
55.51804 423
55.53815 427
55.55827 450
55.57838 434
55.5985 415
55.61861 397
55.63872 435
55.65884 400
55.67895 402
55.69906 407
55.71918 380
55.73929 414
55.75941 410
55.77952 364
55.79963 410
55.81975 394
55.83986 414
55.85997 407
55.88009 393
55.9002 390
55.92031 368
55.94043 425
55.96054 439
55.98066 370
56.00077 406
56.02088 375
56.041 407
56.06111 378
56.08122 382
56.10134 413
56.12145 386
56.14157 406
56.16168 368
56.18179 358
56.20191 392
56.22202 386
56.24213 390
56.26225 386
56.28236 392
56.30248 399
56.32259 360
56.3427 384
56.36282 335
56.38293 364
56.40304 373
56.42316 375
56.44327 376
56.46338 356
56.4835 375
56.50361 370
56.52373 408
56.54384 374
56.56395 382
56.58407 369
56.60418 354
56.62429 335
56.64441 332
56.66452 379
56.68464 337
56.70475 373
56.72486 365
56.74498 362
56.76509 328
56.7852 367
56.80532 324
56.82543 385
56.84554 376
56.86566 336
56.88577 381
56.90589 335
56.926 350
56.94611 331
56.96623 343
56.98634 333
57.00645 338
57.02657 374
57.04668 335
57.0668 356
57.08691 334
57.10702 335
57.12714 347
57.14725 345
57.16736 362
57.18748 334
57.20759 352
57.22771 352
57.24782 343
57.26793 371
57.28805 343
57.30816 369
57.32827 314
57.34839 328
57.3685 332
57.38861 315
57.40873 367
57.42884 327
57.44896 339
57.46907 342
57.48918 344
57.5093 350
57.52941 326
57.54952 298
57.56964 334
57.58975 337
57.60987 354
57.62998 322
57.65009 330
57.67021 327
57.69032 343
57.71043 304
57.73055 338
57.75066 355
57.77078 328
57.79089 323
57.811 320
57.83112 322
57.85123 332
57.87134 308
57.89146 319
57.91157 336
57.93168 364
57.9518 295
57.97191 317
57.99203 348
58.01214 308
58.03225 328
58.05237 344
58.07248 317
58.09259 335
58.11271 326
58.13282 320
58.15294 336
58.17305 324
58.19316 326
58.21328 293
58.23339 340
58.2535 304
58.27362 286
58.29373 332
58.31385 324
58.33396 331
58.35407 325
58.37419 321
58.3943 316
58.41441 329
58.43453 310
58.45464 312
58.47475 336
58.49487 341
58.51498 339
58.5351 335
58.55521 323
58.57532 320
58.59544 354
58.61555 308
58.63566 328
58.65578 339
58.67589 331
58.69601 314
58.71612 351
58.73623 328
58.75635 321
58.77646 302
58.79657 370
58.81669 299
58.8368 349
58.85691 351
58.87703 323
58.89714 332
58.91726 333
58.93737 313
58.95748 322
58.9776 323
58.99771 309
59.01782 329
59.03794 309
59.05805 329
59.07817 299
59.09828 313
59.11839 317
59.13851 323
59.15862 334
59.17873 330
59.19885 315
59.21896 316
59.23908 361
59.25919 365
59.2793 339
59.29942 340
59.31953 350
59.33964 342
59.35976 338
59.37987 318
59.39998 331
59.4201 368
59.44021 360
59.46033 354
59.48044 396
59.50055 381
59.52067 360
59.54078 360
59.56089 371
59.58101 384
59.60112 394
59.62124 414
59.64135 391
59.66146 422
59.68158 431
59.70169 459
59.7218 473
59.74192 541
59.76203 513
59.78215 574
59.80226 619
59.82237 638
59.84249 641
59.8626 712
59.88271 723
59.90283 759
59.92294 683
59.94305 668
59.96317 632
59.98328 586
60.0034 564
60.02351 569
60.04362 536
60.06374 538
60.08385 545
60.10396 494
60.12408 446
60.14419 479
60.16431 396
60.18442 399
60.20453 371
60.22465 367
60.24476 364
60.26487 391
60.28499 344
60.3051 356
60.32522 344
60.34533 353
60.36544 337
60.38556 343
60.40567 346
60.42578 321
60.4459 327
60.46601 331
60.48612 334
60.50624 320
60.52635 334
60.54647 326
60.56658 326
60.58669 316
60.60681 311
60.62692 303
60.64703 337
60.66715 319
60.68726 303
60.70738 326
60.72749 347
60.7476 319
60.76772 341
60.78783 333
60.80794 321
60.82806 337
60.84817 321
60.86828 325
60.8884 327
60.90851 330
60.92863 333
60.94874 355
60.96885 362
60.98897 349
61.00908 358
61.02919 330
61.04931 359
61.06942 352
61.08954 377
61.10965 381
61.12976 359
61.14988 345
61.16999 380
61.1901 387
61.21022 378
61.23033 361
61.25045 370
61.27056 374
61.29067 370
61.31079 364
61.3309 356
61.35101 419
61.37113 406
61.39124 411
61.41135 379
61.43147 433
61.45158 442
61.4717 422
61.49181 418
61.51192 436
61.53204 494
61.55215 485
61.57226 442
61.59238 466
61.61249 480
61.63261 462
61.65272 483
61.67283 476
61.69295 425
61.71306 464
61.73317 480
61.75329 461
61.7734 469
61.79352 488
61.81363 449
61.83374 473
61.85386 451
61.87397 410
61.89408 478
61.9142 426
61.93431 458
61.95442 468
61.97454 430
61.99465 444
62.01477 429
62.03488 421
62.05499 428
62.07511 442
62.09522 502
62.11533 445
62.13545 470
62.15556 500
62.17568 412
62.19579 475
62.2159 457
62.23602 454
62.25613 454
62.27624 459
62.29636 399
62.31647 419
62.33659 430
62.3567 413
62.37681 476
62.39693 440
62.41704 409
62.43715 438
62.45727 426
62.47738 417
62.49749 424
62.51761 444
62.53772 397
62.55784 356
62.57795 384
62.59806 392
62.61818 389
62.63829 387
62.6584 346
62.67852 358
62.69863 349
62.71875 335
62.73886 357
62.75897 338
62.77909 346
62.7992 360
62.81931 351
62.83943 346
62.85954 318
62.87965 342
62.89977 352
62.91988 344
62.94 358
62.96011 318
62.98022 362
63.00034 334
63.02045 347
63.04056 346
63.06068 357
63.08079 340
63.10091 336
63.12102 385
63.14113 307
63.16125 330
63.18136 333
63.20147 356
63.22159 322
63.2417 343
63.26182 362
63.28193 309
63.30204 342
63.32216 313
63.34227 303
63.36238 301
63.3825 329
63.40261 332
63.42272 296
63.44284 340
63.46295 337
63.48307 319
63.50318 326
63.52329 340
63.54341 313
63.56352 317
63.58363 320
63.60375 335
63.62386 312
63.64398 351
63.66409 335
63.6842 310
63.70432 322
63.72443 363
63.74454 344
63.76466 364
63.78477 377
63.80489 352
63.825 365
63.84511 375
63.86523 394
63.88534 420
63.90545 435
63.92557 407
63.94568 418
63.96579 436
63.98591 400
64.00602 418
64.02614 390
64.04625 393
64.06636 372
64.08648 375
64.10659 408
64.1267 348
64.14682 373
64.16693 340
64.18705 322
64.20716 373
64.22727 354
64.24739 321
64.2675 323
64.28761 323
64.30773 308
64.32784 287
64.34796 294
64.36807 336
64.38818 277
64.4083 283
64.42841 294
64.44852 319
64.46864 276
64.48875 292
64.50886 311
64.52898 306
64.54909 291
64.56921 302
64.58932 311
64.60943 303
64.62955 297
64.64966 298
64.66977 285
64.68989 306
64.71 271
64.73012 308
64.75023 299
64.77034 281
64.79046 324
64.81057 300
64.83068 284
64.8508 310
64.87091 319
64.89102 317
64.91114 300
64.93125 291
64.95137 320
64.97148 295
64.99159 298
65.01171 277
65.03182 304
65.05193 284
65.07205 317
65.09216 314
65.11228 339
65.13239 308
65.1525 325
65.17262 302
65.19273 320
65.21284 327
65.23296 352
65.25307 338
65.27319 310
65.2933 347
65.31341 309
65.33353 315
65.35364 329
65.37375 326
65.39387 301
65.41398 293
65.43409 299
65.45421 304
65.47432 315
65.49444 327
65.51455 314
65.53466 307
65.55478 285
65.57489 300
65.595 320
65.61512 307
65.63523 316
65.65535 301
65.67546 292
65.69557 296
65.71569 314
65.7358 306
65.75591 287
65.77603 310
65.79614 275
65.81626 310
65.83637 322
65.85648 301
65.8766 289
65.89671 294
65.91682 316
65.93694 304
65.95705 294
65.97716 283
65.99728 261
66.01739 271
66.03751 307
66.05762 310
66.07773 302
66.09785 305
66.11796 298
66.13807 283
66.15819 310
66.1783 320
66.19842 291
66.21853 326
66.23864 336
66.25876 312
66.27887 305
66.29898 305
66.3191 304
66.33921 292
66.35933 289
66.37944 307
66.39955 319
66.41967 290
66.43978 303
66.45989 294
66.48001 311
66.50012 300
66.52023 279
66.54035 261
66.56046 283
66.58058 312
66.60069 262
66.6208 298
66.64092 268
66.66103 282
66.68114 270
66.70126 276
66.72137 309
66.74149 309
66.7616 285
66.78171 320
66.80183 314
66.82194 292
66.84205 306
66.86217 279
66.88228 308
66.90239 301
66.92251 268
66.94262 305
66.96274 283
66.98285 286
67.00296 326
67.02308 294
67.04319 329
67.0633 317
67.08342 296
67.10353 317
67.12365 315
67.14376 289
67.16387 278
67.18399 292
67.2041 308
67.22421 293
67.24433 300
67.26444 289
67.28456 306
67.30467 289
67.32478 297
67.3449 345
67.36501 304
67.38512 331
67.40524 286
67.42535 365
67.44546 357
67.46558 332
67.48569 384
67.50581 396
67.52592 395
67.54603 421
67.56615 470
67.58626 491
67.60637 519
67.62649 469
67.6466 500
67.66672 511
67.68683 501
67.70694 518
67.72706 503
67.74717 492
67.76728 452
67.7874 457
67.80751 425
67.82763 484
67.84774 471
67.86785 488
67.88797 548
67.90808 471
67.92819 484
67.94831 514
67.96842 553
67.98853 542
68.00865 552
68.02876 569
68.04888 599
68.06899 630
68.0891 627
68.10922 639
68.12933 631
68.14944 615
68.16956 556
68.18967 582
68.20979 622
68.2299 577
68.25001 579
68.27013 575
68.29024 542
68.31035 533
68.33047 516
68.35058 416
68.3707 420
68.39081 418
68.41092 383
68.43104 379
68.45115 412
68.47126 374
68.49138 360
68.51149 348
68.5316 322
68.55172 344
68.57183 362
68.59195 329
68.61206 324
68.63217 292
68.65229 324
68.6724 326
68.69251 286
68.71263 305
68.73274 301
68.75286 327
68.77297 311
68.79308 292
68.8132 309
68.83331 294
68.85342 287
68.87354 301
68.89365 291
68.91376 279
68.93388 291
68.95399 304
68.97411 293
68.99422 321
69.01433 303
69.03445 330
69.05456 296
69.07467 312
69.09479 282
69.1149 293
69.13502 332
69.15513 305
69.17524 299
69.19536 301
69.21547 293
69.23558 297
69.2557 325
69.27581 299
69.29593 310
69.31604 295
69.33615 328
69.35627 304
69.37638 315
69.39649 291
69.41661 303
69.43672 304
69.45683 316
69.47695 308
69.49706 284
69.51718 301
69.53729 317
69.5574 301
69.57752 314
69.59763 317
69.61774 295
69.63786 281
69.65797 350
69.67809 299
69.6982 298
69.71831 305
69.73843 312
69.75854 294
69.77865 288
69.79877 290
69.81888 304
69.839 300
69.85911 309
69.87922 324
69.89934 299
69.91945 282
69.93956 319
69.95968 323
69.97979 310
69.9999 287
70.02002 311
70.04013 288
70.06025 285
70.08036 324
70.10047 311
70.12059 329
70.1407 314
70.16081 355
70.18093 284
70.20104 311
70.22116 320
70.24127 305
70.26138 333
70.2815 311
70.30161 317
70.32172 287
70.34184 343
70.36195 288
70.38207 307
70.40218 266
70.42229 290
70.44241 298
70.46252 281
70.48263 308
70.50275 288
70.52286 275
70.54297 271
70.56309 278
70.5832 291
70.60332 284
70.62343 281
70.64354 320
70.66366 290
70.68377 283
70.70388 274
70.724 292
70.74411 281
70.76423 277
70.78434 323
70.80445 294
70.82457 292
70.84468 256
70.86479 280
70.88491 272
70.90502 275
70.92513 349
70.94525 295
70.96536 305
70.98548 271
71.00559 292
71.0257 285
71.04582 275
71.06593 290
71.08604 270
71.10616 264
71.12627 265
71.14639 281
71.1665 290
71.18661 303
71.20673 283
71.22684 320
71.24695 271
71.26707 286
71.28718 275
71.3073 296
71.32741 255
71.34752 268
71.36764 284
71.38775 298
71.40786 298
71.42798 286
71.44809 306
71.4682 305
71.48832 305
71.50843 280
71.52855 274
71.54866 316
71.56877 306
71.58889 281
71.609 306
71.62911 292
71.64923 289
71.66934 279
71.68946 311
71.70957 297
71.72968 280
71.7498 326
71.76991 311
71.79002 282
71.81014 291
71.83025 261
71.85037 298
71.87048 298
71.89059 344
71.91071 320
71.93082 295
71.95093 286
71.97105 280
71.99116 311
72.01127 324
72.03139 296
72.0515 311
72.07162 324
72.09173 304
72.11184 318
72.13196 315
72.15207 301
72.17218 316
72.1923 307
72.21241 327
72.23253 303
72.25264 319
72.27275 324
72.29287 310
72.31298 324
72.33309 317
72.35321 331
72.37332 335
72.39344 310
72.41355 334
72.43366 336
72.45378 348
72.47389 324
72.494 324
72.51412 316
72.53423 308
72.55434 320
72.57446 324
72.59457 321
72.61469 357
72.6348 337
72.65491 315
72.67503 342
72.69514 296
72.71525 316
72.73537 332
72.75548 333
72.7756 334
72.79571 314
72.81582 334
72.83594 320
72.85605 298
72.87616 322
72.89628 312
72.91639 283
72.9365 325
72.95662 340
72.97673 326
72.99685 315
73.01696 333
73.03707 346
73.05719 317
73.0773 352
73.09741 354
73.11753 314
73.13764 370
73.15776 329
73.17787 362
73.19798 309
73.2181 351
73.23821 344
73.25832 371
73.27844 362
73.29855 376
73.31867 370
73.33878 396
73.35889 385
73.37901 393
73.39912 393
73.41923 365
73.43935 361
73.45946 375
73.47957 361
73.49969 368
73.5198 344
73.53992 343
73.56003 364
73.58014 367
73.60026 317
73.62037 330
73.64048 355
73.6606 330
73.68071 354
73.70083 334
73.72094 327
73.74105 345
73.76117 310
73.78128 322
73.80139 297
73.82151 303
73.84162 305
73.86174 334
73.88185 319
73.90196 313
73.92208 295
73.94219 307
73.9623 297
73.98242 276
74.00253 300
74.02264 315
74.04276 289
74.06287 286
74.08299 273
74.1031 302
74.12321 267
74.14333 289
74.16344 258
74.18355 267
74.20367 292
74.22378 282
74.2439 289
74.26401 296
74.28412 325
74.30424 286
74.32435 261
74.34446 294
74.36458 266
74.38469 288
74.40481 296
74.42492 280
74.44503 297
74.46515 302
74.48526 308
74.50537 306
74.52549 300
74.5456 252
74.56571 285
74.58583 304
74.60594 297
74.62606 280
74.64617 297
74.66628 310
74.6864 303
74.70651 285
74.72662 267
74.74674 292
74.76685 303
74.78697 275
74.80708 311
74.82719 288
74.84731 294
74.86742 308
74.88753 258
74.90765 300
74.92776 313
74.94787 288
74.96799 315
74.9881 293
75.00822 304
