3.00117 19253
3.02128 18525
3.0414 18295
3.06151 17596
3.08162 17088
3.10174 16800
3.12185 16112
3.14197 15777
3.16208 14875
3.18219 15027
3.20231 14181
3.22242 14166
3.24253 13788
3.26265 12896
3.28276 12961
3.30288 12233
3.32299 11924
3.3431 11397
3.36322 11040
3.38333 10618
3.40344 10306
3.42356 10176
3.44367 10026
3.46379 9466
3.4839 9372
3.50401 8631
3.52413 8425
3.54424 8180
3.56435 7775
3.58447 7791
3.60458 7184
3.62469 7058
3.64481 6894
3.66492 6234
3.68504 6243
3.70515 5870
3.72526 5742
3.74538 5397
3.76549 5287
3.7856 5114
3.80572 4826
3.82583 4579
3.84595 4566
3.86606 4149
3.88617 4231
3.90629 3760
3.9264 3700
3.94651 3677
3.96663 3481
3.98674 3328
4.00686 3190
4.02697 3089
4.04708 2966
4.0672 2794
4.08731 2674
4.10742 2454
4.12754 2355
4.14765 2358
4.16776 2273
4.18788 2244
4.20799 1900
4.22811 1975
4.24822 2026
4.26833 1862
4.28845 1810
4.30856 1711
4.32867 1732
4.34879 1699
4.3689 1693
4.38902 1675
4.40913 1400
4.42924 1407
4.44936 1500
4.46947 1452
4.48958 1332
4.5097 1399
4.52981 1312
4.54992 1304
4.57004 1261
4.59015 1155
4.61027 1193
4.63038 1124
4.65049 1188
4.67061 1185
4.69072 1123
4.71083 1050
4.73095 1062
4.75106 1057
4.77118 1047
4.79129 988
4.8114 1000
4.83152 985
4.85163 940
4.87174 925
4.89186 872
4.91197 892
4.93209 830
4.9522 826
4.97231 840
4.99243 809
5.01254 809
5.03265 748
5.05277 698
5.07288 735
5.09299 705
5.11311 680
5.13322 636
5.15334 667
5.17345 685
5.19356 649
5.21368 620
5.23379 627
5.2539 626
5.27402 569
5.29413 631
5.31425 597
5.33436 579
5.35447 535
5.37459 582
5.3947 543
5.41481 509
5.43493 515
5.45504 474
5.47516 497
5.49527 490
5.51538 496
5.5355 474
5.55561 458
5.57572 457
5.59584 485
5.61595 400
5.63606 431
5.65618 427
5.67629 433
5.69641 411
5.71652 395
5.73663 403
5.75675 391
5.77686 387
5.79697 407
5.81709 418
5.8372 392
5.85732 399
5.87743 408
5.89754 324
5.91766 389
5.93777 379
5.95788 370
5.978 345
5.99811 352
6.01823 376
6.03834 380
6.05845 341
6.07857 396
6.09868 334
6.11879 350
6.13891 355
6.15902 336
6.17913 338
6.19925 337
6.21936 376
6.23948 343
6.25959 332
6.2797 376
6.29982 335
6.31993 318
6.34004 355
6.36016 331
6.38027 356
6.40039 358
6.4205 327
6.44061 355
6.46073 299
6.48084 352
6.50095 312
6.52107 330
6.54118 348
6.56129 356
6.58141 359
6.60152 325
6.62164 319
6.64175 325
6.66186 311
6.68198 305
6.70209 319
6.7222 324
6.74232 297
6.76243 316
6.78255 311
6.80266 284
6.82277 313
6.84289 316
6.863 318
6.88311 327
6.90323 297
6.92334 276
6.94346 303
6.96357 299
6.98368 329
7.0038 293
7.02391 293
7.04402 288
7.06414 328
7.08425 274
7.10436 301
7.12448 310
7.14459 306
7.16471 309
7.18482 294
7.20493 345
7.22505 308
7.24516 322
7.26527 310
7.28539 317
7.3055 324
7.32562 315
7.34573 309
7.36584 321
7.38596 300
7.40607 311
7.42618 341
7.4463 312
7.46641 311
7.48653 313
7.50664 264
7.52675 277
7.54687 342
7.56698 332
7.58709 330
7.60721 317
7.62732 332
7.64743 281
7.66755 310
7.68766 315
7.70778 273
7.72789 312
7.748 304
7.76812 296
7.78823 295
7.80834 327
7.82846 311
7.84857 289
7.86869 308
7.8888 337
7.90891 325
7.92903 312
7.94914 305
7.96925 305
7.98937 285
8.00948 291
8.0296 341
8.04971 296
8.06982 320
8.08994 308
8.11005 306
8.13016 329
8.15028 319
8.17039 328
8.1905 307
8.21062 349
8.23073 328
8.25085 305
8.27096 299
8.29107 331
8.31119 366
8.3313 263
8.35141 316
8.37153 304
8.39164 307
8.41176 325
8.43187 325
8.45198 331
8.4721 330
8.49221 327
8.51232 321
8.53244 312
8.55255 329
8.57266 316
8.59278 329
8.61289 344
8.63301 292
8.65312 340
8.67323 306
8.69335 344
8.71346 307
8.73357 288
8.75369 348
8.7738 318
8.79392 348
8.81403 293
8.83414 345
8.85426 340
8.87437 345
8.89448 320
8.9146 316
8.93471 310
8.95483 307
8.97494 342
8.99505 313
9.01517 297
9.03528 327
9.05539 301
9.07551 315
9.09562 288
9.11573 321
9.13585 308
9.15596 295
9.17608 319
9.19619 310
9.2163 290
9.23642 328
9.25653 298
9.27664 336
9.29676 324
9.31687 358
9.33699 301
9.3571 312
9.37721 302
9.39733 329
9.41744 350
9.43755 299
9.45767 332
9.47778 317
9.4979 307
9.51801 298
9.53812 305
9.55824 301
9.57835 335
9.59846 281
9.61858 300
9.63869 304
9.6588 308
9.67892 313
9.69903 316
9.71915 303
9.73926 307
9.75937 286
9.77949 327
9.7996 282
9.81971 308
9.83983 322
9.85994 331
9.88006 323
9.90017 297
9.92028 329
9.9404 309
9.96051 294
9.98062 327
10.00074 304
10.02085 334
10.04097 300
10.06108 338
10.08119 321
10.10131 300
10.12142 322
10.14153 338
10.16165 322
10.18176 306
10.20187 289
10.22199 306
10.2421 311
10.26222 334
10.28233 327
10.30244 327
10.32256 310
10.34267 317
10.36278 333
10.3829 323
10.40301 342
10.42313 346
10.44324 283
10.46335 336
10.48347 289
10.50358 330
10.52369 323
10.54381 336
10.56392 326
10.58403 269
10.60415 332
10.62426 354
10.64438 326
10.66449 313
10.6846 289
10.70472 332
10.72483 355
10.74494 312
10.76506 294
10.78517 308
10.80529 307
10.8254 346
10.84551 328
10.86563 325
10.88574 326
10.90585 363
10.92597 327
10.94608 317
10.9662 330
10.98631 297
11.00642 340
11.02654 323
11.04665 286
11.06676 316
11.08688 321
11.10699 347
11.1271 306
11.14722 333
11.16733 340
11.18745 349
11.20756 323
11.22767 343
11.24779 318
11.2679 328
11.28801 344
11.30813 329
11.32824 284
11.34836 339
11.36847 339
11.38858 315
11.4087 335
11.42881 353
11.44892 368
11.46904 322
11.48915 324
11.50927 330
11.52938 358
11.54949 355
11.56961 351
11.58972 365
11.60983 350
11.62995 371
11.65006 353
11.67017 341
11.69029 366
11.7104 354
11.73052 346
11.75063 372
11.77074 362
11.79086 360
11.81097 379
11.83108 388
11.8512 334
11.87131 376
11.89143 357
11.91154 356
11.93165 380
11.95177 402
11.97188 461
11.99199 414
12.01211 446
12.03222 454
12.05234 482
12.07245 499
12.09256 491
12.11268 533
12.13279 486
12.1529 549
12.17302 648
12.19313 629
12.21324 706
12.23336 695
12.25347 737
12.27359 670
12.2937 648
12.31381 671
12.33393 658
12.35404 669
12.37415 636
12.39427 580
12.41438 545
12.4345 499
12.45461 447
12.47472 424
12.49484 422
12.51495 384
12.53506 409
12.55518 384
12.57529 401
12.5954 387
12.61552 347
12.63563 364
12.65575 350
12.67586 348
12.69597 333
12.71609 370
12.7362 374
12.75631 330
12.77643 308
12.79654 339
12.81666 330
12.83677 312
12.85688 349
12.877 297
12.89711 335
12.91722 294
12.93734 302
12.95745 285
12.97757 292
12.99768 309
13.01779 295
13.03791 329
13.05802 321
13.07813 318
13.09825 294
13.11836 324
13.13847 283
13.15859 280
13.1787 321
13.19882 297
13.21893 313
13.23904 276
13.25916 299
13.27927 290
13.29938 275
13.3195 286
13.33961 301
13.35973 325
13.37984 286
13.39995 276
13.42007 276
13.44018 292
13.46029 330
13.48041 288
13.50052 282
13.52064 294
13.54075 288
13.56086 302
13.58098 275
13.60109 279
13.6212 318
13.64132 284
13.66143 273
13.68154 288
13.70166 266
13.72177 300
13.74189 288
13.762 288
13.78211 282
13.80223 277
13.82234 295
13.84245 289
13.86257 287
13.88268 276
13.9028 268
13.92291 303
13.94302 271
13.96314 303
13.98325 268
14.00336 283
14.02348 281
14.04359 280
14.06371 281
14.08382 307
14.10393 280
14.12405 296
14.14416 303
14.16427 280
14.18439 291
14.2045 272
14.22461 253
14.24473 291
14.26484 313
14.28496 255
14.30507 276
14.32518 269
14.3453 274
14.36541 252
14.38552 275
14.40564 263
14.42575 288
14.44587 263
14.46598 284
14.48609 287
14.50621 276
14.52632 285
14.54643 307
14.56655 292
14.58666 273
14.60677 264
14.62689 287
14.647 301
14.66712 269
14.68723 270
14.70734 276
14.72746 285
14.74757 265
14.76768 261
14.7878 285
14.80791 302
14.82803 269
14.84814 266
14.86825 271
14.88837 227
14.90848 271
14.92859 243
14.94871 257
14.96882 265
14.98894 278
15.00905 270
15.02916 285
15.04928 281
15.06939 241
15.0895 253
15.10962 286
15.12973 258
15.14984 254
15.16996 271
15.19007 302
15.21019 295
15.2303 264
15.25041 269
15.27053 287
15.29064 267
15.31075 267
15.33087 275
15.35098 226
15.3711 260
15.39121 270
15.41132 282
15.43144 255
15.45155 299
15.47166 253
15.49178 233
15.51189 267
15.53201 288
15.55212 245
15.57223 288
15.59235 283
15.61246 259
15.63257 245
15.65269 246
15.6728 263
15.69291 278
15.71303 246
15.73314 259
15.75326 277
15.77337 285
15.79348 288
15.8136 232
15.83371 280
15.85382 270
15.87394 248
15.89405 274
15.91417 239
15.93428 257
15.95439 253
15.97451 277
15.99462 262
16.01473 266
16.03485 269
16.05496 294
16.07508 261
16.09519 271
16.1153 262
16.13542 259
16.15553 292
16.17564 244
16.19576 259
16.21587 282
16.23598 258
16.2561 242
16.27621 226
16.29633 274
16.31644 244
16.33655 264
16.35667 239
16.37678 252
16.39689 254
16.41701 250
16.43712 241
16.45724 239
16.47735 242
16.49746 272
16.51758 256
16.53769 245
16.5578 257
16.57792 251
16.59803 260
16.61814 246
16.63826 271
16.65837 259
16.67849 299
16.6986 274
16.71871 245
16.73883 270
16.75894 253
16.77905 287
16.79917 261
16.81928 235
16.8394 253
16.85951 276
16.87962 245
16.89974 261
16.91985 259
16.93996 242
16.96008 262
16.98019 276
17.00031 287
17.02042 259
17.04053 271
17.06065 228
17.08076 280
17.10087 255
17.12099 280
17.1411 266
17.16121 266
17.18133 229
17.20144 275
17.22156 236
17.24167 277
17.26178 294
17.2819 298
17.30201 267
17.32212 253
17.34224 237
17.36235 263
17.38247 228
17.40258 268
17.42269 270
17.44281 262
17.46292 298
17.48303 250
17.50315 250
17.52326 272
17.54338 293
17.56349 271
17.5836 246
17.60372 297
17.62383 280
17.64394 252
17.66406 272
17.68417 265
17.70428 309
17.7244 244
17.74451 276
17.76463 295
17.78474 273
17.80485 271
17.82497 276
17.84508 287
17.86519 260
17.88531 272
17.90542 247
17.92554 276
17.94565 242
17.96576 264
17.98588 254
18.00599 263
18.0261 258
18.04622 253
18.06633 285
18.08645 264
18.10656 229
18.12667 278
18.14679 310
18.1669 276
18.18701 263
18.20713 246
18.22724 268
18.24735 263
18.26747 249
18.28758 262
18.3077 233
18.32781 250
18.34792 277
18.36804 268
18.38815 243
18.40826 257
18.42838 234
18.44849 253
18.46861 272
18.48872 248
18.50883 299
18.52895 253
18.54906 274
18.56917 267
18.58929 258
18.6094 268
18.62951 249
18.64963 278
18.66974 287
18.68986 293
18.70997 255
18.73008 284
18.7502 275
18.77031 253
18.79042 242
18.81054 276
18.83065 265
18.85077 286
18.87088 244
18.89099 274
18.91111 267
18.93122 279
18.95133 274
18.97145 270
18.99156 260
19.01168 258
19.03179 251
19.0519 286
19.07202 275
19.09213 256
19.11224 262
19.13236 293
19.15247 263
19.17258 278
19.1927 249
19.21281 278
19.23293 250
19.25304 274
19.27315 287
19.29327 314
19.31338 296
19.33349 279
19.35361 289
19.37372 289
19.39384 279
19.41395 319
19.43406 302
19.45418 316
19.47429 310
19.4944 292
19.51452 293
19.53463 331
19.55475 316
19.57486 317
19.59497 355
19.61509 375
19.6352 368
19.65531 418
19.67543 418
19.69554 452
19.71565 453
19.73577 494
19.75588 497
19.776 503
19.79611 485
19.81622 525
19.83634 570
19.85645 524
19.87656 577
19.89668 512
19.91679 560
19.93691 543
19.95702 537
19.97713 507
19.99725 527
20.01736 478
20.03747 517
20.05759 491
20.0777 548
20.09782 559
20.11793 466
20.13804 509
20.15816 543
20.17827 510
20.19838 519
20.2185 520
20.23861 542
20.25872 554
20.27884 511
20.29895 530
20.31907 545
20.33918 554
20.35929 555
20.37941 567
20.39952 584
20.41963 595
20.43975 591
20.45986 574
20.47998 609
20.50009 649
20.5202 638
20.54032 747
20.56043 755
20.58054 800
20.60066 926
20.62077 1072
20.64088 1301
20.661 1637
20.68111 2076
20.70123 2578
20.72134 3328
20.74145 4022
20.76157 4519
20.78168 4993
20.80179 4828
20.82191 4610
20.84202 3840
20.86214 3235
20.88225 2479
20.90236 1781
20.92248 1330
20.94259 1021
20.9627 843
20.98282 752
21.00293 702
21.02305 633
21.04316 622
21.06327 629
21.08339 623
21.1035 579
21.12361 568
21.14373 589
21.16384 605
21.18395 605
21.20407 564
21.22418 548
21.2443 564
21.26441 618
21.28452 587
21.30464 522
21.32475 596
21.34486 603
21.36498 546
21.38509 553
21.40521 516
21.42532 536
21.44543 503
21.46555 504
21.48566 507
21.50577 470
21.52589 473
21.546 486
21.56612 488
21.58623 433
21.60634 476
21.62646 414
21.64657 444
21.66668 476
21.6868 397
21.70691 444
21.72702 449
21.74714 403
21.76725 453
21.78737 464
21.80748 478
21.82759 418
21.84771 407
21.86782 415
21.88793 416
21.90805 412
21.92816 429
21.94828 491
21.96839 450
21.9885 459
22.00862 451
22.02873 397
22.04884 381
22.06896 371
22.08907 393
22.10919 378
22.1293 390
22.14941 412
22.16953 391
22.18964 405
22.20975 387
22.22987 411
22.24998 394
22.27009 401
22.29021 402
22.31032 352
22.33044 363
22.35055 405
22.37066 368
22.39078 386
22.41089 377
22.431 352
22.45112 388
22.47123 361
22.49135 416
22.51146 377
22.53157 380
22.55169 382
22.5718 393
22.59191 351
22.61203 375
22.63214 379
22.65225 354
22.67237 352
22.69248 370
22.7126 371
22.73271 344
22.75282 383
22.77294 328
22.79305 359
22.81316 366
22.83328 340
22.85339 302
22.87351 332
22.89362 362
22.91373 335
22.93385 371
22.95396 343
22.97407 356
22.99419 363
23.0143 360
23.03442 360
23.05453 342
23.07464 350
23.09476 338
23.11487 335
23.13498 341
23.1551 328
23.17521 366
23.19532 367
23.21544 358
23.23555 347
23.25567 333
23.27578 357
23.29589 363
23.31601 371
23.33612 346
23.35623 342
23.37635 327
23.39646 351
23.41658 362
23.43669 327
23.4568 361
23.47692 333
23.49703 383
23.51714 372
23.53726 354
23.55737 322
23.57749 341
23.5976 352
23.61771 329
23.63783 377
23.65794 348
23.67805 386
23.69817 354
23.71828 335
23.73839 362
23.75851 386
23.77862 367
23.79874 349
23.81885 391
23.83896 383
23.85908 365
23.87919 388
23.8993 397
23.91942 418
23.93953 428
23.95965 382
23.97976 412
23.99987 416
24.01999 406
24.0401 394
24.06021 357
24.08033 350
24.10044 359
24.12056 368
24.14067 357
24.16078 384
24.1809 352
24.20101 369
24.22112 411
24.24124 401
24.26135 411
24.28146 386
24.30158 377
24.32169 410
24.34181 370
24.36192 378
24.38203 358
24.40215 401
24.42226 380
24.44237 380
24.46249 378
24.4826 408
24.50272 388
24.52283 424
24.54294 436
24.56306 435
24.58317 428
24.60328 440
24.6234 461
24.64351 503
24.66362 502
24.68374 514
24.70385 542
24.72397 559
24.74408 575
24.76419 634
24.78431 623
24.80442 613
24.82453 629
24.84465 650
24.86476 621
24.88488 616
24.90499 561
24.9251 554
24.94522 568
24.96533 527
24.98544 484
25.00556 484
25.02567 468
25.04579 435
25.0659 425
25.08601 451
25.10613 496
25.12624 479
25.14635 463
25.16647 415
25.18658 431
25.20669 402
25.22681 404
25.24692 392
25.26704 419
25.28715 424
25.30726 435
25.32738 378
25.34749 448
25.3676 404
25.38772 406
25.40783 383
25.42795 387
25.44806 399
25.46817 402
25.48829 375
25.5084 433
25.52851 402
25.54863 445
25.56874 421
25.58886 430
25.60897 444
25.62908 449
25.6492 484
25.66931 510
25.68942 450
25.70954 434
25.72965 462
25.74976 483
25.76988 489
25.78999 476
25.81011 468
25.83022 486
25.85033 474
25.87045 490
25.89056 501
25.91067 485
25.93079 550
25.9509 524
25.97102 590
25.99113 565
26.01124 560
26.03136 587
26.05147 624
26.07158 640
26.0917 681
26.11181 676
26.13193 746
26.15204 793
26.17215 828
26.19227 883
26.21238 923
26.23249 1014
26.25261 1137
26.27272 1241
26.29283 1446
26.31295 1626
26.33306 1896
26.35318 2287
26.37329 2875
26.3934 3752
26.41352 4880
26.43363 6458
26.45374 8540
26.47386 11147
26.49397 14207
26.51409 17591
26.5342 19843
26.55431 20777
26.57443 21361
26.59454 20119
26.61465 17596
26.63477 14245
26.65488 11034
26.67499 7955
26.69511 5631
26.71522 3842
26.73534 2557
26.75545 1807
26.77556 1491
26.79568 1339
26.81579 1113
26.8359 1037
26.85602 939
26.87613 895
26.89625 795
26.91636 733
26.93647 733
26.95659 677
26.9767 659
26.99681 633
27.01693 586
27.03704 565
27.05716 500
27.07727 494
27.09738 507
27.1175 488
27.13761 492
27.15772 460
27.17784 474
27.19795 497
27.21806 471
27.23818 514
27.25829 506
27.27841 435
27.29852 489
27.31863 464
27.33875 495
27.35886 507
27.37897 474
27.39909 450
27.4192 479
27.43932 505
27.45943 459
27.47954 467
27.49966 473
27.51977 403
27.53988 421
27.56 431
27.58011 382
27.60023 405
27.62034 415
27.64045 410
27.66057 388
27.68068 402
27.70079 410
27.72091 401
27.74102 385
27.76113 413
27.78125 431
27.80136 441
27.82148 407
27.84159 404
27.8617 411
27.88182 398
27.90193 411
27.92204 426
27.94216 417
27.96227 354
27.98239 368
28.0025 362
28.02261 376
28.04273 313
28.06284 357
28.08295 318
28.10307 372
28.12318 310
28.1433 337
28.16341 353
28.18352 342
28.20364 329
28.22375 378
28.24386 364
28.26398 320
28.28409 334
28.3042 352
28.32432 332
28.34443 346
28.36455 343
28.38466 342
28.40477 339
28.42489 349
28.445 330
28.46511 340
28.48523 348
28.50534 337
28.52546 302
28.54557 350
28.56568 338
28.5858 334
28.60591 332
28.62602 306
28.64614 322
28.66625 305
28.68636 319
28.70648 334
28.72659 337
28.74671 340
28.76682 313
28.78693 314
28.80705 315
28.82716 347
28.84727 312
28.86739 332
28.8875 312
28.90762 282
28.92773 294
28.94784 303
28.96796 339
28.98807 322
29.00818 323
29.0283 306
29.04841 311
29.06853 290
29.08864 329
29.10875 300
29.12887 333
29.14898 295
29.16909 282
29.18921 296
29.20932 387
29.22943 329
29.24955 319
29.26966 331
29.28978 318
29.30989 304
29.33 330
29.35012 315
29.37023 319
29.39034 338
29.41046 299
29.43057 328
29.45069 294
29.4708 310
29.49091 300
29.51103 307
29.53114 307
29.55125 321
29.57137 286
29.59148 320
29.6116 324
29.63171 321
29.65182 282
29.67194 334
29.69205 327
29.71216 318
29.73228 305
29.75239 314
29.7725 270
29.79262 321
29.81273 307
29.83285 307
29.85296 333
29.87307 285
29.89319 316
29.9133 331
29.93341 324
29.95353 304
29.97364 295
29.99376 311
30.01387 296
30.03398 299
30.0541 293
30.07421 325
30.09432 269
30.11444 288
30.13455 293
30.15467 345
30.17478 291
30.19489 317
30.21501 351
30.23512 311
30.25523 291
30.27535 292
30.29546 306
30.31557 308
30.33569 298
30.3558 290
30.37592 310
30.39603 301
30.41614 289
30.43626 293
30.45637 288
30.47648 319
30.4966 318
30.51671 318
30.53683 297
30.55694 309
30.57705 326
30.59717 279
30.61728 322
30.63739 306
30.65751 333
30.67762 300
30.69773 300
30.71785 288
30.73796 307
30.75808 296
30.77819 325
30.7983 327
30.81842 312
30.83853 319
30.85864 310
30.87876 298
30.89887 304
30.91899 254
30.9391 278
30.95921 300
30.97933 313
30.99944 306
31.01955 278
31.03967 291
31.05978 283
31.0799 284
31.10001 275
31.12012 283
31.14024 276
31.16035 302
31.18046 285
31.20058 294
31.22069 296
31.2408 297
31.26092 260
31.28103 282
31.30115 272
31.32126 257
31.34137 260
31.36149 309
31.3816 277
31.40171 303
31.42183 284
31.44194 295
31.46206 281
31.48217 271
31.50228 294
31.5224 307
31.54251 263
31.56262 294
31.58274 249
31.60285 285
31.62297 288
31.64308 264
31.66319 263
31.68331 284
31.70342 291
31.72353 295
31.74365 288
31.76376 288
31.78387 285
31.80399 304
31.8241 300
31.84422 265
31.86433 281
31.88444 257
31.90456 278
31.92467 276
31.94478 275
31.9649 290
31.98501 269
32.00513 291
32.02524 344
32.04535 308
32.06547 279
32.08558 266
32.10569 270
32.12581 277
32.14592 307
32.16604 286
32.18615 276
32.20626 279
32.22638 295
32.24649 274
32.2666 306
32.28672 277
32.30683 286
32.32694 296
32.34706 287
32.36717 303
32.38729 314
32.4074 309
32.42751 321
32.44763 307
32.46774 300
32.48785 304
32.50797 313
32.52808 313
32.5482 281
32.56831 329
32.58842 272
32.60854 321
32.62865 335
32.64876 303
32.66888 304
32.68899 297
32.7091 314
32.72922 292
32.74933 266
32.76945 302
32.78956 332
32.80967 313
32.82979 291
32.8499 324
32.87001 301
32.89013 315
32.91024 347
32.93036 307
32.95047 320
32.97058 324
32.9907 315
33.01081 314
33.03092 325
33.05104 312
33.07115 307
33.09127 364
33.11138 354
33.13149 307
33.15161 342
33.17172 358
33.19183 361
33.21195 327
33.23206 332
33.25217 329
33.27229 367
33.2924 336
33.31252 345
33.33263 344
33.35274 358
33.37286 390
33.39297 319
33.41308 348
33.4332 315
33.45331 314
33.47343 311
33.49354 339
33.51365 299
33.53377 344
33.55388 313
33.57399 309
33.59411 341
33.61422 309
33.63434 296
33.65445 273
33.67456 271
33.69468 299
33.71479 299
33.7349 316
33.75502 313
33.77513 271
33.79524 316
33.81536 286
33.83547 309
33.85559 279
33.8757 279
33.89581 292
33.91593 284
33.93604 297
33.95615 288
33.97627 264
33.99638 311
34.0165 303
34.03661 318
34.05672 290
34.07684 288
34.09695 276
34.11706 281
34.13718 298
34.15729 311
34.17741 345
34.19752 299
34.21763 316
34.23775 291
34.25786 243
34.27797 287
34.29809 279
34.3182 298
34.33831 318
34.35843 274
34.37854 325
34.39866 288
34.41877 284
34.43888 326
34.459 323
34.47911 334
34.49922 339
34.51934 340
34.53945 354
34.55957 337
34.57968 329
34.59979 304
34.61991 370
34.64002 344
34.66013 349
34.68025 369
34.70036 363
34.72047 396
34.74059 413
34.7607 406
34.78082 376
34.80093 424
34.82104 438
34.84116 424
34.86127 474
34.88138 474
34.9015 476
34.92161 412
34.94173 478
34.96184 444
34.98195 446
35.00207 428
35.02218 416
35.04229 445
35.06241 424
35.08252 380
35.10264 420
35.12275 422
35.14286 432
35.16298 402
35.18309 420
35.2032 417
35.22332 412
35.24343 408
35.26354 421
35.28366 394
35.30377 410
35.32389 427
35.344 385
35.36411 444
35.38423 437
35.40434 409
35.42445 393
35.44457 419
35.46468 393
35.4848 444
35.50491 445
35.52502 461
35.54514 393
35.56525 444
35.58536 441
35.60548 429
35.62559 476
35.64571 429
35.66582 459
35.68593 418
35.70605 440
35.72616 472
35.74627 481
35.76639 480
35.7865 453
35.80661 442
35.82673 499
35.84684 473
35.86696 481
35.88707 441
35.90718 473
35.9273 450
35.94741 464
35.96752 401
35.98764 399
36.00775 443
36.02787 403
36.04798 419
36.06809 402
36.08821 425
36.10832 419
36.12843 421
36.14855 434
36.16866 443
36.18878 439
36.20889 472
36.229 495
36.24912 523
36.26923 609
36.28934 665
36.30946 746
36.32957 804
36.34968 967
36.3698 1085
36.38991 1281
36.41003 1435
36.43014 1501
36.45025 1677
36.47037 1610
36.49048 1697
36.51059 1545
36.53071 1386
36.55082 1205
36.57094 1002
36.59105 885
36.61116 695
36.63128 611
36.65139 511
36.6715 525
36.69162 459
36.71173 420
36.73184 433
36.75196 432
36.77207 444
36.79219 415
36.8123 382
36.83241 417
36.85253 389
36.87264 424
36.89275 395
36.91287 358
36.93298 407
36.9531 407
36.97321 371
36.99332 397
37.01344 383
37.03355 406
37.05366 380
37.07378 393
37.09389 366
37.11401 339
37.13412 361
37.15423 348
37.17435 384
37.19446 365
37.21457 380
37.23469 337
37.2548 351
37.27491 337
37.29503 314
37.31514 343
37.33526 318
37.35537 341
37.37548 329
37.3956 353
37.41571 324
37.43582 327
37.45594 355
37.47605 316
37.49617 395
37.51628 361
37.53639 359
37.55651 354
37.57662 366
37.59673 368
37.61685 347
37.63696 366
37.65708 325
37.67719 344
37.6973 360
37.71742 331
37.73753 358
37.75764 350
37.77776 365
37.79787 383
37.81798 333
37.8381 338
37.85821 334
37.87833 343
37.89844 351
37.91855 345
37.93867 378
37.95878 355
37.97889 366
37.99901 357
38.01912 386
38.03924 385
38.05935 377
38.07946 379
38.09958 363
38.11969 372
38.1398 379
38.15992 395
38.18003 430
38.20015 433
38.22026 432
38.24037 454
38.26049 465
38.2806 430
38.30071 451
38.32083 435
38.34094 454
38.36105 500
38.38117 486
38.40128 475
38.4214 455
38.44151 400
38.46162 476
38.48174 438
38.50185 428
38.52196 401
38.54208 390
38.56219 394
38.58231 375
38.60242 372
38.62253 367
38.64265 362
38.66276 344
38.68287 387
38.70299 359
38.7231 385
38.74321 356
38.76333 378
38.78344 341
38.80356 342
38.82367 381
38.84378 366
38.8639 341
38.88401 358
38.90412 356
38.92424 364
38.94435 386
38.96447 404
38.98458 399
39.00469 412
39.02481 362
39.04492 433
39.06503 464
39.08515 474
39.10526 441
39.12538 442
39.14549 491
39.1656 521
39.18572 568
39.20583 627
39.22594 711
39.24606 798
39.26617 883
39.28628 1048
39.3064 1184
39.32651 1281
39.34663 1467
39.36674 1572
39.38685 1541
39.40697 1561
39.42708 1419
39.44719 1274
39.46731 1213
39.48742 1021
39.50754 918
39.52765 774
39.54776 615
39.56788 524
39.58799 463
39.6081 411
39.62822 398
39.64833 378
39.66845 387
39.68856 382
39.70867 319
39.72879 341
39.7489 319
39.76901 342
39.78913 332
39.80924 306
39.82935 346
39.84947 357
39.86958 356
39.8897 371
39.90981 339
39.92992 335
39.95004 366
39.97015 355
39.99026 384
40.01038 444
40.03049 458
40.05061 450
40.07072 555
40.09083 629
40.11095 643
40.13106 796
40.15117 808
40.17129 873
40.1914 924
40.21152 913
40.23163 892
40.25174 858
40.27186 786
40.29197 708
40.31208 594
40.3322 616
40.35231 541
40.37242 496
40.39254 417
40.41265 355
40.43277 356
40.45288 355
40.47299 313
40.49311 343
40.51322 325
40.53333 304
40.55345 326
40.57356 344
40.59368 317
40.61379 331
40.6339 277
40.65402 326
40.67413 339
40.69424 292
40.71436 312
40.73447 302
40.75458 288
40.7747 317
40.79481 294
40.81493 328
40.83504 310
40.85515 323
40.87527 309
40.89538 334
40.91549 314
40.93561 300
40.95572 325
40.97584 317
40.99595 337
41.01606 337
41.03618 303
41.05629 289
41.0764 317
41.09652 294
41.11663 276
41.13675 316
41.15686 331
41.17697 307
41.19709 314
41.2172 313
41.23731 320
41.25743 305
41.27754 318
41.29765 301
41.31777 325
41.33788 318
41.358 344
41.37811 294
41.39822 334
41.41834 344
41.43845 324
41.45856 325
41.47868 340
41.49879 302
41.51891 299
41.53902 314
41.55913 280
41.57925 339
41.59936 313
41.61947 318
41.63959 323
41.6597 324
41.67982 341
41.69993 303
41.72004 309
41.74016 280
41.76027 304
41.78038 318
41.8005 295
41.82061 303
41.84072 283
41.86084 266
41.88095 320
41.90107 292
41.92118 275
41.94129 339
41.96141 299
41.98152 304
42.00163 316
42.02175 318
42.04186 341
42.06198 340
42.08209 363
42.1022 366
42.12232 354
42.14243 375
42.16254 392
42.18266 455
42.20277 515
42.22289 628
42.243 659
42.26311 734
42.28323 836
42.30334 975
42.32345 1113
42.34357 1145
42.36368 1210
42.38379 1175
42.40391 1160
42.42402 940
42.44414 971
42.46425 810
42.48436 734
42.50448 600
42.52459 550
42.5447 469
42.56482 403
42.58493 384
42.60505 321
42.62516 319
42.64527 310
42.66539 293
42.6855 291
42.70561 285
42.72573 315
42.74584 278
42.76595 275
42.78607 277
42.80618 322
42.8263 278
42.84641 271
42.86652 279
42.88664 232
42.90675 272
42.92686 276
42.94698 278
42.96709 232
42.98721 297
43.00732 244
43.02743 262
43.04755 294
43.06766 260
43.08777 286
43.10789 281
43.128 233
43.14812 274
43.16823 272
43.18834 266
43.20846 247
43.22857 288
43.24868 259
43.2688 240
43.28891 272
43.30902 237
43.32914 258
43.34925 259
43.36937 276
43.38948 274
43.40959 241
43.42971 254
43.44982 266
43.46993 253
43.49005 243
43.51016 249
43.53028 288
43.55039 246
43.5705 262
43.59062 236
43.61073 253
43.63084 258
43.65096 248
43.67107 251
43.69119 260
43.7113 256
43.73141 264
43.75153 256
43.77164 279
43.79175 280
43.81187 272
43.83198 250
43.85209 280
43.87221 289
43.89232 274
43.91244 261
43.93255 258
43.95266 255
43.97278 276
43.99289 252
44.013 253
44.03312 251
44.05323 266
44.07335 255
44.09346 275
44.11357 285
44.13369 290
44.1538 284
44.17391 257
44.19403 265
44.21414 265
44.23426 248
44.25437 242
44.27448 277
44.2946 253
44.31471 285
44.33482 259
44.35494 255
44.37505 256
44.39516 248
44.41528 238
44.43539 260
44.45551 250
44.47562 283
44.49573 260
44.51585 248
44.53596 252
44.55607 264
44.57619 255
44.5963 261
44.61642 265
44.63653 266
44.65664 244
44.67676 266
44.69687 292
44.71698 280
44.7371 279
44.75721 239
44.77732 243
44.79744 283
44.81755 317
44.83767 281
44.85778 261
44.87789 283
44.89801 277
44.91812 254
44.93823 306
44.95835 284
44.97846 259
44.99858 251
45.01869 298
45.0388 283
45.05892 280
45.07903 289
45.09914 252
45.11926 293
45.13937 303
45.15949 280
45.1796 290
45.19971 273
45.21983 349
45.23994 344
45.26005 289
45.28017 342
45.30028 305
45.32039 310
45.34051 310
45.36062 330
45.38074 338
45.40085 356
45.42096 394
45.44108 359
45.46119 363
45.4813 412
45.50142 462
45.52153 420
45.54165 487
45.56176 493
45.58187 573
45.60199 628
45.6221 665
45.64221 766
45.66233 789
45.68244 809
45.70256 856
45.72267 898
45.74278 792
45.7629 752
45.78301 703
45.80312 682
45.82324 623
45.84335 593
45.86346 485
45.88358 454
45.90369 401
45.92381 328
45.94392 335
45.96403 312
45.98415 305
46.00426 288
46.02437 259
46.04449 316
46.0646 299
46.08472 271
46.10483 273
46.12494 297
46.14506 263
46.16517 260
46.18528 297
46.2054 285
46.22551 312
46.24563 247
46.26574 253
46.28585 290
46.30597 250
46.32608 269
46.34619 254
46.36631 267
46.38642 253
46.40653 231
46.42665 270
46.44676 284
46.46688 272
46.48699 259
46.5071 298
46.52722 284
46.54733 269
46.56744 277
46.58756 300
46.60767 259
46.62779 274
46.6479 261
46.66801 260
46.68813 244
46.70824 258
46.72835 289
46.74847 282
46.76858 265
46.78869 271
46.80881 273
46.82892 265
46.84904 278
46.86915 255
46.88926 266
46.90938 273
46.92949 265
46.9496 277
46.96972 278
46.98983 276
47.00995 267
47.03006 254
47.05017 252
47.07029 274
47.0904 245
47.11051 251
47.13063 281
47.15074 291
47.17086 279
47.19097 299
47.21108 296
47.2312 284
47.25131 260
47.27142 259
47.29154 263
47.31165 310
47.33176 255
47.35188 286
47.37199 267
47.39211 255
47.41222 292
47.43233 280
47.45245 284
47.47256 290
47.49267 267
47.51279 310
47.5329 234
47.55302 253
47.57313 270
47.59324 282
47.61336 286
47.63347 260
47.65358 262
47.6737 287
47.69381 275
47.71393 280
47.73404 267
47.75415 288
47.77427 257
47.79438 282
47.81449 284
47.83461 299
47.85472 240
47.87483 262
47.89495 274
47.91506 290
47.93518 287
47.95529 264
47.9754 274
47.99552 290
48.01563 280
48.03574 253
48.05586 283
48.07597 253
48.09609 285
48.1162 267
48.13631 289
48.15643 277
48.17654 298
48.19665 267
48.21677 248
48.23688 282
48.257 281
48.27711 244
48.29722 290
48.31734 269
48.33745 281
48.35756 265
48.37768 279
48.39779 274
48.4179 276
48.43802 279
48.45813 268
48.47825 264
48.49836 267
48.51847 289
48.53859 267
48.5587 267
48.57881 281
48.59893 294
48.61904 268
48.63916 258
48.65927 288
48.67938 296
48.6995 270
48.71961 282
48.73972 288
48.75984 302
48.77995 256
48.80006 297
48.82018 314
48.84029 271
48.86041 298
48.88052 299
48.90063 267
48.92075 286
48.94086 276
48.96097 263
48.98109 257
49.0012 281
49.02132 274
49.04143 306
49.06154 288
49.08166 287
49.10177 266
49.12188 310
49.142 259
49.16211 291
49.18223 286
49.20234 291
49.22245 282
49.24257 292
49.26268 286
49.28279 314
49.30291 303
49.32302 286
49.34313 295
49.36325 306
49.38336 281
49.40348 278
49.42359 294
49.4437 312
49.46382 295
49.48393 305
49.50404 332
49.52416 293
49.54427 309
49.56439 327
49.5845 310
49.60461 334
49.62473 330
49.64484 375
49.66495 376
49.68507 401
49.70518 412
49.7253 388
49.74541 467
49.76552 527
49.78564 498
49.80575 576
49.82586 654
49.84598 711
49.86609 785
49.8862 929
49.90632 985
49.92643 1235
49.94655 1396
49.96666 1740
49.98677 1922
50.00689 2177
50.027 2333
50.04711 2389
50.06723 2334
50.08734 2212
50.10746 1945
50.12757 1806
50.14768 1601
50.1678 1514
50.18791 1275
50.20802 1176
50.22814 1048
50.24825 866
50.26837 676
50.28848 539
50.30859 494
50.32871 384
50.34882 383
50.36893 363
50.38905 361
50.40916 347
50.42927 359
50.44939 322
50.4695 349
50.48962 374
50.50973 354
50.52984 362
50.54996 364
50.57007 345
50.59018 339
50.6103 357
50.63041 327
50.65053 317
50.67064 331
50.69075 321
50.71087 306
50.73098 304
50.75109 326
50.77121 292
50.79132 286
50.81143 306
50.83155 280
50.85166 307
50.87178 281
50.89189 265
50.912 284
50.93212 251
50.95223 241
50.97234 269
50.99246 273
51.01257 324
51.03269 286
51.0528 288
51.07291 299
51.09303 272
51.11314 244
51.13325 235
51.15337 246
51.17348 289
51.1936 266
51.21371 288
51.23382 270
51.25394 260
51.27405 250
51.29416 272
51.31428 276
51.33439 275
51.3545 225
51.37462 252
51.39473 247
51.41485 271
51.43496 265
51.45507 262
51.47519 244
51.4953 258
51.51541 278
51.53553 241
51.55564 246
51.57576 266
51.59587 238
51.61598 249
51.6361 255
51.65621 239
51.67632 239
51.69644 271
51.71655 249
51.73667 247
51.75678 234
51.77689 250
51.79701 268
51.81712 250
51.83723 266
51.85735 230
51.87746 253
51.89757 247
51.91769 238
51.9378 274
51.95792 261
51.97803 256
51.99814 253
52.01826 263
52.03837 244
52.05848 243
52.0786 255
52.09871 232
52.11883 253
52.13894 268
52.15905 260
52.17917 249
52.19928 259
52.21939 280
52.23951 268
52.25962 215
52.27974 251
52.29985 255
52.31996 241
52.34008 267
52.36019 248
52.3803 255
52.40042 252
52.42053 258
52.44064 264
52.46076 263
52.48087 227
52.50099 279
52.5211 250
52.54121 279
52.56133 236
52.58144 261
52.60155 242
52.62167 263
52.64178 255
52.6619 262
52.68201 253
52.70212 262
52.72224 279
52.74235 263
52.76246 292
52.78258 255
52.80269 274
52.8228 279
52.84292 241
52.86303 303
52.88315 284
52.90326 276
52.92337 255
52.94349 295
52.9636 266
52.98371 270
53.00383 261
53.02394 243
53.04406 270
53.06417 293
53.08428 293
53.1044 300
53.12451 268
53.14462 283
53.16474 288
53.18485 295
53.20497 299
53.22508 260
53.24519 284
53.26531 270
53.28542 275
53.30553 307
53.32565 316
53.34576 282
53.36587 307
53.38599 276
53.4061 280
53.42622 315
53.44633 297
53.46644 328
53.48656 315
53.50667 322
53.52678 298
53.5469 292
53.56701 302
53.58713 298
53.60724 301
53.62735 314
53.64747 323
53.66758 290
53.68769 313
53.70781 333
53.72792 337
53.74804 318
53.76815 333
53.78826 317
53.80838 312
53.82849 308
53.8486 339
53.86872 311
53.88883 322
53.90894 337
53.92906 326
53.94917 329
53.96929 359
53.9894 354
54.00951 312
54.02963 332
54.04974 315
54.06985 316
54.08997 341
54.11008 361
54.1302 315
54.15031 316
54.17042 316
54.19054 326
54.21065 366
54.23076 352
54.25088 340
54.27099 343
54.29111 360
54.31122 333
54.33133 361
54.35145 366
54.37156 357
54.39167 377
54.41179 374
54.4319 345
54.45201 360
54.47213 362
54.49224 363
54.51236 410
54.53247 426
54.55258 436
54.5727 432
54.59281 478
54.61292 517
54.63304 551
54.65315 592
54.67327 614
54.69338 749
54.71349 793
54.73361 855
54.75372 858
54.77383 908
54.79395 969
54.81406 892
54.83417 809
54.85429 737
54.8744 748
54.89452 682
54.91463 689
54.93474 627
54.95486 608
54.97497 566
54.99508 513
55.0152 526
55.03531 460
55.05543 452
55.07554 402
55.09565 470
55.11577 463
55.13588 484
55.15599 527
55.17611 557
55.19622 540
55.21634 598
55.23645 529
55.25656 574
55.27668 541
55.29679 547
55.3169 519
55.33702 464
55.35713 476
55.37724 474
55.39736 444
55.41747 435
55.43759 355
55.4577 387
55.47781 333
55.49793 294
55.51804 341
55.53815 330
55.55827 331
55.57838 311
55.5985 298
55.61861 312
55.63872 304
55.65884 315
55.67895 288
55.69906 290
55.71918 281
55.73929 308
55.75941 264
55.77952 263
55.79963 268
55.81975 283
55.83986 302
55.85997 269
55.88009 275
55.9002 288
55.92031 254
55.94043 276
55.96054 297
55.98066 261
56.00077 318
56.02088 287
56.041 283
56.06111 281
56.08122 288
56.10134 259
56.12145 271
56.14157 259
56.16168 281
56.18179 290
56.20191 256
56.22202 318
56.24213 303
56.26225 299
56.28236 260
56.30248 297
56.32259 279
56.3427 277
56.36282 275
56.38293 290
56.40304 265
56.42316 280
56.44327 289
56.46338 283
56.4835 278
56.50361 287
56.52373 289
56.54384 311
56.56395 268
56.58407 296
56.60418 252
56.62429 326
56.64441 279
56.66452 285
56.68464 281
56.70475 280
56.72486 287
56.74498 295
56.76509 308
56.7852 295
56.80532 266
56.82543 283
56.84554 251
56.86566 253
56.88577 261
56.90589 283
56.926 264
56.94611 277
56.96623 268
56.98634 295
57.00645 291
57.02657 291
57.04668 285
57.0668 269
57.08691 311
57.10702 292
57.12714 268
57.14725 280
57.16736 302
57.18748 255
57.20759 258
57.22771 276
57.24782 315
57.26793 281
57.28805 281
57.30816 275
57.32827 273
57.34839 287
57.3685 249
57.38861 258
57.40873 280
57.42884 282
57.44896 253
57.46907 250
57.48918 287
57.5093 260
57.52941 259
57.54952 265
57.56964 241
57.58975 275
57.60987 268
57.62998 302
57.65009 271
57.67021 271
57.69032 238
57.71043 286
57.73055 271
57.75066 231
57.77078 275
57.79089 276
57.811 280
57.83112 245
57.85123 290
57.87134 270
57.89146 283
57.91157 266
57.93168 254
57.9518 271
57.97191 250
57.99203 262
58.01214 309
58.03225 270
58.05237 278
58.07248 264
58.09259 264
58.11271 279
58.13282 270
58.15294 267
58.17305 274
58.19316 312
58.21328 260
58.23339 248
58.2535 280
58.27362 260
58.29373 263
58.31385 266
58.33396 289
58.35407 240
58.37419 274
58.3943 288
58.41441 271
58.43453 269
58.45464 266
58.47475 242
58.49487 240
58.51498 281
58.5351 260
58.55521 268
58.57532 268
58.59544 255
58.61555 285
58.63566 262
58.65578 270
58.67589 249
58.69601 275
58.71612 277
58.73623 240
58.75635 255
58.77646 255
58.79657 270
58.81669 264
58.8368 269
58.85691 259
58.87703 271
58.89714 265
58.91726 256
58.93737 258
58.95748 264
58.9776 285
58.99771 284
59.01782 263
59.03794 302
59.05805 302
59.07817 254
59.09828 296
59.11839 309
59.13851 286
59.15862 305
59.17873 297
59.19885 292
59.21896 276
59.23908 286
59.25919 271
59.2793 294
59.29942 309
59.31953 292
59.33964 283
59.35976 311
59.37987 334
59.39998 335
59.4201 337
59.44021 332
59.46033 343
59.48044 355
59.50055 368
59.52067 380
59.54078 422
59.56089 423
59.58101 475
59.60112 496
59.62124 515
59.64135 570
59.66146 597
59.68158 631
59.70169 745
59.7218 819
59.74192 962
59.76203 1064
59.78215 1174
59.80226 1408
59.82237 1571
59.84249 1588
59.8626 1574
59.88271 1624
59.90283 1458
59.92294 1328
59.94305 1202
59.96317 1161
59.98328 1033
60.0034 1003
60.02351 1014
60.04362 824
60.06374 821
60.08385 651
60.10396 629
60.12408 521
60.14419 435
60.16431 357
60.18442 345
60.20453 367
60.22465 340
60.24476 312
60.26487 306
60.28499 314
60.3051 281
60.32522 283
60.34533 298
60.36544 291
60.38556 282
60.40567 284
60.42578 243
60.4459 318
60.46601 289
60.48612 293
60.50624 279
60.52635 288
60.54647 286
60.56658 261
60.58669 288
60.60681 245
60.62692 257
60.64703 286
60.66715 291
60.68726 262
60.70738 244
60.72749 264
60.7476 286
60.76772 261
60.78783 290
60.80794 272
60.82806 276
60.84817 269
60.86828 236
60.8884 264
60.90851 258
60.92863 261
60.94874 269
60.96885 263
60.98897 265
61.00908 284
61.02919 275
61.04931 232
61.06942 240
61.08954 265
61.10965 271
61.12976 266
61.14988 265
61.16999 262
61.1901 292
61.21022 252
61.23033 262
61.25045 273
61.27056 261
61.29067 251
61.31079 262
61.3309 286
61.35101 258
61.37113 283
61.39124 255
61.41135 261
61.43147 273
61.45158 298
61.4717 303
61.49181 316
61.51192 261
61.53204 282
61.55215 265
61.57226 313
61.59238 305
61.61249 263
61.63261 310
61.65272 278
61.67283 302
61.69295 316
61.71306 295
61.73317 297
61.75329 290
61.7734 305
61.79352 290
61.81363 301
61.83374 289
61.85386 313
61.87397 307
61.89408 318
61.9142 342
61.93431 316
61.95442 379
61.97454 344
61.99465 326
62.01477 326
62.03488 342
62.05499 390
62.07511 398
62.09522 377
62.11533 369
62.13545 382
62.15556 386
62.17568 387
62.19579 376
62.2159 382
62.23602 370
62.25613 370
62.27624 366
62.29636 355
62.31647 377
62.33659 339
62.3567 334
62.37681 353
62.39693 357
62.41704 316
62.43715 345
62.45727 341
62.47738 335
62.49749 308
62.51761 306
62.53772 303
62.55784 307
62.57795 298
62.59806 272
62.61818 277
62.63829 299
62.6584 310
62.67852 273
62.69863 271
62.71875 289
62.73886 288
62.75897 289
62.77909 257
62.7992 271
62.81931 266
62.83943 285
62.85954 270
62.87965 272
62.89977 242
62.91988 281
62.94 271
62.96011 292
62.98022 251
63.00034 295
63.02045 274
63.04056 272
63.06068 245
63.08079 288
63.10091 264
63.12102 271
63.14113 268
63.16125 273
63.18136 276
63.20147 263
63.22159 287
63.2417 250
63.26182 253
63.28193 278
63.30204 248
63.32216 260
63.34227 295
63.36238 276
63.3825 282
63.40261 278
63.42272 286
63.44284 278
63.46295 302
63.48307 258
63.50318 303
63.52329 306
63.54341 282
63.56352 303
63.58363 283
63.60375 340
63.62386 344
63.64398 317
63.66409 288
63.6842 308
63.70432 346
63.72443 327
63.74454 341
63.76466 371
63.78477 375
63.80489 377
63.825 412
63.84511 467
63.86523 455
63.88534 459
63.90545 497
63.92557 542
63.94568 521
63.96579 494
63.98591 461
64.00602 455
64.02614 439
64.04625 418
64.06636 425
64.08648 373
64.10659 442
64.1267 371
64.14682 381
64.16693 355
64.18705 344
64.20716 306
64.22727 318
64.24739 305
64.2675 299
64.28761 295
64.30773 308
64.32784 286
64.34796 309
64.36807 278
64.38818 265
64.4083 280
64.42841 274
64.44852 273
64.46864 286
64.48875 257
64.50886 262
64.52898 266
64.54909 239
64.56921 240
64.58932 246
64.60943 275
64.62955 251
64.64966 223
64.66977 273
64.68989 244
64.71 267
64.73012 260
64.75023 237
64.77034 264
64.79046 258
64.81057 242
64.83068 258
64.8508 264
64.87091 254
64.89102 261
64.91114 253
64.93125 263
64.95137 254
64.97148 260
64.99159 249
65.01171 261
65.03182 244
65.05193 275
65.07205 254
65.09216 288
65.11228 258
65.13239 248
65.1525 260
65.17262 278
65.19273 232
65.21284 278
65.23296 237
65.25307 247
65.27319 254
65.2933 261
65.31341 256
65.33353 257
65.35364 278
65.37375 282
65.39387 265
65.41398 251
65.43409 250
65.45421 275
65.47432 253
65.49444 248
65.51455 279
65.53466 291
65.55478 288
65.57489 291
65.595 271
65.61512 307
65.63523 303
65.65535 297
65.67546 320
65.69557 290
65.71569 304
65.7358 297
65.75591 326
65.77603 289
65.79614 285
65.81626 287
65.83637 235
65.85648 306
65.8766 301
65.89671 313
65.91682 275
65.93694 271
65.95705 278
65.97716 255
65.99728 241
66.01739 270
66.03751 248
66.05762 272
66.07773 229
66.09785 258
66.11796 243
66.13807 267
66.15819 234
66.1783 273
66.19842 277
66.21853 267
66.23864 275
66.25876 245
66.27887 259
66.29898 252
66.3191 276
66.33921 286
66.35933 243
66.37944 253
66.39955 260
66.41967 276
66.43978 251
66.45989 255
66.48001 268
66.50012 268
66.52023 258
66.54035 269
66.56046 255
66.58058 269
66.60069 243
66.6208 241
66.64092 254
66.66103 273
66.68114 271
66.70126 255
66.72137 262
66.74149 264
66.7616 265
66.78171 305
66.80183 249
66.82194 259
66.84205 289
66.86217 253
66.88228 275
66.90239 270
66.92251 259
66.94262 250
66.96274 282
66.98285 267
67.00296 275
67.02308 278
67.04319 269
67.0633 276
67.08342 289
67.10353 298
67.12365 282
67.14376 294
67.16387 284
67.18399 269
67.2041 302
67.22421 286
67.24433 323
67.26444 304
67.28456 336
67.30467 327
67.32478 356
67.3449 365
67.36501 385
67.38512 388
67.40524 441
67.42535 434
67.44546 490
67.46558 505
67.48569 546
67.50581 621
67.52592 660
67.54603 740
67.56615 844
67.58626 924
67.60637 980
67.62649 1038
67.6466 1086
67.66672 1093
67.68683 985
67.70694 937
67.72706 903
67.74717 857
67.76728 818
67.7874 825
67.80751 833
67.82763 861
67.84774 911
67.86785 882
67.88797 903
67.90808 945
67.92819 978
67.94831 1009
67.96842 1103
67.98853 1200
68.00865 1345
68.02876 1382
68.04888 1430
68.06899 1332
68.0891 1406
68.10922 1360
68.12933 1213
68.14944 1284
68.16956 1321
68.18967 1309
68.20979 1302
68.2299 1304
68.25001 1276
68.27013 1131
68.29024 978
68.31035 882
68.33047 730
68.35058 681
68.3707 621
68.39081 603
68.41092 590
68.43104 567
68.45115 484
68.47126 505
68.49138 425
68.51149 379
68.5316 360
68.55172 296
68.57183 327
68.59195 334
68.61206 289
68.63217 320
68.65229 290
68.6724 272
68.69251 274
68.71263 307
68.73274 267
68.75286 278
68.77297 251
68.79308 293
68.8132 278
68.83331 255
68.85342 273
68.87354 271
68.89365 249
68.91376 305
68.93388 269
68.95399 269
68.97411 263
68.99422 276
69.01433 277
69.03445 243
69.05456 271
69.07467 272
69.09479 257
69.1149 246
69.13502 284
69.15513 254
69.17524 259
69.19536 267
69.21547 248
69.23558 258
69.2557 271
69.27581 255
69.29593 262
69.31604 233
69.33615 230
69.35627 266
69.37638 255
69.39649 241
69.41661 279
69.43672 259
69.45683 231
69.47695 225
69.49706 244
69.51718 244
69.53729 254
69.5574 260
69.57752 239
69.59763 230
69.61774 238
69.63786 245
69.65797 228
69.67809 249
69.6982 242
69.71831 230
69.73843 244
69.75854 265
69.77865 268
69.79877 240
69.81888 271
69.839 264
69.85911 213
69.87922 255
69.89934 256
69.91945 245
69.93956 254
69.95968 263
69.97979 257
69.9999 247
70.02002 221
70.04013 228
70.06025 235
70.08036 225
70.10047 232
70.12059 236
70.1407 267
70.16081 245
70.18093 232
70.20104 270
70.22116 263
70.24127 239
70.26138 245
70.2815 243
70.30161 232
70.32172 207
70.34184 245
70.36195 244
70.38207 271
70.40218 236
70.42229 227
70.44241 228
70.46252 277
70.48263 211
70.50275 237
70.52286 222
70.54297 250
70.56309 244
70.5832 212
70.60332 269
70.62343 236
70.64354 266
70.66366 216
70.68377 231
70.70388 242
70.724 239
70.74411 231
70.76423 231
70.78434 265
70.80445 235
70.82457 239
70.84468 257
70.86479 253
70.88491 235
70.90502 250
70.92513 211
70.94525 235
70.96536 256
70.98548 234
71.00559 240
71.0257 207
71.04582 254
71.06593 232
71.08604 251
71.10616 243
71.12627 251
71.14639 241
71.1665 246
71.18661 258
71.20673 234
71.22684 252
71.24695 238
71.26707 263
71.28718 247
71.3073 230
71.32741 240
71.34752 231
71.36764 230
71.38775 236
71.40786 250
71.42798 243
71.44809 247
71.4682 229
71.48832 245
71.50843 253
71.52855 251
71.54866 243
71.56877 251
71.58889 261
71.609 235
71.62911 249
71.64923 246
71.66934 258
71.68946 223
71.70957 256
71.72968 235
71.7498 230
71.76991 249
71.79002 235
71.81014 272
71.83025 260
71.85037 226
71.87048 249
71.89059 252
71.91071 259
71.93082 226
71.95093 260
71.97105 248
71.99116 265
72.01127 254
72.03139 263
72.0515 261
72.07162 254
72.09173 256
72.11184 257
72.13196 289
72.15207 281
72.17218 248
72.1923 245
72.21241 246
72.23253 260
72.25264 240
72.27275 253
72.29287 257
72.31298 246
72.33309 258
72.35321 244
72.37332 223
72.39344 215
72.41355 239
72.43366 231
72.45378 259
72.47389 243
72.494 249
72.51412 233
72.53423 269
72.55434 254
72.57446 233
72.59457 252
72.61469 247
72.6348 255
72.65491 232
72.67503 277
72.69514 259
72.71525 268
72.73537 239
72.75548 255
72.7756 239
72.79571 256
72.81582 244
72.83594 240
72.85605 252
72.87616 261
72.89628 263
72.91639 251
72.9365 254
72.95662 254
72.97673 301
72.99685 301
73.01696 224
73.03707 275
73.05719 270
73.0773 298
73.09741 269
73.11753 284
73.13764 329
73.15776 325
73.17787 329
73.19798 357
73.2181 378
73.23821 379
73.25832 397
73.27844 445
73.29855 504
73.31867 518
73.33878 517
73.35889 560
73.37901 529
73.39912 510
73.41923 479
73.43935 481
73.45946 455
73.47957 397
73.49969 449
73.5198 387
73.53992 414
73.56003 371
73.58014 397
73.60026 404
73.62037 368
73.64048 357
73.6606 354
73.68071 308
73.70083 260
73.72094 279
73.74105 270
73.76117 280
73.78128 276
73.80139 242
73.82151 271
73.84162 280
73.86174 261
73.88185 250
73.90196 252
73.92208 260
73.94219 257
73.9623 261
73.98242 229
74.00253 255
74.02264 238
74.04276 235
74.06287 228
74.08299 253
74.1031 228
74.12321 261
74.14333 245
74.16344 231
74.18355 246
74.20367 246
74.22378 266
74.2439 231
74.26401 237
74.28412 225
74.30424 259
74.32435 240
74.34446 236
74.36458 242
74.38469 247
74.40481 236
74.42492 238
74.44503 227
74.46515 238
74.48526 209
74.50537 226
74.52549 249
74.5456 251
74.56571 259
74.58583 231
74.60594 249
74.62606 219
74.64617 245
74.66628 259
74.6864 226
74.70651 262
74.72662 251
74.74674 264
74.76685 239
74.78697 225
74.80708 245
74.82719 239
74.84731 268
74.86742 253
74.88753 249
74.90765 237
74.92776 251
74.94787 248
74.96799 228
74.9881 241
75.00822 245
