3.00117 19632
3.02128 19413
3.0414 18667
3.06151 18282
3.08162 17736
3.10174 17074
3.12185 16880
3.14197 16036
3.16208 15972
3.18219 15253
3.20231 15122
3.22242 14668
3.24253 14199
3.26265 13845
3.28276 13343
3.30288 13063
3.32299 12440
3.3431 11888
3.36322 11901
3.38333 11163
3.40344 10991
3.42356 10816
3.44367 10043
3.46379 10134
3.4839 9515
3.50401 9500
3.52413 8903
3.54424 8507
3.56435 8348
3.58447 7964
3.60458 7804
3.62469 7459
3.64481 7260
3.66492 7207
3.68504 6585
3.70515 6350
3.72526 6331
3.74538 5832
3.76549 5762
3.7856 5481
3.80572 5384
3.82583 5265
3.84595 5003
3.86606 4891
3.88617 4427
3.90629 4357
3.9264 4306
3.94651 4091
3.96663 3827
3.98674 3676
4.00686 3530
4.02697 3399
4.04708 3262
4.0672 3170
4.08731 3008
4.10742 2986
4.12754 2888
4.14765 2612
4.16776 2732
4.18788 2365
4.20799 2364
4.22811 2307
4.24822 2302
4.26833 2324
4.28845 2130
4.30856 2062
4.32867 2125
4.34879 2029
4.3689 2021
4.38902 1818
4.40913 1943
4.42924 1923
4.44936 1722
4.46947 1736
4.48958 1677
4.5097 1662
4.52981 1668
4.54992 1607
4.57004 1628
4.59015 1604
4.61027 1531
4.63038 1537
4.65049 1422
4.67061 1554
4.69072 1427
4.71083 1471
4.73095 1454
4.75106 1405
4.77118 1393
4.79129 1301
4.8114 1302
4.83152 1311
4.85163 1251
4.87174 1146
4.89186 1214
4.91197 1102
4.93209 1182
4.9522 1206
4.97231 1148
4.99243 1133
5.01254 1089
5.03265 1071
5.05277 1055
5.07288 1057
5.09299 1037
5.11311 1028
5.13322 1005
5.15334 1034
5.17345 986
5.19356 925
5.21368 982
5.23379 936
5.2539 943
5.27402 879
5.29413 987
5.31425 968
5.33436 899
5.35447 908
5.37459 897
5.3947 851
5.41481 850
5.43493 820
5.45504 882
5.47516 879
5.49527 854
5.51538 838
5.5355 832
5.55561 821
5.57572 739
5.59584 840
5.61595 825
5.63606 810
5.65618 761
5.67629 794
5.69641 697
5.71652 727
5.73663 754
5.75675 760
5.77686 780
5.79697 687
5.81709 704
5.8372 720
5.85732 743
5.87743 743
5.89754 725
5.91766 707
5.93777 743
5.95788 648
5.978 658
5.99811 655
6.01823 648
6.03834 691
6.05845 689
6.07857 667
6.09868 658
6.11879 662
6.13891 667
6.15902 664
6.17913 604
6.19925 626
6.21936 631
6.23948 614
6.25959 597
6.2797 596
6.29982 624
6.31993 595
6.34004 612
6.36016 578
6.38027 614
6.40039 658
6.4205 581
6.44061 567
6.46073 567
6.48084 590
6.50095 539
6.52107 577
6.54118 608
6.56129 547
6.58141 576
6.60152 543
6.62164 530
6.64175 524
6.66186 562
6.68198 499
6.70209 551
6.7222 515
6.74232 494
6.76243 482
6.78255 554
6.80266 550
6.82277 505
6.84289 446
6.863 505
6.88311 521
6.90323 513
6.92334 473
6.94346 496
6.96357 471
6.98368 464
7.0038 502
7.02391 480
7.04402 494
7.06414 445
7.08425 476
7.10436 432
7.12448 417
7.14459 512
7.16471 406
7.18482 453
7.20493 440
7.22505 462
7.24516 472
7.26527 456
7.28539 445
7.3055 491
7.32562 454
7.34573 470
7.36584 452
7.38596 418
7.40607 448
7.42618 459
7.4463 417
7.46641 497
7.48653 446
7.50664 455
7.52675 473
7.54687 463
7.56698 420
7.58709 385
7.60721 394
7.62732 403
7.64743 423
7.66755 437
7.68766 440
7.70778 390
7.72789 415
7.748 408
7.76812 428
7.78823 438
7.80834 420
7.82846 453
7.84857 392
7.86869 411
7.8888 409
7.90891 377
7.92903 468
7.94914 399
7.96925 443
7.98937 420
8.00948 434
8.0296 383
8.04971 427
8.06982 421
8.08994 411
8.11005 381
8.13016 406
8.15028 410
8.17039 400
8.1905 397
8.21062 443
8.23073 408
8.25085 409
8.27096 443
8.29107 435
8.31119 407
8.3313 477
8.35141 434
8.37153 444
8.39164 442
8.41176 420
8.43187 422
8.45198 417
8.4721 432
8.49221 441
8.51232 408
8.53244 407
8.55255 457
8.57266 404
8.59278 433
8.61289 370
8.63301 396
8.65312 426
8.67323 367
8.69335 409
8.71346 403
8.73357 373
8.75369 389
8.7738 381
8.79392 379
8.81403 380
8.83414 373
8.85426 402
8.87437 357
8.89448 383
8.9146 324
8.93471 395
8.95483 325
8.97494 399
8.99505 371
9.01517 349
9.03528 331
9.05539 352
9.07551 342
9.09562 340
9.11573 336
9.13585 328
9.15596 317
9.17608 365
9.19619 356
9.2163 321
9.23642 376
9.25653 344
9.27664 316
9.29676 341
9.31687 342
9.33699 345
9.3571 311
9.37721 340
9.39733 313
9.41744 354
9.43755 319
9.45767 348
9.47778 341
9.4979 328
9.51801 336
9.53812 294
9.55824 347
9.57835 356
9.59846 344
9.61858 345
9.63869 334
9.6588 344
9.67892 338
9.69903 371
9.71915 339
9.73926 281
9.75937 342
9.77949 338
9.7996 334
9.81971 299
9.83983 289
9.85994 322
9.88006 350
9.90017 314
9.92028 330
9.9404 337
9.96051 317
9.98062 317
10.00074 320
10.02085 320
10.04097 310
10.06108 297
10.08119 316
10.10131 338
10.12142 332
10.14153 307
10.16165 281
10.18176 256
10.20187 292
10.22199 301
10.2421 302
10.26222 309
10.28233 321
10.30244 330
10.32256 303
10.34267 341
10.36278 326
10.3829 352
10.40301 346
10.42313 375
10.44324 306
10.46335 345
10.48347 316
10.50358 353
10.52369 340
10.54381 335
10.56392 328
10.58403 315
10.60415 319
10.62426 310
10.64438 303
10.66449 321
10.6846 335
10.70472 293
10.72483 335
10.74494 277
10.76506 277
10.78517 296
10.80529 274
10.8254 342
10.84551 296
10.86563 271
10.88574 279
10.90585 300
10.92597 294
10.94608 314
10.9662 322
10.98631 308
11.00642 283
11.02654 278
11.04665 316
11.06676 323
11.08688 289
11.10699 303
11.1271 307
11.14722 290
11.16733 272
11.18745 282
11.20756 288
11.22767 287
11.24779 301
11.2679 311
11.28801 296
11.30813 301
11.32824 270
11.34836 313
11.36847 295
11.38858 300
11.4087 284
11.42881 289
11.44892 320
11.46904 303
11.48915 282
11.50927 301
11.52938 300
11.54949 298
11.56961 328
11.58972 303
11.60983 285
11.62995 291
11.65006 324
11.67017 319
11.69029 280
11.7104 312
11.73052 278
11.75063 294
11.77074 312
11.79086 321
11.81097 283
11.83108 277
11.8512 291
11.87131 315
11.89143 342
11.91154 295
11.93165 301
11.95177 309
11.97188 312
11.99199 308
12.01211 309
12.03222 318
12.05234 302
12.07245 334
12.09256 320
12.11268 319
12.13279 301
12.1529 314
12.17302 307
12.19313 303
12.21324 290
12.23336 304
12.25347 284
12.27359 301
12.2937 300
12.31381 334
12.33393 310
12.35404 299
12.37415 296
12.39427 281
12.41438 264
12.4345 315
12.45461 291
12.47472 292
12.49484 280
12.51495 301
12.53506 292
12.55518 282
12.57529 280
12.5954 272
12.61552 302
12.63563 278
12.65575 289
12.67586 289
12.69597 321
12.71609 292
12.7362 295
12.75631 283
12.77643 287
12.79654 298
12.81666 268
12.83677 304
12.85688 259
12.877 264
12.89711 319
12.91722 293
12.93734 310
12.95745 293
12.97757 299
12.99768 304
13.01779 290
13.03791 295
13.05802 304
13.07813 267
13.09825 262
13.11836 270
13.13847 302
13.15859 303
13.1787 297
13.19882 300
13.21893 277
13.23904 326
13.25916 314
13.27927 299
13.29938 308
13.3195 296
13.33961 305
13.35973 297
13.37984 326
13.39995 332
13.42007 303
13.44018 295
13.46029 301
13.48041 294
13.50052 302
13.52064 313
13.54075 336
13.56086 319
13.58098 370
13.60109 342
13.6212 357
13.64132 348
13.66143 345
13.68154 363
13.70166 343
13.72177 332
13.74189 336
13.762 380
13.78211 393
13.80223 359
13.82234 349
13.84245 364
13.86257 340
13.88268 369
13.9028 338
13.92291 327
13.94302 328
13.96314 325
13.98325 313
14.00336 302
14.02348 318
14.04359 286
14.06371 267
14.08382 312
14.10393 319
14.12405 293
14.14416 303
14.16427 285
14.18439 291
14.2045 292
14.22461 269
14.24473 294
14.26484 313
14.28496 294
14.30507 306
14.32518 300
14.3453 309
14.36541 297
14.38552 290
14.40564 299
14.42575 274
14.44587 258
14.46598 268
14.48609 248
14.50621 263
14.52632 297
14.54643 272
14.56655 287
14.58666 296
14.60677 298
14.62689 299
14.647 235
14.66712 299
14.68723 324
14.70734 252
14.72746 285
14.74757 282
14.76768 304
14.7878 270
14.80791 311
14.82803 287
14.84814 318
14.86825 271
14.88837 298
14.90848 326
14.92859 329
14.94871 312
14.96882 360
14.98894 333
15.00905 320
15.02916 342
15.04928 343
15.06939 307
15.0895 313
15.10962 332
15.12973 320
15.14984 283
15.16996 253
15.19007 302
15.21019 321
15.2303 255
15.25041 297
15.27053 276
15.29064 254
15.31075 284
15.33087 292
15.35098 286
15.3711 307
15.39121 255
15.41132 294
15.43144 271
15.45155 279
15.47166 270
15.49178 321
15.51189 298
15.53201 267
15.55212 319
15.57223 290
15.59235 286
15.61246 281
15.63257 283
15.65269 295
15.6728 303
15.69291 302
15.71303 299
15.73314 320
15.75326 336
15.77337 323
15.79348 290
15.8136 319
15.83371 293
15.85382 273
15.87394 248
15.89405 296
15.91417 282
15.93428 293
15.95439 306
15.97451 313
15.99462 301
16.01473 284
16.03485 276
16.05496 273
16.07508 254
16.09519 284
16.1153 263
16.13542 262
16.15553 274
16.17564 279
16.19576 290
16.21587 332
16.23598 276
16.2561 297
16.27621 316
16.29633 290
16.31644 276
16.33655 283
16.35667 311
16.37678 283
16.39689 270
16.41701 289
16.43712 291
16.45724 273
16.47735 317
16.49746 256
16.51758 268
16.53769 272
16.5578 235
16.57792 311
16.59803 297
16.61814 276
16.63826 298
16.65837 302
16.67849 275
16.6986 299
16.71871 300
16.73883 260
16.75894 291
16.77905 286
16.79917 279
16.81928 285
16.8394 299
16.85951 291
16.87962 274
16.89974 321
16.91985 287
16.93996 300
16.96008 303
16.98019 301
17.00031 311
17.02042 291
17.04053 274
17.06065 301
17.08076 297
17.10087 312
17.12099 288
17.1411 309
17.16121 302
17.18133 329
17.20144 369
17.22156 344
17.24167 345
17.26178 322
17.2819 313
17.30201 314
17.32212 318
17.34224 338
17.36235 315
17.38247 280
17.40258 289
17.42269 292
17.44281 286
17.46292 281
17.48303 292
17.50315 263
17.52326 300
17.54338 289
17.56349 295
17.5836 287
17.60372 299
17.62383 292
17.64394 269
17.66406 309
17.68417 290
17.70428 261
17.7244 304
17.74451 299
17.76463 285
17.78474 276
17.80485 278
17.82497 281
17.84508 324
17.86519 304
17.88531 284
17.90542 290
17.92554 292
17.94565 314
17.96576 310
17.98588 308
18.00599 314
18.0261 291
18.04622 316
18.06633 327
18.08645 310
18.10656 319
18.12667 304
18.14679 289
18.1669 304
18.18701 293
18.20713 317
18.22724 304
18.24735 303
18.26747 295
18.28758 280
18.3077 293
18.32781 336
18.34792 321
18.36804 315
18.38815 309
18.40826 302
18.42838 260
18.44849 287
18.46861 329
18.48872 301
18.50883 281
18.52895 251
18.54906 294
18.56917 318
18.58929 268
18.6094 281
18.62951 281
18.64963 318
18.66974 339
18.68986 295
18.70997 333
18.73008 326
18.7502 300
18.77031 287
18.79042 315
18.81054 290
18.83065 303
18.85077 273
18.87088 326
18.89099 290
18.91111 307
18.93122 330
18.95133 322
18.97145 282
18.99156 320
19.01168 345
19.03179 319
19.0519 314
19.07202 331
19.09213 362
19.11224 355
19.13236 331
19.15247 337
19.17258 316
19.1927 350
19.21281 315
19.23293 352
19.25304 373
19.27315 356
19.29327 366
19.31338 387
19.33349 433
19.35361 403
19.37372 427
19.39384 398
19.41395 428
19.43406 459
19.45418 423
19.47429 407
19.4944 459
19.51452 461
19.53463 467
19.55475 515
19.57486 469
19.59497 516
19.61509 530
19.6352 506
19.65531 514
19.67543 492
19.69554 544
19.71565 614
19.73577 527
19.75588 580
19.776 538
19.79611 517
19.81622 552
19.83634 496
19.85645 540
19.87656 523
19.89668 515
19.91679 504
19.93691 519
19.95702 480
19.97713 486
19.99725 484
20.01736 479
20.03747 485
20.05759 445
20.0777 446
20.09782 455
20.11793 441
20.13804 461
20.15816 459
20.17827 422
20.19838 459
20.2185 421
20.23861 442
20.25872 441
20.27884 438
20.29895 418
20.31907 463
20.33918 411
20.35929 452
20.37941 430
20.39952 428
20.41963 449
20.43975 431
20.45986 458
20.47998 466
20.50009 445
20.5202 486
20.54032 491
20.56043 421
20.58054 437
20.60066 537
20.62077 508
20.64088 499
20.661 628
20.68111 672
20.70123 740
20.72134 853
20.74145 1017
20.76157 1297
20.78168 1426
20.80179 1441
20.82191 1514
20.84202 1379
20.86214 1195
20.88225 1058
20.90236 917
20.92248 807
20.94259 692
20.9627 732
20.98282 661
21.00293 604
21.02305 552
21.04316 508
21.06327 450
21.08339 448
21.1035 478
21.12361 437
21.14373 422
21.16384 415
21.18395 416
21.20407 367
21.22418 385
21.2443 442
21.26441 381
21.28452 365
21.30464 401
21.32475 415
21.34486 403
21.36498 410
21.38509 370
21.40521 404
21.42532 367
21.44543 419
21.46555 385
21.48566 402
21.50577 355
21.52589 383
21.546 374
21.56612 361
21.58623 383
21.60634 373
21.62646 385
21.64657 381
21.66668 392
21.6868 385
21.70691 378
21.72702 427
21.74714 399
21.76725 418
21.78737 418
21.80748 482
21.82759 471
21.84771 589
21.86782 615
21.88793 609
21.90805 758
21.92816 860
21.94828 843
21.96839 863
21.9885 815
22.00862 750
22.02873 711
22.04884 591
22.06896 553
22.08907 527
22.10919 366
22.1293 408
22.14941 408
22.16953 397
22.18964 390
22.20975 393
22.22987 392
22.24998 388
22.27009 365
22.29021 364
22.31032 381
22.33044 369
22.35055 407
22.37066 429
22.39078 412
22.41089 383
22.431 447
22.45112 420
22.47123 418
22.49135 428
22.51146 413
22.53157 383
22.55169 408
22.5718 420
22.59191 426
22.61203 397
22.63214 407
22.65225 401
22.67237 450
22.69248 388
22.7126 459
22.73271 510
22.75282 540
22.77294 503
22.79305 484
22.81316 523
22.83328 504
22.85339 504
22.87351 528
22.89362 527
22.91373 503
22.93385 518
22.95396 534
22.97407 493
22.99419 560
23.0143 531
23.03442 572
23.05453 537
23.07464 562
23.09476 533
23.11487 524
23.13498 501
23.1551 480
23.17521 514
23.19532 419
23.21544 441
23.23555 437
23.25567 403
23.27578 464
23.29589 405
23.31601 471
23.33612 459
23.35623 442
23.37635 515
23.39646 490
23.41658 532
23.43669 637
23.4568 619
23.47692 659
23.49703 637
23.51714 731
23.53726 701
23.55737 701
23.57749 620
23.5976 569
23.61771 524
23.63783 536
23.65794 523
23.67805 491
23.69817 493
23.71828 467
23.73839 461
23.75851 458
23.77862 464
23.79874 483
23.81885 500
23.83896 505
23.85908 480
23.87919 453
23.8993 440
23.91942 518
23.93953 518
23.95965 526
23.97976 548
23.99987 574
24.01999 530
24.0401 580
24.06021 525
24.08033 577
24.10044 575
24.12056 582
24.14067 623
24.16078 625
24.1809 599
24.20101 579
24.22112 609
24.24124 630
24.26135 544
24.28146 606
24.30158 484
24.32169 514
24.34181 445
24.36192 439
24.38203 452
24.40215 416
24.42226 396
24.44237 378
24.46249 386
24.4826 397
24.50272 442
24.52283 360
24.54294 399
24.56306 426
24.58317 432
24.60328 384
24.6234 433
24.64351 395
24.66362 408
24.68374 402
24.70385 350
24.72397 390
24.74408 386
24.76419 367
24.78431 367
24.80442 352
24.82453 397
24.84465 400
24.86476 402
24.88488 366
24.90499 376
24.9251 367
24.94522 426
24.96533 415
24.98544 399
25.00556 386
25.02567 416
25.04579 394
25.0659 410
25.08601 446
25.10613 380
25.12624 405
25.14635 435
25.16647 434
25.18658 411
25.20669 429
25.22681 473
25.24692 473
25.26704 407
25.28715 452
25.30726 484
25.32738 457
25.34749 513
25.3676 506
25.38772 495
25.40783 476
25.42795 505
25.44806 545
25.46817 528
25.48829 572
25.5084 577
25.52851 560
25.54863 558
25.56874 617
25.58886 572
25.60897 569
25.62908 573
25.6492 499
25.66931 498
25.68942 482
25.70954 461
25.72965 437
25.74976 480
25.76988 454
25.78999 416
25.81011 414
25.83022 385
25.85033 390
25.87045 398
25.89056 408
25.91067 407
25.93079 374
25.9509 377
25.97102 423
25.99113 430
26.01124 437
26.03136 451
26.05147 410
26.07158 463
26.0917 461
26.11181 492
26.13193 496
26.15204 491
26.17215 510
26.19227 530
26.21238 551
26.23249 573
26.25261 610
26.27272 639
26.29283 669
26.31295 715
26.33306 765
26.35318 807
26.37329 922
26.3934 976
26.41352 1189
26.43363 1465
26.45374 1841
26.47386 2424
26.49397 2961
26.51409 3963
26.5342 4590
26.55431 5092
26.57443 5489
26.59454 5581
26.61465 5200
26.63477 4348
26.65488 3414
26.67499 2661
26.69511 2003
26.71522 1463
26.73534 1214
26.75545 942
26.77556 825
26.79568 782
26.81579 809
26.8359 754
26.85602 739
26.87613 750
26.89625 692
26.91636 764
26.93647 778
26.95659 713
26.9767 713
26.99681 751
27.01693 739
27.03704 699
27.05716 681
27.07727 651
27.09738 649
27.1175 597
27.13761 569
27.15772 532
27.17784 507
27.19795 528
27.21806 516
27.23818 558
27.25829 497
27.27841 577
27.29852 576
27.31863 606
27.33875 680
27.35886 776
27.37897 770
27.39909 803
27.4192 847
27.43932 811
27.45943 934
27.47954 851
27.49966 778
27.51977 818
27.53988 754
27.56 788
27.58011 791
27.60023 791
27.62034 855
27.64045 870
27.66057 990
27.68068 979
27.70079 1009
27.72091 1064
27.74102 1061
27.76113 1108
27.78125 1123
27.80136 1212
27.82148 1239
27.84159 1294
27.8617 1368
27.88182 1328
27.90193 1267
27.92204 1150
27.94216 1084
27.96227 968
27.98239 824
28.0025 839
28.02261 745
28.04273 730
28.06284 644
28.08295 676
28.10307 651
28.12318 641
28.1433 642
28.16341 701
28.18352 630
28.20364 597
28.22375 601
28.24386 566
28.26398 580
28.28409 552
28.3042 505
28.32432 509
28.34443 489
28.36455 442
28.38466 481
28.40477 466
28.42489 406
28.445 428
28.46511 425
28.48523 390
28.50534 434
28.52546 391
28.54557 440
28.56568 418
28.5858 382
28.60591 363
28.62602 377
28.64614 395
28.66625 395
28.68636 397
28.70648 365
28.72659 433
28.74671 386
28.76682 402
28.78693 383
28.80705 408
28.82716 404
28.84727 435
28.86739 373
28.8875 427
28.90762 390
28.92773 407
28.94784 388
28.96796 394
28.98807 465
29.00818 426
29.0283 452
29.04841 476
29.06853 452
29.08864 481
29.10875 476
29.12887 467
29.14898 533
29.16909 566
29.18921 622
29.20932 663
29.22943 739
29.24955 829
29.26966 959
29.28978 1085
29.30989 1265
29.33 1416
29.35012 1523
29.37023 1711
29.39034 1770
29.41046 1766
29.43057 1808
29.45069 1714
29.4708 1650
29.49091 1427
29.51103 1400
29.53114 1249
29.55125 1037
29.57137 1025
29.59148 910
29.6116 866
29.63171 824
29.65182 845
29.67194 805
29.69205 772
29.71216 721
29.73228 785
29.75239 791
29.7725 774
29.79262 718
29.81273 748
29.83285 694
29.85296 642
29.87307 623
29.89319 559
29.9133 568
29.93341 576
29.95353 533
29.97364 477
29.99376 477
30.01387 535
30.03398 510
30.0541 511
30.07421 441
30.09432 527
30.11444 508
30.13455 528
30.15467 517
30.17478 552
30.19489 513
30.21501 535
30.23512 533
30.25523 556
30.27535 554
30.29546 592
30.31557 603
30.33569 596
30.3558 636
30.37592 583
30.39603 589
30.41614 585
30.43626 587
30.45637 539
30.47648 549
30.4966 531
30.51671 442
30.53683 474
30.55694 428
30.57705 452
30.59717 418
30.61728 492
30.63739 481
30.65751 438
30.67762 444
30.69773 465
30.71785 515
30.73796 523
30.75808 531
30.77819 481
30.7983 480
30.81842 488
30.83853 495
30.85864 466
30.87876 423
30.89887 386
30.91899 392
30.9391 390
30.95921 388
30.97933 385
30.99944 411
31.01955 402
31.03967 433
31.05978 402
31.0799 392
31.10001 385
31.12012 425
31.14024 415
31.16035 398
31.18046 410
31.20058 399
31.22069 443
31.2408 443
31.26092 402
31.28103 440
31.30115 421
31.32126 423
31.34137 395
31.36149 397
31.3816 353
31.40171 404
31.42183 418
31.44194 396
31.46206 391
31.48217 370
31.50228 401
31.5224 384
31.54251 393
31.56262 374
31.58274 368
31.60285 351
31.62297 402
31.64308 372
31.66319 324
31.68331 350
31.70342 347
31.72353 369
31.74365 369
31.76376 345
31.78387 322
31.80399 361
31.8241 334
31.84422 315
31.86433 349
31.88444 360
31.90456 333
31.92467 293
31.94478 355
31.9649 362
31.98501 383
32.00513 392
32.02524 398
32.04535 423
32.06547 413
32.08558 421
32.10569 442
32.12581 479
32.14592 458
32.16604 477
32.18615 470
32.20626 523
32.22638 489
32.24649 451
32.2666 475
32.28672 432
32.30683 370
32.32694 392
32.34706 385
32.36717 395
32.38729 375
32.4074 377
32.42751 381
32.44763 389
32.46774 346
32.48785 378
32.50797 372
32.52808 325
32.5482 352
32.56831 336
32.58842 333
32.60854 357
32.62865 330
32.64876 326
32.66888 351
32.68899 324
32.7091 337
32.72922 331
32.74933 338
32.76945 325
32.78956 349
32.80967 331
32.82979 345
32.8499 365
32.87001 380
32.89013 393
32.91024 398
32.93036 409
32.95047 398
32.97058 386
32.9907 410
33.01081 399
33.03092 402
33.05104 437
33.07115 421
33.09127 386
33.11138 383
33.13149 383
33.15161 352
33.17172 343
33.19183 339
33.21195 339
33.23206 335
33.25217 344
33.27229 342
33.2924 337
33.31252 338
33.33263 311
33.35274 348
33.37286 294
33.39297 338
33.41308 302
33.4332 363
33.45331 341
33.47343 351
33.49354 367
33.51365 297
33.53377 330
33.55388 361
33.57399 317
33.59411 315
33.61422 327
33.63434 338
33.65445 343
33.67456 351
33.69468 350
33.71479 377
33.7349 367
33.75502 326
33.77513 330
33.79524 394
33.81536 344
33.83547 388
33.85559 349
33.8757 350
33.89581 354
33.91593 343
33.93604 410
33.95615 398
33.97627 365
33.99638 333
34.0165 358
34.03661 364
34.05672 351
34.07684 393
34.09695 370
34.11706 376
34.13718 401
34.15729 395
34.17741 433
34.19752 412
34.21763 397
34.23775 478
34.25786 428
34.27797 460
34.29809 448
34.3182 441
34.33831 459
34.35843 493
34.37854 454
34.39866 441
34.41877 506
34.43888 484
34.459 460
34.47911 469
34.49922 453
34.51934 459
34.53945 453
34.55957 524
34.57968 487
34.59979 479
34.61991 508
34.64002 491
34.66013 529
34.68025 503
34.70036 555
34.72047 482
34.74059 529
34.7607 552
34.78082 533
34.80093 550
34.82104 559
34.84116 538
34.86127 522
34.88138 583
34.9015 527
34.92161 518
34.94173 610
34.96184 557
34.98195 612
35.00207 626
35.02218 642
35.04229 565
35.06241 594
35.08252 622
35.10264 593
35.12275 573
35.14286 580
35.16298 618
35.18309 570
35.2032 537
35.22332 583
35.24343 555
35.26354 528
35.28366 560
35.30377 555
35.32389 617
35.344 595
35.36411 602
35.38423 588
35.40434 628
35.42445 616
35.44457 650
35.46468 678
35.4848 723
35.50491 613
35.52502 653
35.54514 694
35.56525 662
35.58536 697
35.60548 697
35.62559 614
35.64571 607
35.66582 568
35.68593 541
35.70605 506
35.72616 580
35.74627 486
35.76639 480
35.7865 493
35.80661 552
35.82673 522
35.84684 556
35.86696 553
35.88707 573
35.90718 568
35.9273 611
35.94741 625
35.96752 550
35.98764 616
36.00775 593
36.02787 558
36.04798 584
36.06809 563
36.08821 597
36.10832 558
36.12843 478
36.14855 519
36.16866 504
36.18878 513
36.20889 524
36.229 558
36.24912 530
36.26923 548
36.28934 585
36.30946 600
36.32957 692
36.34968 702
36.3698 704
36.38991 768
36.41003 783
36.43014 843
36.45025 825
36.47037 870
36.49048 846
36.51059 756
36.53071 703
36.55082 636
36.57094 589
36.59105 587
36.61116 526
36.63128 477
36.65139 483
36.6715 452
36.69162 472
36.71173 363
36.73184 396
36.75196 401
36.77207 428
36.79219 439
36.8123 393
36.83241 406
36.85253 398
36.87264 397
36.89275 423
36.91287 396
36.93298 417
36.9531 407
36.97321 417
36.99332 419
37.01344 401
37.03355 398
37.05366 395
37.07378 409
37.09389 399
37.11401 401
37.13412 403
37.15423 419
37.17435 368
37.19446 404
37.21457 356
37.23469 394
37.2548 395
37.27491 408
37.29503 371
37.31514 358
37.33526 385
37.35537 398
37.37548 399
37.3956 372
37.41571 397
37.43582 441
37.45594 420
37.47605 424
37.49617 407
37.51628 375
37.53639 398
37.55651 405
37.57662 384
37.59673 420
37.61685 367
37.63696 402
37.65708 401
37.67719 389
37.6973 372
37.71742 364
37.73753 388
37.75764 395
37.77776 360
37.79787 386
37.81798 342
37.8381 374
37.85821 371
37.87833 364
37.89844 373
37.91855 344
37.93867 378
37.95878 375
37.97889 349
37.99901 353
38.01912 382
38.03924 345
38.05935 370
38.07946 334
38.09958 353
38.11969 378
38.1398 352
38.15992 360
38.18003 333
38.20015 344
38.22026 396
38.24037 355
38.26049 370
38.2806 378
38.30071 337
38.32083 358
38.34094 331
38.36105 325
38.38117 356
38.40128 375
38.4214 362
38.44151 363
38.46162 352
38.48174 373
38.50185 385
38.52196 374
38.54208 369
38.56219 363
38.58231 380
38.60242 381
38.62253 398
38.64265 359
38.66276 372
38.68287 354
38.70299 352
38.7231 349
38.74321 353
38.76333 374
38.78344 373
38.80356 378
38.82367 364
38.84378 366
38.8639 351
38.88401 378
38.90412 372
38.92424 344
38.94435 367
38.96447 399
38.98458 366
39.00469 346
39.02481 357
39.04492 349
39.06503 375
39.08515 370
39.10526 386
39.12538 374
39.14549 414
39.1656 419
39.18572 423
39.20583 409
39.22594 449
39.24606 466
39.26617 535
39.28628 574
39.3064 630
39.32651 712
39.34663 762
39.36674 826
39.38685 891
39.40697 885
39.42708 908
39.44719 847
39.46731 830
39.48742 805
39.50754 775
39.52765 688
39.54776 685
39.56788 658
39.58799 559
39.6081 545
39.62822 531
39.64833 483
39.66845 452
39.68856 451
39.70867 463
39.72879 411
39.7489 432
39.76901 371
39.78913 394
39.80924 398
39.82935 408
39.84947 392
39.86958 426
39.8897 399
39.90981 372
39.92992 412
39.95004 416
39.97015 373
39.99026 377
40.01038 367
40.03049 367
40.05061 358
40.07072 395
40.09083 412
40.11095 402
40.13106 426
40.15117 471
40.17129 470
40.1914 492
40.21152 469
40.23163 484
40.25174 468
40.27186 454
40.29197 429
40.31208 413
40.3322 439
40.35231 395
40.37242 343
40.39254 370
40.41265 371
40.43277 362
40.45288 300
40.47299 364
40.49311 355
40.51322 347
40.53333 361
40.55345 374
40.57356 328
40.59368 381
40.61379 357
40.6339 360
40.65402 340
40.67413 352
40.69424 350
40.71436 329
40.73447 392
40.75458 356
40.7747 334
40.79481 360
40.81493 384
40.83504 327
40.85515 322
40.87527 342
40.89538 354
40.91549 355
40.93561 355
40.95572 354
40.97584 338
40.99595 330
41.01606 327
41.03618 356
41.05629 345
41.0764 373
41.09652 351
41.11663 349
41.13675 355
41.15686 343
41.17697 347
41.19709 376
41.2172 338
41.23731 368
41.25743 313
41.27754 333
41.29765 320
41.31777 332
41.33788 325
41.358 342
41.37811 323
41.39822 325
41.41834 313
41.43845 317
41.45856 319
41.47868 368
41.49879 371
41.51891 356
41.53902 373
41.55913 375
41.57925 444
41.59936 393
41.61947 414
41.63959 423
41.6597 433
41.67982 421
41.69993 382
41.72004 394
41.74016 421
41.76027 384
41.78038 383
41.8005 384
41.82061 340
41.84072 354
41.86084 345
41.88095 370
41.90107 335
41.92118 332
41.94129 317
41.96141 352
41.98152 317
42.00163 341
42.02175 345
42.04186 352
42.06198 345
42.08209 344
42.1022 357
42.12232 386
42.14243 393
42.16254 365
42.18266 387
42.20277 390
42.22289 392
42.243 434
42.26311 446
42.28323 510
42.30334 506
42.32345 554
42.34357 574
42.36368 579
42.38379 605
42.40391 529
42.42402 556
42.44414 568
42.46425 520
42.48436 457
42.50448 451
42.52459 433
42.5447 439
42.56482 353
42.58493 371
42.60505 380
42.62516 396
42.64527 394
42.66539 411
42.6855 397
42.70561 398
42.72573 398
42.74584 360
42.76595 388
42.78607 387
42.80618 411
42.8263 384
42.84641 339
42.86652 350
42.88664 375
42.90675 346
42.92686 389
42.94698 388
42.96709 411
42.98721 374
43.00732 390
43.02743 456
43.04755 445
43.06766 450
43.08777 446
43.10789 474
43.128 503
43.14812 560
43.16823 514
43.18834 533
43.20846 534
43.22857 529
43.24868 506
43.2688 475
43.28891 462
43.30902 460
43.32914 447
43.34925 434
43.36937 431
43.38948 381
43.40959 382
43.42971 382
43.44982 412
43.46993 326
43.49005 362
43.51016 344
43.53028 361
43.55039 341
43.5705 335
43.59062 375
43.61073 359
43.63084 329
43.65096 351
43.67107 337
43.69119 322
43.7113 307
43.73141 326
43.75153 314
43.77164 295
43.79175 301
43.81187 306
43.83198 299
43.85209 298
43.87221 318
43.89232 306
43.91244 286
43.93255 304
43.95266 287
43.97278 310
43.99289 304
44.013 326
44.03312 307
44.05323 322
44.07335 310
44.09346 334
44.11357 325
44.13369 323
44.1538 315
44.17391 296
44.19403 316
44.21414 333
44.23426 265
44.25437 283
44.27448 306
44.2946 311
44.31471 329
44.33482 311
44.35494 309
44.37505 331
44.39516 307
44.41528 319
44.43539 347
44.45551 335
44.47562 327
44.49573 327
44.51585 330
44.53596 327
44.55607 321
44.57619 363
44.5963 334
44.61642 334
44.63653 348
44.65664 318
44.67676 315
44.69687 321
44.71698 325
44.7371 319
44.75721 314
44.77732 319
44.79744 332
44.81755 318
44.83767 308
44.85778 279
44.87789 315
44.89801 362
44.91812 353
44.93823 338
44.95835 361
44.97846 310
44.99858 306
45.01869 363
45.0388 328
45.05892 337
45.07903 317
45.09914 310
45.11926 331
45.13937 349
45.15949 307
45.1796 315
45.19971 314
45.21983 347
45.23994 321
45.26005 325
45.28017 316
45.30028 329
45.32039 318
45.34051 297
45.36062 345
45.38074 316
45.40085 372
45.42096 335
45.44108 318
45.46119 302
45.4813 334
45.50142 328
45.52153 331
45.54165 332
45.56176 335
45.58187 380
45.60199 372
45.6221 375
45.64221 380
45.66233 452
45.68244 467
45.70256 509
45.72267 460
45.74278 450
45.7629 444
45.78301 417
45.80312 402
45.82324 393
45.84335 409
45.86346 385
45.88358 369
45.90369 336
45.92381 368
45.94392 316
45.96403 307
45.98415 333
46.00426 303
46.02437 298
46.04449 292
46.0646 345
46.08472 337
46.10483 317
46.12494 322
46.14506 291
46.16517 336
46.18528 291
46.2054 331
46.22551 294
46.24563 281
46.26574 308
46.28585 298
46.30597 277
46.32608 328
46.34619 280
46.36631 303
46.38642 317
46.40653 281
46.42665 289
46.44676 301
46.46688 294
46.48699 314
46.5071 285
46.52722 303
46.54733 299
46.56744 302
46.58756 281
46.60767 281
46.62779 273
46.6479 325
46.66801 318
46.68813 296
46.70824 301
46.72835 279
46.74847 286
46.76858 289
46.78869 295
46.80881 303
46.82892 339
46.84904 289
46.86915 296
46.88926 316
46.90938 337
46.92949 334
46.9496 324
46.96972 349
46.98983 363
47.00995 346
47.03006 370
47.05017 365
47.07029 366
47.0904 381
47.11051 395
47.13063 418
47.15074 426
47.17086 376
47.19097 388
47.21108 386
47.2312 355
47.25131 360
47.27142 420
47.29154 392
47.31165 397
47.33176 403
47.35188 445
47.37199 438
47.39211 431
47.41222 483
47.43233 483
47.45245 459
47.47256 477
47.49267 453
47.51279 522
47.5329 523
47.55302 512
47.57313 516
47.59324 505
47.61336 483
47.63347 494
47.65358 496
47.6737 469
47.69381 453
47.71393 433
47.73404 408
47.75415 384
47.77427 381
47.79438 384
47.81449 400
47.83461 334
47.85472 402
47.87483 350
47.89495 343
47.91506 315
47.93518 349
47.95529 315
47.9754 324
47.99552 370
48.01563 322
48.03574 347
48.05586 348
48.07597 327
48.09609 340
48.1162 315
48.13631 330
48.15643 349
48.17654 371
48.19665 356
48.21677 356
48.23688 347
48.257 357
48.27711 371
48.29722 379
48.31734 355
48.33745 404
48.35756 412
48.37768 432
48.39779 444
48.4179 432
48.43802 479
48.45813 495
48.47825 515
48.49836 518
48.51847 496
48.53859 514
48.5587 559
48.57881 480
48.59893 512
48.61904 496
48.63916 452
48.65927 463
48.67938 507
48.6995 466
48.71961 421
48.73972 376
48.75984 417
48.77995 381
48.80006 371
48.82018 343
48.84029 349
48.86041 354
48.88052 368
48.90063 366
48.92075 360
48.94086 359
48.96097 371
48.98109 355
49.0012 374
49.02132 354
49.04143 357
49.06154 326
49.08166 372
49.10177 395
49.12188 362
49.142 371
49.16211 362
49.18223 367
49.20234 359
49.22245 323
49.24257 338
49.26268 328
49.28279 335
49.30291 361
49.32302 328
49.34313 311
49.36325 354
49.38336 308
49.40348 344
49.42359 308
49.4437 329
49.46382 340
49.48393 328
49.50404 349
49.52416 332
49.54427 347
49.56439 365
49.5845 338
49.60461 340
49.62473 345
49.64484 339
49.66495 348
49.68507 358
49.70518 362
49.7253 380
49.74541 388
49.76552 423
49.78564 391
49.80575 407
49.82586 431
49.84598 442
49.86609 433
49.8862 447
49.90632 497
49.92643 528
49.94655 592
49.96666 641
49.98677 742
50.00689 777
50.027 799
50.04711 805
50.06723 816
50.08734 767
50.10746 740
50.12757 727
50.14768 625
50.1678 638
50.18791 601
50.20802 549
50.22814 524
50.24825 420
50.26837 409
50.28848 387
50.30859 358
50.32871 349
50.34882 369
50.36893 368
50.38905 371
50.40916 355
50.42927 394
50.44939 386
50.4695 424
50.48962 367
50.50973 379
50.52984 404
50.54996 418
50.57007 432
50.59018 397
50.6103 368
50.63041 359
50.65053 372
50.67064 387
50.69075 375
50.71087 396
50.73098 334
50.75109 349
50.77121 369
50.79132 312
50.81143 328
50.83155 323
50.85166 342
50.87178 325
50.89189 277
50.912 292
50.93212 329
50.95223 306
50.97234 302
50.99246 324
51.01257 334
51.03269 318
51.0528 318
51.07291 326
51.09303 320
51.11314 333
51.13325 349
51.15337 369
51.17348 339
51.1936 345
51.21371 376
51.23382 333
51.25394 339
51.27405 337
51.29416 333
51.31428 320
51.33439 308
51.3545 302
51.37462 317
51.39473 296
51.41485 324
51.43496 310
51.45507 287
51.47519 303
51.4953 274
51.51541 261
51.53553 297
51.55564 270
51.57576 240
51.59587 293
51.61598 260
51.6361 311
51.65621 300
51.67632 290
51.69644 278
51.71655 278
51.73667 278
51.75678 263
51.77689 301
51.79701 312
51.81712 298
51.83723 295
51.85735 298
51.87746 307
51.89757 316
51.91769 317
51.9378 359
51.95792 345
51.97803 356
51.99814 381
52.01826 364
52.03837 343
52.05848 340
52.0786 356
52.09871 381
52.11883 384
52.13894 350
52.15905 374
52.17917 370
52.19928 325
52.21939 330
52.23951 325
52.25962 322
52.27974 329
52.29985 311
52.31996 327
52.34008 332
52.36019 343
52.3803 336
52.40042 333
52.42053 337
52.44064 301
52.46076 311
52.48087 325
52.50099 312
52.5211 293
52.54121 300
52.56133 278
52.58144 310
52.60155 326
52.62167 270
52.64178 308
52.6619 316
52.68201 301
52.70212 343
52.72224 291
52.74235 316
52.76246 290
52.78258 317
52.80269 296
52.8228 321
52.84292 301
52.86303 306
52.88315 288
52.90326 312
52.92337 304
52.94349 308
52.9636 339
52.98371 335
53.00383 304
53.02394 336
53.04406 322
53.06417 363
53.08428 347
53.1044 346
53.12451 365
53.14462 330
53.16474 336
53.18485 308
53.20497 329
53.22508 322
53.24519 308
53.26531 350
53.28542 335
53.30553 320
53.32565 334
53.34576 337
53.36587 313
53.38599 303
53.4061 294
53.42622 320
53.44633 316
53.46644 316
53.48656 315
53.50667 321
53.52678 334
53.5469 303
53.56701 316
53.58713 293
53.60724 322
53.62735 318
53.64747 319
53.66758 309
53.68769 345
53.70781 318
53.72792 296
53.74804 319
53.76815 333
53.78826 312
53.80838 331
53.82849 330
53.8486 333
53.86872 328
53.88883 342
53.90894 326
53.92906 376
53.94917 328
53.96929 329
53.9894 334
54.00951 338
54.02963 339
54.04974 330
54.06985 329
54.08997 309
54.11008 307
54.1302 307
54.15031 326
54.17042 306
54.19054 272
54.21065 297
54.23076 346
54.25088 364
54.27099 315
54.29111 359
54.31122 324
54.33133 320
54.35145 319
54.37156 338
54.39167 317
54.41179 336
54.4319 332
54.45201 321
54.47213 308
54.49224 354
54.51236 327
54.53247 349
54.55258 385
54.5727 355
54.59281 331
54.61292 355
54.63304 376
54.65315 384
54.67327 380
54.69338 375
54.71349 402
54.73361 464
54.75372 481
54.77383 481
54.79395 474
54.81406 488
54.83417 470
54.85429 413
54.8744 410
54.89452 395
54.91463 377
54.93474 430
54.95486 386
54.97497 357
54.99508 345
55.0152 364
55.03531 330
55.05543 335
55.07554 337
55.09565 346
55.11577 358
55.13588 323
55.15599 350
55.17611 399
55.19622 340
55.21634 340
55.23645 367
55.25656 412
55.27668 350
55.29679 366
55.3169 360
55.33702 322
55.35713 339
55.37724 323
55.39736 328
55.41747 349
55.43759 326
55.4577 344
55.47781 312
55.49793 326
55.51804 320
55.53815 309
55.55827 300
55.57838 313
55.5985 322
55.61861 326
55.63872 314
55.65884 309
55.67895 311
55.69906 303
55.71918 293
55.73929 302
55.75941 273
55.77952 314
55.79963 300
55.81975 289
55.83986 319
55.85997 318
55.88009 303
55.9002 319
55.92031 285
55.94043 289
55.96054 322
55.98066 299
56.00077 327
56.02088 311
56.041 305
56.06111 319
56.08122 309
56.10134 293
56.12145 334
56.14157 318
56.16168 303
56.18179 306
56.20191 319
56.22202 331
56.24213 315
56.26225 298
56.28236 332
56.30248 339
56.32259 317
56.3427 334
56.36282 312
56.38293 332
56.40304 341
56.42316 334
56.44327 343
56.46338 317
56.4835 362
56.50361 344
56.52373 350
56.54384 356
56.56395 362
56.58407 379
56.60418 385
56.62429 363
56.64441 340
56.66452 349
56.68464 363
56.70475 370
56.72486 372
56.74498 347
56.76509 341
56.7852 344
56.80532 327
56.82543 319
56.84554 343
56.86566 317
56.88577 342
56.90589 281
56.926 349
56.94611 311
56.96623 273
56.98634 310
57.00645 317
57.02657 307
57.04668 312
57.0668 303
57.08691 285
57.10702 322
57.12714 314
57.14725 334
57.16736 295
57.18748 322
57.20759 332
57.22771 331
57.24782 330
57.26793 347
57.28805 355
57.30816 387
57.32827 335
57.34839 372
57.3685 384
57.38861 403
57.40873 377
57.42884 343
57.44896 380
57.46907 414
57.48918 398
57.5093 382
57.52941 374
57.54952 404
57.56964 389
57.58975 368
57.60987 377
57.62998 412
57.65009 356
57.67021 333
57.69032 338
57.71043 350
57.73055 339
57.75066 334
57.77078 359
57.79089 318
57.811 320
57.83112 298
57.85123 352
57.87134 297
57.89146 320
57.91157 297
57.93168 311
57.9518 306
57.97191 273
57.99203 282
58.01214 315
58.03225 313
58.05237 316
58.07248 308
58.09259 308
58.11271 306
58.13282 288
58.15294 319
58.17305 299
58.19316 287
58.21328 304
58.23339 276
58.2535 286
58.27362 309
58.29373 293
58.31385 295
58.33396 307
58.35407 333
58.37419 311
58.3943 312
58.41441 271
58.43453 347
58.45464 308
58.47475 310
58.49487 319
58.51498 308
58.5351 306
58.55521 303
58.57532 365
58.59544 333
58.61555 291
58.63566 328
58.65578 318
58.67589 332
58.69601 285
58.71612 326
58.73623 297
58.75635 338
58.77646 298
58.79657 308
58.81669 278
58.8368 276
58.85691 266
58.87703 268
58.89714 279
58.91726 286
58.93737 317
58.95748 297
58.9776 292
58.99771 304
59.01782 300
59.03794 301
59.05805 266
59.07817 288
59.09828 294
59.11839 296
59.13851 306
59.15862 293
59.17873 266
59.19885 308
59.21896 285
59.23908 302
59.25919 294
59.2793 298
59.29942 308
59.31953 264
59.33964 283
59.35976 299
59.37987 266
59.39998 270
59.4201 253
59.44021 313
59.46033 272
59.48044 306
59.50055 249
59.52067 312
59.54078 332
59.56089 299
59.58101 334
59.60112 300
59.62124 295
59.64135 307
59.66146 369
59.68158 349
59.70169 365
59.7218 426
59.74192 402
59.76203 438
59.78215 504
59.80226 514
59.82237 556
59.84249 571
59.8626 590
59.88271 576
59.90283 576
59.92294 536
59.94305 526
59.96317 507
59.98328 470
60.0034 477
60.02351 442
60.04362 453
60.06374 438
60.08385 445
60.10396 389
60.12408 370
60.14419 320
60.16431 343
60.18442 287
60.20453 319
60.22465 298
60.24476 312
60.26487 312
60.28499 306
60.3051 289
60.32522 331
60.34533 354
60.36544 302
60.38556 313
60.40567 334
60.42578 295
60.4459 327
60.46601 311
60.48612 338
60.50624 350
60.52635 325
60.54647 342
60.56658 352
60.58669 328
60.60681 341
60.62692 353
60.64703 334
60.66715 318
60.68726 353
60.70738 340
60.72749 371
60.7476 394
60.76772 378
60.78783 367
60.80794 352
60.82806 378
60.84817 353
60.86828 332
60.8884 389
60.90851 373
60.92863 342
60.94874 381
60.96885 362
60.98897 373
61.00908 402
61.02919 363
61.04931 366
61.06942 363
61.08954 386
61.10965 364
61.12976 401
61.14988 413
61.16999 346
61.1901 357
61.21022 382
61.23033 395
61.25045 372
61.27056 358
61.29067 398
61.31079 389
61.3309 400
61.35101 393
61.37113 416
61.39124 390
61.41135 381
61.43147 423
61.45158 411
61.4717 379
61.49181 402
61.51192 429
61.53204 399
61.55215 399
61.57226 424
61.59238 407
61.61249 427
61.63261 383
61.65272 426
61.67283 415
61.69295 441
61.71306 404
61.73317 382
61.75329 362
61.7734 373
61.79352 364
61.81363 396
61.83374 375
61.85386 412
61.87397 393
61.89408 347
61.9142 374
61.93431 364
61.95442 376
61.97454 358
61.99465 348
62.01477 381
62.03488 337
62.05499 335
62.07511 354
62.09522 353
62.11533 348
62.13545 330
62.15556 345
62.17568 331
62.19579 378
62.2159 327
62.23602 359
62.25613 373
62.27624 354
62.29636 344
62.31647 358
62.33659 343
62.3567 319
62.37681 380
62.39693 354
62.41704 368
62.43715 371
62.45727 376
62.47738 331
62.49749 330
62.51761 352
62.53772 339
62.55784 354
62.57795 367
62.59806 319
62.61818 312
62.63829 337
62.6584 351
62.67852 334
62.69863 317
62.71875 308
62.73886 279
62.75897 296
62.77909 320
62.7992 281
62.81931 319
62.83943 327
62.85954 314
62.87965 307
62.89977 324
62.91988 320
62.94 329
62.96011 321
62.98022 304
63.00034 303
63.02045 291
63.04056 319
63.06068 283
63.08079 288
63.10091 294
63.12102 318
63.14113 291
63.16125 321
63.18136 342
63.20147 346
63.22159 314
63.2417 323
63.26182 303
63.28193 313
63.30204 327
63.32216 300
63.34227 304
63.36238 294
63.3825 313
63.40261 326
63.42272 297
63.44284 297
63.46295 306
63.48307 296
63.50318 330
63.52329 334
63.54341 320
63.56352 309
63.58363 327
63.60375 322
63.62386 316
63.64398 301
63.66409 334
63.6842 318
63.70432 324
63.72443 351
63.74454 326
63.76466 291
63.78477 334
63.80489 323
63.825 341
63.84511 352
63.86523 353
63.88534 362
63.90545 353
63.92557 396
63.94568 363
63.96579 350
63.98591 327
64.00602 335
64.02614 354
64.04625 324
64.06636 325
64.08648 313
64.10659 317
64.1267 334
64.14682 338
64.16693 324
64.18705 310
64.20716 316
64.22727 280
64.24739 290
64.2675 310
64.28761 265
64.30773 295
64.32784 289
64.34796 308
64.36807 279
64.38818 286
64.4083 308
64.42841 304
64.44852 280
64.46864 321
64.48875 299
64.50886 294
64.52898 348
64.54909 323
64.56921 329
64.58932 319
64.60943 316
64.62955 324
64.64966 348
64.66977 337
64.68989 331
64.71 340
64.73012 308
64.75023 354
64.77034 339
64.79046 335
64.81057 312
64.83068 321
64.8508 265
64.87091 323
64.89102 344
64.91114 322
64.93125 320
64.95137 305
64.97148 326
64.99159 332
65.01171 306
65.03182 351
65.05193 327
65.07205 301
65.09216 307
65.11228 292
65.13239 296
65.1525 282
65.17262 301
65.19273 307
65.21284 323
65.23296 305
65.25307 339
65.27319 314
65.2933 312
65.31341 294
65.33353 295
65.35364 306
65.37375 278
65.39387 302
65.41398 293
65.43409 281
65.45421 289
65.47432 305
65.49444 275
65.51455 305
65.53466 309
65.55478 325
65.57489 320
65.595 296
65.61512 321
65.63523 300
65.65535 301
65.67546 317
65.69557 292
65.71569 322
65.7358 315
65.75591 300
65.77603 282
65.79614 325
65.81626 286
65.83637 310
65.85648 293
65.8766 328
65.89671 345
65.91682 307
65.93694 300
65.95705 281
65.97716 294
65.99728 295
66.01739 257
66.03751 288
66.05762 288
66.07773 308
66.09785 275
66.11796 315
66.13807 293
66.15819 292
66.1783 299
66.19842 282
66.21853 283
66.23864 284
66.25876 274
66.27887 301
66.29898 260
66.3191 291
66.33921 297
66.35933 292
66.37944 274
66.39955 279
66.41967 270
66.43978 277
66.45989 258
66.48001 265
66.50012 300
66.52023 265
66.54035 298
66.56046 247
66.58058 288
66.60069 285
66.6208 240
66.64092 280
66.66103 270
66.68114 278
66.70126 268
66.72137 276
66.74149 274
66.7616 267
66.78171 251
66.80183 271
66.82194 287
66.84205 271
66.86217 271
66.88228 285
66.90239 258
66.92251 311
66.94262 272
66.96274 292
66.98285 320
67.00296 301
67.02308 278
67.04319 300
67.0633 302
67.08342 268
67.10353 253
67.12365 299
67.14376 291
67.16387 285
67.18399 300
67.2041 284
67.22421 299
67.24433 284
67.26444 306
67.28456 294
67.30467 291
67.32478 264
67.3449 319
67.36501 295
67.38512 292
67.40524 315
67.42535 300
67.44546 323
67.46558 295
67.48569 303
67.50581 305
67.52592 349
67.54603 405
67.56615 346
67.58626 404
67.60637 403
67.62649 443
67.6466 494
67.66672 480
67.68683 432
67.70694 402
67.72706 401
67.74717 390
67.76728 361
67.7874 390
67.80751 417
67.82763 411
67.84774 404
67.86785 390
67.88797 411
67.90808 433
67.92819 428
67.94831 453
67.96842 439
67.98853 487
68.00865 522
68.02876 523
68.04888 530
68.06899 525
68.0891 500
68.10922 519
68.12933 482
68.14944 477
68.16956 524
68.18967 497
68.20979 514
68.2299 535
68.25001 481
68.27013 487
68.29024 414
68.31035 390
68.33047 397
68.35058 355
68.3707 343
68.39081 373
68.41092 352
68.43104 318
68.45115 317
68.47126 335
68.49138 297
68.51149 301
68.5316 312
68.55172 272
68.57183 292
68.59195 259
68.61206 279
68.63217 252
68.65229 301
68.6724 282
68.69251 280
68.71263 272
68.73274 268
68.75286 259
68.77297 284
68.79308 256
68.8132 259
68.83331 282
68.85342 277
68.87354 292
68.89365 273
68.91376 311
68.93388 261
68.95399 233
68.97411 315
68.99422 284
69.01433 289
69.03445 302
69.05456 281
69.07467 305
69.09479 304
69.1149 242
69.13502 287
69.15513 298
69.17524 310
69.19536 297
69.21547 301
69.23558 306
69.2557 311
69.27581 307
69.29593 296
69.31604 328
69.33615 310
69.35627 321
69.37638 328
69.39649 284
69.41661 303
69.43672 296
69.45683 299
69.47695 318
69.49706 259
69.51718 294
69.53729 257
69.5574 337
69.57752 302
69.59763 304
69.61774 288
69.63786 274
69.65797 290
69.67809 283
69.6982 294
69.71831 287
69.73843 283
69.75854 268
69.77865 248
69.79877 285
69.81888 247
69.839 300
69.85911 294
69.87922 285
69.89934 302
69.91945 259
69.93956 248
69.95968 251
69.97979 296
69.9999 277
70.02002 284
70.04013 275
70.06025 274
70.08036 261
70.10047 256
70.12059 267
70.1407 276
70.16081 256
70.18093 305
70.20104 283
70.22116 285
70.24127 268
70.26138 268
70.2815 263
70.30161 285
70.32172 279
70.34184 289
70.36195 260
70.38207 287
70.40218 274
70.42229 273
70.44241 287
70.46252 261
70.48263 271
70.50275 272
70.52286 250
70.54297 278
70.56309 261
70.5832 251
70.60332 261
70.62343 281
70.64354 292
70.66366 291
70.68377 240
70.70388 307
70.724 285
70.74411 271
70.76423 261
70.78434 305
70.80445 248
70.82457 259
70.84468 267
70.86479 266
70.88491 255
70.90502 265
70.92513 270
70.94525 275
70.96536 263
70.98548 240
71.00559 259
71.0257 267
71.04582 245
71.06593 276
71.08604 265
71.10616 275
71.12627 232
71.14639 262
71.1665 246
71.18661 287
71.20673 316
71.22684 263
71.24695 278
71.26707 265
71.28718 262
71.3073 293
71.32741 265
71.34752 288
71.36764 264
71.38775 272
71.40786 276
71.42798 311
71.44809 282
71.4682 282
71.48832 261
71.50843 297
71.52855 252
71.54866 298
71.56877 288
71.58889 308
71.609 286
71.62911 292
71.64923 262
71.66934 283
71.68946 278
71.70957 270
71.72968 255
71.7498 244
71.76991 266
71.79002 265
71.81014 244
71.83025 267
71.85037 296
71.87048 265
71.89059 289
71.91071 286
71.93082 310
71.95093 291
71.97105 242
71.99116 262
72.01127 279
72.03139 268
72.0515 271
72.07162 265
72.09173 271
72.11184 285
72.13196 276
72.15207 257
72.17218 292
72.1923 257
72.21241 280
72.23253 250
72.25264 262
72.27275 254
72.29287 262
72.31298 285
72.33309 269
72.35321 277
72.37332 278
72.39344 282
72.41355 281
72.43366 269
72.45378 268
72.47389 294
72.494 275
72.51412 259
72.53423 301
72.55434 260
72.57446 267
72.59457 290
72.61469 276
72.6348 311
72.65491 293
72.67503 277
72.69514 305
72.71525 294
72.73537 274
72.75548 285
72.7756 286
72.79571 303
72.81582 273
72.83594 315
72.85605 294
72.87616 295
72.89628 277
72.91639 298
72.9365 286
72.95662 326
72.97673 297
72.99685 292
73.01696 284
73.03707 292
73.05719 302
73.0773 286
73.09741 278
73.11753 295
73.13764 306
73.15776 298
73.17787 314
73.19798 300
73.2181 324
73.23821 305
73.25832 312
73.27844 348
73.29855 327
73.31867 374
73.33878 341
73.35889 327
73.37901 325
73.39912 349
73.41923 319
73.43935 367
73.45946 312
73.47957 294
73.49969 324
73.5198 328
73.53992 329
73.56003 317
73.58014 314
73.60026 323
73.62037 332
73.64048 326
73.6606 284
73.68071 307
73.70083 276
73.72094 310
73.74105 272
73.76117 299
73.78128 295
73.80139 275
73.82151 272
73.84162 308
73.86174 330
73.88185 284
73.90196 295
73.92208 260
73.94219 293
73.9623 307
73.98242 279
74.00253 281
74.02264 285
74.04276 266
74.06287 262
74.08299 280
74.1031 289
74.12321 274
74.14333 280
74.16344 294
74.18355 290
74.20367 294
74.22378 269
74.2439 278
74.26401 279
74.28412 270
74.30424 264
74.32435 268
74.34446 302
74.36458 254
74.38469 278
74.40481 273
74.42492 299
74.44503 257
74.46515 266
74.48526 278
74.50537 241
74.52549 267
74.5456 232
74.56571 289
74.58583 252
74.60594 289
74.62606 306
74.64617 263
74.66628 271
74.6864 261
74.70651 275
74.72662 283
74.74674 290
74.76685 268
74.78697 263
74.80708 260
74.82719 263
74.84731 251
74.86742 260
74.88753 269
74.90765 262
74.92776 254
74.94787 281
74.96799 258
74.9881 219
75.00822 278
