3.00117 20143
3.02128 19862
3.0414 19303
3.06151 18940
3.08162 18567
3.10174 17640
3.12185 17268
3.14197 17148
3.16208 16067
3.18219 16228
3.20231 15208
3.22242 14969
3.24253 14939
3.26265 14100
3.28276 13962
3.30288 13383
3.32299 13241
3.3431 12468
3.36322 11993
3.38333 11736
3.40344 11333
3.42356 11268
3.44367 10828
3.46379 10435
3.4839 10199
3.50401 9605
3.52413 9398
3.54424 9106
3.56435 8778
3.58447 8658
3.60458 8162
3.62469 8105
3.64481 7772
3.66492 7305
3.68504 7246
3.70515 6813
3.72526 6799
3.74538 6482
3.76549 6087
3.7856 6167
3.80572 5613
3.82583 5419
3.84595 5557
3.86606 4983
3.88617 5028
3.90629 4651
3.9264 4602
3.94651 4429
3.96663 4280
3.98674 4213
4.00686 3884
4.02697 3852
4.04708 3709
4.0672 3514
4.08731 3447
4.10742 3182
4.12754 3130
4.14765 3174
4.16776 2979
4.18788 2883
4.20799 2712
4.22811 2781
4.24822 2639
4.26833 2572
4.28845 2566
4.30856 2419
4.32867 2382
4.34879 2340
4.3689 2297
4.38902 2254
4.40913 2118
4.42924 2202
4.44936 2169
4.46947 2203
4.48958 2157
4.5097 2016
4.52981 2062
4.54992 1986
4.57004 1963
4.59015 1944
4.61027 1858
4.63038 1898
4.65049 1902
4.67061 1841
4.69072 1727
4.71083 1787
4.73095 1729
4.75106 1783
4.77118 1733
4.79129 1667
4.8114 1677
4.83152 1609
4.85163 1667
4.87174 1678
4.89186 1627
4.91197 1569
4.93209 1549
4.9522 1571
4.97231 1473
4.99243 1503
5.01254 1526
5.03265 1433
5.05277 1464
5.07288 1425
5.09299 1432
5.11311 1433
5.13322 1403
5.15334 1423
5.17345 1458
5.19356 1304
5.21368 1369
5.23379 1378
5.2539 1507
5.27402 1426
5.29413 1268
5.31425 1342
5.33436 1321
5.35447 1318
5.37459 1311
5.3947 1295
5.41481 1357
5.43493 1253
5.45504 1255
5.47516 1288
5.49527 1248
5.51538 1225
5.5355 1278
5.55561 1252
5.57572 1286
5.59584 1233
5.61595 1255
5.63606 1238
5.65618 1223
5.67629 1244
5.69641 1185
5.71652 1278
5.73663 1220
5.75675 1187
5.77686 1154
5.79697 1212
5.81709 1135
5.8372 1143
5.85732 1140
5.87743 1077
5.89754 1164
5.91766 1115
5.93777 1055
5.95788 1177
5.978 1141
5.99811 1093
6.01823 1061
6.03834 1155
6.05845 1180
6.07857 1080
6.09868 1106
6.11879 1068
6.13891 1089
6.15902 1093
6.17913 1049
6.19925 1021
6.21936 1030
6.23948 1007
6.25959 1008
6.2797 1025
6.29982 973
6.31993 979
6.34004 988
6.36016 979
6.38027 983
6.40039 965
6.4205 915
6.44061 910
6.46073 972
6.48084 938
6.50095 946
6.52107 922
6.54118 890
6.56129 912
6.58141 841
6.60152 852
6.62164 911
6.64175 869
6.66186 856
6.68198 844
6.70209 825
6.7222 849
6.74232 838
6.76243 755
6.78255 845
6.80266 736
6.82277 785
6.84289 734
6.863 769
6.88311 804
6.90323 751
6.92334 851
6.94346 772
6.96357 708
6.98368 714
7.0038 762
7.02391 716
7.04402 699
7.06414 744
7.08425 730
7.10436 687
7.12448 776
7.14459 732
7.16471 713
7.18482 729
7.20493 675
7.22505 655
7.24516 682
7.26527 690
7.28539 655
7.3055 656
7.32562 729
7.34573 633
7.36584 602
7.38596 599
7.40607 640
7.42618 649
7.4463 633
7.46641 646
7.48653 695
7.50664 668
7.52675 632
7.54687 622
7.56698 625
7.58709 606
7.60721 633
7.62732 617
7.64743 618
7.66755 637
7.68766 598
7.70778 625
7.72789 607
7.748 591
7.76812 672
7.78823 594
7.80834 606
7.82846 580
7.84857 633
7.86869 640
7.8888 640
7.90891 624
7.92903 574
7.94914 698
7.96925 687
7.98937 639
8.00948 622
8.0296 652
8.04971 745
8.06982 662
8.08994 706
8.11005 666
8.13016 700
8.15028 770
8.17039 673
8.1905 761
8.21062 799
8.23073 755
8.25085 726
8.27096 829
8.29107 789
8.31119 812
8.3313 883
8.35141 829
8.37153 826
8.39164 907
8.41176 841
8.43187 891
8.45198 859
8.4721 932
8.49221 856
8.51232 872
8.53244 846
8.55255 850
8.57266 861
8.59278 787
8.61289 799
8.63301 773
8.65312 721
8.67323 733
8.69335 697
8.71346 711
8.73357 627
8.75369 653
8.7738 614
8.79392 573
8.81403 639
8.83414 577
8.85426 526
8.87437 573
8.89448 578
8.9146 554
8.93471 533
8.95483 513
8.97494 505
8.99505 469
9.01517 489
9.03528 483
9.05539 509
9.07551 429
9.09562 440
9.11573 473
9.13585 442
9.15596 434
9.17608 420
9.19619 401
9.2163 433
9.23642 429
9.25653 402
9.27664 414
9.29676 376
9.31687 413
9.33699 419
9.3571 435
9.37721 427
9.39733 404
9.41744 405
9.43755 397
9.45767 346
9.47778 366
9.4979 382
9.51801 361
9.53812 429
9.55824 381
9.57835 337
9.59846 360
9.61858 391
9.63869 359
9.6588 388
9.67892 390
9.69903 385
9.71915 397
9.73926 367
9.75937 345
9.77949 336
9.7996 351
9.81971 341
9.83983 357
9.85994 386
9.88006 385
9.90017 403
9.92028 342
9.9404 363
9.96051 359
9.98062 372
10.00074 380
10.02085 386
10.04097 355
10.06108 367
10.08119 400
10.10131 401
10.12142 358
10.14153 365
10.16165 355
10.18176 332
10.20187 345
10.22199 322
10.2421 331
10.26222 292
10.28233 366
10.30244 385
10.32256 372
10.34267 350
10.36278 355
10.3829 352
10.40301 338
10.42313 319
10.44324 350
10.46335 357
10.48347 328
10.50358 344
10.52369 369
10.54381 333
10.56392 347
10.58403 366
10.60415 324
10.62426 352
10.64438 357
10.66449 328
10.6846 333
10.70472 335
10.72483 329
10.74494 341
10.76506 333
10.78517 372
10.80529 298
10.8254 349
10.84551 342
10.86563 359
10.88574 334
10.90585 391
10.92597 347
10.94608 318
10.9662 313
10.98631 350
11.00642 318
11.02654 357
11.04665 358
11.06676 319
11.08688 359
11.10699 345
11.1271 323
11.14722 368
11.16733 347
11.18745 317
11.20756 345
11.22767 321
11.24779 333
11.2679 327
11.28801 323
11.30813 337
11.32824 318
11.34836 328
11.36847 327
11.38858 333
11.4087 303
11.42881 345
11.44892 323
11.46904 336
11.48915 331
11.50927 361
11.52938 336
11.54949 324
11.56961 325
11.58972 345
11.60983 329
11.62995 321
11.65006 342
11.67017 318
11.69029 372
11.7104 272
11.73052 346
11.75063 342
11.77074 386
11.79086 333
11.81097 309
11.83108 322
11.8512 333
11.87131 355
11.89143 370
11.91154 370
11.93165 365
11.95177 352
11.97188 335
11.99199 338
12.01211 317
12.03222 339
12.05234 327
12.07245 327
12.09256 334
12.11268 355
12.13279 336
12.1529 350
12.17302 338
12.19313 359
12.21324 312
12.23336 354
12.25347 378
12.27359 375
12.2937 366
12.31381 363
12.33393 364
12.35404 350
12.37415 341
12.39427 378
12.41438 321
12.4345 345
12.45461 375
12.47472 361
12.49484 344
12.51495 327
12.53506 340
12.55518 395
12.57529 357
12.5954 336
12.61552 353
12.63563 339
12.65575 322
12.67586 342
12.69597 355
12.71609 323
12.7362 314
12.75631 288
12.77643 328
12.79654 262
12.81666 336
12.83677 322
12.85688 348
12.877 322
12.89711 350
12.91722 287
12.93734 287
12.95745 348
12.97757 331
12.99768 312
13.01779 333
13.03791 327
13.05802 335
13.07813 328
13.09825 341
13.11836 356
13.13847 323
13.15859 319
13.1787 326
13.19882 365
13.21893 332
13.23904 331
13.25916 306
13.27927 343
13.29938 315
13.3195 347
13.33961 349
13.35973 342
13.37984 304
13.39995 343
13.42007 357
13.44018 345
13.46029 330
13.48041 352
13.50052 346
13.52064 353
13.54075 331
13.56086 370
13.58098 356
13.60109 377
13.6212 330
13.64132 351
13.66143 362
13.68154 366
13.70166 357
13.72177 333
13.74189 372
13.762 382
13.78211 352
13.80223 374
13.82234 369
13.84245 386
13.86257 370
13.88268 354
13.9028 372
13.92291 375
13.94302 388
13.96314 368
13.98325 356
14.00336 354
14.02348 379
14.04359 375
14.06371 370
14.08382 361
14.10393 364
14.12405 334
14.14416 352
14.16427 333
14.18439 354
14.2045 350
14.22461 325
14.24473 374
14.26484 368
14.28496 341
14.30507 277
14.32518 358
14.3453 331
14.36541 327
14.38552 357
14.40564 324
14.42575 310
14.44587 323
14.46598 325
14.48609 359
14.50621 337
14.52632 347
14.54643 328
14.56655 306
14.58666 322
14.60677 350
14.62689 313
14.647 362
14.66712 292
14.68723 333
14.70734 325
14.72746 302
14.74757 332
14.76768 322
14.7878 339
14.80791 346
14.82803 308
14.84814 348
14.86825 346
14.88837 305
14.90848 328
14.92859 340
14.94871 319
14.96882 300
14.98894 309
15.00905 340
15.02916 336
15.04928 338
15.06939 336
15.0895 362
15.10962 331
15.12973 322
15.14984 372
15.16996 338
15.19007 318
15.21019 340
15.2303 306
15.25041 328
15.27053 313
15.29064 350
15.31075 324
15.33087 364
15.35098 355
15.3711 332
15.39121 315
15.41132 340
15.43144 319
15.45155 311
15.47166 330
15.49178 277
15.51189 310
15.53201 317
15.55212 333
15.57223 364
15.59235 312
15.61246 322
15.63257 312
15.65269 311
15.6728 342
15.69291 346
15.71303 340
15.73314 347
15.75326 329
15.77337 361
15.79348 326
15.8136 371
15.83371 335
15.85382 327
15.87394 359
15.89405 347
15.91417 353
15.93428 309
15.95439 322
15.97451 343
15.99462 347
16.01473 371
16.03485 364
16.05496 328
16.07508 354
16.09519 347
16.1153 398
16.13542 330
16.15553 357
16.17564 338
16.19576 329
16.21587 370
16.23598 342
16.2561 336
16.27621 324
16.29633 343
16.31644 379
16.33655 391
16.35667 356
16.37678 384
16.39689 390
16.41701 380
16.43712 360
16.45724 355
16.47735 391
16.49746 358
16.51758 347
16.53769 345
16.5578 392
16.57792 378
16.59803 357
16.61814 398
16.63826 335
16.65837 344
16.67849 368
16.6986 339
16.71871 364
16.73883 373
16.75894 352
16.77905 355
16.79917 388
16.81928 326
16.8394 373
16.85951 337
16.87962 371
16.89974 325
16.91985 324
16.93996 318
16.96008 308
16.98019 329
17.00031 374
17.02042 353
17.04053 317
17.06065 365
17.08076 349
17.10087 319
17.12099 374
17.1411 339
17.16121 301
17.18133 367
17.20144 340
17.22156 364
17.24167 328
17.26178 322
17.2819 320
17.30201 369
17.32212 338
17.34224 346
17.36235 325
17.38247 317
17.40258 382
17.42269 329
17.44281 379
17.46292 367
17.48303 329
17.50315 306
17.52326 337
17.54338 326
17.56349 328
17.5836 348
17.60372 359
17.62383 327
17.64394 400
17.66406 358
17.68417 329
17.70428 386
17.7244 359
17.74451 326
17.76463 336
17.78474 329
17.80485 347
17.82497 362
17.84508 389
17.86519 331
17.88531 353
17.90542 360
17.92554 352
17.94565 329
17.96576 346
17.98588 313
18.00599 379
18.0261 394
18.04622 368
18.06633 347
18.08645 312
18.10656 356
18.12667 362
18.14679 362
18.1669 362
18.18701 326
18.20713 377
18.22724 396
18.24735 360
18.26747 349
18.28758 335
18.3077 367
18.32781 367
18.34792 339
18.36804 339
18.38815 369
18.40826 377
18.42838 361
18.44849 415
18.46861 357
18.48872 363
18.50883 335
18.52895 331
18.54906 340
18.56917 322
18.58929 366
18.6094 366
18.62951 315
18.64963 353
18.66974 372
18.68986 344
18.70997 328
18.73008 346
18.7502 380
18.77031 336
18.79042 352
18.81054 338
18.83065 378
18.85077 344
18.87088 341
18.89099 344
18.91111 377
18.93122 347
18.95133 365
18.97145 370
18.99156 339
19.01168 369
19.03179 369
19.0519 334
19.07202 341
19.09213 362
19.11224 391
19.13236 368
19.15247 412
19.17258 384
19.1927 423
19.21281 431
19.23293 415
19.25304 444
19.27315 454
19.29327 445
19.31338 442
19.33349 467
19.35361 489
19.37372 494
19.39384 524
19.41395 572
19.43406 545
19.45418 577
19.47429 598
19.4944 594
19.51452 623
19.53463 617
19.55475 663
19.57486 775
19.59497 744
19.61509 758
19.6352 812
19.65531 839
19.67543 870
19.69554 849
19.71565 858
19.73577 805
19.75588 927
19.776 931
19.79611 885
19.81622 875
19.83634 846
19.85645 840
19.87656 852
19.89668 826
19.91679 794
19.93691 778
19.95702 755
19.97713 753
19.99725 788
20.01736 764
20.03747 748
20.05759 733
20.0777 714
20.09782 658
20.11793 727
20.13804 642
20.15816 639
20.17827 679
20.19838 633
20.2185 670
20.23861 639
20.25872 684
20.27884 610
20.29895 661
20.31907 582
20.33918 620
20.35929 572
20.37941 573
20.39952 643
20.41963 630
20.43975 601
20.45986 596
20.47998 602
20.50009 610
20.5202 631
20.54032 604
20.56043 629
20.58054 581
20.60066 596
20.62077 654
20.64088 634
20.661 674
20.68111 727
20.70123 799
20.72134 863
20.74145 979
20.76157 1170
20.78168 1320
20.80179 1420
20.82191 1490
20.84202 1523
20.86214 1325
20.88225 1173
20.90236 992
20.92248 914
20.94259 784
20.9627 712
20.98282 679
21.00293 675
21.02305 630
21.04316 638
21.06327 604
21.08339 624
21.1035 595
21.12361 555
21.14373 533
21.16384 559
21.18395 557
21.20407 540
21.22418 545
21.2443 581
21.26441 583
21.28452 526
21.30464 554
21.32475 533
21.34486 532
21.36498 559
21.38509 555
21.40521 577
21.42532 501
21.44543 555
21.46555 511
21.48566 522
21.50577 469
21.52589 526
21.546 531
21.56612 542
21.58623 512
21.60634 502
21.62646 536
21.64657 499
21.66668 487
21.6868 520
21.70691 531
21.72702 531
21.74714 488
21.76725 454
21.78737 502
21.80748 470
21.82759 457
21.84771 447
21.86782 512
21.88793 555
21.90805 487
21.92816 543
21.94828 549
21.96839 562
21.9885 574
22.00862 579
22.02873 560
22.04884 577
22.06896 550
22.08907 509
22.10919 469
22.1293 463
22.14941 487
22.16953 477
22.18964 503
22.20975 466
22.22987 482
22.24998 479
22.27009 476
22.29021 505
22.31032 533
22.33044 502
22.35055 478
22.37066 482
22.39078 443
22.41089 490
22.431 488
22.45112 518
22.47123 487
22.49135 480
22.51146 520
22.53157 443
22.55169 483
22.5718 456
22.59191 474
22.61203 434
22.63214 518
22.65225 467
22.67237 474
22.69248 468
22.7126 516
22.73271 460
22.75282 469
22.77294 445
22.79305 505
22.81316 466
22.83328 455
22.85339 513
22.87351 476
22.89362 493
22.91373 540
22.93385 511
22.95396 539
22.97407 580
22.99419 587
23.0143 609
23.03442 633
23.05453 615
23.07464 672
23.09476 627
23.11487 635
23.13498 590
23.1551 527
23.17521 558
23.19532 536
23.21544 526
23.23555 491
23.25567 509
23.27578 519
23.29589 513
23.31601 435
23.33612 474
23.35623 484
23.37635 487
23.39646 492
23.41658 434
23.43669 505
23.4568 502
23.47692 526
23.49703 501
23.51714 566
23.53726 532
23.55737 483
23.57749 524
23.5976 520
23.61771 473
23.63783 453
23.65794 455
23.67805 501
23.69817 457
23.71828 429
23.73839 493
23.75851 473
23.77862 469
23.79874 495
23.81885 481
23.83896 464
23.85908 467
23.87919 496
23.8993 533
23.91942 526
23.93953 525
23.95965 506
23.97976 553
23.99987 509
24.01999 496
24.0401 578
24.06021 521
24.08033 546
24.10044 529
24.12056 510
24.14067 524
24.16078 562
24.1809 536
24.20101 543
24.22112 571
24.24124 563
24.26135 520
24.28146 556
24.30158 569
24.32169 512
24.34181 511
24.36192 494
24.38203 473
24.40215 471
24.42226 517
24.44237 455
24.46249 490
24.4826 470
24.50272 459
24.52283 504
24.54294 486
24.56306 498
24.58317 511
24.60328 481
24.6234 466
24.64351 437
24.66362 483
24.68374 492
24.70385 461
24.72397 479
24.74408 465
24.76419 458
24.78431 460
24.80442 468
24.82453 437
24.84465 459
24.86476 491
24.88488 525
24.90499 487
24.9251 493
24.94522 498
24.96533 491
24.98544 498
25.00556 466
25.02567 494
25.04579 465
25.0659 489
25.08601 496
25.10613 497
25.12624 491
25.14635 517
25.16647 464
25.18658 470
25.20669 496
25.22681 492
25.24692 508
25.26704 522
25.28715 495
25.30726 505
25.32738 513
25.34749 517
25.3676 515
25.38772 511
25.40783 525
25.42795 531
25.44806 524
25.46817 584
25.48829 517
25.5084 540
25.52851 544
25.54863 545
25.56874 548
25.58886 536
25.60897 578
25.62908 557
25.6492 514
25.66931 502
25.68942 503
25.70954 487
25.72965 540
25.74976 511
25.76988 474
25.78999 479
25.81011 488
25.83022 503
25.85033 534
25.87045 513
25.89056 443
25.91067 497
25.93079 498
25.9509 468
25.97102 452
25.99113 475
26.01124 501
26.03136 516
26.05147 493
26.07158 559
26.0917 563
26.11181 562
26.13193 549
26.15204 576
26.17215 566
26.19227 591
26.21238 578
26.23249 601
26.25261 579
26.27272 666
26.29283 678
26.31295 718
26.33306 750
26.35318 783
26.37329 775
26.3934 891
26.41352 994
26.43363 1138
26.45374 1359
26.47386 1700
26.49397 2049
26.51409 2616
26.5342 3379
26.55431 3934
26.57443 4448
26.59454 4660
26.61465 4446
26.63477 4115
26.65488 3253
26.67499 2674
26.69511 2117
26.71522 1558
26.73534 1276
26.75545 926
26.77556 821
26.79568 753
26.81579 733
26.8359 701
26.85602 680
26.87613 651
26.89625 677
26.91636 694
26.93647 656
26.95659 640
26.9767 658
26.99681 640
27.01693 682
27.03704 618
27.05716 675
27.07727 641
27.09738 630
27.1175 576
27.13761 598
27.15772 515
27.17784 551
27.19795 582
27.21806 558
27.23818 611
27.25829 614
27.27841 609
27.29852 639
27.31863 668
27.33875 696
27.35886 691
27.37897 721
27.39909 773
27.4192 703
27.43932 813
27.45943 761
27.47954 732
27.49966 726
27.51977 680
27.53988 683
27.56 665
27.58011 627
27.60023 621
27.62034 661
27.64045 666
27.66057 676
27.68068 662
27.70079 696
27.72091 666
27.74102 736
27.76113 730
27.78125 757
27.80136 708
27.82148 744
27.84159 670
27.8617 764
27.88182 780
27.90193 755
27.92204 780
27.94216 666
27.96227 732
27.98239 714
28.0025 661
28.02261 612
28.04273 643
28.06284 584
28.08295 624
28.10307 592
28.12318 559
28.1433 568
28.16341 553
28.18352 552
28.20364 566
28.22375 512
28.24386 538
28.26398 553
28.28409 553
28.3042 537
28.32432 493
28.34443 533
28.36455 483
28.38466 540
28.40477 483
28.42489 488
28.445 509
28.46511 475
28.48523 500
28.50534 522
28.52546 493
28.54557 498
28.56568 478
28.5858 481
28.60591 502
28.62602 472
28.64614 539
28.66625 499
28.68636 485
28.70648 513
28.72659 520
28.74671 459
28.76682 494
28.78693 483
28.80705 439
28.82716 484
28.84727 524
28.86739 499
28.8875 483
28.90762 490
28.92773 506
28.94784 488
28.96796 483
28.98807 515
29.00818 537
29.0283 462
29.04841 475
29.06853 519
29.08864 539
29.10875 534
29.12887 560
29.14898 597
29.16909 579
29.18921 566
29.20932 684
29.22943 687
29.24955 775
29.26966 805
29.28978 976
29.30989 1187
29.33 1361
29.35012 1638
29.37023 1786
29.39034 2026
29.41046 2132
29.43057 2258
29.45069 2192
29.4708 2062
29.49091 1871
29.51103 1638
29.53114 1396
29.55125 1202
29.57137 986
29.59148 815
29.6116 745
29.63171 667
29.65182 644
29.67194 598
29.69205 614
29.71216 591
29.73228 551
29.75239 554
29.7725 566
29.79262 537
29.81273 503
29.83285 514
29.85296 499
29.87307 489
29.89319 511
29.9133 486
29.93341 479
29.95353 454
29.97364 542
29.99376 503
30.01387 476
30.03398 522
30.0541 502
30.07421 519
30.09432 510
30.11444 497
30.13455 546
30.15467 486
30.17478 499
30.19489 498
30.21501 448
30.23512 471
30.25523 498
30.27535 537
30.29546 470
30.31557 459
30.33569 505
30.3558 467
30.37592 494
30.39603 463
30.41614 453
30.43626 472
30.45637 469
30.47648 446
30.4966 430
30.51671 435
30.53683 425
30.55694 463
30.57705 458
30.59717 461
30.61728 438
30.63739 426
30.65751 469
30.67762 465
30.69773 436
30.71785 465
30.73796 479
30.75808 420
30.77819 457
30.7983 444
30.81842 502
30.83853 430
30.85864 459
30.87876 420
30.89887 439
30.91899 434
30.9391 409
30.95921 421
30.97933 404
30.99944 405
31.01955 411
31.03967 418
31.05978 400
31.0799 408
31.10001 409
31.12012 371
31.14024 416
31.16035 413
31.18046 429
31.20058 429
31.22069 415
31.2408 408
31.26092 429
31.28103 392
31.30115 394
31.32126 433
31.34137 426
31.36149 394
31.3816 417
31.40171 406
31.42183 430
31.44194 448
31.46206 455
31.48217 447
31.50228 470
31.5224 474
31.54251 470
31.56262 412
31.58274 406
31.60285 347
31.62297 397
31.64308 409
31.66319 386
31.68331 394
31.70342 376
31.72353 382
31.74365 435
31.76376 385
31.78387 401
31.80399 405
31.8241 403
31.84422 398
31.86433 388
31.88444 368
31.90456 384
31.92467 392
31.94478 393
31.9649 418
31.98501 384
32.00513 412
32.02524 403
32.04535 406
32.06547 414
32.08558 426
32.10569 408
32.12581 403
32.14592 423
32.16604 408
32.18615 390
32.20626 376
32.22638 412
32.24649 401
32.2666 371
32.28672 374
32.30683 386
32.32694 398
32.34706 477
32.36717 423
32.38729 394
32.4074 394
32.42751 428
32.44763 428
32.46774 432
32.48785 353
32.50797 419
32.52808 410
32.5482 449
32.56831 388
32.58842 400
32.60854 419
32.62865 385
32.64876 378
32.66888 406
32.68899 382
32.7091 446
32.72922 440
32.74933 432
32.76945 404
32.78956 412
32.80967 390
32.82979 399
32.8499 429
32.87001 410
32.89013 435
32.91024 428
32.93036 446
32.95047 445
32.97058 447
32.9907 488
33.01081 452
33.03092 438
33.05104 452
33.07115 475
33.09127 470
33.11138 467
33.13149 467
33.15161 446
33.17172 430
33.19183 422
33.21195 438
33.23206 432
33.25217 426
33.27229 390
33.2924 465
33.31252 384
33.33263 429
33.35274 434
33.37286 414
33.39297 430
33.41308 383
33.4332 367
33.45331 437
33.47343 400
33.49354 401
33.51365 417
33.53377 409
33.55388 409
33.57399 407
33.59411 444
33.61422 415
33.63434 403
33.65445 422
33.67456 414
33.69468 415
33.71479 327
33.7349 395
33.75502 406
33.77513 398
33.79524 407
33.81536 419
33.83547 425
33.85559 411
33.8757 429
33.89581 392
33.91593 444
33.93604 426
33.95615 417
33.97627 425
33.99638 454
34.0165 465
34.03661 445
34.05672 456
34.07684 439
34.09695 490
34.11706 452
34.13718 456
34.15729 495
34.17741 463
34.19752 475
34.21763 480
34.23775 484
34.25786 527
34.27797 487
34.29809 551
34.3182 570
34.33831 551
34.35843 571
34.37854 571
34.39866 569
34.41877 543
34.43888 583
34.459 518
34.47911 578
34.49922 612
34.51934 598
34.53945 605
34.55957 587
34.57968 627
34.59979 594
34.61991 665
34.64002 574
34.66013 649
34.68025 643
34.70036 649
34.72047 629
34.74059 600
34.7607 647
34.78082 690
34.80093 691
34.82104 710
34.84116 631
34.86127 684
34.88138 640
34.9015 660
34.92161 636
34.94173 611
34.96184 722
34.98195 700
35.00207 670
35.02218 690
35.04229 693
35.06241 696
35.08252 670
35.10264 616
35.12275 649
35.14286 665
35.16298 712
35.18309 652
35.2032 622
35.22332 619
35.24343 624
35.26354 689
35.28366 666
35.30377 641
35.32389 670
35.344 648
35.36411 642
35.38423 631
35.40434 677
35.42445 690
35.44457 667
35.46468 728
35.4848 676
35.50491 673
35.52502 690
35.54514 709
35.56525 649
35.58536 712
35.60548 673
35.62559 701
35.64571 655
35.66582 684
35.68593 632
35.70605 676
35.72616 608
35.74627 576
35.76639 627
35.7865 609
35.80661 629
35.82673 610
35.84684 601
35.86696 677
35.88707 654
35.90718 716
35.9273 673
35.94741 675
35.96752 778
35.98764 748
36.00775 750
36.02787 735
36.04798 769
36.06809 715
36.08821 673
36.10832 671
36.12843 639
36.14855 595
36.16866 563
36.18878 564
36.20889 558
36.229 545
36.24912 554
36.26923 558
36.28934 518
36.30946 533
36.32957 538
36.34968 523
36.3698 573
36.38991 636
36.41003 605
36.43014 662
36.45025 690
36.47037 757
36.49048 763
36.51059 767
36.53071 726
36.55082 685
36.57094 640
36.59105 651
36.61116 582
36.63128 601
36.65139 595
36.6715 496
36.69162 532
36.71173 540
36.73184 497
36.75196 510
36.77207 541
36.79219 477
36.8123 477
36.83241 461
36.85253 465
36.87264 493
36.89275 497
36.91287 480
36.93298 498
36.9531 442
36.97321 492
36.99332 472
37.01344 486
37.03355 495
37.05366 507
37.07378 483
37.09389 442
37.11401 436
37.13412 441
37.15423 420
37.17435 444
37.19446 441
37.21457 430
37.23469 457
37.2548 471
37.27491 484
37.29503 489
37.31514 488
37.33526 488
37.35537 451
37.37548 457
37.3956 475
37.41571 446
37.43582 431
37.45594 475
37.47605 492
37.49617 455
37.51628 463
37.53639 485
37.55651 439
37.57662 450
37.59673 452
37.61685 437
37.63696 460
37.65708 446
37.67719 433
37.6973 454
37.71742 483
37.73753 463
37.75764 435
37.77776 407
37.79787 436
37.81798 427
37.8381 422
37.85821 450
37.87833 453
37.89844 418
37.91855 459
37.93867 408
37.95878 400
37.97889 447
37.99901 410
38.01912 408
38.03924 411
38.05935 418
38.07946 415
38.09958 407
38.11969 439
38.1398 406
38.15992 405
38.18003 454
38.20015 419
38.22026 431
38.24037 437
38.26049 419
38.2806 412
38.30071 418
38.32083 429
38.34094 408
38.36105 423
38.38117 372
38.40128 448
38.4214 424
38.44151 442
38.46162 435
38.48174 423
38.50185 425
38.52196 446
38.54208 404
38.56219 420
38.58231 402
38.60242 441
38.62253 441
38.64265 409
38.66276 374
38.68287 428
38.70299 418
38.7231 367
38.74321 402
38.76333 414
38.78344 393
38.80356 412
38.82367 384
38.84378 415
38.8639 402
38.88401 426
38.90412 422
38.92424 441
38.94435 419
38.96447 414
38.98458 451
39.00469 398
39.02481 403
39.04492 408
39.06503 429
39.08515 417
39.10526 426
39.12538 420
39.14549 441
39.1656 451
39.18572 516
39.20583 454
39.22594 508
39.24606 483
39.26617 528
39.28628 544
39.3064 567
39.32651 646
39.34663 751
39.36674 794
39.38685 915
39.40697 853
39.42708 919
39.44719 956
39.46731 918
39.48742 882
39.50754 853
39.52765 717
39.54776 702
39.56788 666
39.58799 611
39.6081 577
39.62822 529
39.64833 492
39.66845 479
39.68856 482
39.70867 484
39.72879 475
39.7489 485
39.76901 437
39.78913 440
39.80924 424
39.82935 447
39.84947 452
39.86958 429
39.8897 415
39.90981 445
39.92992 429
39.95004 414
39.97015 427
39.99026 429
40.01038 379
40.03049 410
40.05061 432
40.07072 414
40.09083 395
40.11095 478
40.13106 443
40.15117 485
40.17129 445
40.1914 506
40.21152 506
40.23163 554
40.25174 481
40.27186 514
40.29197 534
40.31208 466
40.3322 433
40.35231 471
40.37242 468
40.39254 468
40.41265 423
40.43277 423
40.45288 428
40.47299 391
40.49311 420
40.51322 378
40.53333 475
40.55345 427
40.57356 410
40.59368 413
40.61379 404
40.6339 388
40.65402 394
40.67413 399
40.69424 434
40.71436 395
40.73447 417
40.75458 408
40.7747 439
40.79481 427
40.81493 462
40.83504 446
40.85515 437
40.87527 449
40.89538 416
40.91549 417
40.93561 407
40.95572 417
40.97584 433
40.99595 443
41.01606 436
41.03618 378
41.05629 422
41.0764 411
41.09652 398
41.11663 368
41.13675 411
41.15686 418
41.17697 399
41.19709 413
41.2172 386
41.23731 378
41.25743 403
41.27754 441
41.29765 402
41.31777 370
41.33788 397
41.358 414
41.37811 384
41.39822 376
41.41834 433
41.43845 412
41.45856 399
41.47868 388
41.49879 417
41.51891 410
41.53902 422
41.55913 414
41.57925 424
41.59936 390
41.61947 400
41.63959 432
41.6597 412
41.67982 429
41.69993 436
41.72004 448
41.74016 467
41.76027 439
41.78038 433
41.8005 443
41.82061 399
41.84072 417
41.86084 391
41.88095 374
41.90107 418
41.92118 413
41.94129 441
41.96141 388
41.98152 417
42.00163 415
42.02175 397
42.04186 352
42.06198 412
42.08209 399
42.1022 392
42.12232 399
42.14243 416
42.16254 428
42.18266 410
42.20277 420
42.22289 402
42.243 436
42.26311 466
42.28323 469
42.30334 512
42.32345 527
42.34357 516
42.36368 579
42.38379 579
42.40391 597
42.42402 552
42.44414 546
42.46425 510
42.48436 489
42.50448 492
42.52459 483
42.5447 438
42.56482 455
42.58493 412
42.60505 436
42.62516 434
42.64527 434
42.66539 423
42.6855 449
42.70561 408
42.72573 386
42.74584 370
42.76595 421
42.78607 384
42.80618 420
42.8263 383
42.84641 414
42.86652 387
42.88664 394
42.90675 432
42.92686 394
42.94698 452
42.96709 387
42.98721 399
43.00732 409
43.02743 452
43.04755 485
43.06766 472
43.08777 502
43.10789 484
43.128 528
43.14812 574
43.16823 603
43.18834 589
43.20846 656
43.22857 633
43.24868 577
43.2688 607
43.28891 599
43.30902 545
43.32914 526
43.34925 515
43.36937 443
43.38948 494
43.40959 431
43.42971 455
43.44982 414
43.46993 372
43.49005 405
43.51016 373
43.53028 382
43.55039 383
43.5705 387
43.59062 398
43.61073 410
43.63084 416
43.65096 365
43.67107 389
43.69119 355
43.7113 365
43.73141 391
43.75153 366
43.77164 351
43.79175 365
43.81187 361
43.83198 351
43.85209 380
43.87221 376
43.89232 351
43.91244 395
43.93255 383
43.95266 355
43.97278 370
43.99289 377
44.013 370
44.03312 399
44.05323 380
44.07335 369
44.09346 352
44.11357 360
44.13369 353
44.1538 349
44.17391 356
44.19403 374
44.21414 350
44.23426 349
44.25437 325
44.27448 355
44.2946 329
44.31471 369
44.33482 343
44.35494 343
44.37505 350
44.39516 324
44.41528 371
44.43539 371
44.45551 351
44.47562 357
44.49573 380
44.51585 304
44.53596 352
44.55607 342
44.57619 340
44.5963 360
44.61642 359
44.63653 333
44.65664 366
44.67676 343
44.69687 323
44.71698 355
44.7371 359
44.75721 366
44.77732 335
44.79744 365
44.81755 342
44.83767 377
44.85778 313
44.87789 368
44.89801 356
44.91812 374
44.93823 363
44.95835 367
44.97846 325
44.99858 353
45.01869 345
45.0388 331
45.05892 341
45.07903 358
45.09914 376
45.11926 343
45.13937 361
45.15949 335
45.1796 352
45.19971 374
45.21983 344
45.23994 377
45.26005 343
45.28017 368
45.30028 374
45.32039 363
45.34051 312
45.36062 394
45.38074 365
45.40085 342
45.42096 319
45.44108 391
45.46119 349
45.4813 356
45.50142 377
45.52153 353
45.54165 368
45.56176 381
45.58187 367
45.60199 425
45.6221 410
45.64221 433
45.66233 396
45.68244 454
45.70256 431
45.72267 456
45.74278 454
45.7629 451
45.78301 418
45.80312 412
45.82324 426
45.84335 442
45.86346 430
45.88358 397
45.90369 388
45.92381 387
45.94392 375
45.96403 403
45.98415 364
46.00426 371
46.02437 321
46.04449 385
46.0646 340
46.08472 372
46.10483 351
46.12494 356
46.14506 344
46.16517 355
46.18528 326
46.2054 372
46.22551 334
46.24563 363
46.26574 355
46.28585 337
46.30597 365
46.32608 325
46.34619 323
46.36631 364
46.38642 333
46.40653 345
46.42665 316
46.44676 326
46.46688 338
46.48699 337
46.5071 291
46.52722 310
46.54733 328
46.56744 322
46.58756 331
46.60767 327
46.62779 352
46.6479 310
46.66801 333
46.68813 309
46.70824 321
46.72835 370
46.74847 336
46.76858 327
46.78869 366
46.80881 327
46.82892 333
46.84904 337
46.86915 332
46.88926 329
46.90938 353
46.92949 372
46.9496 390
46.96972 362
46.98983 359
47.00995 378
47.03006 423
47.05017 432
47.07029 397
47.0904 386
47.11051 405
47.13063 406
47.15074 433
47.17086 433
47.19097 408
47.21108 406
47.2312 448
47.25131 461
47.27142 408
47.29154 427
47.31165 434
47.33176 408
47.35188 487
47.37199 442
47.39211 434
47.41222 473
47.43233 455
47.45245 500
47.47256 564
47.49267 539
47.51279 569
47.5329 558
47.55302 579
47.57313 586
47.59324 583
47.61336 565
47.63347 607
47.65358 525
47.6737 482
47.69381 452
47.71393 497
47.73404 464
47.75415 421
47.77427 418
47.79438 407
47.81449 385
47.83461 409
47.85472 361
47.87483 381
47.89495 381
47.91506 345
47.93518 386
47.95529 386
47.9754 346
47.99552 320
48.01563 374
48.03574 351
48.05586 387
48.07597 317
48.09609 325
48.1162 371
48.13631 361
48.15643 372
48.17654 330
48.19665 359
48.21677 350
48.23688 380
48.257 372
48.27711 354
48.29722 394
48.31734 380
48.33745 401
48.35756 405
48.37768 384
48.39779 429
48.4179 439
48.43802 509
48.45813 480
48.47825 506
48.49836 561
48.51847 531
48.53859 592
48.5587 573
48.57881 581
48.59893 534
48.61904 585
48.63916 567
48.65927 546
48.67938 496
48.6995 513
48.71961 505
48.73972 433
48.75984 448
48.77995 402
48.80006 415
48.82018 380
48.84029 386
48.86041 370
48.88052 377
48.90063 353
48.92075 373
48.94086 354
48.96097 341
48.98109 340
49.0012 338
49.02132 319
49.04143 377
49.06154 366
49.08166 341
49.10177 352
49.12188 379
49.142 340
49.16211 342
49.18223 358
49.20234 360
49.22245 333
49.24257 362
49.26268 363
49.28279 329
49.30291 352
49.32302 368
49.34313 366
49.36325 338
49.38336 366
49.40348 345
49.42359 340
49.4437 343
49.46382 340
49.48393 322
49.50404 364
49.52416 368
49.54427 343
49.56439 347
49.5845 378
49.60461 336
49.62473 318
49.64484 375
49.66495 353
49.68507 362
49.70518 391
49.7253 381
49.74541 387
49.76552 375
49.78564 359
49.80575 394
49.82586 364
49.84598 378
49.86609 405
49.8862 416
49.90632 453
49.92643 440
49.94655 487
49.96666 528
49.98677 549
50.00689 662
50.027 681
50.04711 732
50.06723 736
50.08734 728
50.10746 672
50.12757 632
50.14768 616
50.1678 575
50.18791 545
50.20802 502
50.22814 505
50.24825 476
50.26837 482
50.28848 427
50.30859 406
50.32871 374
50.34882 338
50.36893 376
50.38905 353
50.40916 362
50.42927 392
50.44939 351
50.4695 378
50.48962 402
50.50973 367
50.52984 395
50.54996 368
50.57007 380
50.59018 360
50.6103 355
50.63041 355
50.65053 356
50.67064 376
50.69075 352
50.71087 330
50.73098 330
50.75109 332
50.77121 364
50.79132 322
50.81143 336
50.83155 367
50.85166 294
50.87178 354
50.89189 301
50.912 316
50.93212 330
50.95223 327
50.97234 327
50.99246 362
51.01257 339
51.03269 337
51.0528 334
51.07291 330
51.09303 303
51.11314 295
51.13325 285
51.15337 308
51.17348 350
51.1936 340
51.21371 336
51.23382 331
51.25394 317
51.27405 343
51.29416 303
51.31428 312
51.33439 322
51.3545 331
51.37462 307
51.39473 333
51.41485 306
51.43496 306
51.45507 320
51.47519 273
51.4953 304
51.51541 340
51.53553 310
51.55564 281
51.57576 341
51.59587 316
51.61598 303
51.6361 301
51.65621 315
51.67632 322
51.69644 294
51.71655 351
51.73667 318
51.75678 305
51.77689 281
51.79701 308
51.81712 321
51.83723 312
51.85735 300
51.87746 308
51.89757 333
51.91769 329
51.9378 322
51.95792 302
51.97803 307
51.99814 316
52.01826 302
52.03837 317
52.05848 314
52.0786 289
52.09871 296
52.11883 332
52.13894 326
52.15905 329
52.17917 301
52.19928 346
52.21939 320
52.23951 326
52.25962 284
52.27974 296
52.29985 300
52.31996 331
52.34008 302
52.36019 332
52.3803 311
52.40042 322
52.42053 295
52.44064 317
52.46076 323
52.48087 303
52.50099 311
52.5211 313
52.54121 316
52.56133 345
52.58144 345
52.60155 307
52.62167 330
52.64178 327
52.6619 332
52.68201 314
52.70212 323
52.72224 335
52.74235 337
52.76246 342
52.78258 344
52.80269 312
52.8228 355
52.84292 344
52.86303 299
52.88315 332
52.90326 322
52.92337 320
52.94349 350
52.9636 353
52.98371 317
53.00383 320
53.02394 329
53.04406 331
53.06417 349
53.08428 346
53.1044 365
53.12451 330
53.14462 343
53.16474 361
53.18485 359
53.20497 348
53.22508 316
53.24519 346
53.26531 384
53.28542 372
53.30553 382
53.32565 345
53.34576 361
53.36587 351
53.38599 368
53.4061 346
53.42622 366
53.44633 383
53.46644 394
53.48656 403
53.50667 362
53.52678 404
53.5469 389
53.56701 398
53.58713 380
53.60724 398
53.62735 411
53.64747 363
53.66758 410
53.68769 422
53.70781 400
53.72792 416
53.74804 372
53.76815 364
53.78826 400
53.80838 398
53.82849 379
53.8486 415
53.86872 389
53.88883 394
53.90894 436
53.92906 416
53.94917 415
53.96929 435
53.9894 408
54.00951 405
54.02963 396
54.04974 372
54.06985 395
54.08997 396
54.11008 351
54.1302 399
54.15031 404
54.17042 382
54.19054 390
54.21065 390
54.23076 404
54.25088 422
54.27099 403
54.29111 406
54.31122 371
54.33133 401
54.35145 366
54.37156 378
54.39167 374
54.41179 373
54.4319 402
54.45201 389
54.47213 378
54.49224 403
54.51236 380
54.53247 375
54.55258 401
54.5727 402
54.59281 400
54.61292 374
54.63304 398
54.65315 416
54.67327 484
54.69338 424
54.71349 412
54.73361 461
54.75372 462
54.77383 481
54.79395 484
54.81406 514
54.83417 493
54.85429 476
54.8744 444
54.89452 428
54.91463 451
54.93474 409
54.95486 461
54.97497 418
54.99508 398
55.0152 416
55.03531 434
55.05543 370
55.07554 372
55.09565 388
55.11577 405
55.13588 392
55.15599 391
55.17611 403
55.19622 387
55.21634 431
55.23645 417
55.25656 420
55.27668 383
55.29679 419
55.3169 385
55.33702 402
55.35713 383
55.37724 392
55.39736 398
55.41747 395
55.43759 393
55.4577 376
55.47781 372
55.49793 357
55.51804 355
55.53815 339
55.55827 365
55.57838 364
55.5985 353
55.61861 367
55.63872 357
55.65884 377
55.67895 339
55.69906 315
55.71918 339
55.73929 328
55.75941 361
55.77952 359
55.79963 347
55.81975 381
55.83986 375
55.85997 333
55.88009 348
55.9002 333
55.92031 364
55.94043 365
55.96054 339
55.98066 380
56.00077 318
56.02088 359
56.041 344
56.06111 351
56.08122 329
56.10134 371
56.12145 356
56.14157 316
56.16168 330
56.18179 322
56.20191 365
56.22202 343
56.24213 370
56.26225 330
56.28236 339
56.30248 358
56.32259 380
56.3427 332
56.36282 367
56.38293 364
56.40304 326
56.42316 328
56.44327 349
56.46338 335
56.4835 345
56.50361 368
56.52373 336
56.54384 346
56.56395 381
56.58407 378
56.60418 382
56.62429 364
56.64441 359
56.66452 404
56.68464 424
56.70475 386
56.72486 403
56.74498 384
56.76509 376
56.7852 417
56.80532 373
56.82543 364
56.84554 354
56.86566 344
56.88577 370
56.90589 352
56.926 356
56.94611 340
56.96623 339
56.98634 381
57.00645 346
57.02657 369
57.04668 351
57.0668 347
57.08691 353
57.10702 360
57.12714 357
57.14725 381
57.16736 366
57.18748 382
57.20759 363
57.22771 363
57.24782 360
57.26793 336
57.28805 350
57.30816 420
57.32827 414
57.34839 395
57.3685 427
57.38861 429
57.40873 425
57.42884 439
57.44896 464
57.46907 482
57.48918 469
57.5093 459
57.52941 406
57.54952 448
57.56964 434
57.58975 422
57.60987 421
57.62998 403
57.65009 400
57.67021 404
57.69032 376
57.71043 371
57.73055 361
57.75066 387
57.77078 334
57.79089 334
57.811 357
57.83112 347
57.85123 317
57.87134 345
57.89146 331
57.91157 344
57.93168 357
57.9518 318
57.97191 347
57.99203 327
58.01214 347
58.03225 313
58.05237 344
58.07248 349
58.09259 343
58.11271 370
58.13282 329
58.15294 299
58.17305 365
58.19316 331
58.21328 331
58.23339 327
58.2535 335
58.27362 324
58.29373 372
58.31385 353
58.33396 315
58.35407 311
58.37419 346
58.3943 347
58.41441 357
58.43453 369
58.45464 327
58.47475 294
58.49487 322
58.51498 332
58.5351 326
58.55521 311
58.57532 326
58.59544 363
58.61555 325
58.63566 356
58.65578 326
58.67589 333
58.69601 351
58.71612 342
58.73623 321
58.75635 307
58.77646 344
58.79657 350
58.81669 354
58.8368 315
58.85691 334
58.87703 342
58.89714 324
58.91726 341
58.93737 352
58.95748 338
58.9776 341
58.99771 328
59.01782 315
59.03794 349
59.05805 363
59.07817 323
59.09828 289
59.11839 335
59.13851 329
59.15862 331
59.17873 303
59.19885 320
59.21896 339
59.23908 322
59.25919 320
59.2793 330
59.29942 316
59.31953 350
59.33964 373
59.35976 328
59.37987 346
59.39998 351
59.4201 315
59.44021 308
59.46033 301
59.48044 327
59.50055 322
59.52067 326
59.54078 342
59.56089 330
59.58101 366
59.60112 362
59.62124 372
59.64135 360
59.66146 377
59.68158 361
59.70169 417
59.7218 389
59.74192 410
59.76203 423
59.78215 446
59.80226 485
59.82237 521
59.84249 554
59.8626 579
59.88271 580
59.90283 586
59.92294 553
59.94305 530
59.96317 504
59.98328 474
60.0034 463
60.02351 450
60.04362 430
60.06374 419
60.08385 445
60.10396 418
60.12408 362
60.14419 365
60.16431 398
60.18442 342
60.20453 365
60.22465 354
60.24476 342
60.26487 357
60.28499 343
60.3051 345
60.32522 355
60.34533 330
60.36544 350
60.38556 345
60.40567 343
60.42578 314
60.4459 377
60.46601 374
60.48612 368
60.50624 350
60.52635 358
60.54647 389
60.56658 312
60.58669 357
60.60681 375
60.62692 389
60.64703 382
60.66715 390
60.68726 369
60.70738 397
60.72749 402
60.7476 404
60.76772 380
60.78783 375
60.80794 387
60.82806 410
60.84817 395
60.86828 432
60.8884 356
60.90851 391
60.92863 398
60.94874 376
60.96885 381
60.98897 407
61.00908 395
61.02919 418
61.04931 406
61.06942 405
61.08954 391
61.10965 411
61.12976 407
61.14988 443
61.16999 454
61.1901 421
61.21022 441
61.23033 426
61.25045 412
61.27056 464
61.29067 456
61.31079 443
61.3309 462
61.35101 492
61.37113 491
61.39124 429
61.41135 456
61.43147 492
61.45158 445
61.4717 531
61.49181 517
61.51192 494
61.53204 479
61.55215 523
61.57226 512
61.59238 470
61.61249 477
61.63261 439
61.65272 505
61.67283 462
61.69295 489
61.71306 475
61.73317 439
61.75329 475
61.7734 436
61.79352 437
61.81363 444
61.83374 436
61.85386 418
61.87397 403
61.89408 418
61.9142 399
61.93431 402
61.95442 429
61.97454 375
61.99465 410
62.01477 386
62.03488 379
62.05499 435
62.07511 430
62.09522 441
62.11533 361
62.13545 390
62.15556 388
62.17568 405
62.19579 385
62.2159 383
62.23602 400
62.25613 366
62.27624 417
62.29636 401
62.31647 391
62.33659 390
62.3567 376
62.37681 372
62.39693 390
62.41704 338
62.43715 378
62.45727 392
62.47738 402
62.49749 386
62.51761 336
62.53772 375
62.55784 383
62.57795 332
62.59806 386
62.61818 321
62.63829 365
62.6584 391
62.67852 352
62.69863 361
62.71875 356
62.73886 340
62.75897 355
62.77909 369
62.7992 359
62.81931 343
62.83943 339
62.85954 345
62.87965 355
62.89977 313
62.91988 320
62.94 350
62.96011 341
62.98022 331
63.00034 347
63.02045 359
63.04056 330
63.06068 351
63.08079 334
63.10091 364
63.12102 320
63.14113 310
63.16125 334
63.18136 352
63.20147 348
63.22159 391
63.2417 340
63.26182 379
63.28193 316
63.30204 318
63.32216 333
63.34227 326
63.36238 321
63.3825 295
63.40261 305
63.42272 334
63.44284 321
63.46295 305
63.48307 344
63.50318 323
63.52329 354
63.54341 316
63.56352 310
63.58363 333
63.60375 303
63.62386 329
63.64398 312
63.66409 342
63.6842 309
63.70432 315
63.72443 292
63.74454 335
63.76466 313
63.78477 326
63.80489 329
63.825 364
63.84511 349
63.86523 340
63.88534 311
63.90545 347
63.92557 359
63.94568 394
63.96579 390
63.98591 393
64.00602 327
64.02614 373
64.04625 338
64.06636 362
64.08648 369
64.10659 363
64.1267 365
64.14682 362
64.16693 334
64.18705 330
64.20716 323
64.22727 344
64.24739 314
64.2675 301
64.28761 346
64.30773 296
64.32784 310
64.34796 284
64.36807 325
64.38818 319
64.4083 340
64.42841 293
64.44852 288
64.46864 304
64.48875 303
64.50886 340
64.52898 316
64.54909 328
64.56921 322
64.58932 345
64.60943 335
64.62955 345
64.64966 357
64.66977 370
64.68989 352
64.71 376
64.73012 364
64.75023 370
64.77034 398
64.79046 380
64.81057 358
64.83068 356
64.8508 381
64.87091 343
64.89102 371
64.91114 381
64.93125 364
64.95137 342
64.97148 336
64.99159 351
65.01171 339
65.03182 349
65.05193 336
65.07205 335
65.09216 322
65.11228 295
65.13239 310
65.1525 315
65.17262 316
65.19273 311
65.21284 287
65.23296 319
65.25307 306
65.27319 292
65.2933 293
65.31341 313
65.33353 316
65.35364 320
65.37375 304
65.39387 313
65.41398 295
65.43409 289
65.45421 301
65.47432 306
65.49444 307
65.51455 317
65.53466 316
65.55478 336
65.57489 331
65.595 311
65.61512 325
65.63523 313
65.65535 317
65.67546 315
65.69557 334
65.71569 322
65.7358 329
65.75591 335
65.77603 338
65.79614 333
65.81626 333
65.83637 326
65.85648 321
65.8766 310
65.89671 329
65.91682 305
65.93694 317
65.95705 304
65.97716 293
65.99728 313
66.01739 296
66.03751 302
66.05762 302
66.07773 292
66.09785 287
66.11796 305
66.13807 290
66.15819 295
66.1783 295
66.19842 283
66.21853 307
66.23864 329
66.25876 300
66.27887 318
66.29898 283
66.3191 314
66.33921 290
66.35933 300
66.37944 283
66.39955 313
66.41967 271
66.43978 290
66.45989 311
66.48001 299
66.50012 330
66.52023 313
66.54035 303
66.56046 288
66.58058 297
66.60069 295
66.6208 267
66.64092 287
66.66103 298
66.68114 319
66.70126 317
66.72137 319
66.74149 289
66.7616 302
66.78171 290
66.80183 297
66.82194 283
66.84205 280
66.86217 299
66.88228 305
66.90239 284
66.92251 316
66.94262 304
66.96274 317
66.98285 313
67.00296 317
67.02308 288
67.04319 289
67.0633 287
67.08342 288
67.10353 324
67.12365 295
67.14376 291
67.16387 308
67.18399 315
67.2041 313
67.22421 282
67.24433 253
67.26444 273
67.28456 311
67.30467 303
67.32478 283
67.3449 307
67.36501 298
67.38512 321
67.40524 311
67.42535 319
67.44546 323
67.46558 326
67.48569 364
67.50581 328
67.52592 329
67.54603 345
67.56615 363
67.58626 392
67.60637 404
67.62649 390
67.6466 455
67.66672 437
67.68683 431
67.70694 436
67.72706 394
67.74717 423
67.76728 355
67.7874 390
67.80751 357
67.82763 387
67.84774 397
67.86785 352
67.88797 377
67.90808 399
67.92819 413
67.94831 401
67.96842 405
67.98853 444
68.00865 453
68.02876 498
68.04888 475
68.06899 497
68.0891 498
68.10922 466
68.12933 450
68.14944 429
68.16956 458
68.18967 469
68.20979 497
68.2299 476
68.25001 498
68.27013 518
68.29024 454
68.31035 439
68.33047 374
68.35058 367
68.3707 351
68.39081 365
68.41092 346
68.43104 353
68.45115 332
68.47126 338
68.49138 312
68.51149 340
68.5316 320
68.55172 289
68.57183 331
68.59195 308
68.61206 340
68.63217 311
68.65229 318
68.6724 292
68.69251 309
68.71263 300
68.73274 302
68.75286 301
68.77297 290
68.79308 311
68.8132 271
68.83331 319
68.85342 297
68.87354 309
68.89365 327
68.91376 312
68.93388 319
68.95399 324
68.97411 306
68.99422 260
69.01433 272
69.03445 283
69.05456 309
69.07467 318
69.09479 292
69.1149 304
69.13502 325
69.15513 291
69.17524 320
69.19536 297
69.21547 321
69.23558 310
69.2557 280
69.27581 315
69.29593 335
69.31604 314
69.33615 316
69.35627 275
69.37638 322
69.39649 299
69.41661 318
69.43672 318
69.45683 309
69.47695 331
69.49706 308
69.51718 291
69.53729 287
69.5574 280
69.57752 261
69.59763 316
69.61774 281
69.63786 308
69.65797 312
69.67809 292
69.6982 298
69.71831 308
69.73843 326
69.75854 292
69.77865 313
69.79877 328
69.81888 315
69.839 284
69.85911 281
69.87922 288
69.89934 284
69.91945 314
69.93956 273
69.95968 297
69.97979 277
69.9999 313
70.02002 271
70.04013 290
70.06025 305
70.08036 284
70.10047 296
70.12059 305
70.1407 281
70.16081 281
70.18093 275
70.20104 318
70.22116 298
70.24127 309
70.26138 313
70.2815 317
70.30161 340
70.32172 304
70.34184 313
70.36195 300
70.38207 317
70.40218 289
70.42229 296
70.44241 306
70.46252 285
70.48263 319
70.50275 311
70.52286 311
70.54297 309
70.56309 299
70.5832 278
70.60332 306
70.62343 303
70.64354 303
70.66366 276
70.68377 293
70.70388 288
70.724 281
70.74411 293
70.76423 270
70.78434 300
70.80445 305
70.82457 297
70.84468 283
70.86479 263
70.88491 329
70.90502 291
70.92513 280
70.94525 314
70.96536 306
70.98548 317
71.00559 291
71.0257 287
71.04582 284
71.06593 297
71.08604 325
71.10616 283
71.12627 263
71.14639 282
71.1665 290
71.18661 317
71.20673 291
71.22684 304
71.24695 294
71.26707 293
71.28718 294
71.3073 297
71.32741 249
71.34752 305
71.36764 309
71.38775 264
71.40786 323
71.42798 274
71.44809 291
71.4682 294
71.48832 286
71.50843 320
71.52855 300
71.54866 283
71.56877 301
71.58889 280
71.609 310
71.62911 274
71.64923 295
71.66934 287
71.68946 279
71.70957 271
71.72968 292
71.7498 292
71.76991 281
71.79002 303
71.81014 311
71.83025 273
71.85037 304
71.87048 297
71.89059 311
71.91071 305
71.93082 263
71.95093 306
71.97105 330
71.99116 296
72.01127 303
72.03139 303
72.0515 324
72.07162 267
72.09173 291
72.11184 295
72.13196 352
72.15207 307
72.17218 299
72.1923 317
72.21241 309
72.23253 329
72.25264 314
72.27275 351
72.29287 344
72.31298 326
72.33309 312
72.35321 343
72.37332 312
72.39344 338
72.41355 327
72.43366 324
72.45378 341
72.47389 320
72.494 306
72.51412 344
72.53423 340
72.55434 337
72.57446 310
72.59457 325
72.61469 321
72.6348 336
72.65491 322
72.67503 311
72.69514 323
72.71525 301
72.73537 351
72.75548 339
72.7756 344
72.79571 313
72.81582 350
72.83594 329
72.85605 346
72.87616 341
72.89628 369
72.91639 360
72.9365 354
72.95662 350
72.97673 350
72.99685 334
73.01696 389
73.03707 318
73.05719 379
73.0773 365
73.09741 322
73.11753 373
73.13764 369
73.15776 371
73.17787 351
73.19798 347
73.2181 387
73.23821 354
73.25832 357
73.27844 346
73.29855 354
73.31867 374
73.33878 385
73.35889 348
73.37901 363
73.39912 370
73.41923 345
73.43935 352
73.45946 362
73.47957 340
73.49969 358
73.5198 313
73.53992 343
73.56003 363
73.58014 361
73.60026 360
73.62037 322
73.64048 324
73.6606 334
73.68071 317
73.70083 310
73.72094 309
73.74105 311
73.76117 327
73.78128 287
73.80139 324
73.82151 311
73.84162 302
73.86174 293
73.88185 310
73.90196 316
73.92208 325
73.94219 313
73.9623 321
73.98242 318
74.00253 292
74.02264 318
74.04276 312
74.06287 284
74.08299 309
74.1031 268
74.12321 325
74.14333 300
74.16344 313
74.18355 330
74.20367 281
74.22378 302
74.2439 309
74.26401 306
74.28412 306
74.30424 294
74.32435 288
74.34446 292
74.36458 271
74.38469 296
74.40481 286
74.42492 307
74.44503 276
74.46515 272
74.48526 288
74.50537 317
74.52549 282
74.5456 278
74.56571 303
74.58583 295
74.60594 305
74.62606 285
74.64617 301
74.66628 291
74.6864 292
74.70651 291
74.72662 313
74.74674 313
74.76685 280
74.78697 293
74.80708 293
74.82719 284
74.84731 281
74.86742 294
74.88753 272
74.90765 299
74.92776 269
74.94787 283
74.96799 294
74.9881 288
75.00822 270
