3.00117 20216.4098129674
3.02128 19429.4669888795
3.0414 19200
3.06151 18685.5720106456
3.08162 17711.2056888508
3.10174 17283.7003009318
3.12185 17128.8633243534
3.14197 16598.7685507096
3.16208 16075.7483635843
3.18219 15308.1719404627
3.20231 15229.7998969297
3.22242 14482.480568994
3.24253 14408.0397879488
3.26265 14002.4595449103
3.28276 12927.7478779179
3.30288 13165.9818292452
3.32299 12554.4054851014
3.3431 11977
3.36322 11759.7322669095
3.38333 11395.488368658
3.40344 11033.9357190726
3.42356 10457.6532364142
3.44367 10347.3122840861
3.46379 9856.31661613741
3.4839 9407
3.50401 9410.78063047214
3.52413 8638.28915499491
3.54424 8642.08600673934
3.56435 8353.37470116057
3.58447 7832.38648049174
3.60458 7739.25130256712
3.62469 7254.23072619693
3.64481 7037.00081020201
3.66492 6974.62181046369
3.68504 6426.37867136514
3.70515 6383.65000050449
3.72526 6045.53263729444
3.74538 5932.14090234521
3.76549 5657.16406055935
3.7856 5343
3.80572 5069.79460785979
3.82583 4950.93485111283
3.84595 4887.58964159183
3.86606 4584.78350203738
3.88617 4258.21856923782
3.90629 4206.07762645405
3.9264 3921
3.94651 3832.99915155685
3.96663 3750.6070424032
3.98674 3408.56579209922
4.00686 3381.94001053845
4.02697 3316.26852768454
4.04708 3141.03266175379
4.0672 3142
4.08731 2789.91373223631
4.10742 2820.94318963995
4.12754 2610.72956860942
4.14765 2624.96680139287
4.16776 2498.50770083176
4.18788 2248.12219876864
4.20799 2228.03199323826
4.22811 2099.9682902417
4.24822 2150.0852613977
4.26833 2141.77107393208
4.28845 1935.71443318479
4.30856 1934.0204406909
4.32867 1883.00347078545
4.34879 1950.96515451326
4.3689 1915
4.38902 1714.95018576861
4.40913 1808.09271245732
4.42924 1735.72875806289
4.44936 1695.70778756827
4.46947 1852.15295477299
4.48958 1522.25541792541
4.5097 1516
4.52981 1580.97562413365
4.54992 1503.03615608922
4.57004 1621.04786303521
4.59015 1491.41629029376
4.61027 1408.9847666017
4.63038 1445.01208240408
4.65049 1387.01360746225
4.67061 1379.96337257889
4.69072 1270.97380729946
4.71083 1318.99458555407
4.73095 1242.89133308483
4.75106 1292.80095113991
4.77118 1313.14584652105
4.79129 1118.01885769796
4.8114 1240
4.83152 1175.89741144368
4.85163 1126.99252266482
4.87174 1113.87507365617
4.89186 1054.91963889555
4.91197 1153.96763411278
4.93209 1057.05983594998
4.9522 1017
4.97231 1086.00640972781
4.99243 1028.90404961023
5.01254 1013.05093722833
5.03265 1023.13873762377
5.05277 929.080874843134
5.07288 931.003811805698
5.09299 875.045963328324
5.11311 841.051538472269
5.13322 985.008107691879
5.15334 875.936758870457
5.17345 951.045432798943
5.19356 861.170592693124
5.21368 862.939260330041
5.23379 905.01330549142
5.2539 809
5.27402 742.001331135343
5.29413 770.995107647856
5.31425 747.066203269162
5.33436 807.98475418338
5.35447 768.987545628528
5.37459 811.01617556773
5.3947 699
5.41481 717.051342030572
5.43493 780.88225603918
5.45504 615.817679011967
5.47516 664.80688758904
5.49527 698.075403808498
5.51538 621.026247869264
5.5355 657
5.55561 659.004747963542
5.57572 665.956354281154
5.59584 608.025572269775
5.61595 672.967047664196
5.63606 623.04172487006
5.65618 646.010794926991
5.67629 602.997760245001
5.69641 640.988867005418
5.71652 578.009773755329
5.73663 655.03805462785
5.75675 592.832220360095
5.77686 572.008441947661
5.79697 562.012025566346
5.81709 558.002764562849
5.8372 555
5.85732 570.004375400314
5.87743 566.009048307501
5.89754 573.966955167526
5.91766 556.933729444578
5.93777 605.035092382139
5.95788 516.061324099935
5.978 515
5.99811 502.010140179891
6.01823 551.039895518802
6.03834 547.01474361662
6.05845 572.976549423999
6.07857 560.009247255677
6.09868 558.029524557786
6.11879 507.016895399694
6.13891 499.995743944388
6.15902 492.023037282613
6.17913 517.955230157785
6.19925 466.046300289524
6.21936 546.915912976809
6.23948 516.037882773744
6.25959 503.010896480749
6.2797 476
6.29982 520.049821908917
6.31993 534.956457102278
6.34004 474.863299747841
6.36016 450.896424778087
6.38027 530.957066951123
6.40039 498.012725769563
6.4205 500
6.44061 465.002097958404
6.46073 502.012825889721
6.48084 467.940345955266
6.50095 472.939687378461
6.52107 503.938832448915
6.54118 520.046926997848
6.56129 434.030843171236
6.58141 441.028898242761
6.60152 491.000582732181
6.62164 457.980870475737
6.64175 474.975654815071
6.66186 460.885693892258
6.68198 542.019078205517
6.70209 447.011072294696
6.7222 515
6.74232 458.950577719727
6.76243 470.055323988169
6.78255 490.993451719861
6.80266 485.957689023808
6.82277 517.006653998083
6.84289 473.020933929187
6.863 465
6.88311 479.997926523751
6.90323 450.93700683371
6.92334 439.099797924523
6.94346 515.928440035575
6.96357 486.080071480373
6.98368 452.013218660899
7.0038 445
7.02391 443.025681358857
7.04402 513.013835280458
7.06414 457.87541667754
7.08425 443.926241933337
7.10436 475.009415333953
7.12448 457.968507376688
7.14459 516.998055585859
7.16471 447.961646577947
7.18482 433.052444794792
7.20493 483.961725166486
7.22505 407.93635513123
7.24516 458.894739076869
7.26527 448.098638843593
7.28539 406.972240610932
7.3055 506
7.32562 428.943987481203
7.34573 446.043278297612
7.36584 465.096084912086
7.38596 512.0485883399
7.40607 448.998524942304
7.42618 508.989150147497
7.4463 447
7.46641 459.019980520413
7.48653 475.964905552566
7.50664 435.969504202334
7.52675 463.879332035988
7.54687 495.002855817576
7.56698 462.046333009663
7.58709 429.004869346418
7.60721 434.000813047271
7.62732 437.027102635576
7.64743 469.996231705089
7.66755 437.964205990502
7.68766 458.94622586661
7.70778 463.018663953986
7.72789 435.011873248579
7.748 428
7.76812 449.028892943303
7.78823 464.97849314788
7.80834 426.925113160841
7.82846 422.922607453222
7.84857 470.978896797629
7.86869 449.008514174709
7.8888 445
7.90891 405.991426050283
7.92903 425.048805932336
7.94914 442.994741563517
7.96925 443.913918435103
7.98937 489.99256794391
8.00948 455.021084507637
8.0296 470
8.04971 468.992295928824
8.06982 453.994319622737
8.08994 453.986766832971
8.11005 434.93825035472
8.13016 434.902954786708
8.15028 487.014245499322
8.17039 426.009038600027
8.1905 461
8.21062 432.000758470128
8.23073 465.000497472952
8.25085 441.06149689517
8.27096 508.935419055901
8.29107 478.065606063254
8.31119 448.019705726446
8.3313 420
8.35141 484.016903609277
8.37153 461.942595449283
8.39164 451.041851306608
8.41176 468.054927909149
8.43187 421.001074219848
8.45198 464.979034575603
8.4721 453
8.49221 484.994248583621
8.51232 438.99154886548
8.53244 467.989463644578
8.55255 427.015388490986
8.57266 475.89252314977
8.59278 488.026576474995
8.61289 462.993023159755
8.63301 490.989773048218
8.65312 443.008040963312
8.67323 508.059060118273
8.69335 487.920954837077
8.71346 477.010477816343
8.73357 471.992406117897
8.75369 491.985168628443
8.7738 508
8.79392 486.017668056817
8.81403 529.012751631823
8.83414 500.98556834205
8.85426 534.924147960575
8.87437 534.069233673888
8.89448 478.023153902194
8.9146 498
8.93471 512.000106887771
8.95483 501.969942379764
8.97494 475.944834843419
8.99505 466.935274725329
9.01517 498.015436537828
9.03528 454.023211620705
9.05539 466.994772989048
9.07551 456.995184342976
9.09562 459.004245779992
9.11573 460.002388317911
9.13585 461.995852524562
9.15596 465.95439965391
9.17608 498.979233503637
9.19619 486.023038100264
9.2163 442
9.23642 447.958601189059
9.25653 386.007118099663
9.27664 460.117695815282
9.29676 470.973475825887
9.31687 489.038560062895
9.33699 438.004276474078
9.3571 466
9.37721 411.983101508171
9.39733 437.08642680172
9.41744 467.940770901185
9.43755 412.033752144681
9.45767 449.95487684539
9.47778 445.008223758802
9.4979 455
9.51801 452.980575904322
9.53812 405.991376046739
9.55824 433.027655979373
9.57835 415.957082728933
9.59846 414.003579660354
9.61858 423.951709107431
9.63869 471.010693326211
9.6588 400
9.67892 428.029767613197
9.69903 433.020175657869
9.71915 451.970243147681
9.73926 422.99139099901
9.75937 452.007741670481
9.77949 418.997631703936
9.7996 466
9.81971 445.982029502699
9.83983 428.003685030237
9.85994 440.016626832215
9.88006 443.976129149176
9.90017 462.981282355005
9.92028 450.043824453101
9.9404 407
9.96051 438.012348344754
9.98062 427.967966443307
10.00074 411.04581424186
10.02085 450.97788252177
10.04097 424.029457941866
10.06108 443.951310346457
10.08119 472.015967116634
10.10131 408.98740038452
10.12142 440.037425337834
10.14153 431.915941771355
10.16165 385.056316294446
10.18176 452.943156762279
10.20187 421.043751808684
10.22199 431.987288986275
10.2421 450
10.26222 454.987329199512
10.28233 445.032658843924
10.30244 480.000760239686
10.32256 450.016444952093
10.34267 472.98236410049
10.36278 453.029690340245
10.3829 436
10.40301 434.994791956555
10.42313 414.973552422224
10.44324 419.066656226023
10.46335 451.020913350494
10.48347 409.04471927772
10.50358 424.95016425466
10.52369 471.990808862073
10.54381 463.996576005864
10.56392 460.976212178941
10.58403 441.049993201109
10.60415 502.032806107506
10.62426 453.099688878755
10.64438 439.001548402324
10.66449 434.000378989967
10.6846 430
10.70472 407.009411646461
10.72483 448.057882215762
10.74494 451.940701719337
10.76506 418.018592213505
10.78517 437.961974109886
10.80529 448.001272700903
10.8254 436
10.84551 427.012130886047
10.86563 458.989023859134
10.88574 416.949614956658
10.90585 437.887106302197
10.92597 468.004967729852
10.94608 445.010759595909
10.9662 454
10.98631 437.985987025067
11.00642 438.059965065671
11.02654 498.940516740537
11.04665 408.07525492018
11.06676 461.919976451568
11.08688 449.00718567274
11.10699 464.00265133961
11.1271 442
11.14722 465.980957114807
11.16733 404.936811279158
11.18745 417.104146062608
11.20756 452.963113606651
11.22767 451.021549980648
11.24779 449.984936722196
11.2679 484
11.28801 438.983967889942
11.30813 455.074348052439
11.32824 485.948117767857
11.34836 432.02824669284
11.36847 466.960833558391
11.38858 459.00956967038
11.4087 465
11.42881 456.989433454376
11.44892 440.003744081508
11.46904 453.994513076099
11.48915 441.967155360506
11.50927 470.998736248059
11.52938 447.998388634678
11.54949 466.011173743463
11.56961 421.003682406624
11.58972 490.064761292722
11.60983 504.976160791033
11.62995 483.95195462151
11.65006 481.951813681174
11.67017 499.048443298684
11.69029 449.995011885508
11.7104 520
11.73052 513.961208695778
11.75063 484.993670391052
11.77074 504.052062229815
11.79086 509.056430359599
11.81097 486.94605565416
11.83108 554.978763146449
11.8512 511
11.87131 503.009707572209
11.89143 531.046501980819
11.91154 552.005580862749
11.93165 550.956570073276
11.95177 585.95647084496
11.97188 585.031853038378
11.99199 556.994021093923
12.01211 593.003871855621
12.03222 581.028612595965
12.05234 636.012561762594
12.07245 594.968591800398
12.09256 638.894755880986
12.11268 670.971353772384
12.13279 704.985083309988
12.1529 728
12.17302 738.982895324861
12.19313 708.984128660251
12.21324 744.149364524729
12.23336 808.980454652701
12.25347 786.979250904129
12.27359 828.004371842621
12.2937 778
12.31381 835.026086940326
12.33393 831.936923960729
12.35404 787.951278003238
12.37415 796.912689734405
12.39427 826.002947723533
12.41438 785.06259377889
12.4345 720
12.45461 694.023455466415
12.47472 757.989814503803
12.49484 674.873469906687
12.51495 669.997710991347
12.53506 636.11253817965
12.55518 587.023445200158
12.57529 580.008623558321
12.5954 547
12.61552 548.029526357359
12.63563 568.961742722719
12.65575 501.837043140508
12.67586 482.940413451904
12.69597 521.990907738222
12.71609 502.997015330098
12.7362 530
12.75631 481.977856658722
12.77643 472.015320201671
12.79654 488.042826750991
12.81666 513.941716821259
12.83677 524.046207396425
12.85688 462.060810119717
12.877 441
12.89711 480.00474134235
12.91722 454.977509909838
12.93734 448.97600771908
12.95745 435.965575275229
12.97757 465.988570509642
12.99768 451.996317120368
13.01779 467.009730929672
13.03791 429.002831449745
13.05802 470.005910314105
13.07813 428.955651704624
13.09825 435.020261242001
13.11836 426.023498524257
13.13847 428.968542151644
13.15859 448.003296136917
13.1787 411
13.19882 374.981803170045
13.21893 388.078841931006
13.23904 454.08793821232
13.25916 457.045176896002
13.27927 424.064916927912
13.29938 400.971462317767
13.3195 445
13.33961 395.995254704091
13.35973 442.056453493932
13.37984 433.944050255078
13.39995 410.052491984155
13.42007 400.979354045985
13.44018 428.977521114769
13.46029 423.0189706449
13.48041 377.988584066468
13.50052 394.042835005228
13.52064 434.037326362325
13.54075 426.951815694762
13.56086 402.073513902742
13.58098 386.952776281521
13.60109 456.994130775768
13.6212 397
13.64132 383.024075296402
13.66143 411.014529332853
13.68154 403.999425330608
13.70166 417.975568166053
13.72177 417.014788433862
13.74189 415.989353000416
13.762 439
13.78211 415.007293591174
13.80223 459.016654247227
13.82234 410.857133893101
13.84245 383.873079599942
13.86257 460.973445450639
13.88268 409.046449107451
13.9028 409
13.92291 414.005120049118
13.94302 421.985072818991
13.96314 400.015289569379
13.98325 420.053823351568
14.00336 374.992176506644
14.02348 432.955956212872
14.04359 428.010901722503
14.06371 431.018635886696
14.08382 462.977170228459
14.10393 399.941874683218
14.12405 412.064886998813
14.14416 425.975327862437
14.16427 436.005864424508
14.18439 409.023650744533
14.2045 369
14.22461 386.002937055686
14.24473 386.051119450829
14.26484 426.960720141966
14.28496 361.059345393356
14.30507 393.939597863169
14.32518 401.011941585841
14.3453 401
14.36541 442.010187998491
14.38552 428.973495649686
14.40564 406.962329952473
14.42575 394.998760810219
14.44587 404.983522437398
14.46598 406.011585244123
14.48609 374.028547401027
14.50621 335.014078511911
14.52632 403.031167020478
14.54643 378.967325582541
14.56655 396.088263869323
14.58666 408.065680866949
14.60677 366.985987866837
14.62689 427.972653963691
14.647 425
14.66712 373.001307270889
14.68723 409.003416925842
14.70734 379.01439847407
14.72746 418.008776121416
14.74757 376.993732877354
14.76768 426.985863348239
14.7878 379
14.80791 360.00194911134
14.82803 363.991149806762
14.84814 361.045340603209
14.86825 406.89229825381
14.88837 415.051256688664
14.90848 368.022511062674
14.92859 375.996178338806
14.94871 368.997466492781
14.96882 382.030604379225
14.98894 407.998096847188
15.00905 388.984586938608
15.02916 399.9964846922
15.04928 396.976990974175
15.06939 432.997702179863
15.0895 392
15.10962 356.993505743977
15.12973 372.03394531979
15.14984 388.016987304499
15.16996 398.952499467152
15.19007 415.034561466203
15.21019 371.00741736703
15.2303 399
15.25041 392.971083688515
15.27053 342.040062523481
15.29064 413.022451579886
15.31075 359.05163729291
15.33087 409.906493019512
15.35098 415.061495540256
15.3711 347
15.39121 392.004511838421
15.41132 358.000655327404
15.43144 404.048772112839
15.45155 387.029148604461
15.47166 390.039199003402
15.49178 358.993262624974
15.51189 399.988844389915
15.53201 376.978903813822
15.55212 363.036130161933
15.57223 412.00342104014
15.59235 362.885829842727
15.61246 365.913804217403
15.63257 403.010792060473
15.65269 375.992047250911
15.6728 425
15.69291 385.988651865911
15.71303 396.997175252832
15.73314 357.892696520473
15.75326 331.954716925096
15.77337 385.929607806296
15.79348 402.998283591904
15.8136 390
15.83371 352.006616961
15.85382 390.9919108613
15.87394 350.026010487921
15.89405 412.946417337571
15.91417 368.067656719191
15.93428 369.969446817812
15.95439 404.983397359116
15.97451 417.9899456646
15.99462 375.960601210063
16.01473 368.042891711524
16.03485 407.044255851318
16.05496 392.055502817364
16.07508 377.993219729389
16.09519 385.010180805704
16.1153 357
16.13542 398.010861969288
16.15553 371.98352138004
16.17564 383.982942817072
16.19576 355.010881683868
16.21587 376.985634221348
16.23598 365.002879330751
16.2561 390
16.27621 419.000674343287
16.29633 404.998034745532
16.31644 418.002102310294
16.33655 404.014506112753
16.35667 418.962317923742
16.37678 421.043944094306
16.39689 366.003666044458
16.41701 409.018639802314
16.43712 403.971467792298
16.45724 389.034397022266
16.47735 419.011887156441
16.49746 394.04241328084
16.51758 403.964619386644
16.53769 431.004993717747
16.5578 395
16.57792 394.99126371482
16.59803 364.951168064847
16.61814 363.087213610398
16.63826 413.991912719057
16.65837 368.067902446641
16.67849 363.986169716061
16.6986 396
16.71871 394.996257442037
16.73883 387.981951500252
16.75894 367.949904751719
16.77905 365.884062309236
16.79917 427.972305734021
16.81928 392.04223089414
16.8394 377
16.85951 371.994823621816
16.87962 370.022331125043
16.89974 401.015285509985
16.91985 390.975829243166
16.93996 422.961585208491
16.96008 414.017615451936
16.98019 401.007180953375
17.00031 384.994252685354
17.02042 388.021581416003
17.04053 406.986284645356
17.06065 380.984853873935
17.08076 398.980978863015
17.10087 389.012215137061
17.12099 385.009383979883
17.1411 365
17.16121 408.020499651758
17.18133 418.978235799138
17.20144 398.980163933441
17.22156 395.034584003484
17.24167 371.006536593826
17.26178 390.977406415101
17.2819 412
17.30201 444.996534316218
17.32212 406.976329621959
17.34224 407.982549913578
17.36235 387.002552672483
17.38247 402.007576820627
17.40258 381.993561412712
17.42269 416.988043724234
17.44281 403.981805247142
17.46292 378.005283907712
17.48303 413.063447552079
17.50315 428.944003491363
17.52326 390.042311620375
17.54338 398.982218232375
17.56349 401.008588390721
17.5836 381
17.60372 404.03714113253
17.62383 437.031997952184
17.64394 436.951753409374
17.66406 400.069758462087
17.68417 385.98229771327
17.70428 412.97371953984
17.7244 428
17.74451 439.008739330158
17.76463 451.989841681048
17.78474 432.983126334056
17.80485 435.025309620136
17.82497 410.029331434301
17.84508 412.977412503814
17.86519 430.005586765507
17.88531 402.996183338405
17.90542 422.017930643036
17.92554 415.949201721826
17.94565 397.022536890826
17.96576 427.950033809456
17.98588 423.031549428786
18.00599 398.99261425405
18.0261 428
18.04622 383.991424890274
18.06633 418.026200871487
18.08645 397.950609405201
18.10656 398.99014619048
18.12667 400.986357141101
18.14679 419.98934776827
18.1669 425
18.18701 405.012356390759
18.20713 446.984247517485
18.22724 393.968013378973
18.24735 425.970759412761
18.26747 397.03258884926
18.28758 397.011423769768
18.3077 391
18.32781 462.003499692595
18.34792 400.952044737155
18.36804 409.053746502804
18.38815 421.992476355136
18.40826 415.042327118936
18.42838 391.010759908679
18.44849 394.997784941293
18.46861 404.015932299111
18.48872 436.99349446778
18.50883 399.973033989729
18.52895 412.010000751214
18.54906 392.043548008955
18.56917 395.946897275212
18.58929 437.99137706551
18.6094 418
18.62951 396.006034692434
18.64963 435.061794781059
18.66974 448.962344721748
18.68986 416.044658799875
18.70997 402.047667363106
18.73008 380.954961062184
18.7502 460
18.77031 410.973531179309
18.79042 403.017394994377
18.81054 423.03845131085
18.83065 425.071381640974
18.85077 389.009638742613
18.87088 406.999701805974
18.89099 387.998822198382
18.91111 418.011515614737
18.93122 414.986008083733
18.95133 401.977745388344
18.97145 402.086603209607
18.99156 442.008940977941
19.01168 402.017019063003
19.03179 429.981698507958
19.0519 437
19.07202 395.961703961919
19.09213 375.994208585625
19.11224 386.048038754921
19.13236 404.017489278765
19.15247 388.970444431689
19.17258 430.989745973688
19.1927 406
19.21281 423.002457043561
19.23293 405.985065126131
19.25304 406.974524926072
19.27315 388.974465832096
19.29327 426.952704647417
19.31338 430.013854211251
19.33349 422.993994290802
19.35361 454.018695403528
19.37372 464.963704109945
19.39384 419.006510546582
19.41395 460.022206995359
19.43406 420.071222862058
19.45418 435.937947926077
19.47429 484.010882729777
19.4944 432
19.51452 492.995408055843
19.53463 431.002508866127
19.55475 505.085667441622
19.57486 467.062712742302
19.59497 471.015453024135
19.61509 452.984533037125
19.6352 529
19.65531 539.995186600624
19.67543 545.040109850492
19.69554 595.134089821064
19.71565 649.955180531007
19.73577 638.01640240515
19.75588 652.965285941147
19.776 692
19.79611 739.044671319127
19.81622 834.03335524251
19.83634 806.959793789526
19.85645 834.8756730388
19.87656 871.969954637143
19.89668 869.008081945552
19.91679 859.010729971851
19.93691 829.988774118763
19.95702 825.009837147274
19.97713 813.902906613999
19.99725 724.875796178595
20.01736 727.985688159186
20.03747 718.994861652806
20.05759 730.007507045449
20.0777 705
20.09782 743.997140221923
20.11793 700.976474340461
20.13804 737.090175633576
20.15816 741.090337269397
20.17827 691.998276290476
20.19838 730.989689102356
20.2185 701
20.23861 712.998621840083
20.25872 682.972517981015
20.27884 686.064482529613
20.29895 733.87453497737
20.31907 761.014451975731
20.33918 731.020319333538
20.35929 729.002340236119
20.37941 724.009088461461
20.39952 762.030550682393
20.41963 762.963842571987
20.43975 743.022823664943
20.45986 768.989075316837
20.47998 741.037044506084
20.50009 720.001753783635
20.5202 718
20.54032 700.014396586094
20.56043 741.043330648513
20.58054 763.116074550605
20.60066 837.944429870347
20.62077 822.986252321946
20.64088 872.960233011668
20.661 857
20.68111 812.022411662696
20.70123 959.288176640474
20.72134 1120.2119536325
20.74145 1239.44926477415
20.76157 1612.27772885763
20.78168 2115.53223552886
20.80179 2579.73292460437
20.82191 3158.25288718226
20.84202 3475.11374997438
20.86214 3433.72418604413
20.88225 3165.79297927607
20.90236 2523.2911823802
20.92248 1976.48172085434
20.94259 1519.21097084991
20.9627 1151
20.98282 949.896701862917
21.00293 900.94084699899
21.02305 829.756653054787
21.04316 763.95925663121
21.06327 831.966200158977
21.08339 780.031112899569
21.1035 761
21.12361 780.002032734633
21.14373 751.913351236805
21.16384 722.107915690426
21.18395 810.95613182342
21.20407 752.052420172158
21.22418 780.96755770196
21.2443 791
21.26441 802.973340863726
21.28452 739.036382111428
21.30464 844.061051159684
21.32475 783.06765986788
21.34486 816.011776676791
21.36498 752.041321182513
21.38509 762.993572999198
21.40521 757.002422520223
21.42532 774.000661805959
21.44543 750.961701312569
21.46555 746.045033077829
21.48566 752.08660053801
21.50577 701.964230659207
21.52589 773.993538688559
21.546 703
21.56612 679.996362038504
21.58623 676.009592343616
21.60634 690.015970091586
21.62646 673.093990294139
21.64657 626.016256923398
21.66668 640.008449020768
21.6868 599
21.70691 605.023617135128
21.72702 643.981159577402
21.74714 605.056055450742
21.76725 671.03204452056
21.78737 581.072516765261
21.80748 618.949435180082
21.82759 632.000838374777
21.84771 626.990026546679
21.86782 592.965000852341
21.88793 578.02064449578
21.90805 605.03978642397
21.92816 594.05918903722
21.94828 579.972123755778
21.96839 633.981364053752
21.9885 624
22.00862 583.995853961413
22.02873 614.048783302321
22.04884 613.926846465755
22.06896 573.016593171801
22.08907 591.993255503513
22.10919 566.015198493101
22.1293 558
22.14941 565.983894407603
22.16953 509.954831407242
22.18964 544.174966856536
22.20975 610.054181743267
22.22987 545.992837235369
22.24998 617.974080420785
22.27009 561.031674510528
22.29021 546.006287038104
22.31032 563.019001371539
22.33044 570.971969449347
22.35055 548.987779123056
22.37066 562.980645655956
22.39078 555.015933898698
22.41089 531.020701465732
22.431 500
22.45112 550.02838287564
22.47123 549.022667901063
22.49135 575.972140638271
22.51146 525.083759908412
22.53157 525.955366675047
22.55169 562.981953208959
22.5718 568
22.59191 508.998912821447
22.61203 549.001213555757
22.63214 511.009000310087
22.65225 569.891496301063
22.67237 552.083859058507
22.69248 502.022512178617
22.7126 515
22.73271 544.00323549734
22.75282 530.986482451901
22.77294 529.005745965069
22.79305 536.950539405439
22.81316 555.009053666225
22.83328 538.995462260711
22.85339 560.997904921774
22.87351 543.996850472539
22.89362 560.018113601969
22.91373 567.003681998613
22.93385 561.94491727394
22.95396 534.025231728061
22.97407 537.002777600509
22.99419 529.995927882291
23.0143 546
23.03442 530.007465100936
23.05453 550.983613738733
23.07464 510.958495337426
23.09476 515.02677191393
23.11487 497.946632055344
23.13498 561.989027571743
23.1551 503
23.17521 491.016967088246
23.19532 521.985144176119
23.21544 488.032879351349
23.23555 543.963728238836
23.25567 503.044705510137
23.27578 514.981991436224
23.29589 514.004696735973
23.31601 498.985909375947
23.33612 477.011688367237
23.35623 521.070939935824
23.37635 533.922666746191
23.39646 489.03769479426
23.41658 498.000753398436
23.43669 484.995024943767
23.4568 524
23.47692 532.979289134309
23.49703 502.972384746867
23.51714 508.039796994124
23.53726 526.979448796255
23.55737 530.988876491963
23.57749 549.985666186575
23.5976 575
23.61771 565.991102066852
23.63783 548.976530365584
23.65794 543.023572408553
23.67805 573.893158123671
23.69817 592.055156048356
23.71828 537.005724079959
23.73839 570.003140876877
23.75851 521.993123142037
23.77862 557.022693894958
23.79874 551.018856282573
23.81885 582.03621340302
23.83896 572.009508703583
23.85908 579.004478458224
23.87919 562.003564964261
23.8993 565
23.91942 552.012606559014
23.93953 574.982521492576
23.95965 534.95755465811
23.97976 565.895006682749
23.99987 600.994285357328
24.01999 570.027757076323
24.0401 532
24.06021 576.011953337466
24.08033 569.003571317678
24.10044 581.969213177114
24.12056 542.042121524966
24.14067 564.926271249104
24.16078 601.996564801771
24.1809 559
24.20101 493.998341830572
24.22112 542.043271596833
24.24124 556.030364262507
24.26135 576.006613015969
24.28146 543.086822895044
24.30158 522.981918048196
24.32169 570.972776559355
24.34181 592.986516714611
24.36192 550.993681639236
24.38203 568.971139786411
24.40215 532.066044215941
24.42226 604.958371435101
24.44237 562.030844392676
24.46249 594.984366790339
24.4826 589
24.50272 584.031798361456
24.52283 636.055804928903
24.54294 640.978603625832
24.56306 624.060020586865
24.58317 609.94242561854
24.60328 682.947816709398
24.6234 682
24.64351 653.994717959077
24.66362 684.080371237508
24.68374 765.040878479578
24.70385 723.113805220118
24.72397 712.990187666981
24.74408 732.95095856475
24.76419 786.990974689408
24.78431 768.993173722985
24.80442 776.003823237405
24.82453 787.078177090269
24.84465 853.044262458306
24.86476 815.078654619893
24.88488 793.039312436573
24.90499 750.997205855514
24.9251 791
24.94522 750.951005069631
24.96533 726.991347940208
24.98544 723.983081407916
25.00556 696.104965470215
25.02567 653.985339936794
25.04579 707.975627903811
25.0659 718
25.08601 693.982215396057
25.10613 675.041614050895
25.12624 713.969023578477
25.14635 642.159128779338
25.16647 632.956881656437
25.18658 655.012764739463
25.20669 637.981299905423
25.22681 696.994147157949
25.24692 627.979345453284
25.26704 672.040003828623
25.28715 627.849971042026
25.30726 595.018845340416
25.32738 599.985376016069
25.34749 611.000679660955
25.3676 608
25.38772 618.96624277712
25.40783 558.960742209594
25.42795 577.033521793136
25.44806 574.95982969898
25.46817 602.028880652501
25.48829 551.007145232911
25.5084 585
25.52851 574.991726362345
25.54863 572.00271801087
25.56874 582.060493073606
25.58886 616.977589641998
25.60897 594.059321330662
25.62908 567.002207023543
25.6492 583
25.66931 594.010604342331
25.68942 610.983341767389
25.70954 566.929354862412
25.72965 563.955648832098
25.74976 581.981483231463
25.76988 583.994968858864
25.78999 592.998278960334
25.81011 580.986126866117
25.83022 554.994123164066
25.85033 566.009874081487
25.87045 560.993456025674
25.89056 569.968533237717
25.91067 582.992086727106
25.93079 581.001965265723
25.9509 579
25.97102 582.012855723241
25.99113 593.992269060949
26.01124 592.075157393427
26.03136 658.903631545215
26.05147 649.091120419465
26.07158 593.998940878176
26.0917 647
26.11181 664.003528663925
26.13193 674.003273211123
26.15204 673.02206174825
26.17215 694.959590168509
26.19227 699.992901094375
26.21238 723.948571970689
26.23249 774.993343255738
26.25261 774.022368050474
26.27272 842.007847627034
26.29283 801.00624464762
26.31295 875.186307686481
26.33306 914.925474716324
26.35318 988.884172176175
26.37329 1100.97277378211
26.3934 1116
26.41352 1246.19593841156
26.43363 1456.27846331492
26.45374 1655.56478561872
26.47386 2084.88169630044
26.49397 2797.66620882758
26.51409 3878.38262477201
26.5342 5354
26.55431 7444.10581633791
26.57443 9736.64100660561
26.59454 12148.2242653291
26.61465 13649.9975669525
26.63477 13639.3117977625
26.65488 12066.0355583413
26.67499 9832.17251626376
26.69511 7539.95736148967
26.71522 5600.062755979
26.73534 3695.73203205388
26.75545 2461.77572021351
26.77556 1768.1237127243
26.79568 1308.30300601483
26.81579 1153.02994717335
26.8359 1088
26.85602 950.914670974474
26.87613 943.035047090401
26.89625 929.822552011368
26.91636 820.210983634875
26.93647 761.01546684014
26.95659 766.007409603682
26.9767 724
26.99681 689.975632395212
27.01693 639.977578007391
27.03704 642.936916053548
27.05716 586.039169801179
27.07727 615.95539767369
27.09738 599.060408692854
27.1175 546
27.13761 578.993984526262
27.15772 539.02396540901
27.17784 622.089637961494
27.19795 598.067913305586
27.21806 601.992031529844
27.23818 584.03046618856
27.25829 555.011174385735
27.27841 533.985289465591
27.29852 522.041572038854
27.31863 594.063677990309
27.33875 571.843485044682
27.35886 524.995361514549
27.37897 574.905911304872
27.39909 610.998261036318
27.4192 600
27.43932 593.953331823633
27.45943 527.960233064437
27.47954 550.04355213639
27.49966 547.00775546188
27.51977 549.013992307432
27.53988 533.000513154403
27.56 531
27.58011 493.025493191346
27.60023 600.066837723031
27.62034 559.940010078459
27.64045 567.057267512068
27.66057 515.018424919612
27.68068 554.964123994214
27.70079 554.007365056491
27.72091 552.007069937639
27.74102 565.993986270475
27.76113 545.987868876576
27.78125 556.021613494674
27.80136 549.034942350241
27.82148 538.989471706791
27.84159 552.007889693315
27.8617 525
27.88182 585.070754086572
27.90193 597.885586988153
27.92204 495.936517443646
27.94216 541.928202978594
27.96227 533.997868373612
27.98239 562.989527917815
28.0025 549
28.02261 511.994288999293
28.04273 523.012837617194
28.06284 502.900244441533
28.08295 459.992035782288
28.10307 490.002074584069
28.12318 447.03619113443
28.1433 454
28.16341 487.000553806747
28.18352 480.034556388072
28.20364 540.037995350689
28.22375 489.796407920077
28.24386 442.964952131449
28.26398 503.946379855523
28.28409 515.008514996187
28.3042 486
28.32432 450.982614291719
28.34443 448.997513727065
28.36455 446.022740163819
28.38466 469.944554503995
28.40477 486.996763638059
28.42489 475.010649895987
28.445 469
28.46511 498.987749753011
28.48523 439.973063545057
28.50534 475.050360761059
28.52546 457.063647673066
28.54557 441.994516989718
28.56568 456.982942065516
28.5858 464
28.60591 465.015864345103
28.62602 499.986775290426
28.64614 444.922494712125
28.66625 448.959742260211
28.68636 453.997247196508
28.70648 468.961924774371
28.72659 489.024639102228
28.74671 411.994586956587
28.76682 467.027166618185
28.78693 436.964734807599
28.80705 464.145610995453
28.82716 497.060973459767
28.84727 431.052659361387
28.86739 449.9848730244
28.8875 463
28.90762 468.9883219439
28.92773 453.010919554312
28.94784 467.959378326467
28.96796 426.012702927084
28.98807 454.989169178008
29.00818 433.998436921142
29.0283 455
29.04841 411.993661263617
29.06853 440.029509593465
29.08864 437.016815714533
29.10875 454.028880991095
29.12887 424.996961632429
29.14898 453.996782096887
29.16909 421.013334369806
29.18921 429.014407612239
29.20932 442.977011037851
29.22943 408.000518795646
29.24955 448.092122484098
29.26966 448.056804066974
29.28978 418.012881541539
29.30989 431.983969566233
29.33 459
29.35012 442.972882702902
29.37023 418.973163811832
29.39034 414.024416645039
29.41046 435.960833893541
29.43057 442.010770692086
29.45069 437.992402293377
29.4708 465
29.49091 467.005675824262
29.51103 480.980995166171
29.53114 441.928899662607
29.55125 437.933717678017
29.57137 483.917723013197
29.59148 504.048867879836
29.6116 428
29.63171 455.003594762416
29.65182 436.021177943638
29.67194 491.031432749445
29.69205 455.937633720899
29.71216 476.915795704821
29.73228 493.033069237888
29.75239 443.005535900773
29.7725 491
29.79262 537.006486457924
29.81273 521.992757998542
29.83285 526.957592510457
29.85296 490.045187974689
29.87307 492.990779893089
29.89319 495.99203874246
29.9133 521
29.93341 522.003411234169
29.95353 532.992213726765
29.97364 500.902070001153
29.99376 471.961672657282
30.01387 510.000739236064
30.03398 463.043691163276
30.0541 467
30.07421 507.995293856349
30.09432 464.98474604341
30.11444 494.057707822315
30.13455 490.063734432717
30.15467 474.975475866034
30.17478 503.001313985165
30.19489 464.021871305516
30.21501 452.012040154026
30.23512 480.998168256934
30.25523 454.988072492494
30.27535 470.002419069275
30.29546 446.045291471406
30.31557 452.941551013435
30.33569 475.023425561643
30.3558 407
30.37592 483.025375222791
30.39603 432.946445937303
30.41614 446.014640786321
30.43626 435.969269384162
30.45637 469.995788571926
30.47648 436.026301071682
30.4966 441
30.51671 450.002531721487
30.53683 445.968331875033
30.55694 412.937633056432
30.57705 404.941286755152
30.59717 448.932973762648
30.61728 475.990253534868
30.63739 471.008949871171
30.65751 446.98766306142
30.67762 433.003200033921
30.69773 445.008952514976
30.71785 446.0292449948
30.73796 459.021929824567
30.75808 431.01264295788
30.77819 438.000611518968
30.7983 420
30.81842 412.987700085643
30.83853 409.047487541103
30.85864 452.004514564891
30.87876 422.003585315273
30.89887 458.961152603497
30.91899 450.009020377895
30.9391 456
30.95921 475.973056655876
30.97933 381.935854132109
30.99944 419.110969093554
31.01955 442.993323764233
31.03967 439.010279822215
31.05978 427.022981238732
31.0799 419
31.10001 475.00482763613
31.12012 438.98180138957
31.14024 452.995211552586
31.16035 427.019800028979
31.18046 446.967607019825
31.20058 457.964250172991
31.22069 494.009495560401
31.2408 438
31.26092 462.00072680704
31.28103 428.983966132922
31.30115 461.098378751121
31.32126 468.060679341032
31.34137 428.024945217824
31.36149 436.997954649833
31.3816 416
31.40171 397.009410010575
31.42183 435.025544753829
31.44194 425.998762703719
31.46206 445.963861461569
31.48217 441.040485886349
31.50228 422.978659246325
31.5224 459
31.54251 416.990132356762
31.56262 433.006321950248
31.58274 415.982727342244
31.60285 430.944705817306
31.62297 448.972149967881
31.64308 458.015758239082
31.66319 423.016503240567
31.68331 409.000757961212
31.70342 405.976171851815
31.72353 392.064595273589
31.74365 464.062472428931
31.76376 430.059329618188
31.78387 434.989274616608
31.80399 429.000942214831
31.8241 423
31.84422 386.015343211914
31.86433 437.024169008486
31.88444 404.953065414949
31.90456 419.9462923954
31.92467 427.027421482875
31.94478 412.974487614579
31.9649 450
31.98501 398.997068097376
32.00513 460.103264092705
32.02524 475.919979475061
32.04535 428.010246438305
32.06547 460.982194898897
32.08558 433.028259370261
32.10569 434.988243990381
32.12581 457.002886821146
32.14592 444.983184854473
32.16604 435.99766420473
32.18615 433.971689515599
32.20626 438.889786727989
32.22638 500.01230462691
32.24649 425.023650389443
32.2666 439
32.28672 430.987825973466
32.30683 432.012812826199
32.32694 439.003800376151
32.34706 436.00837085783
32.36717 442.959860923297
32.38729 469.002244993039
32.4074 453
32.42751 491.994303259239
32.44763 433.95145909654
32.46774 464.115519322751
32.48785 501.990031609833
32.50797 484.021586690695
32.52808 486.99124840004
32.5482 481
32.56831 442.989146484087
32.58842 446.012014779693
32.60854 466.084743312614
32.62865 505.014111466537
32.64876 464.051948541249
32.66888 475.977313865426
32.68899 485.999579926331
32.7091 477
32.72922 453.995815070257
32.74933 479.068867293881
32.76945 511.984063814991
32.78956 472.082163973625
32.80967 457.985274368306
32.82979 471.000669138484
32.8499 468
32.87001 507.003550848233
32.89013 484.995299860302
32.91024 507.011351240017
32.93036 484.044688687472
32.95047 481.986184449911
32.97058 491.990685580863
32.9907 510
33.01081 538.991234293406
33.03092 504.015044573566
33.05104 567.082356445731
33.07115 556.061464322474
33.09127 540.035304949684
33.11138 524.973797424565
33.13149 573.98999954368
33.15161 551.987246965186
33.17172 550.010491628889
33.19183 554.988733047486
33.21195 535.944148530661
33.23206 509.08000676043
33.25217 486.945378531538
33.27229 546.996351244637
33.2924 487
33.31252 479.051830067933
33.33263 539.020246241156
33.35274 504.942742542797
33.37286 505.000788164344
33.39297 495.994762506193
33.41308 503.019627501928
33.4332 468
33.45331 494.013176954484
33.47343 504.01559199348
33.49354 519.013478413282
33.51365 507.070551283287
33.53377 485.988350575471
33.55388 511.988137480621
33.57399 495.01412247598
33.59411 486.011780936359
33.61422 520.008652022776
33.63434 497.954982043314
33.65445 490.987400110615
33.67456 472.069253997523
33.69468 442.999483576742
33.71479 462.997228016665
33.7349 444
33.75502 444.016433831903
33.77513 466.029457289146
33.79524 479.018888395174
33.81536 476.054926119861
33.83547 437.037306502554
33.85559 434.997798744067
33.8757 437
33.89581 456.014702044826
33.91593 470.96486970568
33.93604 436.008775954644
33.95615 477.933787522146
33.97627 452.093963708606
33.99638 411.972745105332
34.0165 473
34.03661 432.985883954586
34.05672 437.992651972552
34.07684 415.007677915791
34.09695 453.901482369944
34.11706 470.989152883081
34.13718 467.022180950633
34.15729 440.004574099792
34.17741 445.998008429488
34.19752 445.03999501982
34.21763 502.016955108389
34.23775 457.882892665416
34.25786 446.975770437981
34.27797 459.993048686484
34.29809 456.001853087451
34.3182 467
34.33831 490.991883773794
34.35843 459.014936699126
34.37854 504.031152473041
34.39866 476.042687195231
34.41877 480.00259036489
34.43888 458.02538574441
34.459 460
34.47911 514.009106447072
34.49922 479.943123584338
34.51934 448.024773890268
34.53945 491.893062687734
34.55957 509.998141541926
34.57968 510.990897855251
34.59979 532.984523110516
34.61991 540.978284140754
34.64002 486.002438091709
34.66013 551.095841418646
34.68025 569.981140299666
34.70036 560.01371153183
34.72047 563.974295087088
34.74059 590.984630974163
34.7607 627
34.78082 655.971391292892
34.80093 609.01886264722
34.82104 668.029163862771
34.84116 622.063573947248
34.86127 647.920467788723
34.88138 698.950603443619
34.9015 728
34.92161 712.018322702334
34.94173 768.981375127928
34.96184 704.98311698562
34.98195 756.974518740319
35.00207 710.025973264042
35.02218 747.968065890913
35.04229 740.010391337143
35.06241 724.991286349626
35.08252 699.971059606641
35.10264 688.045674143263
35.12275 710.926460679996
35.14286 646.060410335583
35.16298 691.906106347783
35.18309 743.02800981636
35.2032 637
35.22332 703.071315484068
35.24343 707.939953457445
35.26354 666.962414069168
35.28366 664.031830699375
35.30377 635.019316715482
35.32389 641.000699266692
35.344 635
35.36411 675.014499877906
35.38423 671.963814711893
35.40434 649.985678069998
35.42445 649.039301258091
35.44457 639.939548755863
35.46468 690.023399518018
35.4848 605
35.50491 624.014652138846
35.52502 623.990109012153
35.54514 640.11630117303
35.56525 694.035117856505
35.58536 631.058185323919
35.60548 658.97459609633
35.62559 655.000441857974
35.64571 675.012939226541
35.66582 693.010761262758
35.68593 696.995060635337
35.70605 688.976053268407
35.72616 696.917225510674
35.74627 727.063899688666
35.76639 649.006826711471
35.7865 700
35.80661 647.972325290285
35.82673 638.029960976499
35.84684 651.974833357218
35.86696 618.05803631109
35.88707 626.91859633677
35.90718 676.015178150957
35.9273 622
35.94741 675.022285022799
35.96752 662.952012481989
35.98764 622.984333043904
36.00775 629.054842672799
36.02787 592.990624559409
36.04798 629.003369164636
36.06809 591.997766559921
36.08821 629.994148790177
36.10832 575.994398239255
36.12843 611.970953525981
36.14855 532.88561021367
36.16866 558.911487585198
36.18878 577.996906058125
36.20889 569.013337657378
36.229 553
36.24912 605.017926448991
36.26923 582.98281719237
36.28934 603.044285313888
36.30946 605.022899561042
36.32957 605.951290373643
36.34968 659.954514896141
36.3698 677
36.38991 705.049265232072
36.41003 843.15579403661
36.43014 898.123379354295
36.45025 998.7159605598
36.47037 1138.69731573914
36.49048 1356.85253006796
36.51059 1397.01052405766
36.53071 1381.00428385646
36.55082 1351.85234436815
36.57094 1119.60494908263
36.59105 1024.9066385857
36.61116 975.169451903835
36.63128 874.07362738247
36.65139 819.043277922691
36.6715 714
36.69162 691.938041600928
36.71173 590.907071212261
36.73184 594.035468328826
36.75196 598.970351094355
36.77207 624.977031865562
36.79219 615.014089364027
36.8123 589
36.83241 593.001231034492
36.85253 589.000193807186
36.87264 600.036003924904
36.89275 621.934837540432
36.91287 630.049435051412
36.93298 581.01633704319
36.9531 598
36.97321 577.998551202458
36.99332 603.024041910209
37.01344 597.932572371491
37.03355 559.050427446009
37.05366 559.003322133077
37.07378 549.999992867835
37.09389 564.99025391345
37.11401 567.987861506759
37.13412 543.011945139739
37.15423 578.009757041736
37.17435 543.911785654904
37.19446 533.992985506796
37.21457 535.008035835365
37.23469 531.994001979626
37.2548 550
37.27491 531.989779816144
37.29503 517.976215842007
37.31514 498.970651940367
37.33526 499.95844489041
37.35537 522.995193279782
37.37548 509.006561124764
37.3956 509
37.41571 490.012560068282
37.43582 546.028874505789
37.45594 528.951139588726
37.47605 527.96221021582
37.49617 535.027042112408
37.51628 509.996569611193
37.53639 527.009860523464
37.55651 477.990041979144
37.57662 517.069752986647
37.59673 555.960471332118
37.61685 497.946525184674
37.63696 536.88991896892
37.65708 567.990037089591
37.67719 553.02349339879
37.6973 512
37.71742 550.99726261663
37.73753 509.990673837059
37.75764 547.032054333707
37.77776 529.002268535306
37.79787 555.976975483425
37.81798 549.99744537814
37.8381 560
37.85821 537.006729680375
37.87833 567.975616376576
37.89844 509.941075497664
37.91855 529.948449909401
37.93867 527.99878959912
37.95878 545.976130748981
37.97889 550.015304634029
37.99901 503.986662243893
38.01912 515.03297059869
38.03924 537.992504067277
38.05935 519.991796514337
38.07946 544.924931602287
38.09958 562.021680274956
38.11969 531.994716363974
38.1398 585
38.15992 587.964732731637
38.18003 557.014292288539
38.20015 590.008359381486
38.22026 564.004137505397
38.24037 600.943337550047
38.26049 629.975985868235
38.2806 652
38.30071 528.980656949414
38.32083 598.107263272353
38.34094 614.011906221235
38.36105 631.985128366805
38.38117 612.053590790288
38.40128 582.012198930362
38.4214 589
38.44151 603.005911959269
38.46162 597.96376209921
38.48174 549.949697085655
38.50185 564.904446922314
38.52196 599.957151146198
38.54208 597.02820036143
38.56219 556.019911419763
38.58231 536.002707258451
38.60242 563.039117102506
38.62253 568.904741673382
38.64265 481.932097790049
38.66276 529.888634901149
38.68287 544.016001161885
38.70299 526.012393967594
38.7231 515
38.74321 544.994178817228
38.76333 516.039434649986
38.78344 567.951002383218
38.80356 472.117684015906
38.82367 501.90471456524
38.84378 537.001337981751
38.8639 519
38.88401 523.995717862582
38.90412 499.984714848346
38.92424 513.074036263006
38.94435 551.944905454445
38.96447 545.044978510939
38.98458 514.015370615035
39.00469 519.991629947281
39.02481 546.021956911562
39.04492 567.950822418305
39.06503 501.027425299936
39.08515 586.07584487825
39.10526 538.058582970742
39.12538 561.984807842979
39.14549 544.006767534784
39.1656 555
39.18572 565.004039329739
39.20583 572.024838316142
39.22594 594.032705629104
39.24606 603.973293241931
39.26617 620.984047977628
39.28628 619.011040776475
39.3064 623
39.32651 688.029409854415
39.34663 748.147527125887
39.36674 921.487742341029
39.38685 1139.76515049812
39.40697 1152.89409707581
39.42708 1319.83955515568
39.44719 1350.06205042892
39.46731 1154.92197671177
39.48742 1078.93966054115
39.50754 995.84543385344
39.52765 934.849482986687
39.54776 842.28020452736
39.56788 713.040707147107
39.58799 720.030840137169
39.6081 582
39.62822 538.935015098235
39.64833 449.953666490389
39.66845 485.0696804651
39.68856 479.982561541948
39.70867 503.013805168482
39.72879 464.00967625286
39.7489 480
39.76901 478.99617356367
39.78913 469.974217707543
39.80924 450.985571954648
39.82935 464.9226707045
39.84947 490.000376237845
39.86958 471.011818722941
39.8897 474
39.90981 457.98708893941
39.92992 448.026023850787
39.95004 483.998790859262
39.97015 453.021490968107
39.99026 485.918129047895
40.01038 514.970070221119
40.03049 532.0116570803
40.05061 487.991443339757
40.07072 512.032221989024
40.09083 538.056194529123
40.11095 569.977559648329
40.13106 545.95573264925
40.15117 609.9402596064
40.17129 619.980134862835
40.1914 696
40.21152 736.074886689821
40.23163 826.046114348731
40.25174 823.122932113444
40.27186 932.91636567258
40.29197 870.133912148052
40.31208 791.108471835365
40.3322 675
40.35231 676.000060461789
40.37242 653.995487218686
40.39254 658.934420683815
40.41265 580.210838482413
40.43277 534.998891854824
40.45288 538.044287811234
40.47299 470.008685344934
40.49311 508.012013481363
40.51322 492.989741506865
40.53333 501.998784462799
40.55345 481.951327041713
40.57356 475.003521687426
40.59368 480.976340550284
40.61379 507.99722622209
40.6339 488
40.65402 475.998522629991
40.67413 483.023880413613
40.69424 484.929211191829
40.71436 453.921771591048
40.73447 528.984307591791
40.75458 461.059448639496
40.7747 462
40.79481 486.012588544672
40.81493 505.000621097975
40.83504 486.951968327897
40.85515 471.014161015171
40.87527 473.987919926999
40.89538 480.996731468126
40.91549 484.994138098135
40.93561 502.006246357444
40.95572 502.991994989097
40.97584 490.973322027586
40.99595 478.974316482919
41.01606 472.998432543025
41.03618 479.989810387924
41.05629 486.999882644738
41.0764 480
41.09652 475.00840336707
41.11663 481.975218774477
41.13675 466.076983658615
41.15686 521.974934489237
41.17697 479.063706152061
41.19709 465.006449593542
41.2172 447
41.23731 457.998970100181
41.25743 462.081848944145
41.27754 524.968029193221
41.29765 444.109622183636
41.31777 467.967707637081
41.33788 458.997450851952
41.358 482
41.37811 471.998187415908
41.39822 475.986651733083
41.41834 448.976593551379
41.43845 459.969063709618
41.45856 455.039675301264
41.47868 438.99559881227
41.49879 454.000426354987
41.51891 441.002525409587
41.53902 464.010574411271
41.55913 452.98253644499
41.57925 453.0080604124
41.59936 457.97285869041
41.61947 468.019201539303
41.63959 434.016899607538
41.6597 441
41.67982 507.984836160217
41.69993 426.926481247917
41.72004 457.119080685656
41.74016 489.008653127055
41.76027 455.072876799664
41.78038 437.95358043252
41.8005 499
41.82061 421.965141269848
41.84072 417.04041608475
41.86084 455.013174234714
41.88095 441.980620535213
41.90107 472.976018277397
41.92118 453.038701490172
41.94129 428.996231541338
41.96141 455.007204830932
41.98152 454.009381344496
42.00163 468.984844578838
42.02175 437.957743382751
42.04186 442.999503155489
42.06198 437.983998317357
42.08209 468.993371924015
42.1022 447
42.12232 430.03886871268
42.14243 496.049661823988
42.16254 479.955126839425
42.18266 476.006001267609
42.20277 471.983960233833
42.22289 490.99756309289
42.243 488
42.26311 531.022068825985
42.28323 558.022124994624
42.30334 570.026477293161
42.32345 622.686790084357
42.34357 781.824002437707
42.36368 836.955426711102
42.38379 914.949306936369
42.40391 1003.0226492553
42.42402 994.956059494196
42.44414 943.908536295833
42.46425 880.716186550691
42.48436 754.132200328722
42.50448 747.020712163861
42.52459 698.009088572208
42.5447 712
42.56482 639.889574715297
42.58493 541.918141354493
42.60505 520.93449632163
42.62516 473.092083265198
42.64527 440.046323076854
42.66539 415.001787916414
42.6855 435
42.70561 453.999578800648
42.72573 444.000032163891
42.74584 449.977791287597
42.76595 421.059938525957
42.78607 419.973529915807
42.80618 443.978098153163
42.8263 453
42.84641 425.975637904365
42.86652 388.007627085911
42.88664 426.036769607469
42.90675 422.942380869909
42.92686 466.9769494502
42.94698 429.050765090503
42.96709 408.99077247458
42.98721 430.991379969556
43.00732 393.002659636141
43.02743 442.059556409832
43.04755 431.886517982801
43.06766 390.02608372745
43.08777 413.93365062195
43.10789 433.017809634644
43.128 379
43.14812 435.065880205029
43.16823 451.940302489093
43.18834 394.94727970146
43.20846 407.972175414358
43.22857 406.990160680947
43.24868 413.025268561119
43.2688 381
43.28891 439.017240439424
43.30902 412.940314134437
43.32914 359.936879847521
43.34925 363.900980744486
43.36937 407.975498220684
43.38948 393.01813919592
43.40959 395.989807901998
43.42971 417.004089689405
43.44982 402.96772097503
43.46993 377.002302544234
43.49005 402.058405054113
43.51016 416.951827901652
43.53028 436.0185116917
43.55039 394.009253497425
43.5705 407
43.59062 391.988918765301
43.61073 400.026460237648
43.63084 412.000433841109
43.65096 400.036762050335
43.67107 395.961564309021
43.69119 430.995906088983
43.7113 408
43.73141 411.011067936228
43.75153 434.017334048576
43.77164 428.970464889957
43.79175 419.985614690298
43.81187 429.012273774035
43.83198 411.996787885966
43.85209 428.003880095605
43.87221 396.991574333027
43.89232 409.018564980847
43.91244 402.920761599587
43.93255 367.036060593805
43.95266 424.905487570589
43.97278 420.045640112817
43.99289 376.005376791345
44.013 409
44.03312 437.972831813229
44.05323 388.989604664687
44.07335 435.115869602298
44.09346 434.088280051093
44.11357 401.952695424169
44.13369 455.009921710952
44.1538 364
44.17391 374.01993505953
44.19403 391.984181667132
44.21414 375.010363819721
44.23426 400.967049475015
44.25437 396.012877695463
44.27448 396.994082111871
44.2946 405
44.31471 418.004868430507
44.33482 424.006000770882
44.35494 422.962279943385
44.37505 399.012548940701
44.39516 418.945788079806
44.41528 429.013844240416
44.43539 398.017139226726
44.45551 390.017289789365
44.47562 437.012409487388
44.49573 417.998759393779
44.51585 448.059876780805
44.53596 435.088193677434
44.55607 390.030911964309
44.57619 401.986110270675
44.5963 423
44.61642 418.991265858916
44.63653 406.968856252267
44.65664 393.028373200991
44.67676 414.030235867519
44.69687 379.988976220983
44.71698 423.984782815839
44.7371 402
44.75721 407.973175584876
44.77732 336.019851448258
44.79744 439.134422667022
44.81755 421.087702249011
44.83767 409.025020482281
44.85778 386.999671440248
44.87789 408.992382847959
44.89801 409.002218878431
44.91812 423.008851415485
44.93823 420.99388194592
44.95835 410.928964987339
44.97846 389.949605794818
44.99858 443.973801328681
45.01869 418.023125240612
45.0388 390
45.05892 409.028697513581
45.07903 436.037265249262
45.09914 454.012418743849
45.11926 445.045419613976
45.13937 425.998303433841
45.15949 442.993981983883
45.1796 434
45.19971 413.000017576004
45.21983 432.029002074432
45.23994 436.988329498228
45.26005 434.967803486333
45.28017 458.970138754023
45.30028 466.996939671064
45.32039 467.004120860857
45.34051 467.014978425057
45.36062 507.007853444157
45.38074 475.930578675954
45.40085 462.999569520784
45.42096 464.994768918949
45.44108 461.016260012829
45.46119 453.985184861968
45.4813 501
45.50142 481.985834760836
45.52153 481.974530980591
45.54165 456.011002976212
45.56176 490.947822063401
45.58187 491.00676354708
45.60199 509.975680734204
45.6221 562
45.64221 547.988796882417
45.66233 556.075050700119
45.68244 627.116662611386
45.70256 666.905458064782
45.72267 727.919994378146
45.74278 772.944131826141
45.7629 824
45.78301 772.952689820234
45.80312 677.932983788512
45.82324 652.003446952332
45.84335 657.006242740685
45.86346 631.10862162295
45.88358 567.048642467089
45.90369 557.984569811926
45.92381 580.983410689409
45.94392 505.946486456903
45.96403 494.986107945941
45.98415 462.905190437122
46.00426 439.011804262223
46.02437 442.996748843875
46.04449 438.002858885332
46.0646 435
46.08472 432.000483398165
46.10483 437.010847173904
46.12494 448.03676172787
46.14506 459.030248768713
46.16517 433.999657746181
46.18528 453.003904437623
46.2054 415
46.22551 410.020139569652
46.24563 452.990151288043
46.26574 403.93529472563
46.28585 410.973371277442
46.30597 408.992745244778
46.32608 421.99721087894
46.34619 415.997519450387
46.36631 433.00507848914
46.38642 425.9841953659
46.40653 412.990039607446
46.42665 418.046452246198
46.44676 435.99827095159
46.46688 421.013231604459
46.48699 411.011280505689
46.5071 397
46.52722 441.987499827484
46.54733 382.964006415527
46.56744 425.116466644421
46.58756 451.012401212108
46.60767 430.02833460089
46.62779 423.000935451622
46.6479 429
46.66801 444.987025152885
46.68813 392.959398692315
46.70824 409.054250981141
46.72835 427.943068797075
46.74847 447.007678426603
46.76858 419.0289590163
46.78869 411.991775262203
46.80881 427.994965659893
46.82892 397.981962711282
46.84904 408.045316213543
46.86915 437.109760507155
46.88926 462.074260522902
46.90938 387.044732671205
46.92949 394.992049866159
46.9496 394
46.96972 397.985019653951
46.98983 380.024110954879
47.00995 422.056373993714
47.03006 419.97431917426
47.05017 440.03050984136
47.07029 391.008838877135
47.0904 423
47.11051 423.977546405524
47.13063 378.007639876947
47.15074 430.085802230512
47.17086 425.072669449202
47.19097 397.989771021039
47.21108 423.99418561721
47.2312 415
47.25131 455.001731552432
47.27142 411.956235919179
47.29154 409.068955674582
47.31165 449.952631061724
47.33176 440.036097601746
47.35188 427.015376443425
47.37199 419.990077368954
47.39211 454.008244073763
47.41222 438.970802235057
47.43233 413.971347011288
47.45245 407.025460048049
47.47256 428.954088905801
47.49267 440.005573344966
47.51279 426.008464198202
47.5329 424
47.55302 459.020652388233
47.57313 455.983623161538
47.59324 445.968390631657
47.61336 422.054060294479
47.63347 404.001738591379
47.65358 413.992347411814
47.6737 421
47.69381 448.004275459411
47.71393 427.947928115879
47.73404 408.021939402974
47.75415 446.882150302898
47.77427 466.040096821059
47.79438 426.002584744423
47.81449 454.997989654492
47.83461 414.976877881796
47.85472 399.013922959067
47.87483 425.030751809904
47.89495 423.946362844769
47.91506 403.994576586525
47.93518 425.983273980613
47.95529 422.007925958698
47.9754 400
47.99552 376.002164214436
48.01563 411.082897406485
48.03574 453.013214613807
48.05586 434.025974120071
48.07597 443.972187825443
48.09609 448.009705774977
48.1162 421
48.13631 427.998812923531
48.15643 407.970189469523
48.17654 404.020679100489
48.19665 414.008980066733
48.21677 404.989548989298
48.23688 422.000508357768
48.257 405
48.27711 416.00093511594
48.29722 401.988327789364
48.31734 402.006161013872
48.33745 404.013289661191
48.35756 408.012853613055
48.37768 389.024368411983
48.39779 380.988343468595
48.4179 422
48.43802 422.98391061664
48.45813 408.994038151741
48.47825 430.132701788002
48.49836 467.070574006241
48.51847 397.016106248612
48.53859 443.995504667747
48.5587 408
48.57881 462.007076451578
48.59893 412.925762585827
48.61904 404.021962753166
48.63916 415.971150142267
48.65927 428.991339489769
48.67938 412.049349433142
48.6995 376
48.71961 448.011188082627
48.73972 411.984181573754
48.75984 428.968618528911
48.77995 379.049032784221
48.80006 409.924840434976
48.82018 425.990356340916
48.84029 423.018641639331
48.86041 387.011615972462
48.88052 447.016134180291
48.90063 409.970878596032
48.92075 435.064993992538
48.94086 425.079366657448
48.96097 402.944234416206
48.98109 466.992072177178
49.0012 431
49.02132 441.977182098594
49.04143 396.005281201863
49.06154 441.012286503351
49.08166 402.019961979627
49.10177 440.949141698145
49.12188 432.035931622478
49.142 414
49.16211 458.999531616389
49.18223 413.961451248763
49.20234 422.993175621858
49.22245 400.005768952965
49.24257 420.989992136218
49.26268 408.997403785657
49.28279 432.990666413912
49.30291 435.000184660935
49.32302 443.009744723596
49.34313 450.008127138223
49.36325 445.943659384242
49.38336 420.009336834906
49.40348 433.994395255649
49.42359 420.008853301198
49.4437 417
49.46382 443.028404535548
49.48393 461.004777819371
49.50404 452.977189704807
49.52416 447.992667042265
49.54427 455.991363399965
49.56439 447.014819355495
49.5845 419
49.60461 443.004011752572
49.62473 423.970522134266
49.64484 423.022036571271
49.66495 437.957000690723
49.68507 456.96781765627
49.70518 475.989594528281
49.7253 476
49.74541 462.988013361428
49.76552 449.021633889606
49.78564 486.012355530578
49.80575 461.98017313329
49.82586 489.925479505974
49.84598 507.006965231857
49.86609 493.000159243119
49.8862 515
49.90632 557.063062397828
49.92643 623.057155624696
49.94655 638.06528878068
49.96666 696.844828503767
49.98677 798.785091440357
50.00689 972.913574244887
50.027 1133
50.04711 1331.12331089922
50.06723 1577.26475925892
50.08734 1700.29657334953
50.10746 1821.08476307181
50.12757 1621.32319425339
50.14768 1457.18239198802
50.1678 1227
50.18791 1064.96802132399
50.20802 1078.04219489064
50.22814 1097.98722797069
50.24825 1052.23387551162
50.26837 909.273963148133
50.28848 729.139801695914
50.30859 641.029202569216
50.32871 576.959794937939
50.34882 494.944218105442
50.36893 468.971983334784
50.38905 459.057830376572
50.40916 489.028290160362
50.42927 440.035124274845
50.44939 460.988037438033
50.4695 451
50.48962 418.005805137613
50.50973 450.020221699692
50.52984 428.945692175737
50.54996 435.893807202512
50.57007 496.973509885531
50.59018 466.033782678668
50.6103 449
50.63041 432.017832378057
50.65053 493.021814825215
50.67064 439.858911300528
50.69075 411.934958601272
50.71087 451.996120189243
50.73098 422.006225045984
50.75109 444.000857422498
50.77121 414.996146983712
50.79132 434.002805219553
50.81143 409.97212421733
50.83155 401.940165558327
50.85166 386.908984587817
50.87178 465.967144287946
50.89189 438.012225765726
50.912 438
50.93212 391.961714224552
50.95223 401.092386092386
50.97234 466.025987823389
50.99246 425.083302022692
51.01257 410.019916349962
51.03269 398.991420276713
51.0528 434
51.07291 412.979883593605
51.09303 388.011218320384
51.11314 414.027019149805
51.13325 408.997218791493
51.15337 426.96895074297
51.17348 431.01822079093
51.1936 414
51.21371 440.997020378771
51.23382 396.959472936258
51.25394 396.067872009689
51.27405 427.014539329657
51.29416 394.033624634576
51.31428 397.016724836721
51.33439 372.989452591974
51.3545 425
51.37462 386.957518754812
51.39473 378.021041076128
51.41485 385.958494616134
51.43496 370.937333141055
51.45507 426.979504046723
51.47519 393.009943628021
51.4953 415
51.51541 415.984091404723
51.53553 384.00703666874
51.55564 407.978828009072
51.57576 367.025621038345
51.59587 396.956148957219
51.61598 405.987643407039
51.6361 420
51.65621 384.982563042581
51.67632 373.009311600962
51.69644 384.995311212997
51.71655 372.999782638163
51.73667 388.979126475415
51.75678 391.999005274607
51.77689 395.998497315931
51.79701 389.99050404791
51.81712 376.013278282575
51.83723 406.020632277793
51.85735 391.948142835135
51.87746 389.957146442051
51.89757 413.998858146337
51.91769 392.009140537992
51.9378 398
51.95792 420.003353062463
51.97803 406.983096491372
51.99814 412.035888716993
52.01826 430.9781131141
52.03837 425.034647547213
52.05848 395.025890204578
52.0786 387
52.09871 402.998480034236
52.11883 390.011875372473
52.13894 410.99082572573
52.15905 385.010953554601
52.17917 400.016016504299
52.19928 368.003469758302
52.21939 398.989303384833
52.23951 390.99329550584
52.25962 384.990500366889
52.27974 372.995341392451
52.29985 385.04743412244
52.31996 411.915102983971
52.34008 441.021985784218
52.36019 385.017417996352
52.3803 391
52.40042 385.989735564734
52.42053 397.070583875203
52.44064 446.002526377633
52.46076 400.085578003401
52.48087 397.959626086278
52.50099 422.99820234585
52.5211 401
52.54121 384.004586525291
52.56133 406.015810872522
52.58144 398.986568014764
52.60155 399.011330107006
52.62167 395.976076770122
52.64178 417.005651937062
52.6619 396
52.68201 425.001104879627
52.70212 393.978256263185
52.72224 400.020533199215
52.74235 399.010998894268
52.76246 404.95566453617
52.78258 427.997849317238
52.80269 409.009358416426
52.8228 407
52.84292 415.999465990629
52.86303 405.983592234252
52.88315 403.013827772151
52.90326 410.992602778431
52.92337 409.003728457348
52.94349 414.990915049035
52.9636 433
52.98371 416.991081381233
53.00383 416.028883424714
53.02394 444.043033724779
53.04406 441.06123802036
53.06417 400.045505153954
53.08428 396.979521257387
53.1044 425
53.12451 441.009577867855
53.14462 448.972061489208
53.16474 407.988040856
53.18485 439.937923111445
53.20497 443.978993828465
53.22508 467.000311131306
53.24519 448.000343778547
53.26531 469.004477236231
53.28542 455.9886574969
53.30553 458.005462770313
53.32565 460.021794666315
53.34576 464.041029371444
53.36587 432.015319395322
53.38599 454.982866163491
53.4061 477
53.42622 470.983853733931
53.44633 463.023121342252
53.46644 492.034651924662
53.48656 487.026131280539
53.50667 483.983481054345
53.52678 494.010169764039
53.5469 466
53.56701 459.000736934243
53.58713 470.045034432611
53.60724 498.9957746568
53.62735 472.038645405078
53.64747 480.984564231813
53.66758 483.98989255514
53.68769 501.994038661712
53.70781 502.999469776558
53.72792 506.00428132107
53.74804 500.955826377947
53.76815 478.001005015717
53.78826 494.000746607713
53.80838 473.013845211941
53.82849 474.001988666303
53.8486 471
53.86872 516.034123694434
53.88883 523.996633423709
53.90894 518.967524646946
53.92906 497.02634429274
53.94917 497.990306135068
53.96929 496.00784004097
53.9894 475
54.00951 493.0280916474
54.02963 537.96337933888
54.04974 491.070276988403
54.06985 579.97798143171
54.08997 501.060983865831
54.11008 532.986820334442
54.1302 494
54.15031 495.002271828913
54.17042 492.008597771025
54.19054 515.041677737471
54.21065 504.139624246628
54.23076 445.012390690568
54.25088 496.940937104504
54.27099 513.013546609463
54.29111 493.018775799246
54.31122 558.011317676648
54.33133 500.91101073177
54.35145 485.020826434543
54.37156 495.977922380653
54.39167 492.047509970807
54.41179 462.991325720027
54.4319 518
54.45201 520.998330355731
54.47213 520.973795496875
54.49224 502.032857544557
54.51236 537.995406901255
54.53247 508.011926826974
54.55258 536.973717470407
54.5727 547
54.59281 564.990067397742
54.61292 529.006389340348
54.63304 580.078624767124
54.65315 572.088111021029
54.67327 550.977449547197
54.69338 592.96249429005
54.71349 614.986984584718
54.73361 647.009768745564
54.75372 680.089876795244
54.77383 793.085443813201
54.79395 790.025375731503
54.81406 850.850120413515
54.83417 886.035776846839
54.85429 830.020873103707
54.8744 812
54.89452 741.899258320546
54.91463 656.955589095314
54.93474 667.997363178361
54.95486 645.995639188345
54.97497 694.890226217702
54.99508 736.026302994332
55.0152 651
55.03531 590.994622125324
55.05543 589.93974596292
55.07554 518.912359498046
55.09565 531.894404603749
55.11577 557.017477142444
55.13588 534.986429564025
55.15599 564.010958253495
55.17611 521.016270726471
55.19622 610.029289701239
55.21634 561.944624265807
55.23645 599.123209960321
55.25656 626.951650037881
55.27668 654.979357025701
55.29679 657.008570818966
55.3169 630
55.33702 602.962521179053
55.35713 557.942373760541
55.37724 544.030389222203
55.39736 568.979376738852
55.41747 575.941810610866
55.43759 610.021672462258
55.4577 517
55.47781 541.001368689064
55.49793 489.92448406849
55.51804 472.991815389121
55.53815 474.945296743027
55.55827 499.008912269025
55.57838 471.009828750201
55.5985 473
55.61861 423.999752413616
55.63872 472.031633857026
55.65884 455.938507922559
55.67895 453.906256305837
55.69906 491.029492090737
55.71918 442.013745421353
55.73929 472.992088038081
55.75941 463.006608530161
55.77952 486.973167941895
55.79963 430.997575297474
55.81975 482.046973364699
55.83986 448.045622085963
55.85997 456.00761823512
55.88009 433.999252466626
55.9002 475
55.92031 507.998125323233
55.94043 470.920778405928
55.96054 426.946494200974
55.98066 421.972646833188
56.00077 451.929913143948
56.02088 487.006610349971
56.041 450
56.06111 457.010556945523
56.08122 466.992254229129
56.10134 448.971851014556
56.12145 453.93715015388
56.14157 468.044699044084
56.16168 416.019059247115
56.18179 449.973960197155
56.20191 475.99488400757
56.22202 451.99478578506
56.24213 466.002027647634
56.26225 445.954361058464
56.28236 449.952257673735
56.30248 464.023483671811
56.32259 425.002190789918
56.3427 458
56.36282 455.001940776221
56.38293 462.976342389735
56.40304 436.008585211124
56.42316 463.997076233221
56.44327 435.019888680907
56.46338 454.975483260085
56.4835 466
56.50361 458.978243813556
56.52373 414.016717650316
56.54384 465.03454983305
56.56395 440.006565540344
56.58407 472.974589637825
56.60418 454.023184564339
56.62429 442.008368497053
56.64441 419.994333708873
56.66452 428.020344254863
56.68464 448.027096175604
56.70475 456.022431318576
56.72486 452.07463778003
56.74498 412.98791995688
56.76509 463.987719700365
56.7852 441
56.80532 430.983596068344
56.82543 412.008504893502
56.84554 444.065519621092
56.86566 450.046595863026
56.88577 425.990151192239
56.90589 447.006092691571
56.926 406
56.94611 428.012661598345
56.96623 436.008507252701
56.98634 443.999549922869
57.00645 432.04144099509
57.02657 421.998552081099
57.04668 429.993342056329
57.0668 424
57.08691 412.013049635599
57.10702 455.009801640861
57.12714 427.964538079037
57.14725 440.951838450202
57.16736 438.058820261965
57.18748 416.973063391697
57.20759 472.987050326997
57.22771 448.982545642691
57.24782 438.009373442135
57.26793 455.023084244825
57.28805 456.964227282817
57.30816 432.053129182262
57.32827 415.006790011739
57.34839 434.973249530127
57.3685 471
57.38861 382.980503902903
57.40873 416.05158646479
57.42884 409.963436447484
57.44896 414.928906597036
57.46907 455.97998577259
57.48918 418.079646138306
57.5093 353
57.52941 413.036369810847
57.54952 443.982559233296
57.56964 404.945994708176
57.58975 412.917904126221
57.60987 429.049037804686
57.62998 386.979372716352
57.65009 450.992244788171
57.67021 401.981147003717
57.69032 421.045999705281
57.71043 441.959557288825
57.73055 392.945074271469
57.75066 411.949333687622
57.77078 427.974923727082
57.79089 443.016556527072
57.811 388
57.83112 429.038842737401
57.85123 424.950068351463
57.87134 385.931659491728
57.89146 372.97022038774
57.91157 404.952789883082
57.93168 417.009379718174
57.9518 416
57.97191 465.999808402741
57.99203 410.921211486646
58.01214 392.985687986225
58.03225 391.939035679071
58.05237 429.97014765379
58.07248 423.01128966416
58.09259 412.014227720209
58.11271 382.001404417335
58.13282 422.047198935409
58.15294 441.974739999857
58.17305 412.940499368649
58.19316 407.987079185978
58.21328 414.99593749718
58.23339 410.008357874778
58.2535 388
58.27362 382.004195166578
58.29373 396.03737017129
58.31385 408.941698757327
58.33396 374.988546547208
58.35407 408.003507845507
58.37419 374.99800978064
58.3943 424
58.41441 409.98199082597
58.43453 390.012799078795
58.45464 413.022022706124
58.47475 403.034275388008
58.49487 406.961171323664
58.51498 427.018310760872
58.5351 386
58.55521 415.02145173066
58.57532 442.010590254533
58.59544 424.888828454277
58.61555 368.021759127707
58.63566 411.896137294536
58.65578 434.998960042511
58.67589 424.010068365292
58.69601 401.990515366622
58.71612 393.003509580193
58.73623 407.029882404088
58.75635 425.030819292348
58.77646 429.007298750544
58.79657 418.028012335619
58.81669 407.99214814331
58.8368 431
58.85691 407.001476007192
58.87703 431.994915344661
58.89714 397.966878698168
58.91726 409.992104228192
58.93737 402.976458982429
58.95748 435.989298574666
58.9776 415
58.99771 414.006882750185
59.01782 433.021203056649
59.03794 443.981834533831
59.05805 421.051218754767
59.07817 409.019857204441
59.09828 399.98926059415
59.11839 418.999984592873
59.13851 408.006551835331
59.15862 431.986415580861
59.17873 388.976496200931
59.19885 424.131889516376
59.21896 454.003275761261
59.23908 428.034632554995
59.25919 421.977669071297
59.2793 471
59.29942 405.970891408525
59.31953 432.024285097519
59.33964 423.029830822539
59.35976 457.002889690681
59.37987 421.02296760113
59.39998 446.96740443356
59.4201 461
59.44021 456.989975444803
59.46033 423.948077697633
59.48044 421.102482523827
59.50055 486.956875600321
59.52067 454.033172080274
59.54078 461.006498884831
59.56089 441.993815844019
59.58101 477.002326121596
59.60112 455.007712049768
59.62124 501.072655635129
59.64135 493.90746659892
59.66146 469.961592744665
59.68158 529.932217240988
59.70169 568.997420647712
59.7218 559
59.74192 585.049641162814
59.76203 640.067528413258
59.78215 667.037297818793
59.80226 706.811039103073
59.82237 840.811323715258
59.84249 944.943518671053
59.8626 1082
59.88271 1195.03309391918
59.90283 1260.18732155612
59.92294 1385.00332033771
59.94305 1242.45958141709
59.96317 1080.26304914992
59.98328 906.117639054239
60.0034 852
60.02351 817.997499915596
60.04362 856.067100700384
60.06374 902.980471022303
60.08385 849.121332658389
60.10396 821.080880119229
60.12408 742.108856034779
60.14419 619.063471220466
60.16431 515.971022321705
60.18442 489.973782909833
60.20453 450.953105445892
60.22465 451.087699140896
60.24476 486.009413737699
60.26487 440.073989959018
60.28499 417.002004369396
60.3051 423
60.32522 434.999543717163
60.34533 430.012204221535
60.36544 453.043540408343
60.38556 448.082650720206
60.40567 410.972733654915
60.42578 457.004930045745
60.4459 403
60.46601 441.022601682695
60.48612 443.963430668352
60.50624 402.975186678439
60.52635 427.904411522334
60.54647 451.991646036978
60.56658 430.054346141546
60.58669 376.007452958096
60.60681 400.012141366824
60.62692 399.989305912348
60.64703 397.014335424667
60.66715 410.005906290791
60.68726 399.025975678679
60.70738 391.007049569688
60.72749 385.000307555007
60.7476 398
60.76772 427.004378252811
60.78783 408.977179375311
60.80794 411.017652769586
60.82806 420.968816927759
60.84817 439.977192340285
60.86828 444.007699643387
60.8884 428
60.90851 418.00538362455
60.92863 432.98801054654
60.94874 396.91653603339
60.96885 385.913477154428
60.98897 440.948063389724
61.00908 416.083286815029
61.02919 348.987933586212
61.04931 439.027537138566
61.06942 424.982147473892
61.08954 439.032918210723
61.10965 431.931794160164
61.12976 397.064694657833
61.14988 388.971296264908
61.16999 429.992074204283
61.1901 417
61.21022 422.997065659842
61.23033 405.980890479085
61.25045 406.008080596722
61.27056 405.006314582489
61.29067 404.990404607128
61.31079 416.993332818722
61.3309 427
61.35101 437.011332964328
61.37113 461.007327131678
61.39124 447.980914168257
61.41135 446.028448284134
61.43147 425.020135518775
61.45158 425.994702044389
61.4717 429
61.49181 430.996495310954
61.51192 438.050786170179
61.53204 498.007820981683
61.55215 444.120433382476
61.57226 450.902701758981
61.59238 493.997491452143
61.61249 462.012815009062
61.63261 457.996258005479
61.65272 453.028684488841
61.67283 500.027375702444
61.69295 480.954018929085
61.71306 481.002556226805
61.73317 470.013790189186
61.75329 463.007853172966
61.7734 463
61.79352 532.016994740869
61.81363 493.959574517091
61.83374 502.002990641263
61.85386 489.981863888324
61.87397 511.016307222032
61.89408 478.998165565611
61.9142 525
61.93431 543.004391869319
61.95442 548.991412664824
61.97454 525.949476687057
61.99465 522.92012314383
62.01477 569.956942250536
62.03488 571.003320894021
62.05499 570.007702889005
62.07511 539.986229616418
62.09522 541.039102364148
62.11533 592.039696377964
62.13545 578.920416412105
62.15556 562.971260778687
62.17568 594.977738947042
62.19579 587.01585302594
62.2159 554
62.23602 562.028118363002
62.25613 594.037072093735
62.27624 595.948716572398
62.29636 564.022885550577
62.31647 564.035627274964
62.33659 531.994430369997
62.3567 569
62.37681 528.000424670025
62.39693 580.053292634395
62.41704 552.862368271209
62.43715 489.078235296076
62.45727 497.954368679478
62.47738 517.006930343311
62.49749 496.00426655123
62.51761 507.005582802734
62.53772 496.96677347745
62.55784 464.992731956953
62.57795 478.985753138115
62.59806 453.018570124052
62.61818 467.989877496234
62.63829 461.003651802035
62.6584 457
62.67852 443.008580713108
62.69863 467.014076556701
62.71875 457.996303827953
62.73886 466.012798912694
62.75897 444.022022767394
62.77909 446.995844427495
62.7992 452
62.81931 455.998701803908
62.83943 448.994203095698
62.85954 447.988412974182
62.87965 436.029069258278
62.89977 430.00196902024
62.91988 426.012995451165
62.94 417
62.96011 434.990830898509
62.98022 396.999048849362
63.00034 438.062620025092
63.02045 431.056992980939
63.04056 420.981934276821
63.06068 434.004557464465
63.08079 421.993870538022
63.10091 451.003082472199
63.12102 422.965936980873
63.14113 403.984770940196
63.16125 401.022698833662
63.18136 421.94531960979
63.20147 440.003372990023
63.22159 422.00908545398
63.2417 422
63.26182 440.989956226577
63.28193 418.010357215457
63.30204 453.037002270734
63.32216 441.024413428086
63.34227 444.990354205593
63.36238 444.004552593664
63.3825 437
63.40261 425.999585487967
63.42272 435.009460303023
63.44284 433.973630961805
63.46295 422.98129023296
63.48307 439.002694566247
63.50318 420.009113844696
63.52329 428.995834933601
63.54341 433.007306954259
63.56352 450.998905341937
63.58363 420.930680031969
63.60375 399.07715112061
63.62386 448.987562678931
63.64398 409.026182034262
63.66409 428.980634807448
63.6842 455
63.70432 448.986904455682
63.72443 447.030050651903
63.74454 475.021369813116
63.76466 466.012101238635
63.78477 475.975278584506
63.80489 474.018000537815
63.825 426
63.84511 457.03590178975
63.86523 523.03586301489
63.88534 505.956894654535
63.90545 518.8748761865
63.92557 573.963834306345
63.94568 557.032773106836
63.96579 542.992756235872
63.98591 587.032148107259
64.00602 625.975993837401
64.02614 564.931686085143
64.04625 570.992307056699
64.06636 527.13283505726
64.08648 488.975603125134
64.10659 544.988880749331
64.1267 517
64.14682 514.003935228194
64.16693 509.98947610776
64.18705 511.038055106237
64.20716 519.05379516679
64.22727 464.071811475083
64.24739 452.989378752719
64.2675 467
64.28761 424.002630105593
64.30773 466.006427719335
64.32784 417.918421997127
64.34796 415.980584293007
64.36807 415.010184529676
64.38818 411.994466222975
64.4083 421
64.42841 419.00265170167
64.44852 438.027059600427
64.46864 446.939883547733
64.48875 396.079412859035
64.50886 407.917961929374
64.52898 445.983279412991
64.54909 427.025522329982
64.56921 392.013206388356
64.58932 452.020134213643
64.60943 410.92415211526
64.62955 394.02293357174
64.64966 406.002043341263
64.66977 400.976458529013
64.68989 430.993659273178
64.71 412
64.73012 399.026099414826
64.75023 448.055168777413
64.77034 441.909702022546
64.79046 396.022079757129
64.81057 429.919154094881
64.83068 447.052319895606
64.8508 366
64.87091 384.002663204985
64.89102 372.031804131705
64.91114 437.051647787012
64.93125 403.105972600823
64.95137 393.976862175179
64.97148 409.998584209004
64.99159 401.998564415054
65.01171 413.999495043093
65.03182 395.983192114098
65.05193 396.021880576774
65.07205 414.030617897467
65.09216 417.996051772436
65.11228 407.041100166931
65.13239 358.008266764904
65.1525 385
65.17262 401.981930379448
65.19273 371.987862236284
65.21284 393.047618754854
65.23296 394.042863809645
65.25307 368.019124616652
65.27319 377.987736575279
65.2933 408
65.31341 421.985417062219
65.33353 376.985202927131
65.35364 408.054427756709
65.37375 402.060705835731
65.39387 389.975805859295
65.41398 410.016531909673
65.43409 379.989834703154
65.45421 430.998839170772
65.47432 375.976802574072
65.49444 412.077360007597
65.51455 414.961460702555
65.53466 398.037326530844
65.55478 390.981356965523
65.57489 423.989215866821
65.595 418
65.61512 397.998010894539
65.63523 415.035103851519
65.65535 435.047064161829
65.67546 448.000702925263
65.69557 431.044212526677
65.71569 412.993079854024
65.7358 449
65.75591 438.976354401542
65.77603 397.009371176344
65.79614 428.985530642486
65.81626 385.025694105708
65.83637 424.929660117983
65.85648 434.028386372185
65.8766 405
65.89671 430.995402447607
65.91682 386.975791032532
65.93694 413.105109367276
65.95705 436.099404679619
65.97716 376.008153322072
65.99728 418.995363832079
66.01739 377.005653941977
66.03751 414.012771872648
66.05762 405.995546556563
66.07773 413.988496410842
66.09785 397.020478605834
66.11796 422.002441144424
66.13807 395.014082032465
66.15819 406.004591884861
66.1783 374
66.19842 385.012637028599
66.21853 384.998110795151
66.23864 390.014719509365
66.25876 407.919691831992
66.27887 435.050785096464
66.29898 359.050508450729
66.3191 373
66.33921 413.00456964234
66.35933 405.012490619861
66.37944 424.987032318308
66.39955 394.037561746579
66.41967 409.967166063919
66.43978 414.012840735044
66.45989 401.997166487273
66.48001 415.998034170546
66.50012 388.971168062932
66.52023 383.031277094008
66.54035 409.013037610293
66.56046 402.964442001842
66.58058 432.007790809326
66.60069 389.014109726865
66.6208 392
66.64092 391.029331846478
66.66103 427.983514080976
66.68114 378.956882821627
66.70126 400.966939190821
66.72137 391.01315059794
66.74149 406.98181221393
66.7616 433
66.78171 395.988278116124
66.80183 393.983258512567
66.82194 367.968729111139
66.84205 380.913218651692
66.86217 409.996951614884
66.88228 399.985936734349
66.90239 426.005324682984
66.92251 379.984486960583
66.94262 391.030443631028
66.96274 405.973606019261
66.98285 388.033073845988
67.00296 422.978209088453
67.02308 402.015209279507
67.04319 406.998920467952
67.0633 395
67.08342 395.019313158194
67.10353 421.022090367152
67.12365 415.960785046626
67.14376 404.999335569058
67.16387 423.942530116309
67.18399 451.008195467284
67.2041 401
67.22421 386.995261470154
67.24433 387.056197512219
67.26444 448.083932626275
67.28456 456.993269636995
67.30467 463.016373072074
67.32478 439.0132953677
67.3449 438
67.36501 419.999505701148
67.38512 432.999682128937
67.40524 413.968517854759
67.42535 416.961262725214
67.44546 429.002884940703
67.46558 423.98869588483
67.48569 458.977159117887
67.50581 490.00146549358
67.52592 471.981338901522
67.54603 491.112298351514
67.56615 579.096975592495
67.58626 573.965601868382
67.60637 626.946988779167
67.62649 665.941883242088
67.6466 831
67.66672 852.005034676045
67.68683 893.085001540241
67.70694 924.972207968053
67.72706 857.215382838443
67.74717 745.137643136452
67.76728 682.047852511897
67.7874 632
67.80751 595.00250839724
67.82763 648.123075404191
67.84774 721.085799668286
67.86785 733.000612521477
67.88797 747.942520495973
67.90808 774.03075152556
67.92819 707.018697165452
67.94831 717.005034357937
67.96842 721.038845268228
67.98853 770.993767917384
68.00865 733.033249575083
68.02876 824.777280166109
68.04888 911.92532401407
68.06899 987.961713181724
68.0891 1058
68.10922 1097.02940611914
68.12933 1095.91123285491
68.14944 978.70910398734
68.16956 857.141876952069
68.18967 857.89576733759
68.20979 938.981365059409
68.2299 943
68.25001 1015.02428118218
68.27013 1031.04966869791
68.29024 1067.95462228875
68.31035 976.263849435672
68.33047 867.231150114623
68.35058 707.080776610726
68.3707 698
68.39081 619.966042306534
68.41092 602.013027814716
68.43104 617.013789350063
68.45115 608.95034064611
68.47126 582.063184790999
68.49138 560.996702412866
68.51149 553.034127649434
68.5316 448
68.55172 453.039437646934
68.57183 469.962839719285
68.59195 422.924689452445
68.61206 425.971824719674
68.63217 429.012261069705
68.65229 406.020496582929
68.6724 388
68.69251 458.999929394918
68.71263 394.957277766948
68.73274 421.002289564705
68.75286 383.023292900177
68.77297 411.971872955695
68.79308 391.039299634574
68.8132 373
68.83331 412.00675724575
68.85342 402.010330159162
68.87354 427.985971567585
68.89365 385.081748732871
68.91376 384.980640527118
68.93388 396.97026430255
68.95399 427.001661393287
68.97411 394.988854025576
68.99422 402.017984178644
69.01433 414.010591514537
69.03445 414.981304010285
69.05456 405.007905926518
69.07467 403.018627443214
69.09479 390.994040264246
69.1149 424
69.13502 407.929269286647
69.15513 343.020588671462
69.17524 416.080588216853
69.19536 396.033345575846
69.21547 410.982926902636
69.23558 399.019809350533
69.2557 386
69.27581 378.993534975372
69.29593 380.060941210077
69.31604 435.035585313341
69.33615 411.04799084756
69.35627 414.005568715147
69.37638 405.980851548823
69.39649 438.000689993883
69.41661 399.984292380867
69.43672 398.007765220584
69.45683 402.009483157564
69.47695 416.051832529995
69.49706 426.03526081975
69.51718 392.021894386036
69.53729 390.999666192721
69.5574 385
69.57752 396.020979969732
69.59763 421.037866215843
69.61774 422.91700555233
69.63786 376.980679184804
69.65797 423.990654982899
69.67809 386.003644488266
69.6982 418
69.71831 384.992177897397
69.73843 400.005891740204
69.75854 378.963611021318
69.77865 383.947488419609
69.79877 398.013661435568
69.81888 375.011265557175
69.839 382
69.85911 386.009400863168
69.87922 411.00505875869
69.89934 396.987402675035
69.91945 405.00597177636
69.93956 393.030185476694
69.95968 392.977776984409
69.97979 408.014557887173
69.9999 375
70.02002 447.985793669871
70.04013 366.987703384456
70.06025 443.081762070172
70.08036 397.066239811148
70.10047 412.984602776934
70.12059 385.021804638739
70.1407 372
70.16081 435.01268386216
70.18093 406.941502938774
70.20104 402.064668690328
70.22116 441.972339374337
70.24127 426.024588645967
70.26138 419.016942646932
70.2815 397
70.30161 409.999702787728
70.32172 385.971802426747
70.34184 377.029942230543
70.36195 396.997355316999
70.38207 378.024425673607
70.40218 375.99864661582
70.42229 377.994572821856
70.44241 394.004462289263
70.46252 387.983245096984
70.48263 378.015522265278
70.50275 390.960910056801
70.52286 360.002936767313
70.54297 384.99431085787
70.56309 366.996290215089
70.5832 399
70.60332 372.977381900612
70.62343 373.007085833364
70.64354 370.995452764155
70.66366 371.997251302754
70.68377 376.977998107686
70.70388 390.006367458481
70.724 377
70.74411 395.990285918565
70.76423 351.98820318902
70.78434 389.06081383701
70.80445 386.030727436515
70.82457 379.016824383516
70.84468 369.990593813763
70.86479 386.002802485861
70.88491 363.997596312114
70.90502 374.992070422892
70.92513 360.036788624674
70.94525 399.961501181482
70.96536 347.997509261329
70.98548 404.974503431261
71.00559 373.014224771345
71.0257 377
71.04582 368.997664052355
71.06593 380.020509519123
71.08604 377.948848406991
71.10616 350.995520738466
71.12627 382.952378417768
71.14639 386.012339877806
71.1665 356
71.18661 357.997604942016
71.20673 354.040126611534
71.22684 401.052739450173
71.24695 392.04698338955
71.26707 377.034310050226
71.28718 359.985213513293
71.3073 394
71.32741 382.998367956689
71.34752 386.977908202128
71.36764 346.968165421726
71.38775 363.957327970157
71.40786 366.985325590456
71.42798 381.992764229256
71.44809 382.994243302864
71.4682 398
71.48832 377.995831491589
71.50843 397.029096235757
71.52855 405.01778352433
71.54866 397.095180477906
71.56877 344.993545353392
71.58889 401.977612917574
71.609 399
71.62911 379.989249601332
71.64923 370.032585935122
71.66934 405.018817746841
71.68946 387.017102080882
71.70957 396.998541956848
71.72968 387.992268676989
71.7498 404
71.76991 374.998967085003
71.79002 403.016487450596
71.81014 394.991413387957
71.83025 396.050161800362
71.85037 370.98038973187
71.87048 407.996682455655
71.89059 376.005607848231
71.91071 405.016256036612
71.93082 407.976563635033
71.95093 383.997758037147
71.97105 401.021697275467
71.99116 388.042407715427
72.01127 376.993167890883
72.03139 398.982159220612
72.0515 430
72.07162 412.96258545943
72.09173 375.96636584486
72.11184 376.033669457033
72.13196 391.000461219429
72.15207 380.006185909055
72.17218 384.004234090955
72.1923 375
72.21241 396.007640822354
72.23253 401.01540304582
72.25264 419.024749117053
72.27275 409.089226211687
72.29287 368.03249011334
72.31298 372.985311107728
72.33309 381.997669688374
72.35321 388.005731173966
72.37332 397.997248108096
72.39344 384.981067781346
72.41355 386.012252351345
72.43366 392.972724670586
72.45378 398.023726103081
72.47389 368.995122220508
72.494 416
72.51412 412.968251236812
72.53423 379.971787276505
72.55434 388.065115044848
72.57446 414.0201499418
72.59457 384.006675432922
72.61469 403.002608350998
72.6348 372
72.65491 388.001158346009
72.67503 375.015210085812
72.69514 408.034111315779
72.71525 403.979796013709
72.73537 422.011658317134
72.75548 389.021563017023
72.7756 390
72.79571 377.997538197514
72.81582 379.991460476027
72.83594 383.108175329461
72.85605 448.01293623822
72.87616 378.097132520364
72.89628 396.953264330117
72.91639 424.999113611758
72.9365 405
72.95662 390.013280550532
72.97673 409.987613649075
72.99685 379.974289930171
73.01696 398.966898425695
73.03707 400.989947795441
73.05719 418.991862007778
73.0773 421
73.09741 392.977276647052
73.11753 360.017825795014
73.13764 409.092071513743
73.15776 422.022253531225
73.17787 410.993753223412
73.19798 425.993713320324
73.2181 428
73.23821 453.995639970334
73.25832 419.989422881985
73.27844 445.048676646909
73.29855 449.993429997949
73.31867 465.958597815273
73.33878 491.987732599765
73.35889 499.987555575451
73.37901 536.009724108082
73.39912 548.040560395201
73.41923 609.054530421765
73.43935 603.952190580728
73.45946 584.068343650475
73.47957 523.128300540539
73.49969 451.010278746949
73.5198 477
73.53992 477.979860788448
73.56003 464.017184804099
73.58014 493.038537730419
73.60026 487.03964822467
73.62037 477.977171395654
73.64048 498.008374679876
73.6606 464
73.68071 460.99563327878
73.70083 430.939530487025
73.72094 403.999802289071
73.74105 424.9433757914
73.76117 430.019509104445
73.78128 414.00333661486
73.80139 425.992833471094
73.82151 422.986423760569
73.84162 400.016682799902
73.86174 440.022581044169
73.88185 402.86646634566
73.90196 375.976930860046
73.92208 406.980454867523
73.94219 398.011987513785
73.9623 376
73.98242 377.025871673922
74.00253 403.994404780312
74.02264 373.959692689933
74.04276 378.98056432106
74.06287 376.019012042634
74.08299 376.982472536062
74.1031 426
74.12321 402.97804488907
74.14333 370.98485459307
74.16344 388.079493593974
74.18355 416.036732680285
74.20367 374.034316596589
74.22378 379.004403686289
74.2439 360
74.26401 387.016581536245
74.28412 397.981924251069
74.30424 363.940762615177
74.32435 355.971773711856
74.34446 380.929456831297
74.36458 398.027033901932
74.38469 349.011216335514
74.40481 374.022520338084
74.42492 399.994414557961
74.44503 372.961260607228
74.46515 370.048721570287
74.48526 389.008826554427
74.50537 359.052176659331
74.52549 348.98793750847
74.5456 386
74.56571 386.005616700272
74.58583 406.998474941657
74.60594 383.973293472075
74.62606 385.022275784845
74.64617 355.042769268649
74.66628 352.970420288728
74.6864 386
74.70651 369.003983034454
74.72662 396.998477720385
74.74674 371.007963519523
74.76685 402.991466020541
74.78697 373.017486409754
74.80708 395.977848657132
74.82719 385.020537050732
74.84731 350.002478999514
74.86742 385.021344895124
74.88753 370.958256263282
74.90765 359.031073522552
74.92776 380.984231374613
74.94787 375.99011112952
74.96799 390.003752473102
74.9881 363
75.00822 376.027069286973
