3.00117 20234
3.02128 19967
3.0414 19019
3.06151 19192
3.08162 18169
3.10174 17554
3.12185 17343
3.14197 16664
3.16208 16316
3.18219 15673
3.20231 15432
3.22242 15041
3.24253 14520
3.26265 14290
3.28276 13372
3.30288 13228
3.32299 12912
3.3431 12240
3.36322 12048
3.38333 11259
3.40344 11085
3.42356 10887
3.44367 10521
3.46379 10268
3.4839 9653
3.50401 9419
3.52413 8924
3.54424 8813
3.56435 8552
3.58447 8041
3.60458 7811
3.62469 7634
3.64481 7337
3.66492 7131
3.68504 6535
3.70515 6566
3.72526 6312
3.74538 5876
3.76549 5822
3.7856 5332
3.80572 5258
3.82583 5162
3.84595 5055
3.86606 4957
3.88617 4449
3.90629 4260
3.9264 4336
3.94651 3873
3.96663 3979
3.98674 3493
4.00686 3515
4.02697 3218
4.04708 3210
4.0672 3185
4.08731 2845
4.10742 2781
4.12754 2762
4.14765 2649
4.16776 2626
4.18788 2343
4.20799 2339
4.22811 2316
4.24822 2171
4.26833 2242
4.28845 1995
4.30856 1975
4.32867 1963
4.34879 2003
4.3689 1913
4.38902 1721
4.40913 1679
4.42924 1796
4.44936 1597
4.46947 1762
4.48958 1588
4.5097 1534
4.52981 1648
4.54992 1554
4.57004 1494
4.59015 1438
4.61027 1440
4.63038 1377
4.65049 1413
4.67061 1385
4.69072 1371
4.71083 1340
4.73095 1405
4.75106 1287
4.77118 1296
4.79129 1234
4.8114 1168
4.83152 1298
4.85163 1151
4.87174 1185
4.89186 1086
4.91197 1137
4.93209 1165
4.9522 1104
4.97231 1079
4.99243 1065
5.01254 944
5.03265 1015
5.05277 1026
5.07288 980
5.09299 1026
5.11311 927
5.13322 915
5.15334 911
5.17345 910
5.19356 921
5.21368 882
5.23379 836
5.2539 854
5.27402 835
5.29413 790
5.31425 848
5.33436 773
5.35447 862
5.37459 810
5.3947 788
5.41481 777
5.43493 821
5.45504 821
5.47516 666
5.49527 765
5.51538 716
5.5355 715
5.55561 727
5.57572 696
5.59584 677
5.61595 679
5.63606 675
5.65618 668
5.67629 694
5.69641 680
5.71652 611
5.73663 644
5.75675 670
5.77686 628
5.79697 655
5.81709 670
5.8372 637
5.85732 635
5.87743 622
5.89754 671
5.91766 603
5.93777 606
5.95788 589
5.978 661
5.99811 601
6.01823 658
6.03834 598
6.05845 606
6.07857 638
6.09868 614
6.11879 604
6.13891 582
6.15902 592
6.17913 570
6.19925 602
6.21936 554
6.23948 544
6.25959 555
6.2797 543
6.29982 561
6.31993 570
6.34004 519
6.36016 519
6.38027 514
6.40039 508
6.4205 518
6.44061 556
6.46073 523
6.48084 499
6.50095 524
6.52107 481
6.54118 547
6.56129 504
6.58141 436
6.60152 479
6.62164 502
6.64175 478
6.66186 522
6.68198 443
6.70209 469
6.7222 452
6.74232 444
6.76243 477
6.78255 451
6.80266 429
6.82277 430
6.84289 449
6.863 443
6.88311 485
6.90323 487
6.92334 421
6.94346 442
6.96357 444
6.98368 446
7.0038 457
7.02391 447
7.04402 441
7.06414 427
7.08425 403
7.10436 461
7.12448 436
7.14459 425
7.16471 444
7.18482 401
7.20493 433
7.22505 400
7.24516 422
7.26527 400
7.28539 444
7.3055 452
7.32562 423
7.34573 388
7.36584 419
7.38596 435
7.40607 400
7.42618 449
7.4463 432
7.46641 408
7.48653 412
7.50664 354
7.52675 362
7.54687 409
7.56698 427
7.58709 389
7.60721 425
7.62732 359
7.64743 419
7.66755 368
7.68766 372
7.70778 408
7.72789 405
7.748 416
7.76812 423
7.78823 355
7.80834 408
7.82846 336
7.84857 428
7.86869 357
7.8888 381
7.90891 379
7.92903 399
7.94914 411
7.96925 354
7.98937 410
8.00948 375
8.0296 389
8.04971 367
8.06982 430
8.08994 397
8.11005 401
8.13016 358
8.15028 383
8.17039 352
8.1905 385
8.21062 368
8.23073 389
8.25085 373
8.27096 368
8.29107 379
8.31119 402
8.3313 359
8.35141 386
8.37153 369
8.39164 424
8.41176 382
8.43187 381
8.45198 397
8.4721 406
8.49221 379
8.51232 374
8.53244 358
8.55255 380
8.57266 371
8.59278 404
8.61289 354
8.63301 373
8.65312 412
8.67323 395
8.69335 428
8.71346 385
8.73357 353
8.75369 366
8.7738 374
8.79392 380
8.81403 418
8.83414 418
8.85426 342
8.87437 320
8.89448 377
8.9146 401
8.93471 373
8.95483 383
8.97494 370
8.99505 349
9.01517 361
9.03528 421
9.05539 376
9.07551 393
9.09562 412
9.11573 362
9.13585 369
9.15596 374
9.17608 362
9.19619 347
9.2163 345
9.23642 349
9.25653 379
9.27664 408
9.29676 413
9.31687 366
9.33699 355
9.3571 387
9.37721 362
9.39733 364
9.41744 369
9.43755 391
9.45767 365
9.47778 393
9.4979 353
9.51801 325
9.53812 362
9.55824 346
9.57835 369
9.59846 364
9.61858 387
9.63869 367
9.6588 391
9.67892 388
9.69903 364
9.71915 356
9.73926 380
9.75937 383
9.77949 375
9.7996 409
9.81971 377
9.83983 336
9.85994 354
9.88006 374
9.90017 339
9.92028 390
9.9404 351
9.96051 390
9.98062 374
10.00074 354
10.02085 353
10.04097 364
10.06108 321
10.08119 348
10.10131 331
10.12142 361
10.14153 375
10.16165 351
10.18176 364
10.20187 350
10.22199 334
10.2421 353
10.26222 330
10.28233 419
10.30244 361
10.32256 356
10.34267 363
10.36278 369
10.3829 351
10.40301 404
10.42313 390
10.44324 353
10.46335 369
10.48347 399
10.50358 435
10.52369 380
10.54381 340
10.56392 369
10.58403 387
10.60415 377
10.62426 358
10.64438 367
10.66449 363
10.6846 382
10.70472 336
10.72483 367
10.74494 348
10.76506 393
10.78517 379
10.80529 380
10.8254 383
10.84551 357
10.86563 375
10.88574 373
10.90585 385
10.92597 349
10.94608 376
10.9662 400
10.98631 395
11.00642 392
11.02654 367
11.04665 370
11.06676 327
11.08688 400
11.10699 388
11.1271 341
11.14722 368
11.16733 383
11.18745 326
11.20756 394
11.22767 362
11.24779 358
11.2679 371
11.28801 368
11.30813 393
11.32824 421
11.34836 372
11.36847 406
11.38858 362
11.4087 367
11.42881 401
11.44892 401
11.46904 352
11.48915 415
11.50927 393
11.52938 390
11.54949 425
11.56961 392
11.58972 399
11.60983 383
11.62995 376
11.65006 418
11.67017 368
11.69029 422
11.7104 414
11.73052 417
11.75063 439
11.77074 388
11.79086 400
11.81097 433
11.83108 414
11.8512 453
11.87131 447
11.89143 475
11.91154 465
11.93165 457
11.95177 500
11.97188 458
11.99199 460
12.01211 514
12.03222 465
12.05234 529
12.07245 503
12.09256 522
12.11268 501
12.13279 527
12.1529 554
12.17302 554
12.19313 547
12.21324 549
12.23336 545
12.25347 542
12.27359 552
12.2937 531
12.31381 521
12.33393 543
12.35404 524
12.37415 471
12.39427 481
12.41438 450
12.4345 451
12.45461 432
12.47472 471
12.49484 459
12.51495 449
12.53506 425
12.55518 407
12.57529 436
12.5954 388
12.61552 454
12.63563 408
12.65575 388
12.67586 389
12.69597 380
12.71609 392
12.7362 422
12.75631 381
12.77643 377
12.79654 380
12.81666 324
12.83677 343
12.85688 357
12.877 390
12.89711 336
12.91722 335
12.93734 325
12.95745 340
12.97757 348
12.99768 341
13.01779 354
13.03791 361
13.05802 362
13.07813 357
13.09825 351
13.11836 395
13.13847 372
13.15859 323
13.1787 324
13.19882 350
13.21893 364
13.23904 347
13.25916 313
13.27927 354
13.29938 299
13.3195 362
13.33961 328
13.35973 380
13.37984 332
13.39995 319
13.42007 337
13.44018 333
13.46029 353
13.48041 360
13.50052 347
13.52064 288
13.54075 330
13.56086 334
13.58098 301
13.60109 327
13.6212 342
13.64132 367
13.66143 360
13.68154 353
13.70166 323
13.72177 339
13.74189 359
13.762 342
13.78211 336
13.80223 361
13.82234 353
13.84245 409
13.86257 351
13.88268 354
13.9028 377
13.92291 337
13.94302 329
13.96314 320
13.98325 314
14.00336 342
14.02348 319
14.04359 344
14.06371 323
14.08382 335
14.10393 306
14.12405 299
14.14416 329
14.16427 272
14.18439 319
14.2045 317
14.22461 313
14.24473 321
14.26484 349
14.28496 303
14.30507 318
14.32518 328
14.3453 326
14.36541 322
14.38552 306
14.40564 342
14.42575 341
14.44587 310
14.46598 344
14.48609 317
14.50621 314
14.52632 275
14.54643 287
14.56655 324
14.58666 321
14.60677 296
14.62689 303
14.647 330
14.66712 304
14.68723 342
14.70734 333
14.72746 285
14.74757 307
14.76768 309
14.7878 322
14.80791 306
14.82803 327
14.84814 296
14.86825 322
14.88837 369
14.90848 332
14.92859 307
14.94871 350
14.96882 347
14.98894 332
15.00905 319
15.02916 308
15.04928 369
15.06939 320
15.0895 370
15.10962 311
15.12973 323
15.14984 355
15.16996 334
15.19007 314
15.21019 364
15.2303 311
15.25041 286
15.27053 294
15.29064 302
15.31075 325
15.33087 304
15.35098 319
15.3711 331
15.39121 332
15.41132 289
15.43144 298
15.45155 293
15.47166 316
15.49178 302
15.51189 297
15.53201 317
15.55212 320
15.57223 323
15.59235 312
15.61246 319
15.63257 305
15.65269 318
15.6728 317
15.69291 288
15.71303 347
15.73314 311
15.75326 305
15.77337 304
15.79348 305
15.8136 313
15.83371 320
15.85382 324
15.87394 344
15.89405 319
15.91417 340
15.93428 296
15.95439 316
15.97451 296
15.99462 320
16.01473 298
16.03485 319
16.05496 320
16.07508 324
16.09519 326
16.1153 331
16.13542 298
16.15553 318
16.17564 304
16.19576 317
16.21587 312
16.23598 297
16.2561 317
16.27621 319
16.29633 325
16.31644 301
16.33655 311
16.35667 290
16.37678 334
16.39689 326
16.41701 333
16.43712 302
16.45724 299
16.47735 304
16.49746 308
16.51758 295
16.53769 291
16.5578 317
16.57792 303
16.59803 308
16.61814 271
16.63826 330
16.65837 306
16.67849 344
16.6986 320
16.71871 284
16.73883 307
16.75894 284
16.77905 343
16.79917 328
16.81928 317
16.8394 311
16.85951 344
16.87962 326
16.89974 274
16.91985 347
16.93996 324
16.96008 297
16.98019 296
17.00031 334
17.02042 291
17.04053 319
17.06065 301
17.08076 335
17.10087 323
17.12099 318
17.1411 309
17.16121 317
17.18133 289
17.20144 333
17.22156 295
17.24167 353
17.26178 313
17.2819 337
17.30201 291
17.32212 313
17.34224 338
17.36235 322
17.38247 326
17.40258 316
17.42269 329
17.44281 316
17.46292 308
17.48303 289
17.50315 328
17.52326 327
17.54338 351
17.56349 296
17.5836 361
17.60372 303
17.62383 349
17.64394 333
17.66406 292
17.68417 332
17.70428 328
17.7244 300
17.74451 311
17.76463 303
17.78474 315
17.80485 333
17.82497 370
17.84508 354
17.86519 320
17.88531 343
17.90542 352
17.92554 361
17.94565 336
17.96576 333
17.98588 341
18.00599 326
18.0261 339
18.04622 363
18.06633 363
18.08645 354
18.10656 344
18.12667 343
18.14679 332
18.1669 336
18.18701 337
18.20713 333
18.22724 332
18.24735 307
18.26747 350
18.28758 316
18.3077 326
18.32781 354
18.34792 341
18.36804 372
18.38815 318
18.40826 339
18.42838 354
18.44849 331
18.46861 370
18.48872 373
18.50883 326
18.52895 339
18.54906 342
18.56917 351
18.58929 330
18.6094 338
18.62951 345
18.64963 353
18.66974 310
18.68986 350
18.70997 353
18.73008 379
18.7502 354
18.77031 363
18.79042 318
18.81054 356
18.83065 346
18.85077 360
18.87088 422
18.89099 365
18.91111 378
18.93122 367
18.95133 367
18.97145 385
18.99156 368
19.01168 388
19.03179 363
19.0519 357
19.07202 344
19.09213 378
19.11224 367
19.13236 353
19.15247 356
19.17258 389
19.1927 360
19.21281 347
19.23293 364
19.25304 407
19.27315 404
19.29327 381
19.31338 415
19.33349 402
19.35361 412
19.37372 401
19.39384 459
19.41395 407
19.43406 433
19.45418 459
19.47429 439
19.4944 426
19.51452 411
19.53463 452
19.55475 477
19.57486 495
19.59497 525
19.61509 568
19.6352 558
19.65531 520
19.67543 559
19.69554 554
19.71565 605
19.73577 645
19.75588 636
19.776 667
19.79611 633
19.81622 723
19.83634 727
19.85645 760
19.87656 705
19.89668 766
19.91679 723
19.93691 733
19.95702 679
19.97713 684
19.99725 661
20.01736 709
20.03747 684
20.05759 700
20.0777 641
20.09782 657
20.11793 678
20.13804 666
20.15816 678
20.17827 679
20.19838 676
20.2185 650
20.23861 651
20.25872 634
20.27884 672
20.29895 604
20.31907 644
20.33918 687
20.35929 647
20.37941 690
20.39952 672
20.41963 675
20.43975 690
20.45986 653
20.47998 757
20.50009 720
20.5202 655
20.54032 713
20.56043 727
20.58054 710
20.60066 713
20.62077 707
20.64088 800
20.661 868
20.68111 913
20.70123 1085
20.72134 1309
20.74145 1619
20.76157 2113
20.78168 2720
20.80179 3644
20.82191 4346
20.84202 4718
20.86214 4603
20.88225 3911
20.90236 3002
20.92248 2187
20.94259 1623
20.9627 1223
20.98282 1061
21.00293 988
21.02305 863
21.04316 864
21.06327 778
21.08339 821
21.1035 741
21.12361 702
21.14373 640
21.16384 671
21.18395 638
21.20407 630
21.22418 572
21.2443 622
21.26441 634
21.28452 580
21.30464 610
21.32475 598
21.34486 594
21.36498 602
21.38509 582
21.40521 544
21.42532 593
21.44543 542
21.46555 574
21.48566 505
21.50577 567
21.52589 588
21.546 538
21.56612 583
21.58623 571
21.60634 564
21.62646 595
21.64657 545
21.66668 535
21.6868 596
21.70691 533
21.72702 526
21.74714 527
21.76725 556
21.78737 589
21.80748 571
21.82759 537
21.84771 596
21.86782 569
21.88793 615
21.90805 674
21.92816 698
21.94828 758
21.96839 821
21.9885 818
22.00862 818
22.02873 785
22.04884 723
22.06896 661
22.08907 616
22.10919 566
22.1293 536
22.14941 532
22.16953 573
22.18964 515
22.20975 586
22.22987 549
22.24998 609
22.27009 586
22.29021 539
22.31032 543
22.33044 528
22.35055 534
22.37066 542
22.39078 527
22.41089 494
22.431 489
22.45112 480
22.47123 478
22.49135 515
22.51146 430
22.53157 488
22.55169 453
22.5718 502
22.59191 507
22.61203 523
22.63214 477
22.65225 488
22.67237 510
22.69248 512
22.7126 520
22.73271 498
22.75282 531
22.77294 503
22.79305 469
22.81316 497
22.83328 501
22.85339 536
22.87351 525
22.89362 538
22.91373 482
22.93385 557
22.95396 502
22.97407 550
22.99419 557
23.0143 545
23.03442 509
23.05453 541
23.07464 529
23.09476 532
23.11487 539
23.13498 563
23.1551 506
23.17521 530
23.19532 544
23.21544 490
23.23555 531
23.25567 506
23.27578 519
23.29589 508
23.31601 505
23.33612 437
23.35623 468
23.37635 509
23.39646 509
23.41658 470
23.43669 494
23.4568 493
23.47692 540
23.49703 568
23.51714 639
23.53726 552
23.55737 580
23.57749 595
23.5976 608
23.61771 595
23.63783 590
23.65794 599
23.67805 580
23.69817 550
23.71828 565
23.73839 550
23.75851 565
23.77862 515
23.79874 542
23.81885 536
23.83896 591
23.85908 581
23.87919 641
23.8993 630
23.91942 639
23.93953 661
23.95965 687
23.97976 645
23.99987 663
24.01999 586
24.0401 557
24.06021 587
24.08033 530
24.10044 515
24.12056 540
24.14067 543
24.16078 562
24.1809 540
24.20101 572
24.22112 615
24.24124 631
24.26135 672
24.28146 681
24.30158 646
24.32169 628
24.34181 605
24.36192 576
24.38203 506
24.40215 579
24.42226 567
24.44237 533
24.46249 590
24.4826 586
24.50272 548
24.52283 487
24.54294 517
24.56306 551
24.58317 547
24.60328 543
24.6234 541
24.64351 590
24.66362 564
24.68374 580
24.70385 573
24.72397 541
24.74408 615
24.76419 614
24.78431 623
24.80442 632
24.82453 599
24.84465 654
24.86476 620
24.88488 582
24.90499 607
24.9251 584
24.94522 622
24.96533 622
24.98544 585
25.00556 606
25.02567 584
25.04579 548
25.0659 600
25.08601 574
25.10613 601
25.12624 563
25.14635 601
25.16647 568
25.18658 529
25.20669 569
25.22681 547
25.24692 517
25.26704 587
25.28715 532
25.30726 496
25.32738 543
25.34749 572
25.3676 552
25.38772 513
25.40783 584
25.42795 582
25.44806 621
25.46817 604
25.48829 641
25.5084 625
25.52851 621
25.54863 671
25.56874 633
25.58886 656
25.60897 652
25.62908 620
25.6492 596
25.66931 586
25.68942 585
25.70954 585
25.72965 593
25.74976 551
25.76988 546
25.78999 596
25.81011 533
25.83022 574
25.85033 626
25.87045 575
25.89056 546
25.91067 559
25.93079 600
25.9509 564
25.97102 557
25.99113 580
26.01124 537
26.03136 555
26.05147 586
26.07158 613
26.0917 590
26.11181 612
26.13193 624
26.15204 678
26.17215 698
26.19227 797
26.21238 730
26.23249 816
26.25261 892
26.27272 899
26.29283 919
26.31295 978
26.33306 1130
26.35318 1238
26.37329 1342
26.3934 1490
26.41352 1712
26.43363 2069
26.45374 2483
26.47386 3190
26.49397 4139
26.51409 5744
26.5342 8066
26.55431 10587
26.57443 13491
26.59454 16476
26.61465 18722
26.63477 17855
26.65488 15488
26.67499 11637
26.69511 8947
26.71522 6494
26.73534 4096
26.75545 2360
26.77556 1608
26.79568 1273
26.81579 1142
26.8359 1066
26.85602 1075
26.87613 992
26.89625 918
26.91636 867
26.93647 830
26.95659 840
26.9767 837
26.99681 760
27.01693 794
27.03704 783
27.05716 842
27.07727 742
27.09738 703
27.1175 663
27.13761 601
27.15772 651
27.17784 617
27.19795 582
27.21806 576
27.23818 642
27.25829 615
27.27841 633
27.29852 630
27.31863 622
27.33875 735
27.35886 746
27.37897 819
27.39909 887
27.4192 907
27.43932 855
27.45943 871
27.47954 800
27.49966 817
27.51977 715
27.53988 672
27.56 623
27.58011 606
27.60023 615
27.62034 633
27.64045 593
27.66057 675
27.68068 730
27.70079 743
27.72091 820
27.74102 936
27.76113 1025
27.78125 997
27.80136 935
27.82148 988
27.84159 949
27.8617 1062
27.88182 929
27.90193 1053
27.92204 1053
27.94216 988
27.96227 944
27.98239 896
28.0025 821
28.02261 716
28.04273 639
28.06284 588
28.08295 557
28.10307 499
28.12318 498
28.1433 534
28.16341 496
28.18352 537
28.20364 543
28.22375 511
28.24386 515
28.26398 551
28.28409 518
28.3042 541
28.32432 447
28.34443 465
28.36455 420
28.38466 431
28.40477 461
28.42489 402
28.445 398
28.46511 429
28.48523 403
28.50534 418
28.52546 382
28.54557 412
28.56568 410
28.5858 389
28.60591 380
28.62602 377
28.64614 391
28.66625 383
28.68636 375
28.70648 395
28.72659 374
28.74671 402
28.76682 413
28.78693 383
28.80705 359
28.82716 390
28.84727 384
28.86739 368
28.8875 375
28.90762 368
28.92773 407
28.94784 372
28.96796 351
28.98807 398
29.00818 410
29.0283 386
29.04841 404
29.06853 382
29.08864 366
29.10875 416
29.12887 352
29.14898 370
29.16909 368
29.18921 397
29.20932 353
29.22943 358
29.24955 372
29.26966 407
29.28978 369
29.30989 357
29.33 400
29.35012 447
29.37023 410
29.39034 420
29.41046 427
29.43057 455
29.45069 435
29.4708 430
29.49091 422
29.51103 372
29.53114 368
29.55125 404
29.57137 407
29.59148 390
29.6116 404
29.63171 411
29.65182 394
29.67194 383
29.69205 376
29.71216 422
29.73228 424
29.75239 404
29.7725 472
29.79262 410
29.81273 394
29.83285 405
29.85296 383
29.87307 406
29.89319 422
29.9133 433
29.93341 364
29.95353 422
29.97364 383
29.99376 419
30.01387 393
30.03398 418
30.0541 381
30.07421 414
30.09432 399
30.11444 390
30.13455 422
30.15467 444
30.17478 448
30.19489 476
30.21501 442
30.23512 480
30.25523 436
30.27535 442
30.29546 487
30.31557 496
30.33569 456
30.3558 435
30.37592 479
30.39603 476
30.41614 477
30.43626 471
30.45637 501
30.47648 447
30.4966 443
30.51671 452
30.53683 367
30.55694 396
30.57705 404
30.59717 375
30.61728 404
30.63739 370
30.65751 407
30.67762 354
30.69773 423
30.71785 438
30.73796 436
30.75808 442
30.77819 440
30.7983 415
30.81842 401
30.83853 394
30.85864 378
30.87876 393
30.89887 404
30.91899 357
30.9391 387
30.95921 343
30.97933 365
30.99944 349
31.01955 363
31.03967 337
31.05978 329
31.0799 329
31.10001 350
31.12012 340
31.14024 356
31.16035 389
31.18046 352
31.20058 355
31.22069 358
31.2408 340
31.26092 346
31.28103 393
31.30115 355
31.32126 355
31.34137 362
31.36149 348
31.3816 375
31.40171 353
31.42183 376
31.44194 354
31.46206 352
31.48217 352
31.50228 321
31.5224 336
31.54251 329
31.56262 319
31.58274 366
31.60285 348
31.62297 319
31.64308 354
31.66319 370
31.68331 354
31.70342 329
31.72353 332
31.74365 348
31.76376 335
31.78387 300
31.80399 321
31.8241 314
31.84422 339
31.86433 339
31.88444 312
31.90456 298
31.92467 331
31.94478 337
31.9649 315
31.98501 362
32.00513 324
32.02524 333
32.04535 339
32.06547 329
32.08558 333
32.10569 330
32.12581 354
32.14592 345
32.16604 332
32.18615 345
32.20626 318
32.22638 323
32.24649 339
32.2666 305
32.28672 339
32.30683 355
32.32694 348
32.34706 371
32.36717 340
32.38729 343
32.4074 363
32.42751 357
32.44763 413
32.46774 373
32.48785 333
32.50797 353
32.52808 363
32.5482 336
32.56831 342
32.58842 325
32.60854 329
32.62865 319
32.64876 353
32.66888 357
32.68899 303
32.7091 314
32.72922 305
32.74933 325
32.76945 349
32.78956 334
32.80967 352
32.82979 302
32.8499 305
32.87001 305
32.89013 314
32.91024 323
32.93036 314
32.95047 299
32.97058 318
32.9907 326
33.01081 313
33.03092 314
33.05104 321
33.07115 336
33.09127 295
33.11138 304
33.13149 346
33.15161 303
33.17172 310
33.19183 325
33.21195 289
33.23206 345
33.25217 327
33.27229 351
33.2924 301
33.31252 346
33.33263 334
33.35274 336
33.37286 303
33.39297 328
33.41308 309
33.4332 316
33.45331 316
33.47343 299
33.49354 335
33.51365 301
33.53377 321
33.55388 288
33.57399 305
33.59411 312
33.61422 313
33.63434 332
33.65445 317
33.67456 328
33.69468 370
33.71479 312
33.7349 307
33.75502 331
33.77513 300
33.79524 327
33.81536 325
33.83547 329
33.85559 330
33.8757 343
33.89581 367
33.91593 348
33.93604 347
33.95615 322
33.97627 310
33.99638 306
34.0165 326
34.03661 342
34.05672 332
34.07684 341
34.09695 348
34.11706 360
34.13718 368
34.15729 382
34.17741 354
34.19752 395
34.21763 365
34.23775 349
34.25786 394
34.27797 355
34.29809 306
34.3182 367
34.33831 335
34.35843 379
34.37854 385
34.39866 377
34.41877 364
34.43888 394
34.459 389
34.47911 383
34.49922 378
34.51934 374
34.53945 408
34.55957 417
34.57968 395
34.59979 382
34.61991 418
34.64002 434
34.66013 429
34.68025 431
34.70036 457
34.72047 461
34.74059 464
34.7607 470
34.78082 485
34.80093 503
34.82104 430
34.84116 455
34.86127 497
34.88138 463
34.9015 469
34.92161 489
34.94173 490
34.96184 511
34.98195 514
35.00207 490
35.02218 463
35.04229 496
35.06241 458
35.08252 471
35.10264 516
35.12275 483
35.14286 518
35.16298 493
35.18309 526
35.2032 464
35.22332 509
35.24343 490
35.26354 505
35.28366 511
35.30377 498
35.32389 524
35.344 488
35.36411 517
35.38423 485
35.40434 465
35.42445 509
35.44457 501
35.46468 476
35.4848 463
35.50491 521
35.52502 460
35.54514 490
35.56525 482
35.58536 490
35.60548 424
35.62559 465
35.64571 465
35.66582 446
35.68593 444
35.70605 428
35.72616 419
35.74627 428
35.76639 451
35.7865 451
35.80661 448
35.82673 443
35.84684 415
35.86696 455
35.88707 431
35.90718 454
35.9273 452
35.94741 434
35.96752 445
35.98764 375
36.00775 406
36.02787 421
36.04798 435
36.06809 418
36.08821 450
36.10832 479
36.12843 425
36.14855 392
36.16866 426
36.18878 487
36.20889 435
36.229 460
36.24912 450
36.26923 479
36.28934 527
36.30946 503
36.32957 475
36.34968 610
36.3698 616
36.38991 702
36.41003 768
36.43014 912
36.45025 1066
36.47037 1357
36.49048 1593
36.51059 1744
36.53071 1545
36.55082 1374
36.57094 1329
36.59105 1110
36.61116 976
36.63128 920
36.65139 735
36.6715 646
36.69162 519
36.71173 482
36.73184 465
36.75196 455
36.77207 434
36.79219 452
36.8123 437
36.83241 413
36.85253 441
36.87264 443
36.89275 437
36.91287 445
36.93298 429
36.9531 459
36.97321 436
36.99332 427
37.01344 427
37.03355 383
37.05366 437
37.07378 385
37.09389 412
37.11401 377
37.13412 405
37.15423 368
37.17435 380
37.19446 393
37.21457 382
37.23469 378
37.2548 352
37.27491 387
37.29503 407
37.31514 373
37.33526 387
37.35537 397
37.37548 410
37.3956 380
37.41571 378
37.43582 349
37.45594 375
37.47605 431
37.49617 398
37.51628 383
37.53639 393
37.55651 394
37.57662 362
37.59673 430
37.61685 422
37.63696 422
37.65708 410
37.67719 399
37.6973 429
37.71742 424
37.73753 404
37.75764 369
37.77776 412
37.79787 417
37.81798 408
37.8381 434
37.85821 355
37.87833 391
37.89844 418
37.91855 450
37.93867 354
37.95878 383
37.97889 373
37.99901 393
38.01912 405
38.03924 389
38.05935 386
38.07946 400
38.09958 382
38.11969 382
38.1398 413
38.15992 403
38.18003 418
38.20015 431
38.22026 395
38.24037 396
38.26049 402
38.2806 417
38.30071 418
38.32083 413
38.34094 434
38.36105 376
38.38117 417
38.40128 418
38.4214 455
38.44151 416
38.46162 446
38.48174 392
38.50185 406
38.52196 418
38.54208 449
38.56219 420
38.58231 408
38.60242 398
38.62253 420
38.64265 369
38.66276 406
38.68287 413
38.70299 412
38.7231 388
38.74321 391
38.76333 389
38.78344 364
38.80356 372
38.82367 414
38.84378 374
38.8639 410
38.88401 377
38.90412 333
38.92424 391
38.94435 411
38.96447 374
38.98458 401
39.00469 399
39.02481 365
39.04492 421
39.06503 416
39.08515 387
39.10526 410
39.12538 404
39.14549 401
39.1656 405
39.18572 422
39.20583 434
39.22594 479
39.24606 505
39.26617 510
39.28628 523
39.3064 645
39.32651 680
39.34663 867
39.36674 1003
39.38685 1134
39.40697 1235
39.42708 1357
39.44719 1409
39.46731 1294
39.48742 1112
39.50754 980
39.52765 898
39.54776 847
39.56788 792
39.58799 598
39.6081 463
39.62822 441
39.64833 396
39.66845 355
39.68856 365
39.70867 367
39.72879 349
39.7489 341
39.76901 367
39.78913 339
39.80924 362
39.82935 333
39.84947 356
39.86958 379
39.8897 357
39.90981 370
39.92992 372
39.95004 342
39.97015 364
39.99026 353
40.01038 372
40.03049 357
40.05061 423
40.07072 435
40.09083 411
40.11095 464
40.13106 462
40.15117 511
40.17129 609
40.1914 671
40.21152 716
40.23163 749
40.25174 823
40.27186 806
40.29197 786
40.31208 717
40.3322 669
40.35231 624
40.37242 553
40.39254 490
40.41265 472
40.43277 436
40.45288 358
40.47299 345
40.49311 319
40.51322 313
40.53333 360
40.55345 324
40.57356 341
40.59368 318
40.61379 341
40.6339 319
40.65402 294
40.67413 348
40.69424 360
40.71436 311
40.73447 341
40.75458 342
40.7747 349
40.79481 355
40.81493 334
40.83504 335
40.85515 321
40.87527 331
40.89538 294
40.91549 329
40.93561 322
40.95572 352
40.97584 324
40.99595 331
41.01606 320
41.03618 321
41.05629 295
41.0764 314
41.09652 317
41.11663 329
41.13675 324
41.15686 335
41.17697 345
41.19709 296
41.2172 341
41.23731 314
41.25743 340
41.27754 321
41.29765 309
41.31777 305
41.33788 326
41.358 313
41.37811 342
41.39822 308
41.41834 328
41.43845 298
41.45856 306
41.47868 306
41.49879 319
41.51891 311
41.53902 325
41.55913 343
41.57925 345
41.59936 308
41.61947 369
41.63959 341
41.6597 370
41.67982 370
41.69993 392
41.72004 448
41.74016 395
41.76027 406
41.78038 400
41.8005 391
41.82061 389
41.84072 374
41.86084 380
41.88095 326
41.90107 351
41.92118 334
41.94129 355
41.96141 356
41.98152 323
42.00163 339
42.02175 305
42.04186 311
42.06198 326
42.08209 342
42.1022 325
42.12232 373
42.14243 352
42.16254 379
42.18266 373
42.20277 397
42.22289 396
42.243 470
42.26311 511
42.28323 563
42.30334 567
42.32345 633
42.34357 744
42.36368 925
42.38379 981
42.40391 1110
42.42402 1136
42.44414 1023
42.46425 898
42.48436 741
42.50448 736
42.52459 703
42.5447 652
42.56482 573
42.58493 514
42.60505 401
42.62516 381
42.64527 356
42.66539 352
42.6855 368
42.70561 333
42.72573 359
42.74584 304
42.76595 308
42.78607 337
42.80618 352
42.8263 345
42.84641 306
42.86652 335
42.88664 301
42.90675 333
42.92686 349
42.94698 332
42.96709 320
42.98721 289
43.00732 313
43.02743 302
43.04755 294
43.06766 277
43.08777 329
43.10789 309
43.128 274
43.14812 287
43.16823 327
43.18834 305
43.20846 326
43.22857 336
43.24868 312
43.2688 302
43.28891 293
43.30902 318
43.32914 266
43.34925 303
43.36937 303
43.38948 312
43.40959 283
43.42971 292
43.44982 321
43.46993 287
43.49005 313
43.51016 313
43.53028 285
43.55039 283
43.5705 311
43.59062 295
43.61073 289
43.63084 281
43.65096 294
43.67107 295
43.69119 295
43.7113 294
43.73141 270
43.75153 283
43.77164 289
43.79175 278
43.81187 265
43.83198 263
43.85209 266
43.87221 256
43.89232 286
43.91244 263
43.93255 301
43.95266 312
43.97278 291
43.99289 282
44.013 288
44.03312 257
44.05323 277
44.07335 271
44.09346 290
44.11357 264
44.13369 290
44.1538 299
44.17391 294
44.19403 294
44.21414 286
44.23426 270
44.25437 260
44.27448 286
44.2946 331
44.31471 285
44.33482 286
44.35494 264
44.37505 283
44.39516 277
44.41528 297
44.43539 277
44.45551 288
44.47562 253
44.49573 261
44.51585 287
44.53596 295
44.55607 257
44.57619 295
44.5963 327
44.61642 341
44.63653 257
44.65664 282
44.67676 312
44.69687 299
44.71698 272
44.7371 284
44.75721 290
44.77732 341
44.79744 271
44.81755 323
44.83767 305
44.85778 306
44.87789 290
44.89801 308
44.91812 309
44.93823 286
44.95835 327
44.97846 282
44.99858 282
45.01869 306
45.0388 309
45.05892 296
45.07903 315
45.09914 289
45.11926 305
45.13937 299
45.15949 308
45.1796 297
45.19971 311
45.21983 272
45.23994 340
45.26005 319
45.28017 320
45.30028 328
45.32039 338
45.34051 338
45.36062 338
45.38074 349
45.40085 325
45.42096 340
45.44108 350
45.46119 344
45.4813 379
45.50142 338
45.52153 390
45.54165 385
45.56176 349
45.58187 436
45.60199 448
45.6221 474
45.64221 471
45.66233 538
45.68244 615
45.70256 709
45.72267 785
45.74278 804
45.7629 818
45.78301 816
45.80312 682
45.82324 591
45.84335 591
45.86346 532
45.88358 507
45.90369 514
45.92381 437
45.94392 404
45.96403 362
45.98415 324
46.00426 333
46.02437 356
46.04449 323
46.0646 289
46.08472 300
46.10483 312
46.12494 306
46.14506 338
46.16517 272
46.18528 293
46.2054 292
46.22551 314
46.24563 340
46.26574 289
46.28585 295
46.30597 320
46.32608 315
46.34619 301
46.36631 302
46.38642 295
46.40653 284
46.42665 281
46.44676 286
46.46688 286
46.48699 288
46.5071 303
46.52722 307
46.54733 269
46.56744 297
46.58756 284
46.60767 281
46.62779 288
46.6479 271
46.66801 277
46.68813 265
46.70824 299
46.72835 297
46.74847 292
46.76858 300
46.78869 308
46.80881 343
46.82892 270
46.84904 325
46.86915 303
46.88926 302
46.90938 295
46.92949 306
46.9496 295
46.96972 284
46.98983 279
47.00995 328
47.03006 319
47.05017 313
47.07029 313
47.0904 318
47.11051 305
47.13063 300
47.15074 304
47.17086 282
47.19097 303
47.21108 306
47.2312 281
47.25131 266
47.27142 284
47.29154 288
47.31165 308
47.33176 306
47.35188 288
47.37199 316
47.39211 277
47.41222 317
47.43233 316
47.45245 295
47.47256 314
47.49267 298
47.51279 292
47.5329 283
47.55302 308
47.57313 281
47.59324 321
47.61336 308
47.63347 266
47.65358 299
47.6737 287
47.69381 288
47.71393 259
47.73404 309
47.75415 289
47.77427 303
47.79438 279
47.81449 271
47.83461 286
47.85472 282
47.87483 306
47.89495 279
47.91506 310
47.93518 284
47.95529 296
47.9754 292
47.99552 284
48.01563 287
48.03574 268
48.05586 290
48.07597 294
48.09609 284
48.1162 300
48.13631 300
48.15643 295
48.17654 332
48.19665 295
48.21677 305
48.23688 287
48.257 307
48.27711 315
48.29722 288
48.31734 303
48.33745 307
48.35756 306
48.37768 305
48.39779 295
48.4179 317
48.43802 296
48.45813 298
48.47825 324
48.49836 273
48.51847 265
48.53859 296
48.5587 284
48.57881 295
48.59893 295
48.61904 297
48.63916 297
48.65927 313
48.67938 280
48.6995 316
48.71961 319
48.73972 282
48.75984 315
48.77995 292
48.80006 302
48.82018 308
48.84029 288
48.86041 292
48.88052 321
48.90063 285
48.92075 296
48.94086 286
48.96097 295
48.98109 311
49.0012 319
49.02132 282
49.04143 306
49.06154 291
49.08166 321
49.10177 318
49.12188 318
49.142 285
49.16211 322
49.18223 303
49.20234 305
49.22245 295
49.24257 302
49.26268 280
49.28279 271
49.30291 275
49.32302 297
49.34313 257
49.36325 301
49.38336 290
49.40348 286
49.42359 282
49.4437 251
49.46382 310
49.48393 301
49.50404 281
49.52416 334
49.54427 294
49.56439 283
49.5845 338
49.60461 316
49.62473 309
49.64484 342
49.66495 341
49.68507 336
49.70518 350
49.7253 357
49.74541 405
49.76552 397
49.78564 428
49.80575 402
49.82586 441
49.84598 528
49.86609 536
49.8862 560
49.90632 574
49.92643 620
49.94655 727
49.96666 796
49.98677 933
50.00689 1097
50.027 1266
50.04711 1577
50.06723 1768
50.08734 2030
50.10746 2079
50.12757 1890
50.14768 1663
50.1678 1332
50.18791 1151
50.20802 1147
50.22814 1175
50.24825 1098
50.26837 1004
50.28848 745
50.30859 635
50.32871 427
50.34882 406
50.36893 381
50.38905 401
50.40916 361
50.42927 368
50.44939 384
50.4695 363
50.48962 405
50.50973 406
50.52984 395
50.54996 415
50.57007 389
50.59018 393
50.6103 385
50.63041 356
50.65053 379
50.67064 334
50.69075 342
50.71087 335
50.73098 365
50.75109 328
50.77121 329
50.79132 336
50.81143 341
50.83155 313
50.85166 309
50.87178 344
50.89189 311
50.912 286
50.93212 286
50.95223 296
50.97234 296
50.99246 290
51.01257 298
51.03269 295
51.0528 305
51.07291 281
51.09303 312
51.11314 291
51.13325 269
51.15337 284
51.17348 303
51.1936 279
51.21371 276
51.23382 288
51.25394 312
51.27405 275
51.29416 336
51.31428 313
51.33439 327
51.3545 305
51.37462 289
51.39473 295
51.41485 285
51.43496 255
51.45507 256
51.47519 268
51.4953 292
51.51541 270
51.53553 248
51.55564 265
51.57576 254
51.59587 274
51.61598 270
51.6361 242
51.65621 278
51.67632 246
51.69644 277
51.71655 265
51.73667 244
51.75678 242
51.77689 236
51.79701 265
51.81712 266
51.83723 276
51.85735 228
51.87746 267
51.89757 269
51.91769 250
51.9378 268
51.95792 242
51.97803 270
51.99814 240
52.01826 265
52.03837 261
52.05848 259
52.0786 270
52.09871 242
52.11883 270
52.13894 267
52.15905 247
52.17917 283
52.19928 270
52.21939 272
52.23951 264
52.25962 307
52.27974 271
52.29985 260
52.31996 266
52.34008 264
52.36019 261
52.3803 295
52.40042 272
52.42053 271
52.44064 295
52.46076 267
52.48087 292
52.50099 291
52.5211 262
52.54121 276
52.56133 285
52.58144 290
52.60155 279
52.62167 297
52.64178 288
52.6619 327
52.68201 290
52.70212 284
52.72224 313
52.74235 280
52.76246 260
52.78258 295
52.80269 275
52.8228 306
52.84292 292
52.86303 267
52.88315 304
52.90326 274
52.92337 278
52.94349 278
52.9636 304
52.98371 289
53.00383 283
53.02394 293
53.04406 301
53.06417 306
53.08428 279
53.1044 287
53.12451 306
53.14462 329
53.16474 311
53.18485 287
53.20497 323
53.22508 301
53.24519 314
53.26531 287
53.28542 281
53.30553 309
53.32565 307
53.34576 287
53.36587 279
53.38599 300
53.4061 279
53.42622 299
53.44633 284
53.46644 295
53.48656 287
53.50667 283
53.52678 311
53.5469 300
53.56701 279
53.58713 311
53.60724 291
53.62735 281
53.64747 282
53.66758 288
53.68769 285
53.70781 290
53.72792 278
53.74804 289
53.76815 299
53.78826 313
53.80838 349
53.82849 285
53.8486 295
53.86872 296
53.88883 339
53.90894 306
53.92906 280
53.94917 296
53.96929 287
53.9894 305
54.00951 302
54.02963 316
54.04974 309
54.06985 321
54.08997 333
54.11008 312
54.1302 339
54.15031 311
54.17042 324
54.19054 342
54.21065 292
54.23076 342
54.25088 298
54.27099 314
54.29111 315
54.31122 301
54.33133 302
54.35145 355
54.37156 303
54.39167 375
54.41179 351
54.4319 324
54.45201 361
54.47213 337
54.49224 347
54.51236 341
54.53247 353
54.55258 332
54.5727 363
54.59281 355
54.61292 363
54.63304 385
54.65315 416
54.67327 477
54.69338 456
54.71349 535
54.73361 560
54.75372 608
54.77383 637
54.79395 671
54.81406 773
54.83417 817
54.85429 784
54.8744 710
54.89452 642
54.91463 555
54.93474 559
54.95486 554
54.97497 594
54.99508 564
55.0152 527
55.03531 438
55.05543 428
55.07554 399
55.09565 384
55.11577 413
55.13588 408
55.15599 406
55.17611 380
55.19622 430
55.21634 447
55.23645 513
55.25656 509
55.27668 526
55.29679 503
55.3169 531
55.33702 447
55.35713 422
55.37724 412
55.39736 395
55.41747 390
55.43759 434
55.4577 441
55.47781 394
55.49793 362
55.51804 336
55.53815 330
55.55827 312
55.57838 346
55.5985 317
55.61861 329
55.63872 311
55.65884 282
55.67895 290
55.69906 306
55.71918 319
55.73929 276
55.75941 310
55.77952 321
55.79963 275
55.81975 319
55.83986 285
55.85997 284
55.88009 277
55.9002 267
55.92031 306
55.94043 314
55.96054 313
55.98066 303
56.00077 271
56.02088 280
56.041 303
56.06111 304
56.08122 291
56.10134 298
56.12145 268
56.14157 298
56.16168 292
56.18179 298
56.20191 285
56.22202 285
56.24213 291
56.26225 270
56.28236 295
56.30248 318
56.32259 293
56.3427 309
56.36282 268
56.38293 297
56.40304 287
56.42316 304
56.44327 314
56.46338 276
56.4835 324
56.50361 300
56.52373 292
56.54384 303
56.56395 270
56.58407 299
56.60418 310
56.62429 317
56.64441 296
56.66452 278
56.68464 283
56.70475 274
56.72486 288
56.74498 291
56.76509 263
56.7852 294
56.80532 245
56.82543 281
56.84554 262
56.86566 274
56.88577 292
56.90589 283
56.926 261
56.94611 254
56.96623 276
56.98634 299
57.00645 268
57.02657 281
57.04668 244
57.0668 266
57.08691 283
57.10702 273
57.12714 286
57.14725 276
57.16736 288
57.18748 302
57.20759 278
57.22771 299
57.24782 307
57.26793 295
57.28805 277
57.30816 284
57.32827 267
57.34839 294
57.3685 274
57.38861 288
57.40873 299
57.42884 278
57.44896 301
57.46907 295
57.48918 292
57.5093 272
57.52941 260
57.54952 261
57.56964 278
57.58975 269
57.60987 281
57.62998 281
57.65009 296
57.67021 284
57.69032 258
57.71043 265
57.73055 246
57.75066 277
57.77078 264
57.79089 284
57.811 302
57.83112 267
57.85123 255
57.87134 298
57.89146 305
57.91157 286
57.93168 238
57.9518 291
57.97191 245
57.99203 273
58.01214 262
58.03225 260
58.05237 266
58.07248 291
58.09259 275
58.11271 273
58.13282 256
58.15294 282
58.17305 284
58.19316 269
58.21328 283
58.23339 269
58.2535 279
58.27362 268
58.29373 249
58.31385 268
58.33396 266
58.35407 247
58.37419 244
58.3943 273
58.41441 277
58.43453 302
58.45464 287
58.47475 314
58.49487 276
58.51498 299
58.5351 298
58.55521 293
58.57532 281
58.59544 269
58.61555 292
58.63566 294
58.65578 287
58.67589 298
58.69601 231
58.71612 294
58.73623 256
58.75635 265
58.77646 252
58.79657 288
58.81669 244
58.8368 282
58.85691 275
58.87703 274
58.89714 263
58.91726 244
58.93737 279
58.95748 311
58.9776 315
58.99771 281
59.01782 266
59.03794 270
59.05805 280
59.07817 272
59.09828 276
59.11839 284
59.13851 298
59.15862 271
59.17873 238
59.19885 270
59.21896 282
59.23908 256
59.25919 284
59.2793 303
59.29942 250
59.31953 286
59.33964 304
59.35976 263
59.37987 275
59.39998 285
59.4201 296
59.44021 319
59.46033 270
59.48044 280
59.50055 296
59.52067 335
59.54078 329
59.56089 343
59.58101 324
59.60112 329
59.62124 324
59.64135 360
59.66146 344
59.68158 391
59.70169 419
59.7218 487
59.74192 505
59.76203 583
59.78215 633
59.80226 775
59.82237 839
59.84249 946
59.8626 1151
59.88271 1230
59.90283 1374
59.92294 1355
59.94305 1303
59.96317 1082
59.98328 909
60.0034 829
60.02351 735
60.04362 797
60.06374 808
60.08385 793
60.10396 820
60.12408 658
60.14419 495
60.16431 432
60.18442 387
60.20453 374
60.22465 351
60.24476 315
60.26487 309
60.28499 278
60.3051 282
60.32522 279
60.34533 282
60.36544 302
60.38556 281
60.40567 278
60.42578 279
60.4459 295
60.46601 271
60.48612 288
60.50624 243
60.52635 270
60.54647 248
60.56658 287
60.58669 255
60.60681 273
60.62692 288
60.64703 293
60.66715 261
60.68726 294
60.70738 291
60.72749 277
60.7476 265
60.76772 288
60.78783 288
60.80794 287
60.82806 260
60.84817 256
60.86828 298
60.8884 305
60.90851 282
60.92863 290
60.94874 304
60.96885 265
60.98897 286
61.00908 293
61.02919 327
61.04931 257
61.06942 307
61.08954 308
61.10965 311
61.12976 336
61.14988 283
61.16999 300
61.1901 293
61.21022 275
61.23033 280
61.25045 317
61.27056 315
61.29067 324
61.31079 308
61.3309 266
61.35101 290
61.37113 308
61.39124 278
61.41135 312
61.43147 321
61.45158 277
61.4717 300
61.49181 304
61.51192 327
61.53204 286
61.55215 296
61.57226 306
61.59238 295
61.61249 329
61.63261 339
61.65272 310
61.67283 312
61.69295 316
61.71306 328
61.73317 318
61.75329 321
61.7734 341
61.79352 318
61.81363 319
61.83374 307
61.85386 319
61.87397 330
61.89408 321
61.9142 338
61.93431 368
61.95442 332
61.97454 347
61.99465 331
62.01477 328
62.03488 359
62.05499 390
62.07511 351
62.09522 356
62.11533 349
62.13545 345
62.15556 353
62.17568 364
62.19579 353
62.2159 388
62.23602 350
62.25613 384
62.27624 358
62.29636 325
62.31647 365
62.33659 340
62.3567 347
62.37681 338
62.39693 359
62.41704 312
62.43715 304
62.45727 306
62.47738 325
62.49749 316
62.51761 302
62.53772 324
62.55784 290
62.57795 291
62.59806 310
62.61818 304
62.63829 314
62.6584 291
62.67852 288
62.69863 288
62.71875 267
62.73886 326
62.75897 295
62.77909 280
62.7992 278
62.81931 255
62.83943 292
62.85954 285
62.87965 320
62.89977 296
62.91988 295
62.94 310
62.96011 290
62.98022 276
63.00034 264
63.02045 306
63.04056 276
63.06068 296
63.08079 273
63.10091 293
63.12102 329
63.14113 260
63.16125 305
63.18136 301
63.20147 295
63.22159 283
63.2417 291
63.26182 296
63.28193 307
63.30204 286
63.32216 299
63.34227 285
63.36238 308
63.3825 272
63.40261 300
63.42272 306
63.44284 292
63.46295 294
63.48307 274
63.50318 300
63.52329 284
63.54341 302
63.56352 313
63.58363 309
63.60375 293
63.62386 296
63.64398 303
63.66409 317
63.6842 341
63.70432 305
63.72443 302
63.74454 337
63.76466 343
63.78477 345
63.80489 320
63.825 372
63.84511 388
63.86523 377
63.88534 396
63.90545 426
63.92557 470
63.94568 488
63.96579 523
63.98591 526
64.00602 477
64.02614 480
64.04625 417
64.06636 403
64.08648 385
64.10659 355
64.1267 366
64.14682 372
64.16693 389
64.18705 374
64.20716 370
64.22727 325
64.24739 296
64.2675 262
64.28761 296
64.30773 277
64.32784 266
64.34796 271
64.36807 268
64.38818 270
64.4083 252
64.42841 257
64.44852 246
64.46864 256
64.48875 271
64.50886 231
64.52898 264
64.54909 249
64.56921 261
64.58932 236
64.60943 263
64.62955 274
64.64966 252
64.66977 228
64.68989 262
64.71 242
64.73012 279
64.75023 256
64.77034 253
64.79046 264
64.81057 262
64.83068 255
64.8508 268
64.87091 271
64.89102 249
64.91114 288
64.93125 255
64.95137 231
64.97148 252
64.99159 242
65.01171 272
65.03182 260
65.05193 286
65.07205 271
65.09216 269
65.11228 266
65.13239 265
65.1525 253
65.17262 282
65.19273 274
65.21284 285
65.23296 267
65.25307 259
65.27319 277
65.2933 271
65.31341 263
65.33353 306
65.35364 276
65.37375 278
65.39387 288
65.41398 265
65.43409 280
65.45421 279
65.47432 236
65.49444 260
65.51455 301
65.53466 262
65.55478 276
65.57489 283
65.595 275
65.61512 269
65.63523 270
65.65535 283
65.67546 275
65.69557 301
65.71569 320
65.7358 315
65.75591 307
65.77603 305
65.79614 282
65.81626 299
65.83637 286
65.85648 288
65.8766 306
65.89671 257
65.91682 285
65.93694 269
65.95705 262
65.97716 297
65.99728 273
66.01739 262
66.03751 253
66.05762 248
66.07773 254
66.09785 260
66.11796 266
66.13807 270
66.15819 250
66.1783 276
66.19842 287
66.21853 282
66.23864 260
66.25876 255
66.27887 261
66.29898 261
66.3191 264
66.33921 286
66.35933 273
66.37944 266
66.39955 262
66.41967 279
66.43978 267
66.45989 281
66.48001 278
66.50012 265
66.52023 261
66.54035 263
66.56046 265
66.58058 255
66.60069 253
66.6208 272
66.64092 257
66.66103 239
66.68114 255
66.70126 275
66.72137 263
66.74149 268
66.7616 249
66.78171 262
66.80183 271
66.82194 271
66.84205 256
66.86217 251
66.88228 268
66.90239 241
66.92251 245
66.94262 262
66.96274 250
66.98285 280
67.00296 303
67.02308 284
67.04319 298
67.0633 313
67.08342 278
67.10353 279
67.12365 259
67.14376 246
67.16387 298
67.18399 262
67.2041 276
67.22421 290
67.24433 301
67.26444 274
67.28456 297
67.30467 316
67.32478 297
67.3449 308
67.36501 312
67.38512 332
67.40524 310
67.42535 358
67.44546 334
67.46558 362
67.48569 358
67.50581 430
67.52592 455
67.54603 473
67.56615 515
67.58626 543
67.60637 623
67.62649 720
67.6466 806
67.66672 855
67.68683 922
67.70694 948
67.72706 832
67.74717 749
67.76728 706
67.7874 604
67.80751 607
67.82763 574
67.84774 681
67.86785 664
67.88797 733
67.90808 716
67.92819 681
67.94831 695
67.96842 699
67.98853 718
68.00865 850
68.02876 883
68.04888 998
68.06899 1055
68.0891 1173
68.10922 1176
68.12933 1151
68.14944 1067
68.16956 953
68.18967 930
68.20979 937
68.2299 1060
68.25001 1089
68.27013 1082
68.29024 1080
68.31035 966
68.33047 810
68.35058 677
68.3707 632
68.39081 556
68.41092 508
68.43104 544
68.45115 552
68.47126 546
68.49138 509
68.51149 421
68.5316 384
68.55172 341
68.57183 331
68.59195 333
68.61206 304
68.63217 316
68.65229 286
68.6724 294
68.69251 265
68.71263 294
68.73274 275
68.75286 288
68.77297 259
68.79308 271
68.8132 276
68.83331 253
68.85342 262
68.87354 266
68.89365 242
68.91376 252
68.93388 269
68.95399 251
68.97411 249
68.99422 285
69.01433 264
69.03445 271
69.05456 262
69.07467 243
69.09479 243
69.1149 265
69.13502 265
69.15513 266
69.17524 282
69.19536 248
69.21547 262
69.23558 258
69.2557 266
69.27581 262
69.29593 278
69.31604 260
69.33615 253
69.35627 271
69.37638 260
69.39649 256
69.41661 242
69.43672 283
69.45683 243
69.47695 253
69.49706 283
69.51718 258
69.53729 270
69.5574 246
69.57752 289
69.59763 277
69.61774 269
69.63786 251
69.65797 272
69.67809 251
69.6982 252
69.71831 266
69.73843 253
69.75854 249
69.77865 288
69.79877 274
69.81888 266
69.839 273
69.85911 257
69.87922 245
69.89934 246
69.91945 232
69.93956 271
69.95968 240
69.97979 277
69.9999 253
70.02002 271
70.04013 241
70.06025 245
70.08036 264
70.10047 214
70.12059 283
70.1407 251
70.16081 242
70.18093 232
70.20104 241
70.22116 248
70.24127 239
70.26138 265
70.2815 260
70.30161 244
70.32172 246
70.34184 245
70.36195 238
70.38207 240
70.40218 264
70.42229 252
70.44241 246
70.46252 240
70.48263 234
70.50275 241
70.52286 250
70.54297 234
70.56309 248
70.5832 224
70.60332 230
70.62343 267
70.64354 218
70.66366 225
70.68377 248
70.70388 228
70.724 256
70.74411 247
70.76423 260
70.78434 239
70.80445 263
70.82457 253
70.84468 237
70.86479 269
70.88491 237
70.90502 252
70.92513 231
70.94525 254
70.96536 257
70.98548 250
71.00559 246
71.0257 234
71.04582 244
71.06593 244
71.08604 262
71.10616 266
71.12627 242
71.14639 260
71.1665 241
71.18661 257
71.20673 233
71.22684 241
71.24695 238
71.26707 242
71.28718 238
71.3073 234
71.32741 249
71.34752 217
71.36764 257
71.38775 245
71.40786 256
71.42798 279
71.44809 246
71.4682 270
71.48832 246
71.50843 276
71.52855 279
71.54866 251
71.56877 268
71.58889 258
71.609 268
71.62911 256
71.64923 240
71.66934 244
71.68946 250
71.70957 252
71.72968 239
71.7498 241
71.76991 252
71.79002 234
71.81014 249
71.83025 244
71.85037 241
71.87048 266
71.89059 234
71.91071 236
71.93082 244
71.95093 260
71.97105 253
71.99116 263
72.01127 280
72.03139 266
72.0515 246
72.07162 236
72.09173 255
72.11184 236
72.13196 231
72.15207 247
72.17218 248
72.1923 258
72.21241 244
72.23253 242
72.25264 280
72.27275 227
72.29287 246
72.31298 259
72.33309 284
72.35321 241
72.37332 260
72.39344 261
72.41355 224
72.43366 251
72.45378 276
72.47389 241
72.494 247
72.51412 233
72.53423 268
72.55434 254
72.57446 249
72.59457 279
72.61469 279
72.6348 225
72.65491 228
72.67503 246
72.69514 262
72.71525 266
72.73537 274
72.75548 263
72.7756 256
72.79571 277
72.81582 257
72.83594 239
72.85605 234
72.87616 249
72.89628 247
72.91639 279
72.9365 273
72.95662 259
72.97673 263
72.99685 289
73.01696 280
73.03707 254
73.05719 295
73.0773 271
73.09741 252
73.11753 295
73.13764 285
73.15776 287
73.17787 295
73.19798 331
73.2181 281
73.23821 317
73.25832 322
73.27844 328
73.29855 353
73.31867 398
73.33878 404
73.35889 427
73.37901 461
73.39912 461
73.41923 491
73.43935 476
73.45946 491
73.47957 385
73.49969 352
73.5198 358
73.53992 322
73.56003 334
73.58014 356
73.60026 365
73.62037 347
73.64048 372
73.6606 324
73.68071 355
73.70083 310
73.72094 333
73.74105 259
73.76117 282
73.78128 248
73.80139 229
73.82151 242
73.84162 241
73.86174 249
73.88185 265
73.90196 253
73.92208 255
73.94219 253
73.9623 262
73.98242 222
74.00253 264
74.02264 274
74.04276 290
74.06287 255
74.08299 255
74.1031 241
74.12321 252
74.14333 267
74.16344 236
74.18355 264
74.20367 236
74.22378 271
74.2439 270
74.26401 251
74.28412 251
74.30424 221
74.32435 264
74.34446 266
74.36458 268
74.38469 267
74.40481 244
74.42492 259
74.44503 260
74.46515 238
74.48526 253
74.50537 246
74.52549 232
74.5456 249
74.56571 256
74.58583 281
74.60594 280
74.62606 271
74.64617 258
74.66628 236
74.6864 263
74.70651 258
74.72662 267
74.74674 281
74.76685 251
74.78697 264
74.80708 291
74.82719 274
74.84731 290
74.86742 230
74.88753 258
74.90765 282
74.92776 270
74.94787 261
74.96799 260
74.9881 253
75.00822 248
