3.00117 19973
3.02128 19112
3.0414 18746
3.06151 18241
3.08162 17971
3.10174 17298
3.12185 16810
3.14197 16542
3.16208 15889
3.18219 15263
3.20231 15471
3.22242 14451
3.24253 14269
3.26265 13564
3.28276 13346
3.30288 13120
3.32299 12362
3.3431 12113
3.36322 11989
3.38333 11350
3.40344 11279
3.42356 10616
3.44367 10485
3.46379 9958
3.4839 9656
3.50401 9631
3.52413 8973
3.54424 8821
3.56435 8736
3.58447 8095
3.60458 8118
3.62469 7413
3.64481 7443
3.66492 7160
3.68504 7006
3.70515 6759
3.72526 6216
3.74538 6116
3.76549 5878
3.7856 5695
3.80572 5714
3.82583 5222
3.84595 5127
3.86606 4979
3.88617 4628
3.90629 4610
3.9264 4263
3.94651 4310
3.96663 3939
3.98674 3853
4.00686 3825
4.02697 3439
4.04708 3488
4.0672 3408
4.08731 3237
4.10742 3276
4.12754 3033
4.14765 2867
4.16776 2686
4.18788 2735
4.20799 2792
4.22811 2459
4.24822 2496
4.26833 2437
4.28845 2377
4.30856 2234
4.32867 2150
4.34879 2123
4.3689 2079
4.38902 2115
4.40913 2073
4.42924 1914
4.44936 1901
4.46947 1893
4.48958 1974
4.5097 1917
4.52981 1767
4.54992 1808
4.57004 1745
4.59015 1686
4.61027 1715
4.63038 1636
4.65049 1519
4.67061 1517
4.69072 1647
4.71083 1554
4.73095 1518
4.75106 1469
4.77118 1469
4.79129 1475
4.8114 1493
4.83152 1373
4.85163 1368
4.87174 1353
4.89186 1342
4.91197 1301
4.93209 1334
4.9522 1215
4.97231 1250
4.99243 1261
5.01254 1236
5.03265 1213
5.05277 1222
5.07288 1198
5.09299 1146
5.11311 1128
5.13322 1144
5.15334 1141
5.17345 1112
5.19356 1090
5.21368 1052
5.23379 1114
5.2539 1034
5.27402 1102
5.29413 957
5.31425 996
5.33436 938
5.35447 997
5.37459 929
5.3947 988
5.41481 965
5.43493 942
5.45504 910
5.47516 904
5.49527 923
5.51538 903
5.5355 868
5.55561 824
5.57572 872
5.59584 859
5.61595 836
5.63606 843
5.65618 813
5.67629 787
5.69641 817
5.71652 807
5.73663 821
5.75675 749
5.77686 791
5.79697 817
5.81709 737
5.8372 799
5.85732 749
5.87743 769
5.89754 741
5.91766 750
5.93777 689
5.95788 736
5.978 776
5.99811 685
6.01823 713
6.03834 700
6.05845 753
6.07857 690
6.09868 699
6.11879 689
6.13891 716
6.15902 689
6.17913 713
6.19925 673
6.21936 695
6.23948 682
6.25959 645
6.2797 676
6.29982 663
6.31993 644
6.34004 660
6.36016 695
6.38027 680
6.40039 650
6.4205 636
6.44061 622
6.46073 687
6.48084 636
6.50095 613
6.52107 661
6.54118 602
6.56129 672
6.58141 663
6.60152 640
6.62164 640
6.64175 615
6.66186 590
6.68198 612
6.70209 622
6.7222 593
6.74232 592
6.76243 640
6.78255 605
6.80266 546
6.82277 633
6.84289 610
6.863 599
6.88311 616
6.90323 639
6.92334 616
6.94346 590
6.96357 579
6.98368 606
7.0038 596
7.02391 582
7.04402 540
7.06414 576
7.08425 606
7.10436 602
7.12448 531
7.14459 599
7.16471 612
7.18482 525
7.20493 622
7.22505 573
7.24516 579
7.26527 588
7.28539 640
7.3055 590
7.32562 641
7.34573 600
7.36584 539
7.38596 561
7.40607 569
7.42618 562
7.4463 548
7.46641 608
7.48653 502
7.50664 547
7.52675 548
7.54687 597
7.56698 563
7.58709 550
7.60721 520
7.62732 564
7.64743 547
7.66755 539
7.68766 545
7.70778 570
7.72789 558
7.748 575
7.76812 527
7.78823 530
7.80834 542
7.82846 540
7.84857 559
7.86869 533
7.8888 557
7.90891 516
7.92903 543
7.94914 517
7.96925 524
7.98937 545
8.00948 547
8.0296 601
8.04971 544
8.06982 534
8.08994 525
8.11005 567
8.13016 537
8.15028 537
8.17039 520
8.1905 567
8.21062 584
8.23073 504
8.25085 580
8.27096 539
8.29107 555
8.31119 560
8.3313 542
8.35141 546
8.37153 508
8.39164 580
8.41176 519
8.43187 584
8.45198 515
8.4721 523
8.49221 579
8.51232 547
8.53244 533
8.55255 521
8.57266 523
8.59278 566
8.61289 540
8.63301 548
8.65312 535
8.67323 553
8.69335 529
8.71346 504
8.73357 501
8.75369 557
8.7738 565
8.79392 489
8.81403 484
8.83414 532
8.85426 505
8.87437 557
8.89448 496
8.9146 502
8.93471 537
8.95483 455
8.97494 478
8.99505 483
9.01517 523
9.03528 447
9.05539 446
9.07551 462
9.09562 490
9.11573 485
9.13585 417
9.15596 452
9.17608 457
9.19619 488
9.2163 474
9.23642 430
9.25653 459
9.27664 435
9.29676 451
9.31687 446
9.33699 489
9.3571 463
9.37721 445
9.39733 450
9.41744 403
9.43755 406
9.45767 463
9.47778 446
9.4979 371
9.51801 361
9.53812 429
9.55824 407
9.57835 424
9.59846 405
9.61858 406
9.63869 387
9.6588 406
9.67892 420
9.69903 415
9.71915 370
9.73926 382
9.75937 383
9.77949 416
9.7996 398
9.81971 394
9.83983 386
9.85994 385
9.88006 402
9.90017 401
9.92028 402
9.9404 404
9.96051 418
9.98062 374
10.00074 306
10.02085 355
10.04097 406
10.06108 408
10.08119 393
10.10131 398
10.12142 369
10.14153 347
10.16165 398
10.18176 369
10.20187 352
10.22199 389
10.2421 382
10.26222 359
10.28233 402
10.30244 404
10.32256 369
10.34267 392
10.36278 361
10.3829 410
10.40301 423
10.42313 412
10.44324 402
10.46335 422
10.48347 428
10.50358 400
10.52369 398
10.54381 378
10.56392 410
10.58403 363
10.60415 359
10.62426 365
10.64438 403
10.66449 379
10.6846 357
10.70472 380
10.72483 336
10.74494 361
10.76506 388
10.78517 380
10.80529 378
10.8254 353
10.84551 337
10.86563 388
10.88574 349
10.90585 332
10.92597 339
10.94608 367
10.9662 377
10.98631 302
11.00642 337
11.02654 375
11.04665 363
11.06676 339
11.08688 349
11.10699 362
11.1271 386
11.14722 368
11.16733 383
11.18745 357
11.20756 388
11.22767 330
11.24779 387
11.2679 375
11.28801 401
11.30813 383
11.32824 348
11.34836 365
11.36847 344
11.38858 345
11.4087 323
11.42881 338
11.44892 390
11.46904 323
11.48915 357
11.50927 339
11.52938 331
11.54949 355
11.56961 363
11.58972 353
11.60983 373
11.62995 376
11.65006 370
11.67017 369
11.69029 367
11.7104 371
11.73052 401
11.75063 368
11.77074 358
11.79086 325
11.81097 359
11.83108 372
11.8512 327
11.87131 371
11.89143 338
11.91154 349
11.93165 358
11.95177 365
11.97188 357
11.99199 364
12.01211 332
12.03222 376
12.05234 320
12.07245 297
12.09256 348
12.11268 367
12.13279 379
12.1529 339
12.17302 357
12.19313 352
12.21324 364
12.23336 353
12.25347 319
12.27359 373
12.2937 355
12.31381 357
12.33393 348
12.35404 387
12.37415 396
12.39427 365
12.41438 353
12.4345 361
12.45461 369
12.47472 356
12.49484 359
12.51495 347
12.53506 356
12.55518 355
12.57529 345
12.5954 379
12.61552 377
12.63563 359
12.65575 348
12.67586 350
12.69597 352
12.71609 316
12.7362 355
12.75631 366
12.77643 331
12.79654 358
12.81666 341
12.83677 367
12.85688 293
12.877 335
12.89711 327
12.91722 369
12.93734 337
12.95745 332
12.97757 352
12.99768 360
13.01779 349
13.03791 377
13.05802 350
13.07813 377
13.09825 374
13.11836 366
13.13847 346
13.15859 344
13.1787 347
13.19882 342
13.21893 355
13.23904 325
13.25916 331
13.27927 376
13.29938 383
13.3195 381
13.33961 370
13.35973 349
13.37984 343
13.39995 326
13.42007 370
13.44018 343
13.46029 393
13.48041 349
13.50052 358
13.52064 364
13.54075 358
13.56086 355
13.58098 348
13.60109 357
13.6212 388
13.64132 364
13.66143 367
13.68154 397
13.70166 351
13.72177 414
13.74189 390
13.762 390
13.78211 433
13.80223 440
13.82234 471
13.84245 494
13.86257 466
13.88268 482
13.9028 437
13.92291 418
13.94302 379
13.96314 385
13.98325 376
14.00336 381
14.02348 361
14.04359 377
14.06371 328
14.08382 360
14.10393 380
14.12405 347
14.14416 379
14.16427 348
14.18439 334
14.2045 357
14.22461 333
14.24473 336
14.26484 318
14.28496 355
14.30507 349
14.32518 387
14.3453 344
14.36541 336
14.38552 327
14.40564 338
14.42575 352
14.44587 292
14.46598 374
14.48609 335
14.50621 338
14.52632 342
14.54643 370
14.56655 346
14.58666 362
14.60677 326
14.62689 348
14.647 361
14.66712 357
14.68723 330
14.70734 357
14.72746 347
14.74757 342
14.76768 341
14.7878 335
14.80791 365
14.82803 347
14.84814 359
14.86825 323
14.88837 346
14.90848 369
14.92859 354
14.94871 391
14.96882 368
14.98894 385
15.00905 361
15.02916 393
15.04928 365
15.06939 379
15.0895 402
15.10962 388
15.12973 369
15.14984 379
15.16996 338
15.19007 347
15.21019 296
15.2303 388
15.25041 347
15.27053 364
15.29064 372
15.31075 327
15.33087 305
15.35098 336
15.3711 331
15.39121 360
15.41132 343
15.43144 343
15.45155 339
15.47166 369
15.49178 343
15.51189 320
15.53201 376
15.55212 342
15.57223 325
15.59235 348
15.61246 353
15.63257 326
15.65269 344
15.6728 369
15.69291 377
15.71303 345
15.73314 370
15.75326 387
15.77337 374
15.79348 367
15.8136 335
15.83371 315
15.85382 369
15.87394 361
15.89405 376
15.91417 374
15.93428 341
15.95439 350
15.97451 349
15.99462 360
16.01473 369
16.03485 362
16.05496 340
16.07508 328
16.09519 384
16.1153 325
16.13542 347
16.15553 382
16.17564 384
16.19576 338
16.21587 388
16.23598 346
16.2561 360
16.27621 359
16.29633 399
16.31644 374
16.33655 370
16.35667 362
16.37678 368
16.39689 347
16.41701 339
16.43712 359
16.45724 313
16.47735 360
16.49746 362
16.51758 348
16.53769 383
16.5578 376
16.57792 370
16.59803 323
16.61814 357
16.63826 364
16.65837 301
16.67849 324
16.6986 361
16.71871 322
16.73883 342
16.75894 374
16.77905 358
16.79917 373
16.81928 350
16.8394 332
16.85951 366
16.87962 401
16.89974 354
16.91985 348
16.93996 357
16.96008 370
16.98019 368
17.00031 345
17.02042 328
17.04053 337
17.06065 388
17.08076 329
17.10087 355
17.12099 387
17.1411 335
17.16121 367
17.18133 364
17.20144 348
17.22156 361
17.24167 359
17.26178 379
17.2819 374
17.30201 378
17.32212 382
17.34224 375
17.36235 404
17.38247 381
17.40258 359
17.42269 354
17.44281 365
17.46292 380
17.48303 342
17.50315 360
17.52326 353
17.54338 358
17.56349 335
17.5836 398
17.60372 367
17.62383 380
17.64394 371
17.66406 374
17.68417 337
17.70428 354
17.7244 353
17.74451 359
17.76463 356
17.78474 373
17.80485 386
17.82497 369
17.84508 354
17.86519 389
17.88531 318
17.90542 390
17.92554 394
17.94565 346
17.96576 366
17.98588 395
18.00599 369
18.0261 390
18.04622 314
18.06633 372
18.08645 351
18.10656 368
18.12667 347
18.14679 353
18.1669 380
18.18701 378
18.20713 357
18.22724 352
18.24735 385
18.26747 374
18.28758 382
18.3077 390
18.32781 340
18.34792 378
18.36804 401
18.38815 382
18.40826 388
18.42838 342
18.44849 362
18.46861 353
18.48872 351
18.50883 329
18.52895 366
18.54906 371
18.56917 362
18.58929 376
18.6094 373
18.62951 330
18.64963 349
18.66974 364
18.68986 373
18.70997 328
18.73008 376
18.7502 396
18.77031 353
18.79042 345
18.81054 358
18.83065 356
18.85077 358
18.87088 393
18.89099 363
18.91111 421
18.93122 390
18.95133 418
18.97145 381
18.99156 390
19.01168 424
19.03179 382
19.0519 368
19.07202 400
19.09213 398
19.11224 378
19.13236 415
19.15247 381
19.17258 379
19.1927 456
19.21281 412
19.23293 433
19.25304 433
19.27315 492
19.29327 444
19.31338 508
19.33349 475
19.35361 470
19.37372 493
19.39384 515
19.41395 542
19.43406 521
19.45418 532
19.47429 585
19.4944 593
19.51452 604
19.53463 613
19.55475 657
19.57486 643
19.59497 654
19.61509 688
19.6352 693
19.65531 686
19.67543 683
19.69554 774
19.71565 739
19.73577 745
19.75588 715
19.776 816
19.79611 747
19.81622 739
19.83634 811
19.85645 772
19.87656 734
19.89668 745
19.91679 762
19.93691 740
19.95702 731
19.97713 695
19.99725 694
20.01736 654
20.03747 713
20.05759 673
20.0777 643
20.09782 607
20.11793 612
20.13804 617
20.15816 619
20.17827 644
20.19838 591
20.2185 566
20.23861 616
20.25872 625
20.27884 593
20.29895 556
20.31907 614
20.33918 612
20.35929 604
20.37941 573
20.39952 583
20.41963 549
20.43975 578
20.45986 538
20.47998 557
20.50009 549
20.5202 546
20.54032 555
20.56043 558
20.58054 547
20.60066 561
20.62077 563
20.64088 567
20.661 581
20.68111 639
20.70123 697
20.72134 723
20.74145 924
20.76157 1133
20.78168 1241
20.80179 1440
20.82191 1550
20.84202 1591
20.86214 1455
20.88225 1313
20.90236 1148
20.92248 921
20.94259 883
20.9627 879
20.98282 807
21.00293 787
21.02305 734
21.04316 632
21.06327 620
21.08339 630
21.1035 548
21.12361 563
21.14373 536
21.16384 529
21.18395 476
21.20407 467
21.22418 491
21.2443 493
21.26441 455
21.28452 512
21.30464 461
21.32475 490
21.34486 449
21.36498 466
21.38509 469
21.40521 481
21.42532 495
21.44543 446
21.46555 490
21.48566 496
21.50577 466
21.52589 525
21.546 487
21.56612 499
21.58623 468
21.60634 481
21.62646 491
21.64657 437
21.66668 486
21.6868 511
21.70691 492
21.72702 478
21.74714 456
21.76725 492
21.78737 507
21.80748 514
21.82759 552
21.84771 609
21.86782 677
21.88793 673
21.90805 803
21.92816 871
21.94828 965
21.96839 1096
21.9885 1112
22.00862 1031
22.02873 953
22.04884 871
22.06896 763
22.08907 695
22.10919 588
22.1293 571
22.14941 484
22.16953 495
22.18964 496
22.20975 478
22.22987 514
22.24998 481
22.27009 485
22.29021 449
22.31032 479
22.33044 502
22.35055 465
22.37066 455
22.39078 497
22.41089 478
22.431 493
22.45112 472
22.47123 500
22.49135 493
22.51146 538
22.53157 474
22.55169 470
22.5718 502
22.59191 484
22.61203 482
22.63214 511
22.65225 477
22.67237 480
22.69248 450
22.7126 516
22.73271 472
22.75282 474
22.77294 476
22.79305 485
22.81316 536
22.83328 474
22.85339 576
22.87351 545
22.89362 539
22.91373 534
22.93385 612
22.95396 551
22.97407 536
22.99419 577
23.0143 536
23.03442 515
23.05453 551
23.07464 542
23.09476 526
23.11487 513
23.13498 530
23.1551 486
23.17521 494
23.19532 512
23.21544 532
23.23555 475
23.25567 504
23.27578 508
23.29589 470
23.31601 525
23.33612 489
23.35623 524
23.37635 559
23.39646 611
23.41658 621
23.43669 637
23.4568 627
23.47692 728
23.49703 715
23.51714 830
23.53726 841
23.55737 894
23.57749 810
23.5976 829
23.61771 769
23.63783 702
23.65794 664
23.67805 585
23.69817 578
23.71828 580
23.73839 503
23.75851 576
23.77862 545
23.79874 546
23.81885 517
23.83896 589
23.85908 587
23.87919 556
23.8993 581
23.91942 634
23.93953 647
23.95965 630
23.97976 670
23.99987 632
24.01999 695
24.0401 681
24.06021 703
24.08033 722
24.10044 720
24.12056 727
24.14067 768
24.16078 724
24.1809 761
24.20101 777
24.22112 760
24.24124 773
24.26135 750
24.28146 725
24.30158 698
24.32169 698
24.34181 670
24.36192 602
24.38203 573
24.40215 565
24.42226 581
24.44237 533
24.46249 517
24.4826 517
24.50272 518
24.52283 505
24.54294 496
24.56306 500
24.58317 505
24.60328 530
24.6234 496
24.64351 525
24.66362 517
24.68374 506
24.70385 508
24.72397 502
24.74408 484
24.76419 491
24.78431 478
24.80442 482
24.82453 458
24.84465 497
24.86476 491
24.88488 523
24.90499 499
24.9251 483
24.94522 538
24.96533 466
24.98544 501
25.00556 490
25.02567 470
25.04579 512
25.0659 511
25.08601 533
25.10613 527
25.12624 516
25.14635 506
25.16647 509
25.18658 492
25.20669 538
25.22681 536
25.24692 545
25.26704 536
25.28715 509
25.30726 562
25.32738 576
25.34749 539
25.3676 571
25.38772 632
25.40783 617
25.42795 626
25.44806 634
25.46817 616
25.48829 629
25.5084 686
25.52851 663
25.54863 666
25.56874 681
25.58886 688
25.60897 649
25.62908 666
25.6492 694
25.66931 663
25.68942 598
25.70954 565
25.72965 578
25.74976 554
25.76988 541
25.78999 534
25.81011 527
25.83022 490
25.85033 525
25.87045 479
25.89056 511
25.91067 540
25.93079 534
25.9509 544
25.97102 538
25.99113 516
26.01124 526
26.03136 570
26.05147 495
26.07158 526
26.0917 594
26.11181 593
26.13193 530
26.15204 545
26.17215 560
26.19227 659
26.21238 590
26.23249 657
26.25261 629
26.27272 632
26.29283 729
26.31295 781
26.33306 729
26.35318 807
26.37329 897
26.3934 892
26.41352 976
26.43363 1137
26.45374 1326
26.47386 1569
26.49397 2015
26.51409 2529
26.5342 3325
26.55431 4075
26.57443 5009
26.59454 5393
26.61465 5501
26.63477 5102
26.65488 4441
26.67499 3499
26.69511 2796
26.71522 2095
26.73534 1622
26.75545 1219
26.77556 1074
26.79568 952
26.81579 902
26.8359 864
26.85602 846
26.87613 860
26.89625 837
26.91636 804
26.93647 808
26.95659 809
26.9767 786
26.99681 822
27.01693 821
27.03704 827
27.05716 757
27.07727 741
27.09738 757
27.1175 736
27.13761 679
27.15772 606
27.17784 652
27.19795 590
27.21806 612
27.23818 637
27.25829 601
27.27841 610
27.29852 640
27.31863 605
27.33875 621
27.35886 700
27.37897 767
27.39909 764
27.4192 875
27.43932 885
27.45943 865
27.47954 910
27.49966 931
27.51977 889
27.53988 864
27.56 802
27.58011 847
27.60023 869
27.62034 925
27.64045 996
27.66057 1081
27.68068 1200
27.70079 1245
27.72091 1280
27.74102 1293
27.76113 1324
27.78125 1363
27.80136 1450
27.82148 1444
27.84159 1449
27.8617 1558
27.88182 1588
27.90193 1603
27.92204 1591
27.94216 1533
27.96227 1485
27.98239 1328
28.0025 1171
28.02261 1093
28.04273 954
28.06284 883
28.08295 803
28.10307 837
28.12318 757
28.1433 743
28.16341 839
28.18352 793
28.20364 806
28.22375 762
28.24386 729
28.26398 715
28.28409 708
28.3042 657
28.32432 665
28.34443 589
28.36455 546
28.38466 530
28.40477 566
28.42489 521
28.445 483
28.46511 514
28.48523 512
28.50534 465
28.52546 482
28.54557 489
28.56568 466
28.5858 466
28.60591 446
28.62602 456
28.64614 486
28.66625 455
28.68636 445
28.70648 495
28.72659 455
28.74671 436
28.76682 471
28.78693 437
28.80705 457
28.82716 449
28.84727 467
28.86739 501
28.8875 437
28.90762 463
28.92773 459
28.94784 475
28.96796 486
28.98807 451
29.00818 436
29.0283 460
29.04841 471
29.06853 486
29.08864 476
29.10875 488
29.12887 471
29.14898 472
29.16909 463
29.18921 452
29.20932 464
29.22943 487
29.24955 515
29.26966 474
29.28978 560
29.30989 555
29.33 498
29.35012 519
29.37023 558
29.39034 630
29.41046 643
29.43057 652
29.45069 710
29.4708 641
29.49091 704
29.51103 700
29.53114 727
29.55125 700
29.57137 680
29.59148 648
29.6116 640
29.63171 673
29.65182 705
29.67194 679
29.69205 664
29.71216 678
29.73228 698
29.75239 669
29.7725 674
29.79262 718
29.81273 689
29.83285 670
29.85296 694
29.87307 684
29.89319 659
29.9133 649
29.93341 702
29.95353 644
29.97364 577
29.99376 575
30.01387 654
30.03398 615
30.0541 539
30.07421 521
30.09432 579
30.11444 603
30.13455 567
30.15467 653
30.17478 628
30.19489 593
30.21501 588
30.23512 616
30.25523 641
30.27535 637
30.29546 662
30.31557 710
30.33569 722
30.3558 677
30.37592 775
30.39603 759
30.41614 726
30.43626 748
30.45637 732
30.47648 733
30.4966 644
30.51671 619
30.53683 580
30.55694 584
30.57705 555
30.59717 556
30.61728 521
30.63739 573
30.65751 625
30.67762 567
30.69773 611
30.71785 615
30.73796 591
30.75808 621
30.77819 627
30.7983 672
30.81842 679
30.83853 651
30.85864 611
30.87876 604
30.89887 538
30.91899 561
30.9391 479
30.95921 532
30.97933 523
30.99944 484
31.01955 476
31.03967 468
31.05978 468
31.0799 481
31.10001 504
31.12012 488
31.14024 436
31.16035 496
31.18046 547
31.20058 494
31.22069 504
31.2408 523
31.26092 534
31.28103 520
31.30115 502
31.32126 532
31.34137 446
31.36149 529
31.3816 486
31.40171 444
31.42183 453
31.44194 413
31.46206 449
31.48217 482
31.50228 458
31.5224 436
31.54251 426
31.56262 469
31.58274 426
31.60285 451
31.62297 431
31.64308 416
31.66319 433
31.68331 402
31.70342 421
31.72353 424
31.74365 417
31.76376 422
31.78387 422
31.80399 430
31.8241 402
31.84422 407
31.86433 410
31.88444 401
31.90456 402
31.92467 398
31.94478 430
31.9649 423
31.98501 431
32.00513 407
32.02524 435
32.04535 442
32.06547 422
32.08558 455
32.10569 461
32.12581 413
32.14592 453
32.16604 446
32.18615 484
32.20626 439
32.22638 447
32.24649 441
32.2666 446
32.28672 451
32.30683 461
32.32694 446
32.34706 473
32.36717 470
32.38729 455
32.4074 466
32.42751 453
32.44763 448
32.46774 473
32.48785 474
32.50797 424
32.52808 424
32.5482 445
32.56831 421
32.58842 437
32.60854 437
32.62865 419
32.64876 444
32.66888 423
32.68899 432
32.7091 414
32.72922 432
32.74933 471
32.76945 481
32.78956 461
32.80967 472
32.82979 423
32.8499 460
32.87001 475
32.89013 496
32.91024 473
32.93036 505
32.95047 497
32.97058 500
32.9907 528
33.01081 508
33.03092 503
33.05104 550
33.07115 544
33.09127 549
33.11138 561
33.13149 510
33.15161 477
33.17172 471
33.19183 446
33.21195 467
33.23206 444
33.25217 430
33.27229 434
33.2924 416
33.31252 452
33.33263 454
33.35274 423
33.37286 429
33.39297 445
33.41308 441
33.4332 419
33.45331 401
33.47343 403
33.49354 416
33.51365 406
33.53377 428
33.55388 405
33.57399 427
33.59411 407
33.61422 437
33.63434 441
33.65445 439
33.67456 404
33.69468 432
33.71479 453
33.7349 443
33.75502 445
33.77513 482
33.79524 457
33.81536 463
33.83547 452
33.85559 448
33.8757 442
33.89581 482
33.91593 426
33.93604 454
33.95615 439
33.97627 438
33.99638 413
34.0165 464
34.03661 475
34.05672 424
34.07684 440
34.09695 480
34.11706 481
34.13718 512
34.15729 500
34.17741 473
34.19752 497
34.21763 467
34.23775 540
34.25786 515
34.27797 567
34.29809 502
34.3182 538
34.33831 551
34.35843 552
34.37854 582
34.39866 583
34.41877 569
34.43888 604
34.459 598
34.47911 572
34.49922 581
34.51934 603
34.53945 588
34.55957 594
34.57968 623
34.59979 643
34.61991 615
34.64002 668
34.66013 587
34.68025 593
34.70036 653
34.72047 655
34.74059 648
34.7607 629
34.78082 698
34.80093 665
34.82104 664
34.84116 687
34.86127 633
34.88138 636
34.9015 618
34.92161 693
34.94173 655
34.96184 659
34.98195 743
35.00207 673
35.02218 655
35.04229 724
35.06241 722
35.08252 716
35.10264 713
35.12275 693
35.14286 684
35.16298 695
35.18309 699
35.2032 708
35.22332 716
35.24343 675
35.26354 658
35.28366 743
35.30377 681
35.32389 683
35.344 676
35.36411 662
35.38423 653
35.40434 696
35.42445 673
35.44457 647
35.46468 689
35.4848 723
35.50491 700
35.52502 672
35.54514 715
35.56525 724
35.58536 677
35.60548 669
35.62559 668
35.64571 624
35.66582 606
35.68593 655
35.70605 609
35.72616 634
35.74627 607
35.76639 579
35.7865 571
35.80661 574
35.82673 540
35.84684 592
35.86696 571
35.88707 523
35.90718 533
35.9273 553
35.94741 540
35.96752 552
35.98764 548
36.00775 556
36.02787 528
36.04798 607
36.06809 562
36.08821 558
36.10832 592
36.12843 524
36.14855 570
36.16866 580
36.18878 561
36.20889 555
36.229 577
36.24912 551
36.26923 546
36.28934 605
36.30946 577
36.32957 597
36.34968 558
36.3698 591
36.38991 655
36.41003 682
36.43014 774
36.45025 802
36.47037 842
36.49048 886
36.51059 867
36.53071 817
36.55082 723
36.57094 759
36.59105 730
36.61116 696
36.63128 647
36.65139 530
36.6715 546
36.69162 529
36.71173 542
36.73184 553
36.75196 539
36.77207 496
36.79219 557
36.8123 501
36.83241 505
36.85253 524
36.87264 525
36.89275 485
36.91287 491
36.93298 531
36.9531 576
36.97321 527
36.99332 547
37.01344 533
37.03355 523
37.05366 530
37.07378 481
37.09389 496
37.11401 553
37.13412 522
37.15423 494
37.17435 488
37.19446 534
37.21457 484
37.23469 496
37.2548 520
37.27491 468
37.29503 506
37.31514 494
37.33526 525
37.35537 527
37.37548 511
37.3956 555
37.41571 532
37.43582 541
37.45594 555
37.47605 534
37.49617 481
37.51628 505
37.53639 537
37.55651 515
37.57662 470
37.59673 503
37.61685 493
37.63696 490
37.65708 505
37.67719 507
37.6973 498
37.71742 513
37.73753 480
37.75764 514
37.77776 501
37.79787 473
37.81798 468
37.8381 506
37.85821 458
37.87833 427
37.89844 469
37.91855 447
37.93867 448
37.95878 446
37.97889 418
37.99901 403
38.01912 432
38.03924 390
38.05935 412
38.07946 441
38.09958 403
38.11969 460
38.1398 450
38.15992 463
38.18003 417
38.20015 468
38.22026 431
38.24037 420
38.26049 453
38.2806 400
38.30071 403
38.32083 420
38.34094 425
38.36105 413
38.38117 419
38.40128 453
38.4214 424
38.44151 411
38.46162 444
38.48174 450
38.50185 443
38.52196 445
38.54208 386
38.56219 394
38.58231 388
38.60242 426
38.62253 445
38.64265 451
38.66276 455
38.68287 463
38.70299 461
38.7231 401
38.74321 440
38.76333 435
38.78344 428
38.80356 451
38.82367 458
38.84378 450
38.8639 436
38.88401 458
38.90412 439
38.92424 446
38.94435 437
38.96447 457
38.98458 466
39.00469 428
39.02481 465
39.04492 410
39.06503 437
39.08515 466
39.10526 450
39.12538 433
39.14549 436
39.1656 471
39.18572 439
39.20583 436
39.22594 423
39.24606 450
39.26617 479
39.28628 511
39.3064 521
39.32651 553
39.34663 588
39.36674 632
39.38685 681
39.40697 692
39.42708 709
39.44719 778
39.46731 731
39.48742 685
39.50754 661
39.52765 569
39.54776 580
39.56788 588
39.58799 572
39.6081 505
39.62822 508
39.64833 476
39.66845 495
39.68856 485
39.70867 482
39.72879 444
39.7489 465
39.76901 441
39.78913 444
39.80924 420
39.82935 484
39.84947 426
39.86958 425
39.8897 448
39.90981 458
39.92992 433
39.95004 449
39.97015 448
39.99026 442
40.01038 421
40.03049 481
40.05061 455
40.07072 446
40.09083 462
40.11095 476
40.13106 499
40.15117 475
40.17129 525
40.1914 538
40.21152 564
40.23163 587
40.25174 561
40.27186 524
40.29197 546
40.31208 518
40.3322 496
40.35231 510
40.37242 474
40.39254 460
40.41265 449
40.43277 397
40.45288 421
40.47299 431
40.49311 418
40.51322 431
40.53333 419
40.55345 463
40.57356 457
40.59368 441
40.61379 435
40.6339 423
40.65402 462
40.67413 423
40.69424 473
40.71436 447
40.73447 474
40.75458 410
40.7747 475
40.79481 474
40.81493 432
40.83504 475
40.85515 446
40.87527 475
40.89538 487
40.91549 440
40.93561 451
40.95572 456
40.97584 452
40.99595 450
41.01606 444
41.03618 458
41.05629 447
41.0764 468
41.09652 436
41.11663 433
41.13675 435
41.15686 444
41.17697 448
41.19709 402
41.2172 443
41.23731 433
41.25743 431
41.27754 451
41.29765 423
41.31777 389
41.33788 413
41.358 438
41.37811 403
41.39822 401
41.41834 418
41.43845 416
41.45856 376
41.47868 400
41.49879 397
41.51891 408
41.53902 427
41.55913 413
41.57925 427
41.59936 412
41.61947 438
41.63959 448
41.6597 463
41.67982 454
41.69993 475
41.72004 470
41.74016 486
41.76027 469
41.78038 486
41.8005 453
41.82061 400
41.84072 464
41.86084 413
41.88095 412
41.90107 379
41.92118 404
41.94129 429
41.96141 405
41.98152 384
42.00163 405
42.02175 385
42.04186 444
42.06198 391
42.08209 393
42.1022 430
42.12232 417
42.14243 404
42.16254 467
42.18266 410
42.20277 422
42.22289 463
42.243 471
42.26311 479
42.28323 451
42.30334 536
42.32345 535
42.34357 638
42.36368 650
42.38379 626
42.40391 610
42.42402 605
42.44414 598
42.46425 587
42.48436 530
42.50448 545
42.52459 496
42.5447 491
42.56482 493
42.58493 514
42.60505 440
42.62516 462
42.64527 475
42.66539 434
42.6855 447
42.70561 459
42.72573 475
42.74584 415
42.76595 479
42.78607 415
42.80618 424
42.8263 433
42.84641 434
42.86652 437
42.88664 404
42.90675 427
42.92686 403
42.94698 437
42.96709 420
42.98721 442
43.00732 447
43.02743 428
43.04755 460
43.06766 406
43.08777 410
43.10789 469
43.128 447
43.14812 437
43.16823 445
43.18834 447
43.20846 440
43.22857 456
43.24868 430
43.2688 450
43.28891 418
43.30902 424
43.32914 409
43.34925 438
43.36937 434
43.38948 432
43.40959 425
43.42971 426
43.44982 380
43.46993 399
43.49005 432
43.51016 420
43.53028 399
43.55039 372
43.5705 414
43.59062 446
43.61073 392
43.63084 382
43.65096 400
43.67107 370
43.69119 384
43.7113 386
43.73141 400
43.75153 372
43.77164 406
43.79175 389
43.81187 415
43.83198 407
43.85209 336
43.87221 409
43.89232 402
43.91244 393
43.93255 377
43.95266 378
43.97278 379
43.99289 381
44.013 354
44.03312 369
44.05323 390
44.07335 409
44.09346 384
44.11357 398
44.13369 369
44.1538 378
44.17391 432
44.19403 425
44.21414 424
44.23426 376
44.25437 387
44.27448 355
44.2946 372
44.31471 372
44.33482 372
44.35494 382
44.37505 401
44.39516 361
44.41528 433
44.43539 418
44.45551 397
44.47562 409
44.49573 411
44.51585 437
44.53596 385
44.55607 424
44.57619 387
44.5963 414
44.61642 402
44.63653 371
44.65664 427
44.67676 412
44.69687 400
44.71698 418
44.7371 408
44.75721 384
44.77732 414
44.79744 413
44.81755 432
44.83767 420
44.85778 383
44.87789 409
44.89801 416
44.91812 403
44.93823 415
44.95835 406
44.97846 414
44.99858 414
45.01869 395
45.0388 423
45.05892 384
45.07903 371
45.09914 410
45.11926 432
45.13937 378
45.15949 419
45.1796 410
45.19971 431
45.21983 417
45.23994 400
45.26005 415
45.28017 402
45.30028 382
45.32039 394
45.34051 393
45.36062 415
45.38074 375
45.40085 398
45.42096 401
45.44108 398
45.46119 396
45.4813 397
45.50142 383
45.52153 389
45.54165 383
45.56176 386
45.58187 399
45.60199 421
45.6221 500
45.64221 458
45.66233 576
45.68244 521
45.70256 506
45.72267 548
45.74278 557
45.7629 503
45.78301 497
45.80312 515
45.82324 503
45.84335 476
45.86346 456
45.88358 460
45.90369 460
45.92381 409
45.94392 433
45.96403 426
45.98415 375
46.00426 351
46.02437 415
46.04449 396
46.0646 371
46.08472 365
46.10483 359
46.12494 383
46.14506 432
46.16517 341
46.18528 365
46.2054 356
46.22551 386
46.24563 363
46.26574 368
46.28585 351
46.30597 361
46.32608 375
46.34619 352
46.36631 364
46.38642 392
46.40653 360
46.42665 347
46.44676 350
46.46688 357
46.48699 362
46.5071 382
46.52722 330
46.54733 367
46.56744 383
46.58756 366
46.60767 387
46.62779 393
46.6479 356
46.66801 357
46.68813 323
46.70824 368
46.72835 375
46.74847 355
46.76858 395
46.78869 381
46.80881 381
46.82892 334
46.84904 359
46.86915 378
46.88926 370
46.90938 379
46.92949 386
46.9496 358
46.96972 366
46.98983 356
47.00995 365
47.03006 406
47.05017 370
47.07029 362
47.0904 374
47.11051 377
47.13063 346
47.15074 408
47.17086 381
47.19097 390
47.21108 411
47.2312 375
47.25131 415
47.27142 412
47.29154 395
47.31165 393
47.33176 415
47.35188 388
47.37199 363
47.39211 397
47.41222 405
47.43233 387
47.45245 438
47.47256 444
47.49267 392
47.51279 416
47.5329 407
47.55302 457
47.57313 398
47.59324 426
47.61336 442
47.63347 386
47.65358 437
47.6737 363
47.69381 416
47.71393 404
47.73404 424
47.75415 416
47.77427 402
47.79438 368
47.81449 393
47.83461 407
47.85472 381
47.87483 386
47.89495 377
47.91506 394
47.93518 369
47.95529 400
47.9754 383
47.99552 391
48.01563 386
48.03574 394
48.05586 359
48.07597 385
48.09609 382
48.1162 408
48.13631 353
48.15643 392
48.17654 395
48.19665 423
48.21677 421
48.23688 426
48.257 420
48.27711 412
48.29722 369
48.31734 375
48.33745 372
48.35756 361
48.37768 391
48.39779 371
48.4179 384
48.43802 384
48.45813 360
48.47825 378
48.49836 352
48.51847 385
48.53859 388
48.5587 393
48.57881 341
48.59893 413
48.61904 388
48.63916 388
48.65927 390
48.67938 396
48.6995 388
48.71961 392
48.73972 389
48.75984 381
48.77995 411
48.80006 379
48.82018 393
48.84029 406
48.86041 393
48.88052 358
48.90063 375
48.92075 411
48.94086 433
48.96097 445
48.98109 386
49.0012 411
49.02132 397
49.04143 431
49.06154 428
49.08166 450
49.10177 475
49.12188 451
49.142 492
49.16211 468
49.18223 445
49.20234 435
49.22245 427
49.24257 436
49.26268 439
49.28279 381
49.30291 432
49.32302 410
49.34313 429
49.36325 436
49.38336 430
49.40348 404
49.42359 399
49.4437 401
49.46382 400
49.48393 426
49.50404 435
49.52416 415
49.54427 428
49.56439 432
49.5845 436
49.60461 440
49.62473 417
49.64484 430
49.66495 431
49.68507 439
49.70518 465
49.7253 486
49.74541 457
49.76552 473
49.78564 451
49.80575 466
49.82586 472
49.84598 507
49.86609 518
49.8862 507
49.90632 556
49.92643 502
49.94655 586
49.96666 626
49.98677 646
50.00689 735
50.027 782
50.04711 839
50.06723 866
50.08734 840
50.10746 913
50.12757 810
50.14768 736
50.1678 673
50.18791 706
50.20802 634
50.22814 556
50.24825 563
50.26837 529
50.28848 441
50.30859 484
50.32871 406
50.34882 382
50.36893 412
50.38905 407
50.40916 406
50.42927 437
50.44939 422
50.4695 419
50.48962 451
50.50973 458
50.52984 470
50.54996 474
50.57007 472
50.59018 480
50.6103 500
50.63041 457
50.65053 449
50.67064 474
50.69075 444
50.71087 475
50.73098 449
50.75109 465
50.77121 422
50.79132 425
50.81143 394
50.83155 423
50.85166 372
50.87178 381
50.89189 386
50.912 409
50.93212 377
50.95223 355
50.97234 364
50.99246 403
51.01257 410
51.03269 385
51.0528 425
51.07291 400
51.09303 403
51.11314 407
51.13325 426
51.15337 458
51.17348 421
51.1936 455
51.21371 418
51.23382 465
51.25394 423
51.27405 435
51.29416 425
51.31428 432
51.33439 378
51.3545 386
51.37462 336
51.39473 379
51.41485 353
51.43496 371
51.45507 363
51.47519 360
51.4953 340
51.51541 366
51.53553 346
51.55564 354
51.57576 347
51.59587 357
51.61598 342
51.6361 359
51.65621 338
51.67632 315
51.69644 322
51.71655 362
51.73667 318
51.75678 367
51.77689 350
51.79701 317
51.81712 330
51.83723 338
51.85735 359
51.87746 346
51.89757 326
51.91769 348
51.9378 331
51.95792 340
51.97803 335
51.99814 341
52.01826 329
52.03837 377
52.05848 398
52.0786 391
52.09871 368
52.11883 381
52.13894 391
52.15905 323
52.17917 353
52.19928 360
52.21939 351
52.23951 363
52.25962 327
52.27974 384
52.29985 378
52.31996 331
52.34008 399
52.36019 373
52.3803 331
52.40042 395
52.42053 331
52.44064 362
52.46076 383
52.48087 337
52.50099 367
52.5211 352
52.54121 352
52.56133 364
52.58144 359
52.60155 366
52.62167 396
52.64178 377
52.6619 367
52.68201 368
52.70212 373
52.72224 353
52.74235 405
52.76246 371
52.78258 346
52.80269 365
52.8228 370
52.84292 416
52.86303 448
52.88315 397
52.90326 411
52.92337 396
52.94349 376
52.9636 391
52.98371 376
53.00383 356
53.02394 398
53.04406 420
53.06417 411
53.08428 381
53.1044 408
53.12451 427
53.14462 424
53.16474 374
53.18485 423
53.20497 406
53.22508 418
53.24519 375
53.26531 410
53.28542 451
53.30553 399
53.32565 393
53.34576 388
53.36587 400
53.38599 412
53.4061 447
53.42622 410
53.44633 405
53.46644 397
53.48656 406
53.50667 433
53.52678 395
53.5469 372
53.56701 430
53.58713 416
53.60724 396
53.62735 419
53.64747 425
53.66758 406
53.68769 417
53.70781 431
53.72792 411
53.74804 457
53.76815 433
53.78826 452
53.80838 443
53.82849 439
53.8486 419
53.86872 405
53.88883 429
53.90894 450
53.92906 454
53.94917 447
53.96929 430
53.9894 454
54.00951 439
54.02963 448
54.04974 434
54.06985 426
54.08997 456
54.11008 424
54.1302 435
54.15031 408
54.17042 439
54.19054 411
54.21065 424
54.23076 439
54.25088 429
54.27099 411
54.29111 409
54.31122 410
54.33133 434
54.35145 415
54.37156 405
54.39167 444
54.41179 446
54.4319 414
54.45201 417
54.47213 411
54.49224 427
54.51236 424
54.53247 417
54.55258 403
54.5727 411
54.59281 445
54.61292 429
54.63304 457
54.65315 438
54.67327 451
54.69338 433
54.71349 503
54.73361 475
54.75372 512
54.77383 525
54.79395 520
54.81406 541
54.83417 543
54.85429 531
54.8744 495
54.89452 486
54.91463 452
54.93474 472
54.95486 471
54.97497 469
54.99508 454
55.0152 434
55.03531 428
55.05543 436
55.07554 396
55.09565 434
55.11577 408
55.13588 407
55.15599 439
55.17611 456
55.19622 426
55.21634 427
55.23645 441
55.25656 437
55.27668 448
55.29679 491
55.3169 417
55.33702 444
55.35713 430
55.37724 466
55.39736 434
55.41747 440
55.43759 427
55.4577 414
55.47781 435
55.49793 424
55.51804 387
55.53815 384
55.55827 424
55.57838 382
55.5985 379
55.61861 418
55.63872 386
55.65884 401
55.67895 372
55.69906 393
55.71918 359
55.73929 395
55.75941 357
55.77952 378
55.79963 394
55.81975 417
55.83986 401
55.85997 396
55.88009 403
55.9002 369
55.92031 395
55.94043 380
55.96054 352
55.98066 365
56.00077 382
56.02088 381
56.041 370
56.06111 366
56.08122 361
56.10134 368
56.12145 390
56.14157 375
56.16168 384
56.18179 371
56.20191 355
56.22202 393
56.24213 383
56.26225 351
56.28236 394
56.30248 392
56.32259 373
56.3427 404
56.36282 364
56.38293 357
56.40304 367
56.42316 373
56.44327 389
56.46338 364
56.4835 375
56.50361 377
56.52373 390
56.54384 354
56.56395 368
56.58407 414
56.60418 410
56.62429 412
56.64441 380
56.66452 392
56.68464 364
56.70475 361
56.72486 383
56.74498 337
56.76509 400
56.7852 379
56.80532 397
56.82543 400
56.84554 373
56.86566 375
56.88577 349
56.90589 372
56.926 346
56.94611 383
56.96623 378
56.98634 341
57.00645 363
57.02657 393
57.04668 378
57.0668 378
57.08691 413
57.10702 382
57.12714 349
57.14725 415
57.16736 377
57.18748 396
57.20759 379
57.22771 388
57.24782 363
57.26793 399
57.28805 392
57.30816 398
57.32827 388
57.34839 399
57.3685 385
57.38861 390
57.40873 394
57.42884 360
57.44896 361
57.46907 380
57.48918 389
57.5093 394
57.52941 386
57.54952 386
57.56964 395
57.58975 377
57.60987 391
57.62998 371
57.65009 366
57.67021 373
57.69032 369
57.71043 399
57.73055 411
57.75066 383
57.77078 365
57.79089 370
57.811 400
57.83112 375
57.85123 393
57.87134 391
57.89146 367
57.91157 389
57.93168 390
57.9518 365
57.97191 358
57.99203 361
58.01214 380
58.03225 347
58.05237 338
58.07248 345
58.09259 378
58.11271 352
58.13282 372
58.15294 360
58.17305 309
58.19316 370
58.21328 374
58.23339 349
58.2535 376
58.27362 368
58.29373 382
58.31385 357
58.33396 382
58.35407 344
58.37419 368
58.3943 345
58.41441 367
58.43453 392
58.45464 356
58.47475 377
58.49487 353
58.51498 381
58.5351 375
58.55521 394
58.57532 385
58.59544 409
58.61555 361
58.63566 397
58.65578 367
58.67589 381
58.69601 354
58.71612 376
58.73623 386
58.75635 377
58.77646 388
58.79657 381
58.81669 375
58.8368 361
58.85691 373
58.87703 380
58.89714 366
58.91726 372
58.93737 356
58.95748 390
58.9776 374
58.99771 377
59.01782 328
59.03794 346
59.05805 372
59.07817 371
59.09828 355
59.11839 387
59.13851 362
59.15862 369
59.17873 373
59.19885 351
59.21896 362
59.23908 370
59.25919 362
59.2793 393
59.29942 372
59.31953 381
59.33964 340
59.35976 383
59.37987 335
59.39998 364
59.4201 326
59.44021 353
59.46033 382
59.48044 364
59.50055 373
59.52067 368
59.54078 365
59.56089 355
59.58101 357
59.60112 371
59.62124 393
59.64135 365
59.66146 372
59.68158 386
59.70169 423
59.7218 391
59.74192 441
59.76203 447
59.78215 505
59.80226 474
59.82237 552
59.84249 623
59.8626 623
59.88271 670
59.90283 626
59.92294 645
59.94305 562
59.96317 561
59.98328 564
60.0034 541
60.02351 518
60.04362 508
60.06374 517
60.08385 520
60.10396 440
60.12408 446
60.14419 434
60.16431 413
60.18442 385
60.20453 379
60.22465 380
60.24476 360
60.26487 338
60.28499 385
60.3051 384
60.32522 361
60.34533 373
60.36544 341
60.38556 318
60.40567 382
60.42578 381
60.4459 389
60.46601 310
60.48612 390
60.50624 366
60.52635 354
60.54647 403
60.56658 364
60.58669 408
60.60681 379
60.62692 402
60.64703 360
60.66715 367
60.68726 365
60.70738 385
60.72749 403
60.7476 350
60.76772 393
60.78783 335
60.80794 354
60.82806 368
60.84817 417
60.86828 420
60.8884 398
60.90851 413
60.92863 384
60.94874 386
60.96885 391
60.98897 389
61.00908 382
61.02919 417
61.04931 407
61.06942 420
61.08954 393
61.10965 443
61.12976 411
61.14988 432
61.16999 451
61.1901 437
61.21022 425
61.23033 412
61.25045 438
61.27056 436
61.29067 427
61.31079 448
61.3309 417
61.35101 448
61.37113 472
61.39124 452
61.41135 429
61.43147 463
61.45158 485
61.4717 467
61.49181 483
61.51192 480
61.53204 490
61.55215 508
61.57226 497
61.59238 482
61.61249 490
61.63261 438
61.65272 469
61.67283 477
61.69295 437
61.71306 503
61.73317 490
61.75329 492
61.7734 469
61.79352 496
61.81363 445
61.83374 439
61.85386 489
61.87397 467
61.89408 467
61.9142 466
61.93431 458
61.95442 446
61.97454 461
61.99465 451
62.01477 445
62.03488 478
62.05499 449
62.07511 461
62.09522 445
62.11533 432
62.13545 498
62.15556 435
62.17568 456
62.19579 409
62.2159 451
62.23602 427
62.25613 448
62.27624 455
62.29636 453
62.31647 443
62.33659 423
62.3567 444
62.37681 407
62.39693 456
62.41704 463
62.43715 402
62.45727 414
62.47738 398
62.49749 422
62.51761 411
62.53772 423
62.55784 404
62.57795 401
62.59806 380
62.61818 382
62.63829 374
62.6584 384
62.67852 413
62.69863 395
62.71875 408
62.73886 391
62.75897 415
62.77909 354
62.7992 378
62.81931 390
62.83943 369
62.85954 421
62.87965 395
62.89977 351
62.91988 368
62.94 395
62.96011 394
62.98022 398
63.00034 383
63.02045 361
63.04056 410
63.06068 378
63.08079 350
63.10091 408
63.12102 381
63.14113 396
63.16125 366
63.18136 406
63.20147 395
63.22159 386
63.2417 388
63.26182 368
63.28193 373
63.30204 400
63.32216 377
63.34227 404
63.36238 390
63.3825 385
63.40261 403
63.42272 395
63.44284 384
63.46295 395
63.48307 380
63.50318 381
63.52329 423
63.54341 414
63.56352 371
63.58363 380
63.60375 374
63.62386 407
63.64398 379
63.66409 370
63.6842 415
63.70432 398
63.72443 428
63.74454 417
63.76466 409
63.78477 445
63.80489 413
63.825 402
63.84511 385
63.86523 412
63.88534 474
63.90545 437
63.92557 416
63.94568 458
63.96579 420
63.98591 444
64.00602 422
64.02614 427
64.04625 443
64.06636 399
64.08648 411
64.10659 413
64.1267 415
64.14682 397
64.16693 411
64.18705 409
64.20716 390
64.22727 378
64.24739 339
64.2675 356
64.28761 384
64.30773 386
64.32784 392
64.34796 377
64.36807 339
64.38818 341
64.4083 378
64.42841 343
64.44852 356
64.46864 350
64.48875 363
64.50886 368
64.52898 375
64.54909 368
64.56921 352
64.58932 367
64.60943 370
64.62955 402
64.64966 334
64.66977 355
64.68989 365
64.71 376
64.73012 384
64.75023 370
64.77034 339
64.79046 375
64.81057 381
64.83068 340
64.8508 351
64.87091 373
64.89102 394
64.91114 365
64.93125 343
64.95137 391
64.97148 376
64.99159 360
65.01171 355
65.03182 384
65.05193 368
65.07205 364
65.09216 359
65.11228 372
65.13239 384
65.1525 361
65.17262 346
65.19273 338
65.21284 348
65.23296 396
65.25307 371
65.27319 366
65.2933 345
65.31341 344
65.33353 331
65.35364 375
65.37375 339
65.39387 367
65.41398 373
65.43409 353
65.45421 352
65.47432 340
65.49444 338
65.51455 332
65.53466 354
65.55478 341
65.57489 346
65.595 326
65.61512 363
65.63523 367
65.65535 369
65.67546 343
65.69557 382
65.71569 332
65.7358 352
65.75591 325
65.77603 362
65.79614 332
65.81626 335
65.83637 361
65.85648 334
65.8766 350
65.89671 342
65.91682 358
65.93694 371
65.95705 361
65.97716 344
65.99728 349
66.01739 333
66.03751 364
66.05762 371
66.07773 359
66.09785 388
66.11796 315
66.13807 348
66.15819 340
66.1783 327
66.19842 328
66.21853 359
66.23864 294
66.25876 304
66.27887 341
66.29898 314
66.3191 332
66.33921 314
66.35933 342
66.37944 349
66.39955 346
66.41967 320
66.43978 328
66.45989 342
66.48001 323
66.50012 327
66.52023 355
66.54035 351
66.56046 351
66.58058 371
66.60069 358
66.6208 360
66.64092 347
66.66103 353
66.68114 343
66.70126 365
66.72137 326
66.74149 327
66.7616 328
66.78171 343
66.80183 364
66.82194 349
66.84205 362
66.86217 324
66.88228 329
66.90239 357
66.92251 308
66.94262 291
66.96274 332
66.98285 307
67.00296 334
67.02308 360
67.04319 340
67.0633 350
67.08342 362
67.10353 398
67.12365 328
67.14376 357
67.16387 355
67.18399 334
67.2041 360
67.22421 380
67.24433 352
67.26444 363
67.28456 374
67.30467 378
67.32478 352
67.3449 311
67.36501 352
67.38512 373
67.40524 387
67.42535 335
67.44546 367
67.46558 390
67.48569 366
67.50581 395
67.52592 400
67.54603 387
67.56615 401
67.58626 423
67.60637 443
67.62649 525
67.6466 500
67.66672 515
67.68683 521
67.70694 540
67.72706 506
67.74717 457
67.76728 470
67.7874 399
67.80751 486
67.82763 472
67.84774 456
67.86785 460
67.88797 460
67.90808 445
67.92819 514
67.94831 463
67.96842 493
67.98853 463
68.00865 529
68.02876 561
68.04888 527
68.06899 613
68.0891 589
68.10922 595
68.12933 593
68.14944 541
68.16956 577
68.18967 556
68.20979 533
68.2299 595
68.25001 558
68.27013 595
68.29024 549
68.31035 549
68.33047 494
68.35058 472
68.3707 486
68.39081 438
68.41092 456
68.43104 391
68.45115 390
68.47126 442
68.49138 400
68.51149 343
68.5316 340
68.55172 360
68.57183 363
68.59195 352
68.61206 351
68.63217 361
68.65229 344
68.6724 357
68.69251 317
68.71263 360
68.73274 359
68.75286 326
68.77297 358
68.79308 337
68.8132 334
68.83331 348
68.85342 334
68.87354 403
68.89365 363
68.91376 330
68.93388 333
68.95399 341
68.97411 343
68.99422 338
69.01433 347
69.03445 371
69.05456 338
69.07467 348
69.09479 334
69.1149 307
69.13502 322
69.15513 330
69.17524 363
69.19536 373
69.21547 316
69.23558 359
69.2557 366
69.27581 358
69.29593 367
69.31604 384
69.33615 394
69.35627 377
69.37638 355
69.39649 368
69.41661 375
69.43672 348
69.45683 372
69.47695 335
69.49706 354
69.51718 344
69.53729 332
69.5574 353
69.57752 400
69.59763 372
69.61774 403
69.63786 358
69.65797 349
69.67809 342
69.6982 362
69.71831 361
69.73843 379
69.75854 367
69.77865 374
69.79877 342
69.81888 384
69.839 360
69.85911 336
69.87922 381
69.89934 375
69.91945 339
69.93956 340
69.95968 344
69.97979 322
69.9999 338
70.02002 350
70.04013 325
70.06025 319
70.08036 355
70.10047 342
70.12059 332
70.1407 309
70.16081 348
70.18093 333
70.20104 322
70.22116 302
70.24127 365
70.26138 376
70.2815 302
70.30161 349
70.32172 330
70.34184 321
70.36195 303
70.38207 360
70.40218 332
70.42229 341
70.44241 345
70.46252 346
70.48263 311
70.50275 322
70.52286 310
70.54297 352
70.56309 319
70.5832 342
70.60332 321
70.62343 330
70.64354 330
70.66366 338
70.68377 324
70.70388 319
70.724 335
70.74411 356
70.76423 375
70.78434 318
70.80445 367
70.82457 349
70.84468 334
70.86479 327
70.88491 326
70.90502 344
70.92513 331
70.94525 338
70.96536 306
70.98548 339
71.00559 365
71.0257 309
71.04582 357
71.06593 313
71.08604 324
71.10616 340
71.12627 336
71.14639 320
71.1665 335
71.18661 344
71.20673 300
71.22684 330
71.24695 332
71.26707 332
71.28718 351
71.3073 334
71.32741 340
71.34752 341
71.36764 337
71.38775 364
71.40786 355
71.42798 307
71.44809 307
71.4682 363
71.48832 354
71.50843 321
71.52855 335
71.54866 345
71.56877 317
71.58889 308
71.609 333
71.62911 367
71.64923 323
71.66934 354
71.68946 339
71.70957 334
71.72968 336
71.7498 351
71.76991 310
71.79002 341
71.81014 332
71.83025 355
71.85037 347
71.87048 335
71.89059 283
71.91071 337
71.93082 356
71.95093 351
71.97105 331
71.99116 362
72.01127 336
72.03139 337
72.0515 348
72.07162 319
72.09173 334
72.11184 344
72.13196 346
72.15207 328
72.17218 352
72.1923 327
72.21241 356
72.23253 349
72.25264 382
72.27275 358
72.29287 392
72.31298 382
72.33309 343
72.35321 331
72.37332 354
72.39344 364
72.41355 378
72.43366 351
72.45378 354
72.47389 354
72.494 330
72.51412 320
72.53423 353
72.55434 352
72.57446 355
72.59457 339
72.61469 371
72.6348 347
72.65491 347
72.67503 349
72.69514 366
72.71525 321
72.73537 354
72.75548 368
72.7756 400
72.79571 394
72.81582 368
72.83594 333
72.85605 348
72.87616 380
72.89628 352
72.91639 375
72.9365 346
72.95662 361
72.97673 369
72.99685 374
73.01696 345
73.03707 354
73.05719 338
73.0773 337
73.09741 343
73.11753 402
73.13764 346
73.15776 351
73.17787 362
73.19798 383
73.2181 378
73.23821 377
73.25832 363
73.27844 370
73.29855 391
73.31867 366
73.33878 344
73.35889 418
73.37901 393
73.39912 383
73.41923 413
73.43935 386
73.45946 417
73.47957 365
73.49969 354
73.5198 361
73.53992 385
73.56003 390
73.58014 366
73.60026 431
73.62037 345
73.64048 372
73.6606 381
73.68071 354
73.70083 351
73.72094 421
73.74105 359
73.76117 360
73.78128 365
73.80139 322
73.82151 368
73.84162 347
73.86174 355
73.88185 351
73.90196 361
73.92208 355
73.94219 327
73.9623 332
73.98242 349
74.00253 359
74.02264 342
74.04276 365
74.06287 346
74.08299 332
74.1031 347
74.12321 332
74.14333 353
74.16344 334
74.18355 351
74.20367 352
74.22378 348
74.2439 356
74.26401 355
74.28412 329
74.30424 342
74.32435 336
74.34446 374
74.36458 340
74.38469 323
74.40481 339
74.42492 358
74.44503 324
74.46515 337
74.48526 352
74.50537 329
74.52549 331
74.5456 357
74.56571 359
74.58583 370
74.60594 368
74.62606 337
74.64617 323
74.66628 348
74.6864 368
74.70651 340
74.72662 336
74.74674 341
74.76685 337
74.78697 327
74.80708 343
74.82719 327
74.84731 351
74.86742 331
74.88753 335
74.90765 335
74.92776 323
74.94787 357
74.96799 289
74.9881 292
75.00822 307
