3.00117 20912
3.02128 20063
3.0414 19898
3.06151 19088
3.08162 18599
3.10174 18220
3.12185 17501
3.14197 17142
3.16208 16249
3.18219 16304
3.20231 15883
3.22242 14984
3.24253 14991
3.26265 14387
3.28276 13957
3.30288 13515
3.32299 13021
3.3431 12451
3.36322 11944
3.38333 11780
3.40344 11703
3.42356 11070
3.44367 10908
3.46379 10267
3.4839 10225
3.50401 9898
3.52413 9164
3.54424 9049
3.56435 8423
3.58447 8443
3.60458 7912
3.62469 7553
3.64481 7383
3.66492 6994
3.68504 6965
3.70515 6773
3.72526 6317
3.74538 6261
3.76549 5724
3.7856 5621
3.80572 5539
3.82583 5017
3.84595 5005
3.86606 4739
3.88617 4649
3.90629 4320
3.9264 4123
3.94651 4069
3.96663 3767
3.98674 3644
4.00686 3638
4.02697 3194
4.04708 3233
4.0672 3111
4.08731 2927
4.10742 2932
4.12754 2559
4.14765 2605
4.16776 2381
4.18788 2324
4.20799 2294
4.22811 2018
4.24822 2193
4.26833 1979
4.28845 1948
4.30856 1914
4.32867 1695
4.34879 1764
4.3689 1676
4.38902 1624
4.40913 1777
4.42924 1572
4.44936 1549
4.46947 1465
4.48958 1505
4.5097 1483
4.52981 1379
4.54992 1358
4.57004 1256
4.59015 1356
4.61027 1284
4.63038 1168
4.65049 1135
4.67061 1133
4.69072 1102
4.71083 1112
4.73095 1126
4.75106 966
4.77118 1042
4.79129 971
4.8114 1009
4.83152 925
4.85163 907
4.87174 993
4.89186 888
4.91197 862
4.93209 840
4.9522 858
4.97231 866
4.99243 754
5.01254 799
5.03265 712
5.05277 748
5.07288 767
5.09299 753
5.11311 729
5.13322 690
5.15334 640
5.17345 664
5.19356 664
5.21368 665
5.23379 627
5.2539 621
5.27402 626
5.29413 582
5.31425 563
5.33436 528
5.35447 531
5.37459 517
5.3947 526
5.41481 502
5.43493 504
5.45504 515
5.47516 459
5.49527 476
5.51538 485
5.5355 484
5.55561 461
5.57572 436
5.59584 457
5.61595 459
5.63606 419
5.65618 434
5.67629 380
5.69641 410
5.71652 381
5.73663 406
5.75675 401
5.77686 408
5.79697 340
5.81709 347
5.8372 396
5.85732 359
5.87743 361
5.89754 328
5.91766 340
5.93777 385
5.95788 350
5.978 370
5.99811 312
6.01823 341
6.03834 354
6.05845 334
6.07857 308
6.09868 327
6.11879 291
6.13891 313
6.15902 319
6.17913 295
6.19925 336
6.21936 303
6.23948 289
6.25959 313
6.2797 305
6.29982 292
6.31993 298
6.34004 263
6.36016 295
6.38027 323
6.40039 235
6.4205 287
6.44061 278
6.46073 291
6.48084 260
6.50095 307
6.52107 299
6.54118 248
6.56129 280
6.58141 270
6.60152 253
6.62164 285
6.64175 245
6.66186 236
6.68198 284
6.70209 248
6.7222 261
6.74232 283
6.76243 244
6.78255 273
6.80266 245
6.82277 276
6.84289 272
6.863 222
6.88311 249
6.90323 244
6.92334 268
6.94346 276
6.96357 238
6.98368 269
7.0038 279
7.02391 262
7.04402 246
7.06414 269
7.08425 294
7.10436 269
7.12448 262
7.14459 250
7.16471 248
7.18482 260
7.20493 232
7.22505 268
7.24516 262
7.26527 280
7.28539 238
7.3055 284
7.32562 268
7.34573 290
7.36584 263
7.38596 253
7.40607 241
7.42618 267
7.4463 301
7.46641 223
7.48653 270
7.50664 228
7.52675 276
7.54687 244
7.56698 277
7.58709 275
7.60721 269
7.62732 281
7.64743 240
7.66755 266
7.68766 267
7.70778 276
7.72789 249
7.748 249
7.76812 256
7.78823 281
7.80834 251
7.82846 247
7.84857 287
7.86869 271
7.8888 252
7.90891 252
7.92903 240
7.94914 286
7.96925 209
7.98937 282
8.00948 243
8.0296 286
8.04971 254
8.06982 246
8.08994 251
8.11005 253
8.13016 229
8.15028 241
8.17039 281
8.1905 234
8.21062 269
8.23073 251
8.25085 261
8.27096 236
8.29107 225
8.31119 256
8.3313 227
8.35141 259
8.37153 252
8.39164 258
8.41176 252
8.43187 262
8.45198 267
8.4721 265
8.49221 266
8.51232 281
8.53244 256
8.55255 254
8.57266 245
8.59278 267
8.61289 260
8.63301 259
8.65312 283
8.67323 267
8.69335 265
8.71346 254
8.73357 259
8.75369 284
8.7738 260
8.79392 282
8.81403 289
8.83414 286
8.85426 244
8.87437 266
8.89448 239
8.9146 266
8.93471 284
8.95483 277
8.97494 250
8.99505 253
9.01517 267
9.03528 245
9.05539 243
9.07551 258
9.09562 285
9.11573 286
9.13585 251
9.15596 229
9.17608 244
9.19619 265
9.2163 245
9.23642 230
9.25653 271
9.27664 257
9.29676 264
9.31687 273
9.33699 230
9.3571 258
9.37721 241
9.39733 276
9.41744 266
9.43755 276
9.45767 255
9.47778 290
9.4979 287
9.51801 224
9.53812 263
9.55824 276
9.57835 266
9.59846 216
9.61858 241
9.63869 262
9.6588 259
9.67892 237
9.69903 263
9.71915 238
9.73926 244
9.75937 283
9.77949 260
9.7996 279
9.81971 259
9.83983 244
9.85994 245
9.88006 282
9.90017 252
9.92028 259
9.9404 249
9.96051 267
9.98062 255
10.00074 258
10.02085 253
10.04097 255
10.06108 231
10.08119 245
10.10131 250
10.12142 243
10.14153 268
10.16165 261
10.18176 252
10.20187 247
10.22199 278
10.2421 265
10.26222 228
10.28233 245
10.30244 251
10.32256 239
10.34267 278
10.36278 254
10.3829 268
10.40301 219
10.42313 285
10.44324 275
10.46335 288
10.48347 257
10.50358 291
10.52369 288
10.54381 238
10.56392 238
10.58403 236
10.60415 271
10.62426 258
10.64438 261
10.66449 233
10.6846 262
10.70472 254
10.72483 261
10.74494 245
10.76506 266
10.78517 284
10.80529 258
10.8254 216
10.84551 243
10.86563 250
10.88574 290
10.90585 243
10.92597 266
10.94608 246
10.9662 244
10.98631 250
11.00642 271
11.02654 254
11.04665 270
11.06676 269
11.08688 252
11.10699 278
11.1271 279
11.14722 245
11.16733 274
11.18745 249
11.20756 267
11.22767 245
11.24779 264
11.2679 276
11.28801 256
11.30813 279
11.32824 260
11.34836 243
11.36847 256
11.38858 274
11.4087 268
11.42881 251
11.44892 280
11.46904 248
11.48915 261
11.50927 286
11.52938 276
11.54949 259
11.56961 282
11.58972 254
11.60983 277
11.62995 234
11.65006 253
11.67017 287
11.69029 273
11.7104 297
11.73052 269
11.75063 250
11.77074 273
11.79086 292
11.81097 246
11.83108 283
11.8512 265
11.87131 267
11.89143 293
11.91154 293
11.93165 270
11.95177 260
11.97188 271
11.99199 291
12.01211 281
12.03222 299
12.05234 281
12.07245 307
12.09256 309
12.11268 281
12.13279 303
12.1529 299
12.17302 326
12.19313 277
12.21324 284
12.23336 297
12.25347 320
12.27359 286
12.2937 303
12.31381 307
12.33393 311
12.35404 305
12.37415 279
12.39427 297
12.41438 304
12.4345 287
12.45461 267
12.47472 258
12.49484 288
12.51495 308
12.53506 265
12.55518 290
12.57529 233
12.5954 283
12.61552 241
12.63563 238
12.65575 222
12.67586 235
12.69597 253
12.71609 281
12.7362 242
12.75631 263
12.77643 245
12.79654 246
12.81666 239
12.83677 282
12.85688 213
12.877 223
12.89711 237
12.91722 265
12.93734 251
12.95745 246
12.97757 224
12.99768 224
13.01779 237
13.03791 224
13.05802 232
13.07813 214
13.09825 215
13.11836 222
13.13847 234
13.15859 211
13.1787 183
13.19882 215
13.21893 192
13.23904 227
13.25916 244
13.27927 252
13.29938 228
13.3195 235
13.33961 225
13.35973 246
13.37984 237
13.39995 223
13.42007 207
13.44018 206
13.46029 223
13.48041 229
13.50052 197
13.52064 221
13.54075 226
13.56086 239
13.58098 221
13.60109 229
13.6212 234
13.64132 226
13.66143 209
13.68154 210
13.70166 229
13.72177 221
13.74189 222
13.762 217
13.78211 211
13.80223 222
13.82234 212
13.84245 225
13.86257 232
13.88268 214
13.9028 245
13.92291 220
13.94302 176
13.96314 226
13.98325 213
14.00336 191
14.02348 215
14.04359 182
14.06371 178
14.08382 215
14.10393 180
14.12405 200
14.14416 203
14.16427 199
14.18439 215
14.2045 204
14.22461 223
14.24473 202
14.26484 220
14.28496 228
14.30507 217
14.32518 188
14.3453 180
14.36541 190
14.38552 238
14.40564 211
14.42575 191
14.44587 199
14.46598 209
14.48609 202
14.50621 183
14.52632 223
14.54643 205
14.56655 184
14.58666 199
14.60677 188
14.62689 197
14.647 182
14.66712 191
14.68723 224
14.70734 191
14.72746 214
14.74757 215
14.76768 199
14.7878 193
14.80791 204
14.82803 205
14.84814 187
14.86825 194
14.88837 203
14.90848 194
14.92859 197
14.94871 220
14.96882 220
14.98894 183
15.00905 219
15.02916 208
15.04928 184
15.06939 203
15.0895 192
15.10962 227
15.12973 198
15.14984 196
15.16996 214
15.19007 169
15.21019 219
15.2303 176
15.25041 216
15.27053 193
15.29064 180
15.31075 236
15.33087 179
15.35098 216
15.3711 172
15.39121 198
15.41132 191
15.43144 191
15.45155 210
15.47166 214
15.49178 208
15.51189 193
15.53201 199
15.55212 238
15.57223 210
15.59235 196
15.61246 195
15.63257 189
15.65269 212
15.6728 201
15.69291 178
15.71303 173
15.73314 202
15.75326 207
15.77337 192
15.79348 182
15.8136 207
15.83371 193
15.85382 190
15.87394 184
15.89405 176
15.91417 190
15.93428 204
15.95439 177
15.97451 209
15.99462 196
16.01473 184
16.03485 196
16.05496 178
16.07508 175
16.09519 180
16.1153 175
16.13542 208
16.15553 192
16.17564 213
16.19576 203
16.21587 179
16.23598 175
16.2561 205
16.27621 220
16.29633 191
16.31644 178
16.33655 187
16.35667 195
16.37678 168
16.39689 183
16.41701 190
16.43712 192
16.45724 176
16.47735 207
16.49746 190
16.51758 169
16.53769 191
16.5578 165
16.57792 197
16.59803 209
16.61814 207
16.63826 172
16.65837 192
16.67849 178
16.6986 199
16.71871 198
16.73883 200
16.75894 191
16.77905 209
16.79917 192
16.81928 179
16.8394 193
16.85951 173
16.87962 189
16.89974 179
16.91985 190
16.93996 151
16.96008 203
16.98019 186
17.00031 200
17.02042 158
17.04053 199
17.06065 156
17.08076 201
17.10087 181
17.12099 198
17.1411 208
17.16121 177
17.18133 181
17.20144 168
17.22156 188
17.24167 177
17.26178 199
17.2819 205
17.30201 153
17.32212 186
17.34224 188
17.36235 169
17.38247 187
17.40258 179
17.42269 198
17.44281 196
17.46292 193
17.48303 196
17.50315 221
17.52326 221
17.54338 204
17.56349 182
17.5836 179
17.60372 191
17.62383 193
17.64394 164
17.66406 197
17.68417 194
17.70428 221
17.7244 181
17.74451 193
17.76463 182
17.78474 192
17.80485 206
17.82497 168
17.84508 204
17.86519 163
17.88531 202
17.90542 214
17.92554 198
17.94565 193
17.96576 198
17.98588 205
18.00599 159
18.0261 177
18.04622 161
18.06633 202
18.08645 186
18.10656 171
18.12667 181
18.14679 193
18.1669 191
18.18701 214
18.20713 206
18.22724 196
18.24735 199
18.26747 204
18.28758 209
18.3077 211
18.32781 195
18.34792 197
18.36804 190
18.38815 188
18.40826 166
18.42838 182
18.44849 189
18.46861 202
18.48872 196
18.50883 180
18.52895 175
18.54906 185
18.56917 178
18.58929 173
18.6094 214
18.62951 175
18.64963 174
18.66974 203
18.68986 191
18.70997 186
18.73008 190
18.7502 221
18.77031 197
18.79042 205
18.81054 218
18.83065 210
18.85077 218
18.87088 217
18.89099 169
18.91111 204
18.93122 179
18.95133 173
18.97145 190
18.99156 191
19.01168 202
19.03179 179
19.0519 175
19.07202 208
19.09213 210
19.11224 190
19.13236 200
19.15247 210
19.17258 205
19.1927 196
19.21281 218
19.23293 206
19.25304 201
19.27315 211
19.29327 215
19.31338 221
19.33349 222
19.35361 204
19.37372 227
19.39384 244
19.41395 219
19.43406 206
19.45418 181
19.47429 198
19.4944 218
19.51452 226
19.53463 206
19.55475 244
19.57486 275
19.59497 247
19.61509 295
19.6352 291
19.65531 295
19.67543 300
19.69554 358
19.71565 343
19.73577 339
19.75588 360
19.776 393
19.79611 417
19.81622 373
19.83634 413
19.85645 385
19.87656 413
19.89668 456
19.91679 401
19.93691 389
19.95702 398
19.97713 377
19.99725 346
20.01736 421
20.03747 388
20.05759 376
20.0777 375
20.09782 389
20.11793 393
20.13804 377
20.15816 403
20.17827 390
20.19838 368
20.2185 420
20.23861 388
20.25872 407
20.27884 385
20.29895 411
20.31907 391
20.33918 420
20.35929 394
20.37941 463
20.39952 441
20.41963 419
20.43975 429
20.45986 470
20.47998 436
20.50009 473
20.5202 504
20.54032 507
20.56043 527
20.58054 561
20.60066 540
20.62077 657
20.64088 759
20.661 859
20.68111 1054
20.70123 1462
20.72134 2082
20.74145 2796
20.76157 3919
20.78168 5209
20.80179 6385
20.82191 7391
20.84202 7854
20.86214 7275
20.88225 5888
20.90236 4413
20.92248 2873
20.94259 1898
20.9627 1174
20.98282 828
21.00293 705
21.02305 622
21.04316 600
21.06327 487
21.08339 519
21.1035 465
21.12361 477
21.14373 422
21.16384 440
21.18395 370
21.20407 344
21.22418 364
21.2443 392
21.26441 402
21.28452 394
21.30464 334
21.32475 367
21.34486 352
21.36498 303
21.38509 306
21.40521 364
21.42532 325
21.44543 308
21.46555 328
21.48566 297
21.50577 284
21.52589 321
21.546 321
21.56612 287
21.58623 321
21.60634 304
21.62646 282
21.64657 314
21.66668 296
21.6868 336
21.70691 320
21.72702 294
21.74714 275
21.76725 287
21.78737 285
21.80748 293
21.82759 296
21.84771 261
21.86782 284
21.88793 260
21.90805 301
21.92816 241
21.94828 287
21.96839 270
21.9885 291
22.00862 300
22.02873 254
22.04884 268
22.06896 287
22.08907 288
22.10919 274
22.1293 255
22.14941 277
22.16953 253
22.18964 256
22.20975 246
22.22987 275
22.24998 261
22.27009 264
22.29021 307
22.31032 295
22.33044 292
22.35055 266
22.37066 275
22.39078 257
22.41089 250
22.431 230
22.45112 276
22.47123 244
22.49135 258
22.51146 241
22.53157 256
22.55169 288
22.5718 252
22.59191 268
22.61203 256
22.63214 266
22.65225 231
22.67237 274
22.69248 262
22.7126 259
22.73271 244
22.75282 278
22.77294 291
22.79305 263
22.81316 260
22.83328 281
22.85339 239
22.87351 226
22.89362 223
22.91373 259
22.93385 258
22.95396 258
22.97407 255
22.99419 245
23.0143 261
23.03442 278
23.05453 278
23.07464 271
23.09476 255
23.11487 302
23.13498 305
23.1551 256
23.17521 297
23.19532 270
23.21544 279
23.23555 274
23.25567 280
23.27578 261
23.29589 241
23.31601 243
23.33612 237
23.35623 251
23.37635 249
23.39646 224
23.41658 235
23.43669 239
23.4568 223
23.47692 246
23.49703 283
23.51714 215
23.53726 215
23.55737 250
23.57749 237
23.5976 272
23.61771 228
23.63783 281
23.65794 252
23.67805 266
23.69817 242
23.71828 251
23.73839 257
23.75851 243
23.77862 250
23.79874 278
23.81885 291
23.83896 277
23.85908 290
23.87919 283
23.8993 334
23.91942 298
23.93953 326
23.95965 331
23.97976 327
23.99987 381
24.01999 340
24.0401 312
24.06021 297
24.08033 268
24.10044 267
24.12056 243
24.14067 248
24.16078 272
24.1809 236
24.20101 266
24.22112 232
24.24124 274
24.26135 252
24.28146 270
24.30158 285
24.32169 245
24.34181 283
24.36192 257
24.38203 276
24.40215 289
24.42226 245
24.44237 261
24.46249 253
24.4826 276
24.50272 280
24.52283 240
24.54294 297
24.56306 276
24.58317 251
24.60328 245
24.6234 267
24.64351 286
24.66362 285
24.68374 309
24.70385 302
24.72397 269
24.74408 327
24.76419 287
24.78431 317
24.80442 329
24.82453 292
24.84465 286
24.86476 270
24.88488 281
24.90499 276
24.9251 293
24.94522 297
24.96533 325
24.98544 277
25.00556 293
25.02567 296
25.04579 312
25.0659 280
25.08601 309
25.10613 312
25.12624 332
25.14635 292
25.16647 317
25.18658 321
25.20669 304
25.22681 296
25.24692 297
25.26704 301
25.28715 289
25.30726 299
25.32738 312
25.34749 288
25.3676 271
25.38772 301
25.40783 314
25.42795 308
25.44806 329
25.46817 346
25.48829 298
25.5084 349
25.52851 343
25.54863 357
25.56874 345
25.58886 429
25.60897 413
25.62908 391
25.6492 440
25.66931 451
25.68942 502
25.70954 463
25.72965 473
25.74976 484
25.76988 477
25.78999 458
25.81011 476
25.83022 459
25.85033 452
25.87045 515
25.89056 457
25.91067 519
25.93079 483
25.9509 522
25.97102 526
25.99113 565
26.01124 536
26.03136 617
26.05147 598
26.07158 614
26.0917 591
26.11181 648
26.13193 731
26.15204 745
26.17215 745
26.19227 838
26.21238 882
26.23249 962
26.25261 1039
26.27272 1081
26.29283 1211
26.31295 1313
26.33306 1465
26.35318 1617
26.37329 1947
26.3934 2325
26.41352 2812
26.43363 3777
26.45374 4966
26.47386 6861
26.49397 9485
26.51409 13207
26.5342 17938
26.55431 23753
26.57443 29086
26.59454 33603
26.61465 35170
26.63477 33107
26.65488 27647
26.67499 21467
26.69511 15765
26.71522 10846
26.73534 6627
26.75545 3880
26.77556 2454
26.79568 1941
26.81579 1657
26.8359 1493
26.85602 1294
26.87613 1147
26.89625 1075
26.91636 1025
26.93647 949
26.95659 881
26.9767 779
26.99681 749
27.01693 719
27.03704 676
27.05716 610
27.07727 586
27.09738 569
27.1175 560
27.13761 522
27.15772 478
27.17784 464
27.19795 476
27.21806 461
27.23818 475
27.25829 521
27.27841 455
27.29852 487
27.31863 520
27.33875 526
27.35886 499
27.37897 532
27.39909 565
27.4192 532
27.43932 565
27.45943 522
27.47954 483
27.49966 455
27.51977 421
27.53988 450
27.56 415
27.58011 343
27.60023 370
27.62034 348
27.64045 357
27.66057 346
27.68068 317
27.70079 367
27.72091 400
27.74102 319
27.76113 355
27.78125 315
27.80136 304
27.82148 353
27.84159 331
27.8617 353
27.88182 305
27.90193 292
27.92204 300
27.94216 298
27.96227 273
27.98239 304
28.0025 308
28.02261 295
28.04273 311
28.06284 305
28.08295 291
28.10307 300
28.12318 308
28.1433 302
28.16341 302
28.18352 316
28.20364 299
28.22375 275
28.24386 267
28.26398 307
28.28409 266
28.3042 260
28.32432 266
28.34443 285
28.36455 283
28.38466 271
28.40477 265
28.42489 296
28.445 286
28.46511 289
28.48523 275
28.50534 260
28.52546 270
28.54557 249
28.56568 290
28.5858 256
28.60591 281
28.62602 256
28.64614 280
28.66625 286
28.68636 275
28.70648 270
28.72659 253
28.74671 271
28.76682 258
28.78693 262
28.80705 261
28.82716 286
28.84727 253
28.86739 247
28.8875 254
28.90762 263
28.92773 290
28.94784 230
28.96796 275
28.98807 233
29.00818 286
29.0283 281
29.04841 240
29.06853 250
29.08864 251
29.10875 256
29.12887 240
29.14898 279
29.16909 253
29.18921 251
29.20932 233
29.22943 258
29.24955 257
29.26966 250
29.28978 267
29.30989 244
29.33 257
29.35012 259
29.37023 245
29.39034 276
29.41046 229
29.43057 271
29.45069 264
29.4708 285
29.49091 236
29.51103 251
29.53114 258
29.55125 234
29.57137 226
29.59148 252
29.6116 236
29.63171 240
29.65182 252
29.67194 220
29.69205 247
29.71216 237
29.73228 253
29.75239 250
29.7725 264
29.79262 228
29.81273 240
29.83285 247
29.85296 215
29.87307 248
29.89319 214
29.9133 231
29.93341 255
29.95353 265
29.97364 242
29.99376 276
30.01387 252
30.03398 233
30.0541 240
30.07421 248
30.09432 231
30.11444 252
30.13455 246
30.15467 249
30.17478 269
30.19489 278
30.21501 281
30.23512 264
30.25523 250
30.27535 246
30.29546 230
30.31557 192
30.33569 220
30.3558 199
30.37592 235
30.39603 235
30.41614 209
30.43626 208
30.45637 230
30.47648 238
30.4966 233
30.51671 220
30.53683 222
30.55694 234
30.57705 237
30.59717 216
30.61728 226
30.63739 259
30.65751 227
30.67762 245
30.69773 247
30.71785 264
30.73796 248
30.75808 266
30.77819 231
30.7983 241
30.81842 273
30.83853 233
30.85864 219
30.87876 231
30.89887 227
30.91899 238
30.9391 241
30.95921 239
30.97933 228
30.99944 208
31.01955 191
31.03967 190
31.05978 232
31.0799 199
31.10001 211
31.12012 224
31.14024 205
31.16035 221
31.18046 203
31.20058 219
31.22069 207
31.2408 215
31.26092 209
31.28103 205
31.30115 214
31.32126 220
31.34137 202
31.36149 201
31.3816 179
31.40171 234
31.42183 195
31.44194 221
31.46206 201
31.48217 202
31.50228 184
31.5224 227
31.54251 210
31.56262 208
31.58274 200
31.60285 169
31.62297 210
31.64308 206
31.66319 219
31.68331 216
31.70342 192
31.72353 180
31.74365 220
31.76376 222
31.78387 204
31.80399 214
31.8241 197
31.84422 196
31.86433 195
31.88444 211
31.90456 187
31.92467 212
31.94478 222
31.9649 174
31.98501 170
32.00513 219
32.02524 187
32.04535 196
32.06547 197
32.08558 192
32.10569 222
32.12581 204
32.14592 199
32.16604 217
32.18615 218
32.20626 191
32.22638 204
32.24649 172
32.2666 196
32.28672 181
32.30683 220
32.32694 204
32.34706 192
32.36717 208
32.38729 207
32.4074 216
32.42751 200
32.44763 231
32.46774 173
32.48785 187
32.50797 206
32.52808 170
32.5482 195
32.56831 169
32.58842 207
32.60854 193
32.62865 197
32.64876 169
32.66888 195
32.68899 195
32.7091 211
32.72922 179
32.74933 180
32.76945 186
32.78956 193
32.80967 204
32.82979 209
32.8499 211
32.87001 153
32.89013 205
32.91024 157
32.93036 216
32.95047 169
32.97058 181
32.9907 170
33.01081 184
33.03092 181
33.05104 165
33.07115 158
33.09127 200
33.11138 211
33.13149 180
33.15161 214
33.17172 208
33.19183 198
33.21195 180
33.23206 209
33.25217 195
33.27229 181
33.2924 206
33.31252 172
33.33263 195
33.35274 186
33.37286 163
33.39297 181
33.41308 199
33.4332 162
33.45331 179
33.47343 188
33.49354 174
33.51365 170
33.53377 166
33.55388 188
33.57399 198
33.59411 181
33.61422 171
33.63434 168
33.65445 160
33.67456 197
33.69468 185
33.71479 170
33.7349 164
33.75502 187
33.77513 176
33.79524 188
33.81536 189
33.83547 186
33.85559 165
33.8757 191
33.89581 173
33.91593 189
33.93604 177
33.95615 178
33.97627 199
33.99638 182
34.0165 180
34.03661 193
34.05672 207
34.07684 186
34.09695 158
34.11706 178
34.13718 231
34.15729 180
34.17741 176
34.19752 196
34.21763 178
34.23775 179
34.25786 180
34.27797 195
34.29809 199
34.3182 199
34.33831 190
34.35843 184
34.37854 200
34.39866 196
34.41877 188
34.43888 193
34.459 214
34.47911 232
34.49922 212
34.51934 229
34.53945 216
34.55957 214
34.57968 224
34.59979 218
34.61991 240
34.64002 256
34.66013 243
34.68025 245
34.70036 236
34.72047 257
34.74059 244
34.7607 227
34.78082 260
34.80093 269
34.82104 267
34.84116 297
34.86127 262
34.88138 283
34.9015 296
34.92161 273
34.94173 262
34.96184 271
34.98195 265
35.00207 244
35.02218 248
35.04229 300
35.06241 233
35.08252 230
35.10264 232
35.12275 234
35.14286 231
35.16298 250
35.18309 247
35.2032 251
35.22332 222
35.24343 243
35.26354 254
35.28366 266
35.30377 261
35.32389 244
35.344 253
35.36411 239
35.38423 270
35.40434 266
35.42445 260
35.44457 240
35.46468 266
35.4848 266
35.50491 287
35.52502 269
35.54514 238
35.56525 294
35.58536 279
35.60548 280
35.62559 245
35.64571 266
35.66582 272
35.68593 250
35.70605 257
35.72616 216
35.74627 246
35.76639 257
35.7865 238
35.80661 259
35.82673 267
35.84684 254
35.86696 254
35.88707 237
35.90718 227
35.9273 222
35.94741 245
35.96752 249
35.98764 270
36.00775 240
36.02787 233
36.04798 278
36.06809 255
36.08821 268
36.10832 276
36.12843 301
36.14855 283
36.16866 298
36.18878 283
36.20889 308
36.229 320
36.24912 346
36.26923 390
36.28934 406
36.30946 504
36.32957 531
36.34968 643
36.3698 790
36.38991 993
36.41003 1253
36.43014 1484
36.45025 1852
36.47037 2125
36.49048 2463
36.51059 2567
36.53071 2272
36.55082 1840
36.57094 1579
36.59105 1340
36.61116 1191
36.63128 917
36.65139 681
36.6715 516
36.69162 348
36.71173 345
36.73184 307
36.75196 290
36.77207 330
36.79219 282
36.8123 278
36.83241 285
36.85253 296
36.87264 248
36.89275 275
36.91287 255
36.93298 246
36.9531 223
36.97321 249
36.99332 219
37.01344 240
37.03355 248
37.05366 214
37.07378 227
37.09389 244
37.11401 214
37.13412 254
37.15423 214
37.17435 235
37.19446 210
37.21457 211
37.23469 232
37.2548 224
37.27491 213
37.29503 213
37.31514 227
37.33526 234
37.35537 220
37.37548 211
37.3956 229
37.41571 196
37.43582 226
37.45594 250
37.47605 224
37.49617 232
37.51628 209
37.53639 212
37.55651 245
37.57662 217
37.59673 229
37.61685 240
37.63696 215
37.65708 230
37.67719 253
37.6973 239
37.71742 237
37.73753 228
37.75764 223
37.77776 194
37.79787 225
37.81798 217
37.8381 226
37.85821 210
37.87833 232
37.89844 216
37.91855 239
37.93867 197
37.95878 203
37.97889 201
37.99901 228
38.01912 204
38.03924 216
38.05935 226
38.07946 219
38.09958 240
38.11969 212
38.1398 273
38.15992 248
38.18003 227
38.20015 242
38.22026 250
38.24037 248
38.26049 229
38.2806 248
38.30071 245
38.32083 257
38.34094 259
38.36105 270
38.38117 238
38.40128 252
38.4214 258
38.44151 263
38.46162 253
38.48174 247
38.50185 234
38.52196 248
38.54208 237
38.56219 256
38.58231 215
38.60242 240
38.62253 229
38.64265 246
38.66276 224
38.68287 196
38.70299 223
38.7231 226
38.74321 249
38.76333 259
38.78344 209
38.80356 243
38.82367 224
38.84378 242
38.8639 243
38.88401 225
38.90412 215
38.92424 231
38.94435 242
38.96447 219
38.98458 270
39.00469 238
39.02481 254
39.04492 262
39.06503 249
39.08515 280
39.10526 280
39.12538 297
39.14549 336
39.1656 334
39.18572 331
39.20583 374
39.22594 435
39.24606 495
39.26617 540
39.28628 728
39.3064 895
39.32651 1015
39.34663 1373
39.36674 1675
39.38685 1897
39.40697 2101
39.42708 2182
39.44719 2092
39.46731 1793
39.48742 1518
39.50754 1293
39.52765 1197
39.54776 981
39.56788 858
39.58799 594
39.6081 438
39.62822 335
39.64833 305
39.66845 278
39.68856 297
39.70867 246
39.72879 263
39.7489 264
39.76901 234
39.78913 220
39.80924 250
39.82935 264
39.84947 251
39.86958 243
39.8897 239
39.90981 267
39.92992 263
39.95004 254
39.97015 267
39.99026 250
40.01038 252
40.03049 307
40.05061 317
40.07072 366
40.09083 435
40.11095 431
40.13106 529
40.15117 628
40.17129 766
40.1914 918
40.21152 984
40.23163 1111
40.25174 1093
40.27186 1098
40.29197 983
40.31208 833
40.3322 749
40.35231 646
40.37242 568
40.39254 523
40.41265 411
40.43277 289
40.45288 300
40.47299 222
40.49311 252
40.51322 225
40.53333 207
40.55345 219
40.57356 216
40.59368 207
40.61379 209
40.6339 212
40.65402 199
40.67413 195
40.69424 202
40.71436 198
40.73447 213
40.75458 222
40.7747 173
40.79481 185
40.81493 229
40.83504 211
40.85515 211
40.87527 185
40.89538 221
40.91549 212
40.93561 176
40.95572 207
40.97584 194
40.99595 203
41.01606 188
41.03618 203
41.05629 207
41.0764 212
41.09652 194
41.11663 212
41.13675 187
41.15686 218
41.17697 218
41.19709 179
41.2172 206
41.23731 201
41.25743 211
41.27754 206
41.29765 200
41.31777 176
41.33788 187
41.358 192
41.37811 196
41.39822 223
41.41834 210
41.43845 200
41.45856 174
41.47868 212
41.49879 180
41.51891 174
41.53902 195
41.55913 211
41.57925 193
41.59936 199
41.61947 206
41.63959 202
41.6597 191
41.67982 235
41.69993 234
41.72004 243
41.74016 197
41.76027 227
41.78038 207
41.8005 212
41.82061 202
41.84072 235
41.86084 199
41.88095 212
41.90107 195
41.92118 221
41.94129 211
41.96141 197
41.98152 211
42.00163 232
42.02175 197
42.04186 230
42.06198 239
42.08209 262
42.1022 248
42.12232 231
42.14243 255
42.16254 298
42.18266 329
42.20277 355
42.22289 427
42.243 475
42.26311 535
42.28323 681
42.30334 811
42.32345 988
42.34357 1220
42.36368 1378
42.38379 1565
42.40391 1564
42.42402 1550
42.44414 1374
42.46425 1173
42.48436 1117
42.50448 944
42.52459 883
42.5447 732
42.56482 599
42.58493 440
42.60505 356
42.62516 289
42.64527 289
42.66539 239
42.6855 225
42.70561 230
42.72573 231
42.74584 228
42.76595 224
42.78607 206
42.80618 213
42.8263 197
42.84641 203
42.86652 178
42.88664 185
42.90675 182
42.92686 191
42.94698 175
42.96709 199
42.98721 167
43.00732 177
43.02743 156
43.04755 193
43.06766 184
43.08777 180
43.10789 191
43.128 195
43.14812 170
43.16823 198
43.18834 184
43.20846 181
43.22857 193
43.24868 169
43.2688 159
43.28891 194
43.30902 189
43.32914 191
43.34925 175
43.36937 195
43.38948 188
43.40959 177
43.42971 179
43.44982 172
43.46993 167
43.49005 161
43.51016 172
43.53028 188
43.55039 182
43.5705 140
43.59062 164
43.61073 170
43.63084 209
43.65096 176
43.67107 173
43.69119 193
43.7113 189
43.73141 183
43.75153 170
43.77164 175
43.79175 152
43.81187 157
43.83198 164
43.85209 155
43.87221 179
43.89232 180
43.91244 183
43.93255 191
43.95266 172
43.97278 169
43.99289 186
44.013 172
44.03312 188
44.05323 181
44.07335 157
44.09346 196
44.11357 178
44.13369 194
44.1538 180
44.17391 176
44.19403 194
44.21414 176
44.23426 158
44.25437 183
44.27448 187
44.2946 162
44.31471 177
44.33482 173
44.35494 187
44.37505 172
44.39516 171
44.41528 182
44.43539 171
44.45551 167
44.47562 176
44.49573 165
44.51585 161
44.53596 178
44.55607 180
44.57619 171
44.5963 178
44.61642 183
44.63653 177
44.65664 169
44.67676 173
44.69687 191
44.71698 173
44.7371 180
44.75721 156
44.77732 182
44.79744 175
44.81755 174
44.83767 172
44.85778 179
44.87789 194
44.89801 178
44.91812 187
44.93823 182
44.95835 164
44.97846 184
44.99858 181
45.01869 170
45.0388 174
45.05892 179
45.07903 187
45.09914 161
45.11926 177
45.13937 176
45.15949 194
45.1796 169
45.19971 175
45.21983 185
45.23994 189
45.26005 212
45.28017 179
45.30028 199
45.32039 185
45.34051 213
45.36062 201
45.38074 210
45.40085 215
45.42096 236
45.44108 214
45.46119 250
45.4813 211
45.50142 277
45.52153 284
45.54165 299
45.56176 344
45.58187 370
45.60199 434
45.6221 513
45.64221 623
45.66233 746
45.68244 851
45.70256 961
45.72267 1108
45.74278 1113
45.7629 1117
45.78301 1002
45.80312 879
45.82324 736
45.84335 677
45.86346 608
45.88358 600
45.90369 496
45.92381 413
45.94392 307
45.96403 263
45.98415 241
46.00426 198
46.02437 231
46.04449 196
46.0646 210
46.08472 200
46.10483 199
46.12494 188
46.14506 166
46.16517 180
46.18528 197
46.2054 166
46.22551 157
46.24563 181
46.26574 183
46.28585 198
46.30597 188
46.32608 188
46.34619 174
46.36631 155
46.38642 172
46.40653 173
46.42665 170
46.44676 180
46.46688 171
46.48699 172
46.5071 175
46.52722 177
46.54733 168
46.56744 163
46.58756 156
46.60767 169
46.62779 167
46.6479 162
46.66801 152
46.68813 185
46.70824 185
46.72835 156
46.74847 189
46.76858 176
46.78869 147
46.80881 175
46.82892 155
46.84904 146
46.86915 157
46.88926 161
46.90938 154
46.92949 149
46.9496 154
46.96972 194
46.98983 182
47.00995 176
47.03006 176
47.05017 198
47.07029 153
47.0904 185
47.11051 164
47.13063 164
47.15074 179
47.17086 155
47.19097 168
47.21108 187
47.2312 159
47.25131 198
47.27142 162
47.29154 180
47.31165 176
47.33176 167
47.35188 163
47.37199 168
47.39211 172
47.41222 163
47.43233 159
47.45245 169
47.47256 160
47.49267 152
47.51279 188
47.5329 178
47.55302 163
47.57313 180
47.59324 183
47.61336 172
47.63347 173
47.65358 156
47.6737 164
47.69381 166
47.71393 171
47.73404 172
47.75415 127
47.77427 175
47.79438 148
47.81449 182
47.83461 160
47.85472 148
47.87483 157
47.89495 144
47.91506 174
47.93518 168
47.95529 178
47.9754 154
47.99552 159
48.01563 161
48.03574 165
48.05586 162
48.07597 165
48.09609 154
48.1162 183
48.13631 142
48.15643 166
48.17654 170
48.19665 153
48.21677 169
48.23688 155
48.257 167
48.27711 168
48.29722 187
48.31734 199
48.33745 177
48.35756 183
48.37768 168
48.39779 174
48.4179 166
48.43802 162
48.45813 181
48.47825 187
48.49836 180
48.51847 190
48.53859 159
48.5587 153
48.57881 174
48.59893 168
48.61904 178
48.63916 183
48.65927 153
48.67938 157
48.6995 191
48.71961 192
48.73972 210
48.75984 170
48.77995 185
48.80006 184
48.82018 185
48.84029 213
48.86041 179
48.88052 213
48.90063 197
48.92075 183
48.94086 179
48.96097 176
48.98109 177
49.0012 176
49.02132 168
49.04143 180
49.06154 166
49.08166 172
49.10177 191
49.12188 193
49.142 168
49.16211 174
49.18223 198
49.20234 175
49.22245 175
49.24257 190
49.26268 176
49.28279 202
49.30291 142
49.32302 182
49.34313 184
49.36325 191
49.38336 196
49.40348 190
49.42359 195
49.4437 177
49.46382 189
49.48393 213
49.50404 199
49.52416 186
49.54427 190
49.56439 190
49.5845 222
49.60461 242
49.62473 246
49.64484 227
49.66495 259
49.68507 248
49.70518 261
49.7253 316
49.74541 297
49.76552 327
49.78564 398
49.80575 443
49.82586 449
49.84598 452
49.86609 528
49.8862 624
49.90632 714
49.92643 904
49.94655 1106
49.96666 1371
49.98677 1730
50.00689 2151
50.027 2522
50.04711 2943
50.06723 3224
50.08734 3353
50.10746 3238
50.12757 2885
50.14768 2433
50.1678 2129
50.18791 1947
50.20802 1839
50.22814 1666
50.24825 1562
50.26837 1172
50.28848 811
50.30859 583
50.32871 458
50.34882 394
50.36893 345
50.38905 336
50.40916 318
50.42927 287
50.44939 282
50.4695 304
50.48962 315
50.50973 281
50.52984 304
50.54996 302
50.57007 286
50.59018 294
50.6103 272
50.63041 259
50.65053 230
50.67064 246
50.69075 255
50.71087 217
50.73098 249
50.75109 220
50.77121 199
50.79132 184
50.81143 203
50.83155 203
50.85166 185
50.87178 200
50.89189 183
50.912 184
50.93212 176
50.95223 156
50.97234 167
50.99246 165
51.01257 170
51.03269 163
51.0528 171
51.07291 157
51.09303 176
51.11314 198
51.13325 180
51.15337 153
51.17348 174
51.1936 175
51.21371 176
51.23382 171
51.25394 158
51.27405 183
51.29416 168
51.31428 152
51.33439 157
51.3545 177
51.37462 164
51.39473 170
51.41485 164
51.43496 149
51.45507 175
51.47519 166
51.4953 159
51.51541 158
51.53553 131
51.55564 169
51.57576 151
51.59587 148
51.61598 171
51.6361 149
51.65621 159
51.67632 155
51.69644 164
51.71655 155
51.73667 153
51.75678 168
51.77689 153
51.79701 131
51.81712 167
51.83723 162
51.85735 158
51.87746 134
51.89757 156
51.91769 184
51.9378 147
51.95792 124
51.97803 167
51.99814 161
52.01826 165
52.03837 165
52.05848 130
52.0786 152
52.09871 174
52.11883 149
52.13894 155
52.15905 161
52.17917 143
52.19928 140
52.21939 157
52.23951 167
52.25962 165
52.27974 155
52.29985 141
52.31996 152
52.34008 142
52.36019 148
52.3803 162
52.40042 174
52.42053 155
52.44064 166
52.46076 173
52.48087 153
52.50099 138
52.5211 161
52.54121 161
52.56133 162
52.58144 171
52.60155 166
52.62167 138
52.64178 156
52.6619 157
52.68201 143
52.70212 165
52.72224 145
52.74235 139
52.76246 163
52.78258 135
52.80269 154
52.8228 159
52.84292 148
52.86303 159
52.88315 160
52.90326 155
52.92337 147
52.94349 168
52.9636 165
52.98371 145
53.00383 180
53.02394 159
53.04406 165
53.06417 157
53.08428 150
53.1044 164
53.12451 150
53.14462 181
53.16474 166
53.18485 183
53.20497 160
53.22508 181
53.24519 137
53.26531 168
53.28542 168
53.30553 159
53.32565 168
53.34576 173
53.36587 152
53.38599 157
53.4061 153
53.42622 163
53.44633 172
53.46644 186
53.48656 166
53.50667 171
53.52678 184
53.5469 149
53.56701 180
53.58713 167
53.60724 178
53.62735 188
53.64747 204
53.66758 179
53.68769 189
53.70781 186
53.72792 160
53.74804 190
53.76815 168
53.78826 166
53.80838 170
53.82849 167
53.8486 159
53.86872 193
53.88883 175
53.90894 178
53.92906 214
53.94917 189
53.96929 208
53.9894 189
54.00951 174
54.02963 203
54.04974 199
54.06985 177
54.08997 200
54.11008 197
54.1302 189
54.15031 208
54.17042 207
54.19054 179
54.21065 186
54.23076 214
54.25088 190
54.27099 189
54.29111 174
54.31122 179
54.33133 221
54.35145 200
54.37156 219
54.39167 206
54.41179 235
54.4319 215
54.45201 205
54.47213 233
54.49224 245
54.51236 241
54.53247 249
54.55258 240
54.5727 271
54.59281 318
54.61292 325
54.63304 344
54.65315 427
54.67327 464
54.69338 540
54.71349 611
54.73361 733
54.75372 788
54.77383 987
54.79395 1037
54.81406 1105
54.83417 1052
54.85429 1064
54.8744 934
54.89452 834
54.91463 711
54.93474 690
54.95486 672
54.97497 625
54.99508 580
55.0152 572
55.03531 475
55.05543 359
55.07554 361
55.09565 320
55.11577 333
55.13588 359
55.15599 419
55.17611 459
55.19622 481
55.21634 516
55.23645 579
55.25656 560
55.27668 633
55.29679 555
55.3169 553
55.33702 491
55.35713 423
55.37724 395
55.39736 392
55.41747 374
55.43759 394
55.4577 362
55.47781 281
55.49793 278
55.51804 242
55.53815 213
55.55827 239
55.57838 204
55.5985 197
55.61861 201
55.63872 194
55.65884 192
55.67895 194
55.69906 185
55.71918 179
55.73929 210
55.75941 195
55.77952 209
55.79963 180
55.81975 214
55.83986 170
55.85997 154
55.88009 166
55.9002 183
55.92031 195
55.94043 180
55.96054 179
55.98066 199
56.00077 190
56.02088 155
56.041 172
56.06111 171
56.08122 200
56.10134 186
56.12145 188
56.14157 168
56.16168 190
56.18179 185
56.20191 182
56.22202 173
56.24213 173
56.26225 172
56.28236 156
56.30248 163
56.32259 174
56.3427 171
56.36282 160
56.38293 150
56.40304 172
56.42316 167
56.44327 155
56.46338 153
56.4835 153
56.50361 174
56.52373 157
56.54384 174
56.56395 176
56.58407 182
56.60418 165
56.62429 173
56.64441 145
56.66452 173
56.68464 153
56.70475 188
56.72486 161
56.74498 153
56.76509 158
56.7852 196
56.80532 149
56.82543 181
56.84554 163
56.86566 176
56.88577 162
56.90589 171
56.926 158
56.94611 181
56.96623 172
56.98634 158
57.00645 170
57.02657 146
57.04668 172
57.0668 202
57.08691 194
57.10702 233
57.12714 216
57.14725 216
57.16736 208
57.18748 204
57.20759 218
57.22771 196
57.24782 215
57.26793 201
57.28805 194
57.30816 179
57.32827 187
57.34839 192
57.3685 193
57.38861 157
57.40873 192
57.42884 173
57.44896 192
57.46907 179
57.48918 179
57.5093 156
57.52941 152
57.54952 142
57.56964 172
57.58975 155
57.60987 141
57.62998 164
57.65009 157
57.67021 164
57.69032 172
57.71043 172
57.73055 178
57.75066 173
57.77078 176
57.79089 173
57.811 155
57.83112 142
57.85123 174
57.87134 150
57.89146 166
57.91157 156
57.93168 151
57.9518 168
57.97191 159
57.99203 162
58.01214 168
58.03225 190
58.05237 172
58.07248 157
58.09259 155
58.11271 153
58.13282 163
58.15294 150
58.17305 156
58.19316 178
58.21328 155
58.23339 144
58.2535 160
58.27362 176
58.29373 153
58.31385 158
58.33396 139
58.35407 161
58.37419 167
58.3943 167
58.41441 165
58.43453 142
58.45464 162
58.47475 167
58.49487 154
58.51498 170
58.5351 206
58.55521 155
58.57532 163
58.59544 170
58.61555 162
58.63566 157
58.65578 149
58.67589 179
58.69601 151
58.71612 190
58.73623 191
58.75635 157
58.77646 186
58.79657 170
58.81669 149
58.8368 153
58.85691 166
58.87703 152
58.89714 163
58.91726 155
58.93737 153
58.95748 158
58.9776 189
58.99771 171
59.01782 182
59.03794 169
59.05805 168
59.07817 185
59.09828 180
59.11839 170
59.13851 169
59.15862 161
59.17873 163
59.19885 174
59.21896 178
59.23908 184
59.25919 184
59.2793 156
59.29942 191
59.31953 202
59.33964 199
59.35976 186
59.37987 183
59.39998 192
59.4201 195
59.44021 202
59.46033 224
59.48044 218
59.50055 266
59.52067 249
59.54078 279
59.56089 281
59.58101 309
59.60112 297
59.62124 312
59.64135 407
59.66146 376
59.68158 471
59.70169 559
59.7218 593
59.74192 713
59.76203 895
59.78215 991
59.80226 1277
59.82237 1508
59.84249 1866
59.8626 2006
59.88271 2338
59.90283 2222
59.92294 2181
59.94305 1958
59.96317 1580
59.98328 1364
60.0034 1202
60.02351 1193
60.04362 1320
60.06374 1228
60.08385 1144
60.10396 962
60.12408 730
60.14419 535
60.16431 412
60.18442 313
60.20453 319
60.22465 269
60.24476 265
60.26487 261
60.28499 237
60.3051 233
60.32522 225
60.34533 196
60.36544 193
60.38556 199
60.40567 196
60.42578 202
60.4459 185
60.46601 172
60.48612 183
60.50624 196
60.52635 173
60.54647 210
60.56658 162
60.58669 174
60.60681 180
60.62692 167
60.64703 179
60.66715 184
60.68726 192
60.70738 208
60.72749 157
60.7476 175
60.76772 155
60.78783 151
60.80794 168
60.82806 186
60.84817 163
60.86828 171
60.8884 159
60.90851 192
60.92863 155
60.94874 185
60.96885 166
60.98897 157
61.00908 183
61.02919 167
61.04931 175
61.06942 170
61.08954 171
61.10965 180
61.12976 168
61.14988 178
61.16999 183
61.1901 181
61.21022 179
61.23033 182
61.25045 164
61.27056 169
61.29067 202
61.31079 176
61.3309 170
61.35101 187
61.37113 143
61.39124 158
61.41135 170
61.43147 168
61.45158 151
61.4717 166
61.49181 195
61.51192 188
61.53204 175
61.55215 174
61.57226 200
61.59238 169
61.61249 154
61.63261 174
61.65272 178
61.67283 166
61.69295 189
61.71306 188
61.73317 174
61.75329 217
61.7734 193
61.79352 194
61.81363 185
61.83374 188
61.85386 154
61.87397 193
61.89408 190
61.9142 180
61.93431 187
61.95442 191
61.97454 189
61.99465 225
62.01477 201
62.03488 222
62.05499 212
62.07511 212
62.09522 217
62.11533 198
62.13545 212
62.15556 223
62.17568 219
62.19579 228
62.2159 199
62.23602 222
62.25613 193
62.27624 203
62.29636 187
62.31647 203
62.33659 196
62.3567 197
62.37681 184
62.39693 185
62.41704 176
62.43715 181
62.45727 189
62.47738 182
62.49749 150
62.51761 159
62.53772 169
62.55784 168
62.57795 172
62.59806 186
62.61818 165
62.63829 153
62.6584 173
62.67852 171
62.69863 169
62.71875 165
62.73886 159
62.75897 172
62.77909 158
62.7992 143
62.81931 152
62.83943 127
62.85954 148
62.87965 152
62.89977 152
62.91988 174
62.94 156
62.96011 153
62.98022 169
63.00034 157
63.02045 171
63.04056 161
63.06068 154
63.08079 157
63.10091 162
63.12102 155
63.14113 154
63.16125 156
63.18136 147
63.20147 172
63.22159 155
63.2417 154
63.26182 178
63.28193 147
63.30204 151
63.32216 149
63.34227 163
63.36238 163
63.3825 142
63.40261 155
63.42272 185
63.44284 174
63.46295 149
63.48307 173
63.50318 156
63.52329 173
63.54341 166
63.56352 161
63.58363 181
63.60375 185
63.62386 184
63.64398 182
63.66409 163
63.6842 195
63.70432 217
63.72443 179
63.74454 202
63.76466 209
63.78477 251
63.80489 223
63.825 271
63.84511 303
63.86523 383
63.88534 385
63.90545 384
63.92557 474
63.94568 478
63.96579 514
63.98591 519
64.00602 489
64.02614 477
64.04625 384
64.06636 351
64.08648 349
64.10659 335
64.1267 338
64.14682 317
64.16693 313
64.18705 280
64.20716 271
64.22727 238
64.24739 211
64.2675 173
64.28761 182
64.30773 174
64.32784 178
64.34796 160
64.36807 167
64.38818 170
64.4083 160
64.42841 138
64.44852 142
64.46864 168
64.48875 145
64.50886 174
64.52898 147
64.54909 153
64.56921 171
64.58932 138
64.60943 137
64.62955 157
64.64966 161
64.66977 146
64.68989 148
64.71 170
64.73012 159
64.75023 148
64.77034 155
64.79046 135
64.81057 159
64.83068 166
64.8508 133
64.87091 150
64.89102 154
64.91114 153
64.93125 165
64.95137 143
64.97148 149
64.99159 145
65.01171 126
65.03182 162
65.05193 144
65.07205 151
65.09216 140
65.11228 157
65.13239 167
65.1525 155
65.17262 147
65.19273 161
65.21284 130
65.23296 169
65.25307 120
65.27319 158
65.2933 172
65.31341 151
65.33353 164
65.35364 152
65.37375 181
65.39387 155
65.41398 158
65.43409 160
65.45421 177
65.47432 154
65.49444 170
65.51455 174
65.53466 158
65.55478 177
65.57489 188
65.595 182
65.61512 215
65.63523 213
65.65535 202
65.67546 229
65.69557 231
65.71569 277
65.7358 246
65.75591 247
65.77603 225
65.79614 205
65.81626 196
65.83637 200
65.85648 188
65.8766 199
65.89671 206
65.91682 215
65.93694 211
65.95705 195
65.97716 194
65.99728 135
66.01739 188
66.03751 180
66.05762 152
66.07773 118
66.09785 155
66.11796 163
66.13807 163
66.15819 155
66.1783 183
66.19842 168
66.21853 137
66.23864 159
66.25876 168
66.27887 150
66.29898 140
66.3191 157
66.33921 160
66.35933 175
66.37944 150
66.39955 146
66.41967 146
66.43978 150
66.45989 150
66.48001 166
66.50012 163
66.52023 169
66.54035 161
66.56046 171
66.58058 173
66.60069 135
66.6208 164
66.64092 135
66.66103 168
66.68114 183
66.70126 137
66.72137 151
66.74149 163
66.7616 170
66.78171 178
66.80183 158
66.82194 169
66.84205 171
66.86217 184
66.88228 156
66.90239 173
66.92251 180
66.94262 177
66.96274 183
66.98285 173
67.00296 178
67.02308 160
67.04319 172
67.0633 172
67.08342 164
67.10353 174
67.12365 178
67.14376 174
67.16387 199
67.18399 209
67.2041 192
67.22421 187
67.24433 217
67.26444 218
67.28456 216
67.30467 223
67.32478 229
67.3449 237
67.36501 231
67.38512 262
67.40524 273
67.42535 307
67.44546 391
67.46558 374
67.48569 436
67.50581 475
67.52592 552
67.54603 623
67.56615 651
67.58626 844
67.60637 927
67.62649 1127
67.6466 1254
67.66672 1339
67.68683 1355
67.70694 1302
67.72706 1224
67.74717 1095
67.76728 902
67.7874 818
67.80751 818
67.82763 861
67.84774 934
67.86785 1002
67.88797 1012
67.90808 1083
67.92819 970
67.94831 976
67.96842 1038
67.98853 1149
68.00865 1252
68.02876 1518
68.04888 1692
68.06899 1818
68.0891 1879
68.10922 1769
68.12933 1702
68.14944 1576
68.16956 1472
68.18967 1510
68.20979 1632
68.2299 1593
68.25001 1690
68.27013 1771
68.29024 1598
68.31035 1319
68.33047 1079
68.35058 923
68.3707 788
68.39081 745
68.41092 678
68.43104 653
68.45115 612
68.47126 600
68.49138 494
68.51149 425
68.5316 359
68.55172 293
68.57183 270
68.59195 239
68.61206 234
68.63217 204
68.65229 203
68.6724 204
68.69251 175
68.71263 203
68.73274 188
68.75286 202
68.77297 193
68.79308 181
68.8132 195
68.83331 189
68.85342 175
68.87354 188
68.89365 174
68.91376 184
68.93388 155
68.95399 176
68.97411 176
68.99422 166
69.01433 162
69.03445 185
69.05456 176
69.07467 152
69.09479 157
69.1149 133
69.13502 195
69.15513 170
69.17524 161
69.19536 182
69.21547 155
69.23558 150
69.2557 157
69.27581 175
69.29593 165
69.31604 144
69.33615 169
69.35627 175
69.37638 159
69.39649 150
69.41661 149
69.43672 162
69.45683 154
69.47695 162
69.49706 153
69.51718 161
69.53729 155
69.5574 159
69.57752 158
69.59763 129
69.61774 162
69.63786 154
69.65797 172
69.67809 157
69.6982 132
69.71831 153
69.73843 137
69.75854 154
69.77865 147
69.79877 137
69.81888 141
69.839 149
69.85911 141
69.87922 159
69.89934 154
69.91945 146
69.93956 146
69.95968 148
69.97979 151
69.9999 129
70.02002 126
70.04013 151
70.06025 141
70.08036 156
70.10047 158
70.12059 135
70.1407 159
70.16081 137
70.18093 127
70.20104 157
70.22116 144
70.24127 135
70.26138 163
70.2815 129
70.30161 138
70.32172 152
70.34184 155
70.36195 149
70.38207 159
70.40218 155
70.42229 154
70.44241 146
70.46252 144
70.48263 151
70.50275 133
70.52286 126
70.54297 134
70.56309 141
70.5832 155
70.60332 151
70.62343 141
70.64354 160
70.66366 149
70.68377 127
70.70388 121
70.724 150
70.74411 130
70.76423 165
70.78434 140
70.80445 157
70.82457 151
70.84468 148
70.86479 134
70.88491 145
70.90502 149
70.92513 148
70.94525 132
70.96536 154
70.98548 158
71.00559 144
71.0257 153
71.04582 143
71.06593 149
71.08604 128
71.10616 155
71.12627 140
71.14639 147
71.1665 144
71.18661 142
71.20673 143
71.22684 149
71.24695 147
71.26707 131
71.28718 152
71.3073 128
71.32741 129
71.34752 153
71.36764 133
71.38775 126
71.40786 166
71.42798 139
71.44809 150
71.4682 157
71.48832 147
71.50843 156
71.52855 164
71.54866 140
71.56877 124
71.58889 129
71.609 161
71.62911 147
71.64923 150
71.66934 162
71.68946 126
71.70957 138
71.72968 154
71.7498 131
71.76991 149
71.79002 138
71.81014 154
71.83025 139
71.85037 162
71.87048 151
71.89059 139
71.91071 150
71.93082 148
71.95093 140
71.97105 132
71.99116 129
72.01127 151
72.03139 134
72.0515 152
72.07162 143
72.09173 147
72.11184 164
72.13196 157
72.15207 145
72.17218 163
72.1923 141
72.21241 148
72.23253 154
72.25264 144
72.27275 167
72.29287 140
72.31298 135
72.33309 141
72.35321 171
72.37332 144
72.39344 172
72.41355 141
72.43366 160
72.45378 128
72.47389 153
72.494 160
72.51412 159
72.53423 140
72.55434 161
72.57446 141
72.59457 147
72.61469 144
72.6348 171
72.65491 168
72.67503 170
72.69514 161
72.71525 136
72.73537 144
72.75548 143
72.7756 142
72.79571 181
72.81582 165
72.83594 139
72.85605 160
72.87616 157
72.89628 168
72.91639 175
72.9365 149
72.95662 154
72.97673 168
72.99685 154
73.01696 150
73.03707 176
73.05719 192
73.0773 173
73.09741 208
73.11753 198
73.13764 201
73.15776 199
73.17787 202
73.19798 240
73.2181 267
73.23821 240
73.25832 325
73.27844 335
73.29855 357
73.31867 398
73.33878 472
73.35889 520
73.37901 583
73.39912 591
73.41923 600
73.43935 556
73.45946 453
73.47957 413
73.49969 414
73.5198 340
73.53992 305
73.56003 331
73.58014 348
73.60026 374
73.62037 369
73.64048 346
73.6606 320
73.68071 284
73.70083 230
73.72094 228
73.74105 192
73.76117 205
73.78128 175
73.80139 179
73.82151 145
73.84162 149
73.86174 173
73.88185 174
73.90196 147
73.92208 129
73.94219 148
73.9623 158
73.98242 164
74.00253 144
74.02264 158
74.04276 140
74.06287 130
74.08299 148
74.1031 140
74.12321 150
74.14333 146
74.16344 154
74.18355 154
74.20367 182
74.22378 150
74.2439 160
74.26401 154
74.28412 170
74.30424 158
74.32435 167
74.34446 139
74.36458 154
74.38469 158
74.40481 146
74.42492 162
74.44503 151
74.46515 157
74.48526 150
74.50537 142
74.52549 164
74.5456 154
74.56571 156
74.58583 154
74.60594 144
74.62606 160
74.64617 158
74.66628 156
74.6864 151
74.70651 157
74.72662 153
74.74674 148
74.76685 142
74.78697 160
74.80708 154
74.82719 146
74.84731 134
74.86742 143
74.88753 156
74.90765 161
74.92776 153
74.94787 175
74.96799 136
74.9881 168
75.00822 140
