3.00117 20828
3.02128 20456
3.0414 19899
3.06151 19469
3.08162 18532
3.10174 18265
3.12185 17608
3.14197 16849
3.16208 17135
3.18219 16046
3.20231 16009
3.22242 15319
3.24253 14928
3.26265 14624
3.28276 13804
3.30288 13625
3.32299 13162
3.3431 12845
3.36322 12541
3.38333 11761
3.40344 11671
3.42356 11309
3.44367 10852
3.46379 10519
3.4839 9877
3.50401 10004
3.52413 9432
3.54424 8930
3.56435 8765
3.58447 8364
3.60458 8252
3.62469 7714
3.64481 7534
3.66492 7280
3.68504 6842
3.70515 6803
3.72526 6531
3.74538 5870
3.76549 6096
3.7856 5540
3.80572 5518
3.82583 5357
3.84595 5109
3.86606 4803
3.88617 4466
3.90629 4415
3.9264 4271
3.94651 4055
3.96663 3952
3.98674 3612
4.00686 3662
4.02697 3523
4.04708 3237
4.0672 3234
4.08731 3012
4.10742 2911
4.12754 2735
4.14765 2585
4.16776 2530
4.18788 2487
4.20799 2349
4.22811 2415
4.24822 2159
4.26833 2072
4.28845 1987
4.30856 2049
4.32867 2020
4.34879 1747
4.3689 1878
4.38902 1739
4.40913 1739
4.42924 1775
4.44936 1530
4.46947 1596
4.48958 1525
4.5097 1536
4.52981 1607
4.54992 1405
4.57004 1474
4.59015 1393
4.61027 1365
4.63038 1346
4.65049 1155
4.67061 1234
4.69072 1164
4.71083 1208
4.73095 1245
4.75106 1129
4.77118 1137
4.79129 1133
4.8114 1076
4.83152 1136
4.85163 1003
4.87174 1000
4.89186 1048
4.91197 1008
4.93209 935
4.9522 903
4.97231 885
4.99243 935
5.01254 893
5.03265 912
5.05277 770
5.07288 838
5.09299 799
5.11311 744
5.13322 703
5.15334 733
5.17345 690
5.19356 771
5.21368 716
5.23379 674
5.2539 650
5.27402 681
5.29413 645
5.31425 602
5.33436 591
5.35447 599
5.37459 605
5.3947 611
5.41481 628
5.43493 613
5.45504 541
5.47516 541
5.49527 578
5.51538 554
5.5355 554
5.55561 553
5.57572 539
5.59584 547
5.61595 505
5.63606 489
5.65618 492
5.67629 468
5.69641 504
5.71652 482
5.73663 423
5.75675 474
5.77686 436
5.79697 438
5.81709 440
5.8372 439
5.85732 411
5.87743 398
5.89754 456
5.91766 455
5.93777 446
5.95788 417
5.978 460
5.99811 384
6.01823 409
6.03834 403
6.05845 396
6.07857 419
6.09868 410
6.11879 396
6.13891 402
6.15902 400
6.17913 381
6.19925 397
6.21936 374
6.23948 381
6.25959 343
6.2797 430
6.29982 395
6.31993 375
6.34004 383
6.36016 373
6.38027 374
6.40039 375
6.4205 335
6.44061 398
6.46073 357
6.48084 390
6.50095 369
6.52107 371
6.54118 361
6.56129 336
6.58141 386
6.60152 313
6.62164 371
6.64175 358
6.66186 367
6.68198 360
6.70209 356
6.7222 355
6.74232 352
6.76243 329
6.78255 346
6.80266 302
6.82277 344
6.84289 315
6.863 369
6.88311 287
6.90323 372
6.92334 335
6.94346 313
6.96357 325
6.98368 314
7.0038 346
7.02391 328
7.04402 305
7.06414 333
7.08425 334
7.10436 365
7.12448 314
7.14459 336
7.16471 377
7.18482 333
7.20493 328
7.22505 355
7.24516 345
7.26527 352
7.28539 368
7.3055 336
7.32562 312
7.34573 334
7.36584 340
7.38596 346
7.40607 330
7.42618 369
7.4463 335
7.46641 358
7.48653 338
7.50664 324
7.52675 296
7.54687 315
7.56698 315
7.58709 323
7.60721 371
7.62732 336
7.64743 311
7.66755 321
7.68766 325
7.70778 319
7.72789 344
7.748 316
7.76812 331
7.78823 359
7.80834 297
7.82846 296
7.84857 344
7.86869 346
7.8888 321
7.90891 327
7.92903 320
7.94914 345
7.96925 347
7.98937 335
8.00948 335
8.0296 297
8.04971 354
8.06982 318
8.08994 304
8.11005 338
8.13016 334
8.15028 310
8.17039 352
8.1905 339
8.21062 325
8.23073 375
8.25085 313
8.27096 355
8.29107 345
8.31119 336
8.3313 355
8.35141 294
8.37153 336
8.39164 351
8.41176 329
8.43187 350
8.45198 349
8.4721 313
8.49221 359
8.51232 346
8.53244 333
8.55255 331
8.57266 349
8.59278 331
8.61289 324
8.63301 319
8.65312 320
8.67323 368
8.69335 354
8.71346 345
8.73357 328
8.75369 340
8.7738 366
8.79392 326
8.81403 288
8.83414 335
8.85426 342
8.87437 359
8.89448 353
8.9146 356
8.93471 326
8.95483 342
8.97494 311
8.99505 309
9.01517 354
9.03528 305
9.05539 328
9.07551 339
9.09562 344
9.11573 353
9.13585 329
9.15596 365
9.17608 341
9.19619 303
9.2163 297
9.23642 342
9.25653 364
9.27664 345
9.29676 308
9.31687 350
9.33699 346
9.3571 342
9.37721 357
9.39733 345
9.41744 347
9.43755 303
9.45767 316
9.47778 347
9.4979 332
9.51801 304
9.53812 314
9.55824 308
9.57835 313
9.59846 297
9.61858 334
9.63869 319
9.6588 347
9.67892 316
9.69903 311
9.71915 324
9.73926 351
9.75937 348
9.77949 307
9.7996 324
9.81971 339
9.83983 310
9.85994 351
9.88006 334
9.90017 338
9.92028 309
9.9404 349
9.96051 296
9.98062 316
10.00074 337
10.02085 325
10.04097 331
10.06108 299
10.08119 346
10.10131 300
10.12142 353
10.14153 339
10.16165 296
10.18176 324
10.20187 337
10.22199 299
10.2421 371
10.26222 391
10.28233 335
10.30244 351
10.32256 320
10.34267 328
10.36278 310
10.3829 315
10.40301 323
10.42313 346
10.44324 347
10.46335 334
10.48347 321
10.50358 335
10.52369 305
10.54381 324
10.56392 333
10.58403 333
10.60415 307
10.62426 347
10.64438 329
10.66449 322
10.6846 314
10.70472 293
10.72483 349
10.74494 351
10.76506 347
10.78517 324
10.80529 327
10.8254 312
10.84551 335
10.86563 308
10.88574 323
10.90585 327
10.92597 330
10.94608 313
10.9662 365
10.98631 302
11.00642 329
11.02654 354
11.04665 350
11.06676 337
11.08688 322
11.10699 356
11.1271 297
11.14722 293
11.16733 358
11.18745 345
11.20756 336
11.22767 332
11.24779 331
11.2679 318
11.28801 341
11.30813 355
11.32824 347
11.34836 313
11.36847 335
11.38858 343
11.4087 295
11.42881 340
11.44892 315
11.46904 337
11.48915 350
11.50927 346
11.52938 338
11.54949 352
11.56961 338
11.58972 327
11.60983 326
11.62995 352
11.65006 363
11.67017 370
11.69029 362
11.7104 368
11.73052 380
11.75063 394
11.77074 370
11.79086 403
11.81097 380
11.83108 406
11.8512 452
11.87131 417
11.89143 392
11.91154 411
11.93165 426
11.95177 433
11.97188 427
11.99199 480
12.01211 496
12.03222 483
12.05234 459
12.07245 518
12.09256 525
12.11268 535
12.13279 530
12.1529 612
12.17302 624
12.19313 662
12.21324 706
12.23336 700
12.25347 692
12.27359 702
12.2937 652
12.31381 712
12.33393 721
12.35404 662
12.37415 717
12.39427 620
12.41438 598
12.4345 598
12.45461 600
12.47472 482
12.49484 467
12.51495 454
12.53506 474
12.55518 453
12.57529 447
12.5954 396
12.61552 436
12.63563 431
12.65575 395
12.67586 380
12.69597 334
12.71609 342
12.7362 355
12.75631 315
12.77643 331
12.79654 350
12.81666 329
12.83677 342
12.85688 347
12.877 315
12.89711 291
12.91722 276
12.93734 299
12.95745 323
12.97757 335
12.99768 327
13.01779 325
13.03791 324
13.05802 299
13.07813 335
13.09825 300
13.11836 291
13.13847 333
13.15859 297
13.1787 323
13.19882 288
13.21893 312
13.23904 292
13.25916 327
13.27927 268
13.29938 286
13.3195 329
13.33961 280
13.35973 300
13.37984 271
13.39995 303
13.42007 307
13.44018 272
13.46029 279
13.48041 294
13.50052 317
13.52064 298
13.54075 325
13.56086 321
13.58098 298
13.60109 319
13.6212 289
13.64132 278
13.66143 283
13.68154 324
13.70166 286
13.72177 320
13.74189 280
13.762 323
13.78211 278
13.80223 301
13.82234 299
13.84245 325
13.86257 306
13.88268 270
13.9028 297
13.92291 303
13.94302 270
13.96314 303
13.98325 276
14.00336 323
14.02348 334
14.04359 302
14.06371 275
14.08382 249
14.10393 266
14.12405 262
14.14416 321
14.16427 293
14.18439 285
14.2045 278
14.22461 280
14.24473 299
14.26484 308
14.28496 271
14.30507 301
14.32518 280
14.3453 242
14.36541 261
14.38552 265
14.40564 275
14.42575 290
14.44587 276
14.46598 288
14.48609 258
14.50621 291
14.52632 320
14.54643 280
14.56655 261
14.58666 292
14.60677 261
14.62689 282
14.647 270
14.66712 272
14.68723 280
14.70734 269
14.72746 276
14.74757 255
14.76768 294
14.7878 302
14.80791 294
14.82803 303
14.84814 279
14.86825 284
14.88837 260
14.90848 275
14.92859 314
14.94871 270
14.96882 309
14.98894 279
15.00905 268
15.02916 268
15.04928 287
15.06939 286
15.0895 315
15.10962 271
15.12973 298
15.14984 292
15.16996 289
15.19007 295
15.21019 303
15.2303 277
15.25041 312
15.27053 306
15.29064 264
15.31075 270
15.33087 251
15.35098 291
15.3711 258
15.39121 298
15.41132 306
15.43144 268
15.45155 290
15.47166 267
15.49178 319
15.51189 284
15.53201 286
15.55212 249
15.57223 280
15.59235 229
15.61246 280
15.63257 261
15.65269 287
15.6728 300
15.69291 269
15.71303 220
15.73314 286
15.75326 294
15.77337 274
15.79348 264
15.8136 275
15.83371 281
15.85382 267
15.87394 288
15.89405 251
15.91417 279
15.93428 260
15.95439 284
15.97451 298
15.99462 290
16.01473 281
16.03485 252
16.05496 265
16.07508 265
16.09519 296
16.1153 295
16.13542 255
16.15553 271
16.17564 271
16.19576 297
16.21587 268
16.23598 272
16.2561 291
16.27621 286
16.29633 283
16.31644 260
16.33655 274
16.35667 263
16.37678 303
16.39689 301
16.41701 250
16.43712 246
16.45724 264
16.47735 280
16.49746 308
16.51758 251
16.53769 267
16.5578 247
16.57792 242
16.59803 286
16.61814 269
16.63826 297
16.65837 310
16.67849 285
16.6986 262
16.71871 271
16.73883 274
16.75894 261
16.77905 277
16.79917 283
16.81928 285
16.8394 253
16.85951 295
16.87962 273
16.89974 262
16.91985 295
16.93996 266
16.96008 265
16.98019 261
17.00031 292
17.02042 274
17.04053 276
17.06065 257
17.08076 308
17.10087 296
17.12099 267
17.1411 290
17.16121 284
17.18133 290
17.20144 276
17.22156 276
17.24167 312
17.26178 300
17.2819 269
17.30201 268
17.32212 270
17.34224 280
17.36235 299
17.38247 285
17.40258 304
17.42269 280
17.44281 288
17.46292 297
17.48303 257
17.50315 290
17.52326 276
17.54338 276
17.56349 290
17.5836 278
17.60372 286
17.62383 297
17.64394 235
17.66406 287
17.68417 313
17.70428 288
17.7244 287
17.74451 263
17.76463 287
17.78474 306
17.80485 307
17.82497 317
17.84508 272
17.86519 305
17.88531 313
17.90542 321
17.92554 304
17.94565 254
17.96576 304
17.98588 273
18.00599 308
18.0261 278
18.04622 303
18.06633 294
18.08645 278
18.10656 264
18.12667 323
18.14679 272
18.1669 280
18.18701 305
18.20713 286
18.22724 292
18.24735 299
18.26747 270
18.28758 300
18.3077 288
18.32781 329
18.34792 266
18.36804 277
18.38815 270
18.40826 300
18.42838 282
18.44849 269
18.46861 252
18.48872 316
18.50883 298
18.52895 280
18.54906 293
18.56917 295
18.58929 292
18.6094 308
18.62951 282
18.64963 310
18.66974 316
18.68986 311
18.70997 292
18.73008 277
18.7502 296
18.77031 307
18.79042 310
18.81054 320
18.83065 281
18.85077 305
18.87088 265
18.89099 281
18.91111 288
18.93122 331
18.95133 289
18.97145 296
18.99156 304
19.01168 317
19.03179 323
19.0519 296
19.07202 295
19.09213 291
19.11224 292
19.13236 300
19.15247 296
19.17258 309
19.1927 293
19.21281 348
19.23293 341
19.25304 299
19.27315 308
19.29327 281
19.31338 316
19.33349 312
19.35361 328
19.37372 309
19.39384 335
19.41395 320
19.43406 371
19.45418 349
19.47429 325
19.4944 366
19.51452 344
19.53463 393
19.55475 337
19.57486 370
19.59497 404
19.61509 390
19.6352 397
19.65531 479
19.67543 414
19.69554 502
19.71565 521
19.73577 542
19.75588 557
19.776 581
19.79611 666
19.81622 592
19.83634 687
19.85645 651
19.87656 690
19.89668 642
19.91679 643
19.93691 633
19.95702 649
19.97713 590
19.99725 646
20.01736 622
20.03747 612
20.05759 588
20.0777 611
20.09782 606
20.11793 609
20.13804 581
20.15816 646
20.17827 630
20.19838 614
20.2185 602
20.23861 602
20.25872 579
20.27884 641
20.29895 650
20.31907 653
20.33918 607
20.35929 619
20.37941 640
20.39952 639
20.41963 650
20.43975 616
20.45986 660
20.47998 671
20.50009 685
20.5202 692
20.54032 711
20.56043 719
20.58054 765
20.60066 776
20.62077 959
20.64088 1049
20.661 1230
20.68111 1471
20.70123 1845
20.72134 2297
20.74145 2869
20.76157 3632
20.78168 4416
20.80179 4867
20.82191 5074
20.84202 4817
20.86214 4094
20.88225 3275
20.90236 2336
20.92248 1764
20.94259 1375
20.9627 991
20.98282 839
21.00293 751
21.02305 759
21.04316 693
21.06327 660
21.08339 695
21.1035 660
21.12361 636
21.14373 595
21.16384 612
21.18395 614
21.20407 626
21.22418 611
21.2443 558
21.26441 606
21.28452 611
21.30464 604
21.32475 588
21.34486 592
21.36498 590
21.38509 587
21.40521 534
21.42532 585
21.44543 567
21.46555 579
21.48566 530
21.50577 527
21.52589 506
21.546 508
21.56612 531
21.58623 507
21.60634 480
21.62646 527
21.64657 521
21.66668 513
21.6868 517
21.70691 540
21.72702 486
21.74714 505
21.76725 499
21.78737 523
21.80748 484
21.82759 458
21.84771 534
21.86782 456
21.88793 430
21.90805 456
21.92816 466
21.94828 489
21.96839 461
21.9885 441
22.00862 448
22.02873 444
22.04884 475
22.06896 438
22.08907 457
22.10919 489
22.1293 461
22.14941 472
22.16953 466
22.18964 444
22.20975 473
22.22987 479
22.24998 491
22.27009 483
22.29021 464
22.31032 458
22.33044 420
22.35055 437
22.37066 428
22.39078 464
22.41089 433
22.431 447
22.45112 438
22.47123 461
22.49135 409
22.51146 451
22.53157 430
22.55169 415
22.5718 432
22.59191 430
22.61203 435
22.63214 416
22.65225 427
22.67237 387
22.69248 417
22.7126 372
22.73271 389
22.75282 414
22.77294 457
22.79305 390
22.81316 415
22.83328 385
22.85339 386
22.87351 423
22.89362 403
22.91373 409
22.93385 418
22.95396 346
22.97407 400
22.99419 425
23.0143 405
23.03442 407
23.05453 421
23.07464 431
23.09476 404
23.11487 406
23.13498 419
23.1551 399
23.17521 404
23.19532 368
23.21544 410
23.23555 393
23.25567 406
23.27578 380
23.29589 402
23.31601 410
23.33612 391
23.35623 370
23.37635 371
23.39646 400
23.41658 394
23.43669 379
23.4568 403
23.47692 346
23.49703 381
23.51714 404
23.53726 409
23.55737 355
23.57749 413
23.5976 409
23.61771 385
23.63783 423
23.65794 425
23.67805 402
23.69817 393
23.71828 406
23.73839 389
23.75851 406
23.77862 403
23.79874 421
23.81885 419
23.83896 426
23.85908 453
23.87919 437
23.8993 460
23.91942 454
23.93953 443
23.95965 482
23.97976 462
23.99987 457
24.01999 452
24.0401 419
24.06021 447
24.08033 453
24.10044 433
24.12056 415
24.14067 404
24.16078 435
24.1809 418
24.20101 437
24.22112 430
24.24124 431
24.26135 489
24.28146 444
24.30158 441
24.32169 429
24.34181 437
24.36192 426
24.38203 430
24.40215 469
24.42226 446
24.44237 451
24.46249 457
24.4826 443
24.50272 467
24.52283 496
24.54294 466
24.56306 472
24.58317 561
24.60328 538
24.6234 562
24.64351 541
24.66362 591
24.68374 553
24.70385 633
24.72397 639
24.74408 621
24.76419 683
24.78431 693
24.80442 675
24.82453 692
24.84465 679
24.86476 692
24.88488 649
24.90499 645
24.9251 644
24.94522 629
24.96533 581
24.98544 576
25.00556 590
25.02567 568
25.04579 548
25.0659 610
25.08601 569
25.10613 577
25.12624 539
25.14635 555
25.16647 564
25.18658 522
25.20669 628
25.22681 607
25.24692 563
25.26704 563
25.28715 490
25.30726 516
25.32738 484
25.34749 486
25.3676 466
25.38772 464
25.40783 507
25.42795 469
25.44806 467
25.46817 491
25.48829 464
25.5084 440
25.52851 469
25.54863 465
25.56874 487
25.58886 488
25.60897 486
25.62908 524
25.6492 489
25.66931 536
25.68942 495
25.70954 488
25.72965 537
25.74976 544
25.76988 546
25.78999 556
25.81011 544
25.83022 573
25.85033 549
25.87045 524
25.89056 529
25.91067 548
25.93079 600
25.9509 564
25.97102 567
25.99113 603
26.01124 607
26.03136 617
26.05147 611
26.07158 678
26.0917 707
26.11181 739
26.13193 713
26.15204 782
26.17215 857
26.19227 906
26.21238 954
26.23249 1019
26.25261 1090
26.27272 1156
26.29283 1275
26.31295 1390
26.33306 1469
26.35318 1731
26.37329 2023
26.3934 2531
26.41352 3128
26.43363 4155
26.45374 5355
26.47386 6991
26.49397 9285
26.51409 11986
26.5342 15400
26.55431 18414
26.57443 20645
26.59454 21337
26.61465 20080
26.63477 17487
26.65488 13699
26.67499 10316
26.69511 7390
26.71522 4952
26.73534 3273
26.75545 2232
26.77556 1643
26.79568 1527
26.81579 1364
26.8359 1226
26.85602 1078
26.87613 937
26.89625 886
26.91636 859
26.93647 852
26.95659 774
26.9767 714
26.99681 696
27.01693 626
27.03704 655
27.05716 601
27.07727 562
27.09738 552
27.1175 578
27.13761 583
27.15772 495
27.17784 489
27.19795 526
27.21806 517
27.23818 542
27.25829 473
27.27841 499
27.29852 493
27.31863 517
27.33875 563
27.35886 504
27.37897 555
27.39909 537
27.4192 536
27.43932 558
27.45943 535
27.47954 497
27.49966 464
27.51977 428
27.53988 427
27.56 426
27.58011 405
27.60023 504
27.62034 438
27.64045 437
27.66057 449
27.68068 413
27.70079 413
27.72091 454
27.74102 420
27.76113 419
27.78125 418
27.80136 414
27.82148 409
27.84159 387
27.8617 378
27.88182 408
27.90193 420
27.92204 380
27.94216 416
27.96227 367
27.98239 361
28.0025 355
28.02261 362
28.04273 354
28.06284 390
28.08295 367
28.10307 386
28.12318 381
28.1433 389
28.16341 371
28.18352 373
28.20364 338
28.22375 339
28.24386 353
28.26398 356
28.28409 348
28.3042 358
28.32432 384
28.34443 327
28.36455 336
28.38466 310
28.40477 328
28.42489 336
28.445 346
28.46511 376
28.48523 335
28.50534 379
28.52546 340
28.54557 363
28.56568 313
28.5858 345
28.60591 334
28.62602 348
28.64614 323
28.66625 332
28.68636 317
28.70648 325
28.72659 368
28.74671 329
28.76682 360
28.78693 297
28.80705 321
28.82716 332
28.84727 376
28.86739 349
28.8875 343
28.90762 327
28.92773 342
28.94784 341
28.96796 316
28.98807 356
29.00818 313
29.0283 356
29.04841 330
29.06853 373
29.08864 293
29.10875 313
29.12887 304
29.14898 337
29.16909 319
29.18921 318
29.20932 294
29.22943 318
29.24955 330
29.26966 357
29.28978 294
29.30989 307
29.33 319
29.35012 362
29.37023 337
29.39034 336
29.41046 345
29.43057 331
29.45069 345
29.4708 343
29.49091 312
29.51103 322
29.53114 318
29.55125 332
29.57137 313
29.59148 339
29.6116 300
29.63171 314
29.65182 383
29.67194 351
29.69205 316
29.71216 335
29.73228 310
29.75239 334
29.7725 288
29.79262 313
29.81273 307
29.83285 328
29.85296 303
29.87307 303
29.89319 345
29.9133 322
29.93341 298
29.95353 317
29.97364 297
29.99376 335
30.01387 297
30.03398 301
30.0541 308
30.07421 354
30.09432 304
30.11444 372
30.13455 344
30.15467 306
30.17478 320
30.19489 328
30.21501 328
30.23512 325
30.25523 329
30.27535 311
30.29546 320
30.31557 331
30.33569 295
30.3558 294
30.37592 304
30.39603 297
30.41614 328
30.43626 363
30.45637 328
30.47648 309
30.4966 280
30.51671 306
30.53683 318
30.55694 330
30.57705 300
30.59717 302
30.61728 334
30.63739 317
30.65751 330
30.67762 293
30.69773 318
30.71785 294
30.73796 315
30.75808 288
30.77819 284
30.7983 324
30.81842 315
30.83853 289
30.85864 299
30.87876 294
30.89887 324
30.91899 274
30.9391 304
30.95921 306
30.97933 272
30.99944 319
31.01955 288
31.03967 278
31.05978 277
31.0799 289
31.10001 304
31.12012 284
31.14024 305
31.16035 294
31.18046 307
31.20058 279
31.22069 297
31.2408 270
31.26092 295
31.28103 273
31.30115 281
31.32126 300
31.34137 282
31.36149 294
31.3816 296
31.40171 304
31.42183 297
31.44194 286
31.46206 286
31.48217 309
31.50228 322
31.5224 276
31.54251 290
31.56262 282
31.58274 244
31.60285 304
31.62297 318
31.64308 314
31.66319 310
31.68331 277
31.70342 282
31.72353 317
31.74365 300
31.76376 277
31.78387 297
31.80399 306
31.8241 253
31.84422 291
31.86433 282
31.88444 290
31.90456 264
31.92467 300
31.94478 307
31.9649 278
31.98501 280
32.00513 305
32.02524 290
32.04535 298
32.06547 280
32.08558 266
32.10569 276
32.12581 317
32.14592 298
32.16604 290
32.18615 263
32.20626 292
32.22638 270
32.24649 306
32.2666 314
32.28672 334
32.30683 298
32.32694 289
32.34706 315
32.36717 296
32.38729 267
32.4074 315
32.42751 320
32.44763 328
32.46774 302
32.48785 308
32.50797 307
32.52808 298
32.5482 277
32.56831 278
32.58842 312
32.60854 291
32.62865 295
32.64876 294
32.66888 310
32.68899 263
32.7091 281
32.72922 290
32.74933 291
32.76945 309
32.78956 302
32.80967 350
32.82979 308
32.8499 309
32.87001 321
32.89013 302
32.91024 304
32.93036 308
32.95047 335
32.97058 318
32.9907 342
33.01081 341
33.03092 319
33.05104 354
33.07115 361
33.09127 341
33.11138 338
33.13149 336
33.15161 325
33.17172 353
33.19183 328
33.21195 301
33.23206 345
33.25217 327
33.27229 350
33.2924 337
33.31252 300
33.33263 306
33.35274 319
33.37286 321
33.39297 315
33.41308 320
33.4332 314
33.45331 316
33.47343 317
33.49354 298
33.51365 309
33.53377 307
33.55388 333
33.57399 275
33.59411 316
33.61422 287
33.63434 315
33.65445 332
33.67456 307
33.69468 277
33.71479 301
33.7349 321
33.75502 301
33.77513 288
33.79524 294
33.81536 280
33.83547 252
33.85559 281
33.8757 287
33.89581 279
33.91593 290
33.93604 285
33.95615 258
33.97627 308
33.99638 325
34.0165 263
34.03661 255
34.05672 263
34.07684 319
34.09695 315
34.11706 293
34.13718 281
34.15729 261
34.17741 309
34.19752 296
34.21763 283
34.23775 318
34.25786 298
34.27797 255
34.29809 289
34.3182 287
34.33831 284
34.35843 304
34.37854 275
34.39866 312
34.41877 317
34.43888 297
34.459 313
34.47911 343
34.49922 328
34.51934 303
34.53945 292
34.55957 321
34.57968 278
34.59979 365
34.61991 342
34.64002 361
34.66013 352
34.68025 383
34.70036 359
34.72047 394
34.74059 371
34.7607 424
34.78082 415
34.80093 452
34.82104 415
34.84116 428
34.86127 493
34.88138 477
34.9015 474
34.92161 470
34.94173 475
34.96184 438
34.98195 472
35.00207 440
35.02218 423
35.04229 405
35.06241 428
35.08252 410
35.10264 460
35.12275 425
35.14286 441
35.16298 425
35.18309 361
35.2032 437
35.22332 385
35.24343 438
35.26354 425
35.28366 438
35.30377 403
35.32389 439
35.344 405
35.36411 465
35.38423 426
35.40434 419
35.42445 455
35.44457 428
35.46468 468
35.4848 432
35.50491 492
35.52502 483
35.54514 435
35.56525 440
35.58536 466
35.60548 450
35.62559 472
35.64571 409
35.66582 490
35.68593 445
35.70605 465
35.72616 441
35.74627 422
35.76639 426
35.7865 515
35.80661 473
35.82673 486
35.84684 463
35.86696 403
35.88707 414
35.90718 455
35.9273 416
35.94741 459
35.96752 469
35.98764 420
36.00775 418
36.02787 422
36.04798 424
36.06809 381
36.08821 427
36.10832 413
36.12843 409
36.14855 407
36.16866 461
36.18878 429
36.20889 438
36.229 423
36.24912 496
36.26923 493
36.28934 556
36.30946 604
36.32957 641
36.34968 715
36.3698 897
36.38991 1017
36.41003 1192
36.43014 1299
36.45025 1572
36.47037 1606
36.49048 1685
36.51059 1610
36.53071 1504
36.55082 1268
36.57094 1131
36.59105 1021
36.61116 835
36.63128 706
36.65139 566
36.6715 540
36.69162 451
36.71173 441
36.73184 393
36.75196 446
36.77207 400
36.79219 401
36.8123 397
36.83241 374
36.85253 370
36.87264 400
36.89275 367
36.91287 386
36.93298 362
36.9531 363
36.97321 367
36.99332 382
37.01344 366
37.03355 380
37.05366 382
37.07378 351
37.09389 339
37.11401 361
37.13412 338
37.15423 337
37.17435 339
37.19446 344
37.21457 338
37.23469 358
37.2548 319
37.27491 332
37.29503 334
37.31514 308
37.33526 341
37.35537 352
37.37548 351
37.3956 336
37.41571 332
37.43582 367
37.45594 356
37.47605 344
37.49617 345
37.51628 344
37.53639 329
37.55651 366
37.57662 367
37.59673 366
37.61685 376
37.63696 354
37.65708 357
37.67719 409
37.6973 418
37.71742 407
37.73753 362
37.75764 370
37.77776 360
37.79787 371
37.81798 377
37.8381 355
37.85821 357
37.87833 385
37.89844 365
37.91855 350
37.93867 354
37.95878 371
37.97889 338
37.99901 373
38.01912 331
38.03924 398
38.05935 355
38.07946 379
38.09958 405
38.11969 436
38.1398 388
38.15992 407
38.18003 384
38.20015 396
38.22026 400
38.24037 436
38.26049 429
38.2806 431
38.30071 419
38.32083 426
38.34094 455
38.36105 434
38.38117 441
38.40128 415
38.4214 427
38.44151 443
38.46162 430
38.48174 420
38.50185 473
38.52196 433
38.54208 395
38.56219 442
38.58231 407
38.60242 422
38.62253 376
38.64265 346
38.66276 418
38.68287 380
38.70299 356
38.7231 392
38.74321 391
38.76333 372
38.78344 339
38.80356 372
38.82367 400
38.84378 381
38.8639 379
38.88401 386
38.90412 421
38.92424 364
38.94435 401
38.96447 359
38.98458 369
39.00469 372
39.02481 398
39.04492 402
39.06503 431
39.08515 446
39.10526 429
39.12538 452
39.14549 423
39.1656 493
39.18572 482
39.20583 544
39.22594 520
39.24606 638
39.26617 699
39.28628 860
39.3064 990
39.32651 1104
39.34663 1281
39.36674 1384
39.38685 1560
39.40697 1619
39.42708 1485
39.44719 1378
39.46731 1298
39.48742 1116
39.50754 984
39.52765 869
39.54776 715
39.56788 613
39.58799 525
39.6081 408
39.62822 390
39.64833 321
39.66845 343
39.68856 338
39.70867 351
39.72879 358
39.7489 355
39.76901 298
39.78913 331
39.80924 317
39.82935 326
39.84947 339
39.86958 331
39.8897 285
39.90981 336
39.92992 340
39.95004 334
39.97015 384
39.99026 359
40.01038 371
40.03049 393
40.05061 418
40.07072 462
40.09083 463
40.11095 557
40.13106 585
40.15117 731
40.17129 753
40.1914 808
40.21152 878
40.23163 862
40.25174 945
40.27186 821
40.29197 715
40.31208 679
40.3322 609
40.35231 570
40.37242 515
40.39254 467
40.41265 426
40.43277 350
40.45288 342
40.47299 313
40.49311 351
40.51322 347
40.53333 330
40.55345 323
40.57356 278
40.59368 312
40.61379 294
40.6339 303
40.65402 342
40.67413 327
40.69424 329
40.71436 301
40.73447 288
40.75458 267
40.7747 270
40.79481 321
40.81493 294
40.83504 330
40.85515 310
40.87527 342
40.89538 336
40.91549 317
40.93561 308
40.95572 334
40.97584 331
40.99595 316
41.01606 322
41.03618 314
41.05629 304
41.0764 321
41.09652 328
41.11663 319
41.13675 305
41.15686 307
41.17697 312
41.19709 297
41.2172 300
41.23731 283
41.25743 282
41.27754 318
41.29765 302
41.31777 295
41.33788 269
41.358 275
41.37811 291
41.39822 291
41.41834 256
41.43845 290
41.45856 283
41.47868 293
41.49879 314
41.51891 283
41.53902 286
41.55913 299
41.57925 306
41.59936 284
41.61947 303
41.63959 288
41.6597 291
41.67982 296
41.69993 300
41.72004 313
41.74016 280
41.76027 292
41.78038 306
41.8005 310
41.82061 284
41.84072 311
41.86084 289
41.88095 277
41.90107 306
41.92118 298
41.94129 283
41.96141 292
41.98152 303
42.00163 327
42.02175 316
42.04186 316
42.06198 336
42.08209 311
42.1022 348
42.12232 324
42.14243 373
42.16254 335
42.18266 394
42.20277 390
42.22289 476
42.243 532
42.26311 568
42.28323 670
42.30334 813
42.32345 903
42.34357 932
42.36368 1088
42.38379 1151
42.40391 1109
42.42402 1091
42.44414 976
42.46425 798
42.48436 778
42.50448 722
42.52459 619
42.5447 557
42.56482 482
42.58493 395
42.60505 347
42.62516 297
42.64527 318
42.66539 310
42.6855 287
42.70561 316
42.72573 333
42.74584 285
42.76595 301
42.78607 292
42.80618 281
42.8263 283
42.84641 282
42.86652 268
42.88664 240
42.90675 299
42.92686 246
42.94698 262
42.96709 234
42.98721 285
43.00732 249
43.02743 245
43.04755 275
43.06766 248
43.08777 271
43.10789 255
43.128 252
43.14812 287
43.16823 247
43.18834 263
43.20846 263
43.22857 283
43.24868 257
43.2688 269
43.28891 275
43.30902 286
43.32914 272
43.34925 246
43.36937 263
43.38948 228
43.40959 279
43.42971 272
43.44982 272
43.46993 280
43.49005 246
43.51016 280
43.53028 257
43.55039 262
43.5705 270
43.59062 254
43.61073 264
43.63084 237
43.65096 255
43.67107 238
43.69119 258
43.7113 251
43.73141 242
43.75153 254
43.77164 253
43.79175 234
43.81187 266
43.83198 247
43.85209 232
43.87221 269
43.89232 254
43.91244 258
43.93255 272
43.95266 269
43.97278 260
43.99289 243
44.013 267
44.03312 242
44.05323 253
44.07335 265
44.09346 249
44.11357 240
44.13369 246
44.1538 264
44.17391 269
44.19403 254
44.21414 241
44.23426 260
44.25437 256
44.27448 279
44.2946 244
44.31471 255
44.33482 237
44.35494 233
44.37505 235
44.39516 255
44.41528 264
44.43539 235
44.45551 235
44.47562 261
44.49573 233
44.51585 275
44.53596 238
44.55607 279
44.57619 250
44.5963 272
44.61642 252
44.63653 240
44.65664 269
44.67676 250
44.69687 260
44.71698 272
44.7371 238
44.75721 285
44.77732 264
44.79744 269
44.81755 257
44.83767 250
44.85778 263
44.87789 261
44.89801 265
44.91812 254
44.93823 267
44.95835 271
44.97846 297
44.99858 282
45.01869 243
45.0388 256
45.05892 235
45.07903 264
45.09914 250
45.11926 279
45.13937 299
45.15949 279
45.1796 283
45.19971 265
45.21983 266
45.23994 292
45.26005 283
45.28017 280
45.30028 283
45.32039 311
45.34051 276
45.36062 302
45.38074 312
45.40085 328
45.42096 345
45.44108 344
45.46119 341
45.4813 371
45.50142 349
45.52153 419
45.54165 426
45.56176 420
45.58187 475
45.60199 508
45.6221 552
45.64221 633
45.66233 663
45.68244 811
45.70256 843
45.72267 852
45.74278 838
45.7629 759
45.78301 750
45.80312 632
45.82324 601
45.84335 547
45.86346 515
45.88358 472
45.90369 434
45.92381 395
45.94392 379
45.96403 297
45.98415 338
46.00426 313
46.02437 292
46.04449 317
46.0646 297
46.08472 271
46.10483 264
46.12494 283
46.14506 281
46.16517 298
46.18528 281
46.2054 270
46.22551 263
46.24563 268
46.26574 254
46.28585 259
46.30597 267
46.32608 289
46.34619 256
46.36631 275
46.38642 287
46.40653 285
46.42665 247
46.44676 265
46.46688 253
46.48699 262
46.5071 236
46.52722 223
46.54733 269
46.56744 250
46.58756 252
46.60767 257
46.62779 249
46.6479 274
46.66801 258
46.68813 261
46.70824 261
46.72835 267
46.74847 302
46.76858 268
46.78869 271
46.80881 245
46.82892 260
46.84904 246
46.86915 249
46.88926 257
46.90938 243
46.92949 276
46.9496 250
46.96972 272
46.98983 247
47.00995 263
47.03006 265
47.05017 230
47.07029 225
47.0904 300
47.11051 268
47.13063 254
47.15074 262
47.17086 281
47.19097 270
47.21108 280
47.2312 268
47.25131 268
47.27142 264
47.29154 272
47.31165 284
47.33176 281
47.35188 258
47.37199 284
47.39211 251
47.41222 240
47.43233 258
47.45245 261
47.47256 266
47.49267 259
47.51279 270
47.5329 285
47.55302 255
47.57313 241
47.59324 252
47.61336 278
47.63347 258
47.65358 237
47.6737 229
47.69381 253
47.71393 287
47.73404 284
47.75415 265
47.77427 262
47.79438 286
47.81449 267
47.83461 295
47.85472 294
47.87483 255
47.89495 261
47.91506 268
47.93518 303
47.95529 283
47.9754 301
47.99552 302
48.01563 264
48.03574 283
48.05586 286
48.07597 284
48.09609 277
48.1162 273
48.13631 263
48.15643 244
48.17654 242
48.19665 251
48.21677 274
48.23688 293
48.257 294
48.27711 248
48.29722 257
48.31734 304
48.33745 263
48.35756 252
48.37768 243
48.39779 254
48.4179 263
48.43802 246
48.45813 289
48.47825 278
48.49836 284
48.51847 267
48.53859 275
48.5587 247
48.57881 260
48.59893 287
48.61904 245
48.63916 272
48.65927 272
48.67938 248
48.6995 259
48.71961 255
48.73972 255
48.75984 266
48.77995 275
48.80006 256
48.82018 260
48.84029 291
48.86041 242
48.88052 257
48.90063 254
48.92075 293
48.94086 260
48.96097 281
48.98109 258
49.0012 294
49.02132 249
49.04143 268
49.06154 276
49.08166 265
49.10177 239
49.12188 242
49.142 283
49.16211 286
49.18223 272
49.20234 318
49.22245 291
49.24257 261
49.26268 274
49.28279 298
49.30291 309
49.32302 296
49.34313 280
49.36325 315
49.38336 289
49.40348 277
49.42359 308
49.4437 284
49.46382 303
49.48393 276
49.50404 291
49.52416 318
49.54427 297
49.56439 328
49.5845 331
49.60461 278
49.62473 312
49.64484 334
49.66495 369
49.68507 323
49.70518 354
49.7253 377
49.74541 369
49.76552 378
49.78564 468
49.80575 461
49.82586 475
49.84598 522
49.86609 625
49.8862 686
49.90632 776
49.92643 906
49.94655 1049
49.96666 1223
49.98677 1486
50.00689 1687
50.027 1993
50.04711 2254
50.06723 2276
50.08734 2174
50.10746 1942
50.12757 1667
50.14768 1551
50.1678 1421
50.18791 1368
50.20802 1261
50.22814 1069
50.24825 919
50.26837 753
50.28848 583
50.30859 462
50.32871 411
50.34882 394
50.36893 329
50.38905 351
50.40916 356
50.42927 339
50.44939 309
50.4695 325
50.48962 320
50.50973 341
50.52984 333
50.54996 345
50.57007 344
50.59018 307
50.6103 333
50.63041 291
50.65053 320
50.67064 298
50.69075 281
50.71087 293
50.73098 311
50.75109 273
50.77121 267
50.79132 301
50.81143 236
50.83155 275
50.85166 274
50.87178 280
50.89189 296
50.912 267
50.93212 291
50.95223 265
50.97234 277
50.99246 237
51.01257 273
51.03269 255
51.0528 279
51.07291 247
51.09303 239
51.11314 259
51.13325 258
51.15337 247
51.17348 248
51.1936 242
51.21371 210
51.23382 262
51.25394 235
51.27405 265
51.29416 239
51.31428 258
51.33439 256
51.3545 263
51.37462 247
51.39473 237
51.41485 249
51.43496 222
51.45507 239
51.47519 269
51.4953 250
51.51541 232
51.53553 282
51.55564 235
51.57576 218
51.59587 239
51.61598 239
51.6361 216
51.65621 255
51.67632 231
51.69644 220
51.71655 212
51.73667 242
51.75678 237
51.77689 237
51.79701 224
51.81712 234
51.83723 233
51.85735 235
51.87746 228
51.89757 249
51.91769 252
51.9378 218
51.95792 245
51.97803 224
51.99814 213
52.01826 239
52.03837 219
52.05848 271
52.0786 223
52.09871 229
52.11883 213
52.13894 225
52.15905 261
52.17917 246
52.19928 237
52.21939 227
52.23951 254
52.25962 237
52.27974 213
52.29985 235
52.31996 258
52.34008 227
52.36019 206
52.3803 245
52.40042 241
52.42053 225
52.44064 240
52.46076 242
52.48087 211
52.50099 228
52.5211 259
52.54121 243
52.56133 239
52.58144 236
52.60155 232
52.62167 244
52.64178 232
52.6619 229
52.68201 246
52.70212 232
52.72224 257
52.74235 236
52.76246 249
52.78258 273
52.80269 256
52.8228 254
52.84292 243
52.86303 254
52.88315 246
52.90326 231
52.92337 228
52.94349 258
52.9636 244
52.98371 236
53.00383 261
53.02394 282
53.04406 261
53.06417 245
53.08428 278
53.1044 246
53.12451 250
53.14462 269
53.16474 282
53.18485 243
53.20497 292
53.22508 276
53.24519 265
53.26531 250
53.28542 257
53.30553 270
53.32565 265
53.34576 266
53.36587 268
53.38599 226
53.4061 253
53.42622 250
53.44633 285
53.46644 263
53.48656 273
53.50667 294
53.52678 273
53.5469 264
53.56701 256
53.58713 269
53.60724 267
53.62735 289
53.64747 284
53.66758 300
53.68769 295
53.70781 294
53.72792 321
53.74804 299
53.76815 294
53.78826 318
53.80838 279
53.82849 288
53.8486 305
53.86872 292
53.88883 307
53.90894 311
53.92906 321
53.94917 324
53.96929 280
53.9894 329
54.00951 316
54.02963 307
54.04974 311
54.06985 318
54.08997 303
54.11008 357
54.1302 327
54.15031 320
54.17042 279
54.19054 331
54.21065 328
54.23076 309
54.25088 346
54.27099 339
54.29111 309
54.31122 326
54.33133 305
54.35145 305
54.37156 317
54.39167 320
54.41179 322
54.4319 337
54.45201 323
54.47213 377
54.49224 365
54.51236 356
54.53247 350
54.55258 371
54.5727 403
54.59281 426
54.61292 413
54.63304 470
54.65315 497
54.67327 493
54.69338 579
54.71349 632
54.73361 728
54.75372 781
54.77383 829
54.79395 885
54.81406 837
54.83417 808
54.85429 779
54.8744 695
54.89452 653
54.91463 618
54.93474 632
54.95486 597
54.97497 553
54.99508 526
55.0152 503
55.03531 497
55.05543 425
55.07554 411
55.09565 437
55.11577 373
55.13588 424
55.15599 478
55.17611 519
55.19622 510
55.21634 529
55.23645 573
55.25656 538
55.27668 526
55.29679 502
55.3169 460
55.33702 451
55.35713 451
55.37724 407
55.39736 401
55.41747 415
55.43759 390
55.4577 367
55.47781 354
55.49793 350
55.51804 322
55.53815 299
55.55827 295
55.57838 315
55.5985 321
55.61861 315
55.63872 286
55.65884 311
55.67895 269
55.69906 282
55.71918 308
55.73929 295
55.75941 277
55.77952 313
55.79963 290
55.81975 264
55.83986 305
55.85997 294
55.88009 263
55.9002 267
55.92031 292
55.94043 247
55.96054 284
55.98066 277
56.00077 253
56.02088 292
56.041 255
56.06111 273
56.08122 238
56.10134 270
56.12145 263
56.14157 257
56.16168 276
56.18179 257
56.20191 250
56.22202 247
56.24213 280
56.26225 257
56.28236 256
56.30248 260
56.32259 238
56.3427 251
56.36282 237
56.38293 251
56.40304 261
56.42316 247
56.44327 276
56.46338 276
56.4835 263
56.50361 261
56.52373 259
56.54384 280
56.56395 254
56.58407 279
56.60418 281
56.62429 265
56.64441 256
56.66452 296
56.68464 271
56.70475 252
56.72486 283
56.74498 277
56.76509 261
56.7852 251
56.80532 245
56.82543 244
56.84554 252
56.86566 232
56.88577 266
56.90589 252
56.926 253
56.94611 266
56.96623 297
56.98634 275
57.00645 257
57.02657 260
57.04668 280
57.0668 301
57.08691 225
57.10702 249
57.12714 293
57.14725 284
57.16736 278
57.18748 254
57.20759 274
57.22771 290
57.24782 249
57.26793 278
57.28805 265
57.30816 276
57.32827 284
57.34839 252
57.3685 235
57.38861 246
57.40873 252
57.42884 252
57.44896 251
57.46907 236
57.48918 234
57.5093 231
57.52941 250
57.54952 224
57.56964 253
57.58975 233
57.60987 266
57.62998 227
57.65009 254
57.67021 248
57.69032 234
57.71043 231
57.73055 263
57.75066 250
57.77078 263
57.79089 256
57.811 231
57.83112 251
57.85123 264
57.87134 234
57.89146 266
57.91157 238
57.93168 262
57.9518 228
57.97191 225
57.99203 250
58.01214 248
58.03225 235
58.05237 241
58.07248 254
58.09259 242
58.11271 245
58.13282 253
58.15294 253
58.17305 264
58.19316 248
58.21328 234
58.23339 238
58.2535 226
58.27362 258
58.29373 237
58.31385 226
58.33396 232
58.35407 230
58.37419 239
58.3943 245
58.41441 229
58.43453 261
58.45464 227
58.47475 207
58.49487 227
58.51498 238
58.5351 223
58.55521 240
58.57532 226
58.59544 244
58.61555 261
58.63566 217
58.65578 254
58.67589 245
58.69601 241
58.71612 250
58.73623 244
58.75635 260
58.77646 244
58.79657 226
58.81669 242
58.8368 238
58.85691 264
58.87703 234
58.89714 246
58.91726 234
58.93737 227
58.95748 257
58.9776 250
58.99771 251
59.01782 250
59.03794 255
59.05805 249
59.07817 241
59.09828 260
59.11839 259
59.13851 262
59.15862 240
59.17873 240
59.19885 240
59.21896 261
59.23908 251
59.25919 265
59.2793 240
59.29942 259
59.31953 241
59.33964 273
59.35976 294
59.37987 266
59.39998 300
59.4201 317
59.44021 303
59.46033 302
59.48044 325
59.50055 322
59.52067 314
59.54078 350
59.56089 382
59.58101 378
59.60112 384
59.62124 412
59.64135 443
59.66146 481
59.68158 525
59.70169 563
59.7218 642
59.74192 728
59.76203 859
59.78215 931
59.80226 1026
59.82237 1206
59.84249 1375
59.8626 1478
59.88271 1492
59.90283 1402
59.92294 1290
59.94305 1151
59.96317 992
59.98328 940
60.0034 885
60.02351 854
60.04362 881
60.06374 805
60.08385 746
60.10396 612
60.12408 548
60.14419 420
60.16431 388
60.18442 345
60.20453 305
60.22465 311
60.24476 297
60.26487 294
60.28499 324
60.3051 283
60.32522 267
60.34533 297
60.36544 258
60.38556 254
60.40567 253
60.42578 269
60.4459 234
60.46601 278
60.48612 254
60.50624 259
60.52635 260
60.54647 255
60.56658 255
60.58669 231
60.60681 262
60.62692 264
60.64703 235
60.66715 243
60.68726 235
60.70738 263
60.72749 233
60.7476 240
60.76772 248
60.78783 239
60.80794 220
60.82806 219
60.84817 234
60.86828 227
60.8884 235
60.90851 244
60.92863 216
60.94874 253
60.96885 240
60.98897 257
61.00908 272
61.02919 250
61.04931 242
61.06942 236
61.08954 279
61.10965 253
61.12976 238
61.14988 220
61.16999 227
61.1901 235
61.21022 221
61.23033 231
61.25045 217
61.27056 262
61.29067 252
61.31079 243
61.3309 219
61.35101 252
61.37113 235
61.39124 233
61.41135 275
61.43147 246
61.45158 248
61.4717 276
61.49181 245
61.51192 239
61.53204 263
61.55215 221
61.57226 251
61.59238 260
61.61249 251
61.63261 228
61.65272 241
61.67283 225
61.69295 252
61.71306 286
61.73317 276
61.75329 265
61.7734 297
61.79352 244
61.81363 278
61.83374 266
61.85386 273
61.87397 306
61.89408 297
61.9142 303
61.93431 276
61.95442 319
61.97454 300
61.99465 341
62.01477 312
62.03488 371
62.05499 364
62.07511 351
62.09522 354
62.11533 334
62.13545 385
62.15556 357
62.17568 367
62.19579 408
62.2159 397
62.23602 406
62.25613 375
62.27624 347
62.29636 358
62.31647 338
62.33659 340
62.3567 331
62.37681 342
62.39693 324
62.41704 333
62.43715 335
62.45727 304
62.47738 304
62.49749 256
62.51761 314
62.53772 287
62.55784 295
62.57795 274
62.59806 270
62.61818 279
62.63829 291
62.6584 282
62.67852 304
62.69863 266
62.71875 269
62.73886 279
62.75897 261
62.77909 264
62.7992 259
62.81931 273
62.83943 241
62.85954 237
62.87965 286
62.89977 248
62.91988 263
62.94 263
62.96011 242
62.98022 248
63.00034 240
63.02045 266
63.04056 261
63.06068 256
63.08079 235
63.10091 246
63.12102 227
63.14113 262
63.16125 235
63.18136 260
63.20147 234
63.22159 254
63.2417 245
63.26182 264
63.28193 253
63.30204 257
63.32216 261
63.34227 240
63.36238 232
63.3825 236
63.40261 255
63.42272 270
63.44284 240
63.46295 238
63.48307 244
63.50318 261
63.52329 240
63.54341 242
63.56352 269
63.58363 258
63.60375 266
63.62386 260
63.64398 260
63.66409 313
63.6842 286
63.70432 305
63.72443 281
63.74454 290
63.76466 309
63.78477 332
63.80489 349
63.825 358
63.84511 319
63.86523 372
63.88534 422
63.90545 452
63.92557 416
63.94568 473
63.96579 490
63.98591 435
64.00602 424
64.02614 358
64.04625 394
64.06636 347
64.08648 361
64.10659 306
64.1267 328
64.14682 347
64.16693 382
64.18705 343
64.20716 314
64.22727 295
64.24739 283
64.2675 274
64.28761 247
64.30773 250
64.32784 251
64.34796 246
64.36807 225
64.38818 263
64.4083 237
64.42841 225
64.44852 251
64.46864 225
64.48875 232
64.50886 253
64.52898 250
64.54909 228
64.56921 245
64.58932 244
64.60943 217
64.62955 217
64.64966 241
64.66977 237
64.68989 220
64.71 239
64.73012 226
64.75023 238
64.77034 245
64.79046 227
64.81057 233
64.83068 213
64.8508 234
64.87091 225
64.89102 230
64.91114 236
64.93125 242
64.95137 211
64.97148 227
64.99159 213
65.01171 224
65.03182 219
65.05193 257
65.07205 199
65.09216 260
65.11228 205
65.13239 243
65.1525 224
65.17262 230
65.19273 234
65.21284 240
65.23296 242
65.25307 235
65.27319 233
65.2933 231
65.31341 244
65.33353 221
65.35364 227
65.37375 222
65.39387 215
65.41398 246
65.43409 238
65.45421 251
65.47432 221
65.49444 245
65.51455 245
65.53466 224
65.55478 244
65.57489 252
65.595 240
65.61512 239
65.63523 279
65.65535 279
65.67546 270
65.69557 266
65.71569 295
65.7358 263
65.75591 260
65.77603 257
65.79614 268
65.81626 210
65.83637 247
65.85648 273
65.8766 265
65.89671 253
65.91682 233
65.93694 245
65.95705 267
65.97716 228
65.99728 219
66.01739 217
66.03751 225
66.05762 220
66.07773 214
66.09785 230
66.11796 240
66.13807 220
66.15819 238
66.1783 221
66.19842 252
66.21853 236
66.23864 239
66.25876 228
66.27887 228
66.29898 244
66.3191 229
66.33921 201
66.35933 242
66.37944 213
66.39955 227
66.41967 218
66.43978 211
66.45989 235
66.48001 246
66.50012 211
66.52023 213
66.54035 215
66.56046 204
66.58058 211
66.60069 236
66.6208 240
66.64092 201
66.66103 215
66.68114 259
66.70126 218
66.72137 234
66.74149 219
66.7616 231
66.78171 233
66.80183 215
66.82194 230
66.84205 213
66.86217 241
66.88228 236
66.90239 257
66.92251 238
66.94262 246
66.96274 221
66.98285 254
67.00296 253
67.02308 223
67.04319 245
67.0633 246
67.08342 241
67.10353 226
67.12365 229
67.14376 259
67.16387 245
67.18399 249
67.2041 237
67.22421 281
67.24433 296
67.26444 287
67.28456 255
67.30467 266
67.32478 275
67.3449 274
67.36501 338
67.38512 303
67.40524 340
67.42535 354
67.44546 386
67.46558 409
67.48569 418
67.50581 489
67.52592 529
67.54603 598
67.56615 635
67.58626 764
67.60637 786
67.62649 844
67.6466 894
67.66672 957
67.68683 882
67.70694 852
67.72706 737
67.74717 697
67.76728 656
67.7874 672
67.80751 712
67.82763 728
67.84774 743
67.86785 783
67.88797 810
67.90808 795
67.92819 768
67.94831 819
67.96842 872
67.98853 978
68.00865 1038
68.02876 1049
68.04888 1221
68.06899 1200
68.0891 1207
68.10922 1147
68.12933 1126
68.14944 997
68.16956 1022
68.18967 1062
68.20979 1087
68.2299 1095
68.25001 1125
68.27013 1007
68.29024 881
68.31035 861
68.33047 741
68.35058 587
68.3707 571
68.39081 551
68.41092 506
68.43104 517
68.45115 476
68.47126 424
68.49138 386
68.51149 376
68.5316 337
68.55172 282
68.57183 281
68.59195 286
68.61206 257
68.63217 265
68.65229 263
68.6724 251
68.69251 239
68.71263 249
68.73274 247
68.75286 247
68.77297 237
68.79308 244
68.8132 237
68.83331 233
68.85342 255
68.87354 259
68.89365 230
68.91376 258
68.93388 257
68.95399 240
68.97411 216
68.99422 232
69.01433 241
69.03445 240
69.05456 224
69.07467 199
69.09479 234
69.1149 244
69.13502 232
69.15513 243
69.17524 219
69.19536 236
69.21547 230
69.23558 224
69.2557 231
69.27581 218
69.29593 231
69.31604 217
69.33615 213
69.35627 217
69.37638 238
69.39649 233
69.41661 202
69.43672 232
69.45683 227
69.47695 210
69.49706 229
69.51718 213
69.53729 189
69.5574 222
69.57752 247
69.59763 230
69.61774 201
69.63786 198
69.65797 207
69.67809 221
69.6982 208
69.71831 215
69.73843 227
69.75854 195
69.77865 218
69.79877 229
69.81888 212
69.839 236
69.85911 221
69.87922 199
69.89934 228
69.91945 214
69.93956 207
69.95968 187
69.97979 220
69.9999 227
70.02002 196
70.04013 187
70.06025 200
70.08036 203
70.10047 201
70.12059 209
70.1407 246
70.16081 221
70.18093 222
70.20104 206
70.22116 231
70.24127 208
70.26138 197
70.2815 210
70.30161 202
70.32172 216
70.34184 209
70.36195 216
70.38207 230
70.40218 234
70.42229 212
70.44241 197
70.46252 202
70.48263 207
70.50275 209
70.52286 201
70.54297 201
70.56309 208
70.5832 201
70.60332 216
70.62343 204
70.64354 191
70.66366 201
70.68377 185
70.70388 235
70.724 188
70.74411 216
70.76423 197
70.78434 209
70.80445 185
70.82457 220
70.84468 219
70.86479 225
70.88491 202
70.90502 195
70.92513 208
70.94525 212
70.96536 193
70.98548 206
71.00559 178
71.0257 199
71.04582 210
71.06593 200
71.08604 204
71.10616 200
71.12627 198
71.14639 212
71.1665 184
71.18661 201
71.20673 205
71.22684 196
71.24695 222
71.26707 202
71.28718 189
71.3073 229
71.32741 212
71.34752 210
71.36764 187
71.38775 212
71.40786 214
71.42798 212
71.44809 230
71.4682 209
71.48832 208
71.50843 189
71.52855 194
71.54866 220
71.56877 202
71.58889 213
71.609 219
71.62911 227
71.64923 232
71.66934 173
71.68946 235
71.70957 214
71.72968 189
71.7498 203
71.76991 222
71.79002 216
71.81014 230
71.83025 204
71.85037 200
71.87048 214
71.89059 215
71.91071 212
71.93082 223
71.95093 217
71.97105 220
71.99116 235
72.01127 204
72.03139 204
72.0515 219
72.07162 198
72.09173 266
72.11184 199
72.13196 206
72.15207 195
72.17218 199
72.1923 197
72.21241 188
72.23253 193
72.25264 207
72.27275 201
72.29287 198
72.31298 193
72.33309 206
72.35321 208
72.37332 209
72.39344 199
72.41355 203
72.43366 197
72.45378 212
72.47389 195
72.494 216
72.51412 213
72.53423 218
72.55434 217
72.57446 201
72.59457 217
72.61469 206
72.6348 210
72.65491 215
72.67503 198
72.69514 209
72.71525 206
72.73537 205
72.75548 204
72.7756 219
72.79571 244
72.81582 193
72.83594 234
72.85605 211
72.87616 221
72.89628 232
72.91639 239
72.9365 230
72.95662 220
72.97673 232
72.99685 207
73.01696 254
73.03707 249
73.05719 236
73.0773 237
73.09741 268
73.11753 256
73.13764 259
73.15776 264
73.17787 255
73.19798 259
73.2181 270
73.23821 322
73.25832 325
73.27844 330
73.29855 355
73.31867 417
73.33878 410
73.35889 481
73.37901 465
73.39912 452
73.41923 424
73.43935 430
73.45946 385
73.47957 329
73.49969 340
73.5198 338
73.53992 328
73.56003 335
73.58014 344
73.60026 360
73.62037 350
73.64048 335
73.6606 304
73.68071 281
73.70083 278
73.72094 244
73.74105 242
73.76117 242
73.78128 223
73.80139 195
73.82151 234
73.84162 207
73.86174 229
73.88185 221
73.90196 234
73.92208 201
73.94219 168
73.9623 234
73.98242 206
74.00253 213
74.02264 212
74.04276 205
74.06287 194
74.08299 217
74.1031 211
74.12321 208
74.14333 194
74.16344 221
74.18355 213
74.20367 210
74.22378 220
74.2439 232
74.26401 215
74.28412 204
74.30424 210
74.32435 219
74.34446 191
74.36458 227
74.38469 210
74.40481 199
74.42492 250
74.44503 208
74.46515 209
74.48526 220
74.50537 199
74.52549 204
74.5456 223
74.56571 211
74.58583 225
74.60594 207
74.62606 202
74.64617 197
74.66628 218
74.6864 222
74.70651 209
74.72662 200
74.74674 207
74.76685 214
74.78697 213
74.80708 226
74.82719 211
74.84731 210
74.86742 229
74.88753 203
74.90765 229
74.92776 215
74.94787 211
74.96799 225
74.9881 213
75.00822 196
