3.00117 19380
3.02128 19184
3.0414 18871
3.06151 18059
3.08162 18034
3.10174 17317
3.12185 16751
3.14197 16340
3.16208 15895
3.18219 15624
3.20231 15092
3.22242 14694
3.24253 14133
3.26265 13718
3.28276 13562
3.30288 12999
3.32299 12831
3.3431 12104
3.36322 11661
3.38333 11262
3.40344 10916
3.42356 10770
3.44367 10304
3.46379 10175
3.4839 9778
3.50401 9380
3.52413 9089
3.54424 8618
3.56435 8236
3.58447 8152
3.60458 7840
3.62469 7634
3.64481 7208
3.66492 6942
3.68504 6756
3.70515 6379
3.72526 6399
3.74538 5756
3.76549 5550
3.7856 5532
3.80572 5265
3.82583 5261
3.84595 4710
3.86606 4635
3.88617 4457
3.90629 4184
3.9264 4165
3.94651 3867
3.96663 3710
3.98674 3697
4.00686 3445
4.02697 3495
4.04708 3123
4.0672 2986
4.08731 3019
4.10742 2780
4.12754 2627
4.14765 2432
4.16776 2353
4.18788 2226
4.20799 2277
4.22811 2244
4.24822 1991
4.26833 1803
4.28845 2068
4.30856 1895
4.32867 1851
4.34879 1807
4.3689 1684
4.38902 1748
4.40913 1672
4.42924 1678
4.44936 1475
4.46947 1488
4.48958 1558
4.5097 1518
4.52981 1416
4.54992 1372
4.57004 1314
4.59015 1345
4.61027 1310
4.63038 1215
4.65049 1230
4.67061 1095
4.69072 1176
4.71083 1168
4.73095 1129
4.75106 1011
4.77118 1060
4.79129 1043
4.8114 998
4.83152 1005
4.85163 944
4.87174 883
4.89186 947
4.91197 871
4.93209 891
4.9522 852
4.97231 843
4.99243 825
5.01254 880
5.03265 839
5.05277 770
5.07288 821
5.09299 796
5.11311 771
5.13322 705
5.15334 701
5.17345 707
5.19356 706
5.21368 693
5.23379 660
5.2539 661
5.27402 680
5.29413 646
5.31425 649
5.33436 590
5.35447 619
5.37459 570
5.3947 625
5.41481 611
5.43493 537
5.45504 571
5.47516 587
5.49527 579
5.51538 594
5.5355 497
5.55561 473
5.57572 501
5.59584 504
5.61595 499
5.63606 460
5.65618 470
5.67629 490
5.69641 509
5.71652 454
5.73663 486
5.75675 458
5.77686 435
5.79697 499
5.81709 449
5.8372 447
5.85732 411
5.87743 414
5.89754 431
5.91766 416
5.93777 419
5.95788 407
5.978 412
5.99811 413
6.01823 387
6.03834 402
6.05845 411
6.07857 429
6.09868 345
6.11879 401
6.13891 389
6.15902 391
6.17913 435
6.19925 395
6.21936 445
6.23948 372
6.25959 354
6.2797 406
6.29982 368
6.31993 392
6.34004 395
6.36016 407
6.38027 395
6.40039 358
6.4205 388
6.44061 390
6.46073 348
6.48084 341
6.50095 320
6.52107 332
6.54118 373
6.56129 355
6.58141 357
6.60152 363
6.62164 358
6.64175 365
6.66186 389
6.68198 376
6.70209 335
6.7222 328
6.74232 338
6.76243 345
6.78255 382
6.80266 360
6.82277 354
6.84289 367
6.863 358
6.88311 335
6.90323 320
6.92334 318
6.94346 342
6.96357 337
6.98368 331
7.0038 342
7.02391 314
7.04402 327
7.06414 341
7.08425 365
7.10436 319
7.12448 341
7.14459 338
7.16471 345
7.18482 318
7.20493 333
7.22505 376
7.24516 324
7.26527 350
7.28539 333
7.3055 340
7.32562 316
7.34573 337
7.36584 324
7.38596 347
7.40607 347
7.42618 358
7.4463 319
7.46641 340
7.48653 362
7.50664 304
7.52675 317
7.54687 339
7.56698 314
7.58709 359
7.60721 349
7.62732 300
7.64743 339
7.66755 344
7.68766 350
7.70778 326
7.72789 321
7.748 324
7.76812 364
7.78823 373
7.80834 276
7.82846 357
7.84857 331
7.86869 344
7.8888 362
7.90891 341
7.92903 338
7.94914 311
7.96925 351
7.98937 321
8.00948 340
8.0296 345
8.04971 355
8.06982 343
8.08994 332
8.11005 357
8.13016 321
8.15028 321
8.17039 383
8.1905 366
8.21062 323
8.23073 301
8.25085 352
8.27096 304
8.29107 361
8.31119 361
8.3313 352
8.35141 351
8.37153 337
8.39164 340
8.41176 319
8.43187 365
8.45198 318
8.4721 376
8.49221 346
8.51232 330
8.53244 351
8.55255 377
8.57266 355
8.59278 375
8.61289 372
8.63301 337
8.65312 330
8.67323 362
8.69335 350
8.71346 350
8.73357 365
8.75369 361
8.7738 381
8.79392 349
8.81403 360
8.83414 395
8.85426 354
8.87437 418
8.89448 333
8.9146 371
8.93471 357
8.95483 360
8.97494 312
8.99505 356
9.01517 309
9.03528 375
9.05539 338
9.07551 334
9.09562 324
9.11573 315
9.13585 326
9.15596 327
9.17608 346
9.19619 329
9.2163 316
9.23642 354
9.25653 311
9.27664 343
9.29676 309
9.31687 310
9.33699 317
9.3571 345
9.37721 314
9.39733 347
9.41744 341
9.43755 352
9.45767 307
9.47778 343
9.4979 338
9.51801 321
9.53812 327
9.55824 307
9.57835 339
9.59846 329
9.61858 305
9.63869 325
9.6588 315
9.67892 331
9.69903 333
9.71915 292
9.73926 318
9.75937 312
9.77949 290
9.7996 360
9.81971 323
9.83983 323
9.85994 319
9.88006 307
9.90017 317
9.92028 316
9.9404 327
9.96051 330
9.98062 327
10.00074 307
10.02085 338
10.04097 344
10.06108 359
10.08119 323
10.10131 306
10.12142 299
10.14153 297
10.16165 312
10.18176 351
10.20187 308
10.22199 296
10.2421 321
10.26222 317
10.28233 329
10.30244 357
10.32256 347
10.34267 318
10.36278 309
10.3829 313
10.40301 332
10.42313 285
10.44324 289
10.46335 330
10.48347 350
10.50358 319
10.52369 329
10.54381 352
10.56392 298
10.58403 299
10.60415 321
10.62426 292
10.64438 338
10.66449 382
10.6846 323
10.70472 372
10.72483 311
10.74494 353
10.76506 366
10.78517 369
10.80529 310
10.8254 350
10.84551 321
10.86563 324
10.88574 329
10.90585 337
10.92597 326
10.94608 323
10.9662 318
10.98631 313
11.00642 323
11.02654 363
11.04665 357
11.06676 315
11.08688 347
11.10699 311
11.1271 345
11.14722 280
11.16733 316
11.18745 324
11.20756 327
11.22767 345
11.24779 338
11.2679 351
11.28801 349
11.30813 320
11.32824 359
11.34836 351
11.36847 356
11.38858 324
11.4087 383
11.42881 384
11.44892 333
11.46904 375
11.48915 317
11.50927 344
11.52938 317
11.54949 363
11.56961 371
11.58972 370
11.60983 346
11.62995 360
11.65006 374
11.67017 399
11.69029 348
11.7104 384
11.73052 371
11.75063 374
11.77074 372
11.79086 395
11.81097 371
11.83108 379
11.8512 411
11.87131 397
11.89143 401
11.91154 397
11.93165 359
11.95177 414
11.97188 392
11.99199 350
12.01211 447
12.03222 409
12.05234 392
12.07245 368
12.09256 410
12.11268 407
12.13279 400
12.1529 413
12.17302 380
12.19313 392
12.21324 422
12.23336 388
12.25347 427
12.27359 360
12.2937 425
12.31381 396
12.33393 362
12.35404 394
12.37415 367
12.39427 366
12.41438 359
12.4345 370
12.45461 372
12.47472 372
12.49484 351
12.51495 346
12.53506 357
12.55518 366
12.57529 370
12.5954 357
12.61552 322
12.63563 320
12.65575 356
12.67586 346
12.69597 331
12.71609 332
12.7362 325
12.75631 342
12.77643 352
12.79654 345
12.81666 327
12.83677 321
12.85688 329
12.877 303
12.89711 347
12.91722 321
12.93734 293
12.95745 303
12.97757 305
12.99768 302
13.01779 295
13.03791 329
13.05802 287
13.07813 303
13.09825 306
13.11836 339
13.13847 316
13.15859 295
13.1787 305
13.19882 320
13.21893 289
13.23904 320
13.25916 277
13.27927 322
13.29938 329
13.3195 315
13.33961 281
13.35973 339
13.37984 324
13.39995 335
13.42007 320
13.44018 310
13.46029 289
13.48041 333
13.50052 303
13.52064 312
13.54075 323
13.56086 311
13.58098 334
13.60109 332
13.6212 366
13.64132 331
13.66143 347
13.68154 345
13.70166 336
13.72177 343
13.74189 335
13.762 324
13.78211 315
13.80223 290
13.82234 296
13.84245 321
13.86257 326
13.88268 303
13.9028 304
13.92291 302
13.94302 275
13.96314 271
13.98325 275
14.00336 307
14.02348 283
14.04359 299
14.06371 292
14.08382 312
14.10393 308
14.12405 317
14.14416 265
14.16427 305
14.18439 285
14.2045 272
14.22461 310
14.24473 262
14.26484 276
14.28496 292
14.30507 275
14.32518 307
14.3453 276
14.36541 278
14.38552 295
14.40564 277
14.42575 268
14.44587 270
14.46598 283
14.48609 279
14.50621 286
14.52632 293
14.54643 296
14.56655 288
14.58666 272
14.60677 268
14.62689 288
14.647 308
14.66712 287
14.68723 275
14.70734 304
14.72746 296
14.74757 289
14.76768 287
14.7878 311
14.80791 256
14.82803 290
14.84814 287
14.86825 286
14.88837 280
14.90848 287
14.92859 277
14.94871 295
14.96882 265
14.98894 294
15.00905 354
15.02916 313
15.04928 331
15.06939 296
15.0895 304
15.10962 340
15.12973 314
15.14984 335
15.16996 306
15.19007 296
15.21019 272
15.2303 259
15.25041 274
15.27053 286
15.29064 308
15.31075 253
15.33087 280
15.35098 284
15.3711 300
15.39121 296
15.41132 278
15.43144 258
15.45155 277
15.47166 267
15.49178 280
15.51189 317
15.53201 266
15.55212 260
15.57223 298
15.59235 257
15.61246 257
15.63257 277
15.65269 266
15.6728 263
15.69291 274
15.71303 279
15.73314 292
15.75326 284
15.77337 291
15.79348 273
15.8136 247
15.83371 296
15.85382 252
15.87394 278
15.89405 285
15.91417 271
15.93428 269
15.95439 315
15.97451 266
15.99462 303
16.01473 275
16.03485 265
16.05496 270
16.07508 269
16.09519 274
16.1153 246
16.13542 256
16.15553 279
16.17564 293
16.19576 237
16.21587 264
16.23598 250
16.2561 284
16.27621 264
16.29633 286
16.31644 298
16.33655 264
16.35667 303
16.37678 246
16.39689 259
16.41701 261
16.43712 234
16.45724 280
16.47735 298
16.49746 268
16.51758 268
16.53769 294
16.5578 280
16.57792 274
16.59803 284
16.61814 269
16.63826 309
16.65837 277
16.67849 262
16.6986 300
16.71871 270
16.73883 279
16.75894 270
16.77905 270
16.79917 263
16.81928 306
16.8394 250
16.85951 251
16.87962 264
16.89974 274
16.91985 298
16.93996 284
16.96008 248
16.98019 323
17.00031 275
17.02042 303
17.04053 321
17.06065 290
17.08076 291
17.10087 305
17.12099 294
17.1411 268
17.16121 280
17.18133 256
17.20144 281
17.22156 278
17.24167 275
17.26178 270
17.2819 253
17.30201 298
17.32212 263
17.34224 296
17.36235 280
17.38247 285
17.40258 269
17.42269 262
17.44281 294
17.46292 261
17.48303 304
17.50315 281
17.52326 300
17.54338 278
17.56349 274
17.5836 297
17.60372 307
17.62383 293
17.64394 276
17.66406 307
17.68417 284
17.70428 292
17.7244 298
17.74451 271
17.76463 303
17.78474 296
17.80485 267
17.82497 275
17.84508 286
17.86519 302
17.88531 291
17.90542 271
17.92554 290
17.94565 314
17.96576 276
17.98588 272
18.00599 295
18.0261 274
18.04622 283
18.06633 286
18.08645 338
18.10656 291
18.12667 305
18.14679 255
18.1669 271
18.18701 294
18.20713 320
18.22724 302
18.24735 272
18.26747 266
18.28758 282
18.3077 279
18.32781 269
18.34792 293
18.36804 282
18.38815 242
18.40826 246
18.42838 290
18.44849 292
18.46861 306
18.48872 289
18.50883 244
18.52895 280
18.54906 283
18.56917 302
18.58929 276
18.6094 289
18.62951 268
18.64963 332
18.66974 272
18.68986 312
18.70997 299
18.73008 297
18.7502 314
18.77031 316
18.79042 267
18.81054 314
18.83065 289
18.85077 288
18.87088 289
18.89099 295
18.91111 305
18.93122 273
18.95133 290
18.97145 264
18.99156 288
19.01168 268
19.03179 280
19.0519 262
19.07202 258
19.09213 288
19.11224 288
19.13236 334
19.15247 317
19.17258 316
19.1927 293
19.21281 308
19.23293 313
19.25304 313
19.27315 306
19.29327 342
19.31338 310
19.33349 339
19.35361 299
19.37372 337
19.39384 349
19.41395 341
19.43406 365
19.45418 361
19.47429 314
19.4944 367
19.51452 335
19.53463 351
19.55475 355
19.57486 374
19.59497 372
19.61509 417
19.6352 378
19.65531 370
19.67543 402
19.69554 451
19.71565 453
19.73577 445
19.75588 471
19.776 490
19.79611 495
19.81622 524
19.83634 498
19.85645 541
19.87656 550
19.89668 517
19.91679 506
19.93691 583
19.95702 554
19.97713 547
19.99725 519
20.01736 517
20.03747 501
20.05759 516
20.0777 510
20.09782 510
20.11793 498
20.13804 541
20.15816 542
20.17827 526
20.19838 511
20.2185 464
20.23861 489
20.25872 476
20.27884 501
20.29895 483
20.31907 497
20.33918 489
20.35929 512
20.37941 445
20.39952 508
20.41963 500
20.43975 470
20.45986 499
20.47998 495
20.50009 541
20.5202 489
20.54032 540
20.56043 545
20.58054 565
20.60066 597
20.62077 614
20.64088 659
20.661 702
20.68111 807
20.70123 926
20.72134 1043
20.74145 1330
20.76157 1821
20.78168 2244
20.80179 2796
20.82191 3195
20.84202 3670
20.86214 3709
20.88225 3593
20.90236 3096
20.92248 2542
20.94259 2040
20.9627 1498
20.98282 1147
21.00293 964
21.02305 917
21.04316 919
21.06327 848
21.08339 744
21.1035 755
21.12361 586
21.14373 583
21.16384 619
21.18395 577
21.20407 526
21.22418 549
21.2443 515
21.26441 582
21.28452 507
21.30464 558
21.32475 533
21.34486 513
21.36498 503
21.38509 468
21.40521 517
21.42532 447
21.44543 481
21.46555 490
21.48566 468
21.50577 486
21.52589 451
21.546 455
21.56612 425
21.58623 465
21.60634 385
21.62646 430
21.64657 400
21.66668 438
21.6868 428
21.70691 454
21.72702 447
21.74714 431
21.76725 434
21.78737 462
21.80748 419
21.82759 422
21.84771 383
21.86782 427
21.88793 467
21.90805 445
21.92816 475
21.94828 494
21.96839 466
21.9885 505
22.00862 500
22.02873 494
22.04884 483
22.06896 433
22.08907 415
22.10919 395
22.1293 447
22.14941 404
22.16953 412
22.18964 412
22.20975 377
22.22987 390
22.24998 378
22.27009 374
22.29021 381
22.31032 407
22.33044 393
22.35055 414
22.37066 383
22.39078 407
22.41089 396
22.431 440
22.45112 413
22.47123 488
22.49135 436
22.51146 428
22.53157 407
22.55169 439
22.5718 430
22.59191 440
22.61203 403
22.63214 393
22.65225 375
22.67237 343
22.69248 364
22.7126 368
22.73271 364
22.75282 359
22.77294 346
22.79305 324
22.81316 387
22.83328 411
22.85339 406
22.87351 410
22.89362 373
22.91373 415
22.93385 418
22.95396 367
22.97407 389
22.99419 382
23.0143 380
23.03442 410
23.05453 375
23.07464 361
23.09476 355
23.11487 390
23.13498 374
23.1551 355
23.17521 395
23.19532 366
23.21544 375
23.23555 326
23.25567 395
23.27578 419
23.29589 387
23.31601 397
23.33612 367
23.35623 414
23.37635 385
23.39646 404
23.41658 415
23.43669 460
23.4568 517
23.47692 551
23.49703 595
23.51714 637
23.53726 676
23.55737 620
23.57749 625
23.5976 605
23.61771 611
23.63783 571
23.65794 558
23.67805 523
23.69817 481
23.71828 495
23.73839 486
23.75851 465
23.77862 436
23.79874 450
23.81885 442
23.83896 493
23.85908 480
23.87919 441
23.8993 487
23.91942 448
23.93953 402
23.95965 425
23.97976 405
23.99987 422
24.01999 434
24.0401 458
24.06021 421
24.08033 404
24.10044 380
24.12056 387
24.14067 382
24.16078 401
24.1809 450
24.20101 396
24.22112 392
24.24124 388
24.26135 383
24.28146 403
24.30158 429
24.32169 429
24.34181 466
24.36192 425
24.38203 459
24.40215 456
24.42226 407
24.44237 422
24.46249 430
24.4826 421
24.50272 422
24.52283 433
24.54294 405
24.56306 448
24.58317 442
24.60328 440
24.6234 428
24.64351 447
24.66362 454
24.68374 457
24.70385 441
24.72397 438
24.74408 400
24.76419 418
24.78431 410
24.80442 412
24.82453 419
24.84465 404
24.86476 421
24.88488 432
24.90499 448
24.9251 439
24.94522 409
24.96533 389
24.98544 458
25.00556 448
25.02567 449
25.04579 477
25.0659 465
25.08601 481
25.10613 475
25.12624 452
25.14635 462
25.16647 470
25.18658 461
25.20669 452
25.22681 451
25.24692 430
25.26704 427
25.28715 467
25.30726 462
25.32738 433
25.34749 416
25.3676 429
25.38772 391
25.40783 418
25.42795 439
25.44806 453
25.46817 444
25.48829 430
25.5084 439
25.52851 524
25.54863 498
25.56874 555
25.58886 554
25.60897 568
25.62908 665
25.6492 593
25.66931 702
25.68942 654
25.70954 570
25.72965 589
25.74976 543
25.76988 504
25.78999 496
25.81011 465
25.83022 496
25.85033 445
25.87045 464
25.89056 478
25.91067 493
25.93079 547
25.9509 488
25.97102 481
25.99113 488
26.01124 503
26.03136 503
26.05147 532
26.07158 492
26.0917 529
26.11181 509
26.13193 528
26.15204 590
26.17215 638
26.19227 630
26.21238 648
26.23249 717
26.25261 718
26.27272 765
26.29283 795
26.31295 834
26.33306 974
26.35318 988
26.37329 1146
26.3934 1304
26.41352 1592
26.43363 1859
26.45374 2436
26.47386 3256
26.49397 4237
26.51409 5520
26.5342 7203
26.55431 9197
26.57443 11627
26.59454 13534
26.61465 15198
26.63477 15787
26.65488 14833
26.67499 12687
26.69511 10364
26.71522 8076
26.73534 5816
26.75545 4049
26.77556 2743
26.79568 2049
26.81579 1591
26.8359 1394
26.85602 1364
26.87613 1259
26.89625 1186
26.91636 1184
26.93647 1142
26.95659 1045
26.9767 1021
26.99681 976
27.01693 921
27.03704 853
27.05716 826
27.07727 804
27.09738 824
27.1175 762
27.13761 719
27.15772 672
27.17784 653
27.19795 603
27.21806 561
27.23818 544
27.25829 560
27.27841 520
27.29852 572
27.31863 531
27.33875 559
27.35886 585
27.37897 621
27.39909 651
27.4192 751
27.43932 763
27.45943 844
27.47954 871
27.49966 788
27.51977 830
27.53988 850
27.56 817
27.58011 763
27.60023 715
27.62034 685
27.64045 621
27.66057 608
27.68068 592
27.70079 611
27.72091 641
27.74102 660
27.76113 650
27.78125 652
27.80136 611
27.82148 645
27.84159 599
27.8617 557
27.88182 522
27.90193 544
27.92204 516
27.94216 605
27.96227 545
27.98239 510
28.0025 514
28.02261 487
28.04273 476
28.06284 473
28.08295 469
28.10307 409
28.12318 395
28.1433 423
28.16341 377
28.18352 402
28.20364 371
28.22375 426
28.24386 419
28.26398 416
28.28409 409
28.3042 443
28.32432 433
28.34443 401
28.36455 417
28.38466 440
28.40477 430
28.42489 409
28.445 391
28.46511 411
28.48523 358
28.50534 381
28.52546 355
28.54557 362
28.56568 345
28.5858 339
28.60591 382
28.62602 357
28.64614 398
28.66625 346
28.68636 338
28.70648 336
28.72659 370
28.74671 353
28.76682 375
28.78693 361
28.80705 356
28.82716 323
28.84727 347
28.86739 326
28.8875 331
28.90762 294
28.92773 360
28.94784 312
28.96796 334
28.98807 343
29.00818 331
29.0283 337
29.04841 330
29.06853 364
29.08864 349
29.10875 321
29.12887 336
29.14898 334
29.16909 320
29.18921 356
29.20932 344
29.22943 311
29.24955 349
29.26966 332
29.28978 329
29.30989 335
29.33 326
29.35012 331
29.37023 338
29.39034 325
29.41046 334
29.43057 341
29.45069 329
29.4708 361
29.49091 359
29.51103 332
29.53114 333
29.55125 373
29.57137 343
29.59148 395
29.6116 353
29.63171 393
29.65182 415
29.67194 442
29.69205 468
29.71216 424
29.73228 451
29.75239 481
29.7725 486
29.79262 510
29.81273 527
29.83285 500
29.85296 506
29.87307 524
29.89319 505
29.9133 489
29.93341 415
29.95353 430
29.97364 378
29.99376 392
30.01387 375
30.03398 301
30.0541 381
30.07421 353
30.09432 368
30.11444 327
30.13455 364
30.15467 356
30.17478 373
30.19489 356
30.21501 359
30.23512 338
30.25523 375
30.27535 365
30.29546 392
30.31557 385
30.33569 388
30.3558 370
30.37592 378
30.39603 388
30.41614 404
30.43626 395
30.45637 406
30.47648 392
30.4966 381
30.51671 399
30.53683 332
30.55694 386
30.57705 390
30.59717 349
30.61728 355
30.63739 331
30.65751 427
30.67762 372
30.69773 403
30.71785 433
30.73796 410
30.75808 425
30.77819 407
30.7983 448
30.81842 442
30.83853 380
30.85864 435
30.87876 405
30.89887 370
30.91899 389
30.9391 338
30.95921 310
30.97933 345
30.99944 326
31.01955 331
31.03967 299
31.05978 350
31.0799 324
31.10001 311
31.12012 307
31.14024 347
31.16035 342
31.18046 325
31.20058 342
31.22069 337
31.2408 318
31.26092 317
31.28103 310
31.30115 332
31.32126 361
31.34137 322
31.36149 344
31.3816 322
31.40171 328
31.42183 339
31.44194 363
31.46206 356
31.48217 321
31.50228 321
31.5224 342
31.54251 308
31.56262 341
31.58274 328
31.60285 371
31.62297 341
31.64308 331
31.66319 325
31.68331 314
31.70342 301
31.72353 300
31.74365 342
31.76376 325
31.78387 344
31.80399 304
31.8241 305
31.84422 311
31.86433 289
31.88444 310
31.90456 320
31.92467 334
31.94478 318
31.9649 302
31.98501 325
32.00513 324
32.02524 319
32.04535 333
32.06547 310
32.08558 305
32.10569 322
32.12581 323
32.14592 342
32.16604 311
32.18615 338
32.20626 365
32.22638 377
32.24649 379
32.2666 366
32.28672 374
32.30683 389
32.32694 421
32.34706 403
32.36717 406
32.38729 403
32.4074 389
32.42751 421
32.44763 399
32.46774 373
32.48785 415
32.50797 408
32.52808 413
32.5482 409
32.56831 429
32.58842 431
32.60854 430
32.62865 422
32.64876 383
32.66888 413
32.68899 362
32.7091 346
32.72922 373
32.74933 398
32.76945 339
32.78956 361
32.80967 362
32.82979 333
32.8499 349
32.87001 312
32.89013 349
32.91024 334
32.93036 345
32.95047 354
32.97058 363
32.9907 312
33.01081 328
33.03092 336
33.05104 344
33.07115 347
33.09127 356
33.11138 370
33.13149 314
33.15161 351
33.17172 320
33.19183 338
33.21195 370
33.23206 337
33.25217 327
33.27229 317
33.2924 358
33.31252 330
33.33263 356
33.35274 306
33.37286 344
33.39297 358
33.41308 302
33.4332 326
33.45331 348
33.47343 360
33.49354 333
33.51365 329
33.53377 357
33.55388 337
33.57399 331
33.59411 352
33.61422 342
33.63434 347
33.65445 328
33.67456 324
33.69468 304
33.71479 325
33.7349 334
33.75502 356
33.77513 345
33.79524 369
33.81536 326
33.83547 351
33.85559 332
33.8757 329
33.89581 341
33.91593 325
33.93604 318
33.95615 346
33.97627 327
33.99638 294
34.0165 356
34.03661 337
34.05672 345
34.07684 305
34.09695 343
34.11706 333
34.13718 333
34.15729 337
34.17741 354
34.19752 390
34.21763 387
34.23775 401
34.25786 438
34.27797 388
34.29809 420
34.3182 403
34.33831 414
34.35843 421
34.37854 400
34.39866 426
34.41877 423
34.43888 415
34.459 367
34.47911 395
34.49922 352
34.51934 383
34.53945 399
34.55957 403
34.57968 407
34.59979 393
34.61991 414
34.64002 450
34.66013 435
34.68025 442
34.70036 441
34.72047 451
34.74059 492
34.7607 447
34.78082 542
34.80093 480
34.82104 515
34.84116 483
34.86127 505
34.88138 495
34.9015 494
34.92161 520
34.94173 477
34.96184 487
34.98195 456
35.00207 448
35.02218 472
35.04229 467
35.06241 472
35.08252 487
35.10264 434
35.12275 438
35.14286 474
35.16298 485
35.18309 504
35.2032 499
35.22332 518
35.24343 509
35.26354 481
35.28366 484
35.30377 471
35.32389 470
35.344 502
35.36411 522
35.38423 478
35.40434 530
35.42445 460
35.44457 508
35.46468 508
35.4848 495
35.50491 507
35.52502 481
35.54514 522
35.56525 490
35.58536 466
35.60548 478
35.62559 456
35.64571 430
35.66582 405
35.68593 426
35.70605 480
35.72616 448
35.74627 439
35.76639 407
35.7865 457
35.80661 409
35.82673 408
35.84684 422
35.86696 403
35.88707 426
35.90718 443
35.9273 482
35.94741 469
35.96752 412
35.98764 419
36.00775 406
36.02787 452
36.04798 384
36.06809 436
36.08821 425
36.10832 430
36.12843 442
36.14855 418
36.16866 430
36.18878 449
36.20889 449
36.229 421
36.24912 438
36.26923 435
36.28934 506
36.30946 495
36.32957 526
36.34968 540
36.3698 606
36.38991 737
36.41003 804
36.43014 889
36.45025 1004
36.47037 1194
36.49048 1236
36.51059 1424
36.53071 1347
36.55082 1336
36.57094 1256
36.59105 1045
36.61116 956
36.63128 827
36.65139 727
36.6715 696
36.69162 552
36.71173 504
36.73184 511
36.75196 492
36.77207 426
36.79219 435
36.8123 433
36.83241 481
36.85253 479
36.87264 444
36.89275 456
36.91287 452
36.93298 445
36.9531 406
36.97321 450
36.99332 471
37.01344 479
37.03355 412
37.05366 422
37.07378 391
37.09389 432
37.11401 458
37.13412 423
37.15423 387
37.17435 414
37.19446 410
37.21457 396
37.23469 373
37.2548 417
37.27491 388
37.29503 394
37.31514 361
37.33526 363
37.35537 379
37.37548 321
37.3956 363
37.41571 367
37.43582 393
37.45594 357
37.47605 400
37.49617 366
37.51628 362
37.53639 383
37.55651 363
37.57662 390
37.59673 373
37.61685 346
37.63696 375
37.65708 408
37.67719 424
37.6973 399
37.71742 399
37.73753 405
37.75764 352
37.77776 380
37.79787 372
37.81798 355
37.8381 381
37.85821 355
37.87833 340
37.89844 385
37.91855 367
37.93867 356
37.95878 364
37.97889 369
37.99901 366
38.01912 356
38.03924 355
38.05935 382
38.07946 335
38.09958 353
38.11969 376
38.1398 350
38.15992 384
38.18003 404
38.20015 389
38.22026 362
38.24037 357
38.26049 354
38.2806 357
38.30071 343
38.32083 358
38.34094 361
38.36105 377
38.38117 355
38.40128 372
38.4214 369
38.44151 330
38.46162 390
38.48174 388
38.50185 376
38.52196 403
38.54208 379
38.56219 365
38.58231 349
38.60242 375
38.62253 382
38.64265 383
38.66276 379
38.68287 379
38.70299 363
38.7231 381
38.74321 386
38.76333 358
38.78344 401
38.80356 384
38.82367 369
38.84378 388
38.8639 339
38.88401 359
38.90412 365
38.92424 350
38.94435 379
38.96447 364
38.98458 357
39.00469 384
39.02481 360
39.04492 380
39.06503 348
39.08515 365
39.10526 376
39.12538 389
39.14549 391
39.1656 403
39.18572 356
39.20583 412
39.22594 468
39.24606 462
39.26617 545
39.28628 537
39.3064 579
39.32651 655
39.34663 751
39.36674 926
39.38685 1013
39.40697 1116
39.42708 1200
39.44719 1235
39.46731 1176
39.48742 1148
39.50754 964
39.52765 854
39.54776 827
39.56788 733
39.58799 665
39.6081 531
39.62822 511
39.64833 405
39.66845 422
39.68856 401
39.70867 368
39.72879 349
39.7489 345
39.76901 302
39.78913 382
39.80924 347
39.82935 373
39.84947 351
39.86958 357
39.8897 317
39.90981 365
39.92992 341
39.95004 344
39.97015 356
39.99026 367
40.01038 376
40.03049 365
40.05061 400
40.07072 380
40.09083 394
40.11095 428
40.13106 491
40.15117 510
40.17129 572
40.1914 641
40.21152 671
40.23163 745
40.25174 768
40.27186 844
40.29197 769
40.31208 711
40.3322 664
40.35231 570
40.37242 577
40.39254 534
40.41265 508
40.43277 437
40.45288 411
40.47299 357
40.49311 369
40.51322 348
40.53333 361
40.55345 373
40.57356 359
40.59368 321
40.61379 351
40.6339 373
40.65402 341
40.67413 330
40.69424 349
40.71436 316
40.73447 331
40.75458 314
40.7747 303
40.79481 308
40.81493 342
40.83504 339
40.85515 344
40.87527 327
40.89538 354
40.91549 331
40.93561 313
40.95572 366
40.97584 338
40.99595 332
41.01606 345
41.03618 356
41.05629 336
41.0764 377
41.09652 377
41.11663 334
41.13675 335
41.15686 344
41.17697 340
41.19709 330
41.2172 333
41.23731 335
41.25743 315
41.27754 359
41.29765 321
41.31777 335
41.33788 348
41.358 334
41.37811 323
41.39822 326
41.41834 333
41.43845 328
41.45856 348
41.47868 368
41.49879 369
41.51891 368
41.53902 360
41.55913 369
41.57925 386
41.59936 388
41.61947 360
41.63959 409
41.6597 378
41.67982 404
41.69993 412
41.72004 364
41.74016 393
41.76027 391
41.78038 369
41.8005 351
41.82061 331
41.84072 332
41.86084 345
41.88095 331
41.90107 314
41.92118 265
41.94129 293
41.96141 311
41.98152 318
42.00163 326
42.02175 338
42.04186 326
42.06198 338
42.08209 331
42.1022 331
42.12232 368
42.14243 317
42.16254 375
42.18266 367
42.20277 374
42.22289 366
42.243 441
42.26311 461
42.28323 537
42.30334 633
42.32345 650
42.34357 695
42.36368 789
42.38379 817
42.40391 917
42.42402 965
42.44414 949
42.46425 859
42.48436 817
42.50448 724
42.52459 665
42.5447 621
42.56482 557
42.58493 507
42.60505 454
42.62516 406
42.64527 388
42.66539 356
42.6855 348
42.70561 340
42.72573 359
42.74584 334
42.76595 318
42.78607 335
42.80618 314
42.8263 312
42.84641 305
42.86652 300
42.88664 309
42.90675 296
42.92686 324
42.94698 302
42.96709 300
42.98721 304
43.00732 278
43.02743 288
43.04755 296
43.06766 298
43.08777 261
43.10789 284
43.128 298
43.14812 278
43.16823 292
43.18834 292
43.20846 273
43.22857 286
43.24868 277
43.2688 277
43.28891 296
43.30902 286
43.32914 268
43.34925 297
43.36937 282
43.38948 291
43.40959 281
43.42971 302
43.44982 286
43.46993 267
43.49005 289
43.51016 304
43.53028 269
43.55039 269
43.5705 291
43.59062 284
43.61073 300
43.63084 323
43.65096 305
43.67107 310
43.69119 289
43.7113 310
43.73141 313
43.75153 308
43.77164 309
43.79175 301
43.81187 329
43.83198 286
43.85209 294
43.87221 289
43.89232 288
43.91244 291
43.93255 294
43.95266 314
43.97278 290
43.99289 290
44.013 303
44.03312 289
44.05323 301
44.07335 310
44.09346 275
44.11357 290
44.13369 304
44.1538 306
44.17391 287
44.19403 269
44.21414 257
44.23426 258
44.25437 297
44.27448 270
44.2946 290
44.31471 298
44.33482 274
44.35494 318
44.37505 262
44.39516 269
44.41528 253
44.43539 252
44.45551 286
44.47562 280
44.49573 301
44.51585 243
44.53596 275
44.55607 289
44.57619 292
44.5963 291
44.61642 268
44.63653 256
44.65664 268
44.67676 281
44.69687 275
44.71698 286
44.7371 272
44.75721 286
44.77732 288
44.79744 300
44.81755 253
44.83767 306
44.85778 291
44.87789 297
44.89801 287
44.91812 320
44.93823 302
44.95835 329
44.97846 304
44.99858 343
45.01869 322
45.0388 281
45.05892 317
45.07903 335
45.09914 327
45.11926 344
45.13937 353
45.15949 314
45.1796 322
45.19971 323
45.21983 315
45.23994 335
45.26005 314
45.28017 340
45.30028 275
45.32039 332
45.34051 314
45.36062 342
45.38074 302
45.40085 325
45.42096 309
45.44108 324
45.46119 338
45.4813 339
45.50142 325
45.52153 364
45.54165 384
45.56176 374
45.58187 371
45.60199 409
45.6221 404
45.64221 501
45.66233 516
45.68244 552
45.70256 627
45.72267 634
45.74278 722
45.7629 663
45.78301 684
45.80312 686
45.82324 608
45.84335 574
45.86346 524
45.88358 533
45.90369 517
45.92381 467
45.94392 429
45.96403 405
45.98415 384
46.00426 317
46.02437 333
46.04449 305
46.0646 316
46.08472 324
46.10483 338
46.12494 295
46.14506 298
46.16517 310
46.18528 318
46.2054 307
46.22551 294
46.24563 286
46.26574 313
46.28585 298
46.30597 300
46.32608 284
46.34619 285
46.36631 289
46.38642 306
46.40653 295
46.42665 275
46.44676 279
46.46688 290
46.48699 305
46.5071 284
46.52722 258
46.54733 280
46.56744 315
46.58756 284
46.60767 280
46.62779 268
46.6479 280
46.66801 303
46.68813 306
46.70824 282
46.72835 285
46.74847 276
46.76858 277
46.78869 277
46.80881 291
46.82892 275
46.84904 299
46.86915 305
46.88926 315
46.90938 273
46.92949 277
46.9496 304
46.96972 311
46.98983 309
47.00995 296
47.03006 273
47.05017 282
47.07029 318
47.0904 328
47.11051 349
47.13063 319
47.15074 306
47.17086 343
47.19097 310
47.21108 276
47.2312 317
47.25131 297
47.27142 298
47.29154 314
47.31165 301
47.33176 335
47.35188 294
47.37199 307
47.39211 313
47.41222 326
47.43233 304
47.45245 314
47.47256 302
47.49267 277
47.51279 333
47.5329 305
47.55302 335
47.57313 301
47.59324 328
47.61336 327
47.63347 326
47.65358 296
47.6737 298
47.69381 296
47.71393 285
47.73404 315
47.75415 282
47.77427 285
47.79438 279
47.81449 283
47.83461 287
47.85472 286
47.87483 275
47.89495 284
47.91506 282
47.93518 294
47.95529 308
47.9754 297
47.99552 274
48.01563 308
48.03574 278
48.05586 277
48.07597 294
48.09609 279
48.1162 250
48.13631 277
48.15643 297
48.17654 283
48.19665 273
48.21677 289
48.23688 287
48.257 310
48.27711 296
48.29722 282
48.31734 320
48.33745 285
48.35756 298
48.37768 303
48.39779 306
48.4179 302
48.43802 280
48.45813 283
48.47825 301
48.49836 309
48.51847 346
48.53859 278
48.5587 324
48.57881 297
48.59893 306
48.61904 310
48.63916 307
48.65927 307
48.67938 285
48.6995 321
48.71961 318
48.73972 311
48.75984 320
48.77995 304
48.80006 271
48.82018 307
48.84029 312
48.86041 322
48.88052 315
48.90063 308
48.92075 340
48.94086 304
48.96097 311
48.98109 270
49.0012 282
49.02132 327
49.04143 311
49.06154 334
49.08166 332
49.10177 313
49.12188 334
49.142 276
49.16211 307
49.18223 311
49.20234 310
49.22245 265
49.24257 323
49.26268 311
49.28279 305
49.30291 316
49.32302 287
49.34313 298
49.36325 290
49.38336 311
49.40348 299
49.42359 304
49.4437 327
49.46382 311
49.48393 254
49.50404 338
49.52416 295
49.54427 320
49.56439 338
49.5845 313
49.60461 308
49.62473 351
49.64484 326
49.66495 316
49.68507 335
49.70518 367
49.7253 380
49.74541 360
49.76552 360
49.78564 404
49.80575 396
49.82586 461
49.84598 420
49.86609 504
49.8862 526
49.90632 578
49.92643 651
49.94655 713
49.96666 789
49.98677 966
50.00689 1070
50.027 1276
50.04711 1480
50.06723 1631
50.08734 1703
50.10746 1722
50.12757 1652
50.14768 1555
50.1678 1413
50.18791 1121
50.20802 1132
50.22814 1109
50.24825 949
50.26837 824
50.28848 735
50.30859 599
50.32871 496
50.34882 456
50.36893 368
50.38905 416
50.40916 374
50.42927 360
50.44939 373
50.4695 364
50.48962 349
50.50973 412
50.52984 390
50.54996 391
50.57007 402
50.59018 440
50.6103 404
50.63041 442
50.65053 403
50.67064 450
50.69075 428
50.71087 443
50.73098 404
50.75109 397
50.77121 380
50.79132 363
50.81143 384
50.83155 329
50.85166 323
50.87178 327
50.89189 320
50.912 310
50.93212 304
50.95223 279
50.97234 331
50.99246 289
51.01257 266
51.03269 290
51.0528 304
51.07291 270
51.09303 300
51.11314 285
51.13325 296
51.15337 259
51.17348 276
51.1936 295
51.21371 300
51.23382 298
51.25394 289
51.27405 281
51.29416 303
51.31428 302
51.33439 300
51.3545 295
51.37462 295
51.39473 296
51.41485 315
51.43496 287
51.45507 320
51.47519 302
51.4953 308
51.51541 298
51.53553 300
51.55564 275
51.57576 298
51.59587 279
51.61598 264
51.6361 282
51.65621 255
51.67632 280
51.69644 267
51.71655 265
51.73667 277
51.75678 289
51.77689 268
51.79701 264
51.81712 272
51.83723 270
51.85735 253
51.87746 256
51.89757 269
51.91769 271
51.9378 247
51.95792 267
51.97803 242
51.99814 262
52.01826 263
52.03837 235
52.05848 236
52.0786 285
52.09871 269
52.11883 273
52.13894 279
52.15905 308
52.17917 269
52.19928 293
52.21939 292
52.23951 297
52.25962 293
52.27974 264
52.29985 271
52.31996 311
52.34008 291
52.36019 304
52.3803 297
52.40042 285
52.42053 268
52.44064 281
52.46076 266
52.48087 291
52.50099 303
52.5211 272
52.54121 306
52.56133 278
52.58144 278
52.60155 288
52.62167 296
52.64178 273
52.6619 283
52.68201 310
52.70212 271
52.72224 314
52.74235 301
52.76246 268
52.78258 305
52.80269 299
52.8228 279
52.84292 283
52.86303 308
52.88315 277
52.90326 283
52.92337 338
52.94349 290
52.9636 298
52.98371 312
53.00383 313
53.02394 290
53.04406 324
53.06417 318
53.08428 319
53.1044 327
53.12451 368
53.14462 328
53.16474 314
53.18485 322
53.20497 349
53.22508 327
53.24519 340
53.26531 357
53.28542 350
53.30553 333
53.32565 353
53.34576 324
53.36587 328
53.38599 327
53.4061 364
53.42622 330
53.44633 319
53.46644 352
53.48656 300
53.50667 333
53.52678 335
53.5469 350
53.56701 331
53.58713 371
53.60724 339
53.62735 327
53.64747 321
53.66758 333
53.68769 327
53.70781 311
53.72792 328
53.74804 318
53.76815 309
53.78826 359
53.80838 313
53.82849 332
53.8486 342
53.86872 340
53.88883 338
53.90894 349
53.92906 329
53.94917 343
53.96929 300
53.9894 328
54.00951 332
54.02963 320
54.04974 347
54.06985 354
54.08997 315
54.11008 311
54.1302 313
54.15031 341
54.17042 376
54.19054 353
54.21065 346
54.23076 348
54.25088 370
54.27099 353
54.29111 350
54.31122 369
54.33133 353
54.35145 359
54.37156 331
54.39167 386
54.41179 317
54.4319 371
54.45201 357
54.47213 338
54.49224 384
54.51236 337
54.53247 367
54.55258 352
54.5727 386
54.59281 376
54.61292 401
54.63304 357
54.65315 411
54.67327 426
54.69338 505
54.71349 517
54.73361 535
54.75372 617
54.77383 637
54.79395 710
54.81406 690
54.83417 719
54.85429 702
54.8744 683
54.89452 619
54.91463 579
54.93474 549
54.95486 531
54.97497 518
54.99508 513
55.0152 482
55.03531 481
55.05543 447
55.07554 410
55.09565 396
55.11577 402
55.13588 417
55.15599 368
55.17611 445
55.19622 454
55.21634 442
55.23645 505
55.25656 450
55.27668 485
55.29679 537
55.3169 487
55.33702 446
55.35713 468
55.37724 468
55.39736 373
55.41747 416
55.43759 406
55.4577 418
55.47781 384
55.49793 387
55.51804 385
55.53815 363
55.55827 338
55.57838 324
55.5985 321
55.61861 319
55.63872 309
55.65884 295
55.67895 285
55.69906 297
55.71918 290
55.73929 286
55.75941 281
55.77952 288
55.79963 297
55.81975 299
55.83986 303
55.85997 314
55.88009 288
55.9002 281
55.92031 294
55.94043 285
55.96054 268
55.98066 312
56.00077 271
56.02088 297
56.041 272
56.06111 304
56.08122 294
56.10134 289
56.12145 313
56.14157 286
56.16168 322
56.18179 289
56.20191 302
56.22202 310
56.24213 310
56.26225 294
56.28236 322
56.30248 305
56.32259 300
56.3427 318
56.36282 304
56.38293 305
56.40304 301
56.42316 311
56.44327 309
56.46338 285
56.4835 301
56.50361 315
56.52373 314
56.54384 313
56.56395 309
56.58407 281
56.60418 316
56.62429 292
56.64441 305
56.66452 307
56.68464 278
56.70475 312
56.72486 289
56.74498 267
56.76509 281
56.7852 284
56.80532 274
56.82543 275
56.84554 289
56.86566 284
56.88577 284
56.90589 294
56.926 291
56.94611 297
56.96623 290
56.98634 294
57.00645 254
57.02657 289
57.04668 265
57.0668 302
57.08691 298
57.10702 277
57.12714 304
57.14725 329
57.16736 296
57.18748 318
57.20759 324
57.22771 313
57.24782 310
57.26793 288
57.28805 296
57.30816 293
57.32827 320
57.34839 300
57.3685 293
57.38861 285
57.40873 278
57.42884 238
57.44896 312
57.46907 296
57.48918 273
57.5093 314
57.52941 288
57.54952 307
57.56964 238
57.58975 310
57.60987 288
57.62998 306
57.65009 272
57.67021 295
57.69032 312
57.71043 278
57.73055 316
57.75066 294
57.77078 311
57.79089 285
57.811 285
57.83112 295
57.85123 285
57.87134 285
57.89146 254
57.91157 294
57.93168 317
57.9518 269
57.97191 275
57.99203 272
58.01214 274
58.03225 270
58.05237 267
58.07248 280
58.09259 249
58.11271 294
58.13282 305
58.15294 291
58.17305 283
58.19316 311
58.21328 274
58.23339 260
58.2535 275
58.27362 254
58.29373 296
58.31385 285
58.33396 307
58.35407 292
58.37419 273
58.3943 293
58.41441 313
58.43453 296
58.45464 267
58.47475 294
58.49487 314
58.51498 284
58.5351 297
58.55521 281
58.57532 278
58.59544 287
58.61555 294
58.63566 304
58.65578 293
58.67589 337
58.69601 290
58.71612 286
58.73623 302
58.75635 310
58.77646 289
58.79657 299
58.81669 281
58.8368 309
58.85691 296
58.87703 285
58.89714 295
58.91726 293
58.93737 328
58.95748 287
58.9776 301
58.99771 285
59.01782 295
59.03794 296
59.05805 316
59.07817 316
59.09828 283
59.11839 328
59.13851 288
59.15862 295
59.17873 299
59.19885 317
59.21896 308
59.23908 294
59.25919 324
59.2793 339
59.29942 334
59.31953 312
59.33964 316
59.35976 340
59.37987 350
59.39998 340
59.4201 346
59.44021 331
59.46033 349
59.48044 350
59.50055 330
59.52067 372
59.54078 363
59.56089 382
59.58101 393
59.60112 423
59.62124 396
59.64135 385
59.66146 457
59.68158 454
59.70169 505
59.7218 555
59.74192 596
59.76203 639
59.78215 728
59.80226 786
59.82237 851
59.84249 1027
59.8626 1015
59.88271 1036
59.90283 1202
59.92294 1173
59.94305 1079
59.96317 1045
59.98328 923
60.0034 853
60.02351 818
60.04362 780
60.06374 796
60.08385 748
60.10396 724
60.12408 634
60.14419 554
60.16431 523
60.18442 458
60.20453 402
60.22465 371
60.24476 333
60.26487 367
60.28499 340
60.3051 353
60.32522 333
60.34533 340
60.36544 361
60.38556 334
60.40567 300
60.42578 337
60.4459 352
60.46601 325
60.48612 324
60.50624 303
60.52635 295
60.54647 337
60.56658 322
60.58669 326
60.60681 341
60.62692 324
60.64703 291
60.66715 324
60.68726 312
60.70738 319
60.72749 319
60.7476 336
60.76772 346
60.78783 340
60.80794 333
60.82806 344
60.84817 313
60.86828 369
60.8884 343
60.90851 359
60.92863 345
60.94874 345
60.96885 374
60.98897 353
61.00908 370
61.02919 369
61.04931 372
61.06942 361
61.08954 350
61.10965 372
61.12976 381
61.14988 425
61.16999 406
61.1901 379
61.21022 365
61.23033 389
61.25045 388
61.27056 381
61.29067 363
61.31079 353
61.3309 315
61.35101 360
61.37113 337
61.39124 352
61.41135 349
61.43147 336
61.45158 337
61.4717 342
61.49181 392
61.51192 365
61.53204 350
61.55215 374
61.57226 350
61.59238 327
61.61249 359
61.63261 351
61.65272 356
61.67283 355
61.69295 349
61.71306 339
61.73317 345
61.75329 316
61.7734 351
61.79352 362
61.81363 366
61.83374 367
61.85386 411
61.87397 366
61.89408 362
61.9142 379
61.93431 348
61.95442 386
61.97454 384
61.99465 386
62.01477 400
62.03488 371
62.05499 383
62.07511 406
62.09522 390
62.11533 384
62.13545 363
62.15556 422
62.17568 360
62.19579 380
62.2159 348
62.23602 335
62.25613 344
62.27624 383
62.29636 332
62.31647 357
62.33659 347
62.3567 327
62.37681 291
62.39693 323
62.41704 376
62.43715 339
62.45727 302
62.47738 325
62.49749 310
62.51761 307
62.53772 343
62.55784 304
62.57795 299
62.59806 294
62.61818 307
62.63829 345
62.6584 286
62.67852 315
62.69863 351
62.71875 313
62.73886 310
62.75897 320
62.77909 329
62.7992 312
62.81931 327
62.83943 311
62.85954 339
62.87965 318
62.89977 291
62.91988 291
62.94 294
62.96011 292
62.98022 292
63.00034 295
63.02045 309
63.04056 303
63.06068 292
63.08079 316
63.10091 282
63.12102 294
63.14113 309
63.16125 317
63.18136 363
63.20147 343
63.22159 316
63.2417 333
63.26182 312
63.28193 325
63.30204 332
63.32216 331
63.34227 294
63.36238 299
63.3825 293
63.40261 314
63.42272 296
63.44284 328
63.46295 313
63.48307 324
63.50318 328
63.52329 334
63.54341 321
63.56352 329
63.58363 321
63.60375 290
63.62386 309
63.64398 318
63.66409 331
63.6842 325
63.70432 329
63.72443 342
63.74454 336
63.76466 362
63.78477 366
63.80489 350
63.825 350
63.84511 372
63.86523 360
63.88534 434
63.90545 440
63.92557 469
63.94568 415
63.96579 479
63.98591 464
64.00602 436
64.02614 466
64.04625 432
64.06636 418
64.08648 404
64.10659 384
64.1267 431
64.14682 438
64.16693 369
64.18705 363
64.20716 361
64.22727 347
64.24739 324
64.2675 322
64.28761 328
64.30773 289
64.32784 305
64.34796 319
64.36807 317
64.38818 274
64.4083 298
64.42841 291
64.44852 294
64.46864 296
64.48875 283
64.50886 294
64.52898 282
64.54909 299
64.56921 290
64.58932 261
64.60943 291
64.62955 296
64.64966 329
64.66977 289
64.68989 329
64.71 273
64.73012 289
64.75023 304
64.77034 302
64.79046 280
64.81057 324
64.83068 273
64.8508 299
64.87091 282
64.89102 297
64.91114 286
64.93125 296
64.95137 302
64.97148 287
64.99159 304
65.01171 295
65.03182 282
65.05193 288
65.07205 289
65.09216 302
65.11228 288
65.13239 281
65.1525 291
65.17262 275
65.19273 291
65.21284 319
65.23296 338
65.25307 265
65.27319 306
65.2933 306
65.31341 286
65.33353 297
65.35364 299
65.37375 294
65.39387 300
65.41398 322
65.43409 300
65.45421 276
65.47432 284
65.49444 286
65.51455 288
65.53466 297
65.55478 314
65.57489 293
65.595 304
65.61512 273
65.63523 289
65.65535 288
65.67546 337
65.69557 293
65.71569 323
65.7358 307
65.75591 291
65.77603 316
65.79614 308
65.81626 305
65.83637 303
65.85648 282
65.8766 299
65.89671 284
65.91682 321
65.93694 282
65.95705 319
65.97716 281
65.99728 278
66.01739 251
66.03751 267
66.05762 259
66.07773 276
66.09785 292
66.11796 283
66.13807 275
66.15819 271
66.1783 272
66.19842 280
66.21853 288
66.23864 285
66.25876 276
66.27887 284
66.29898 294
66.3191 277
66.33921 270
66.35933 287
66.37944 291
66.39955 290
66.41967 285
66.43978 289
66.45989 287
66.48001 266
66.50012 296
66.52023 268
66.54035 290
66.56046 275
66.58058 261
66.60069 243
66.6208 278
66.64092 272
66.66103 294
66.68114 259
66.70126 276
66.72137 257
66.74149 264
66.7616 242
66.78171 261
66.80183 288
66.82194 301
66.84205 252
66.86217 269
66.88228 294
66.90239 290
66.92251 267
66.94262 272
66.96274 281
66.98285 290
67.00296 275
67.02308 306
67.04319 298
67.0633 286
67.08342 282
67.10353 234
67.12365 242
67.14376 298
67.16387 277
67.18399 295
67.2041 280
67.22421 301
67.24433 305
67.26444 286
67.28456 335
67.30467 304
67.32478 303
67.3449 323
67.36501 319
67.38512 350
67.40524 339
67.42535 346
67.44546 369
67.46558 359
67.48569 379
67.50581 433
67.52592 497
67.54603 511
67.56615 559
67.58626 580
67.60637 609
67.62649 709
67.6466 728
67.66672 766
67.68683 831
67.70694 785
67.72706 798
67.74717 707
67.76728 680
67.7874 650
67.80751 613
67.82763 624
67.84774 629
67.86785 629
67.88797 661
67.90808 666
67.92819 717
67.94831 683
67.96842 712
67.98853 747
68.00865 757
68.02876 858
68.04888 916
68.06899 1005
68.0891 971
68.10922 997
68.12933 993
68.14944 1046
68.16956 945
68.18967 956
68.20979 954
68.2299 915
68.25001 951
68.27013 944
68.29024 923
68.31035 925
68.33047 741
68.35058 736
68.3707 627
68.39081 609
68.41092 554
68.43104 517
68.45115 491
68.47126 481
68.49138 458
68.51149 402
68.5316 396
68.55172 343
68.57183 295
68.59195 315
68.61206 319
68.63217 323
68.65229 296
68.6724 302
68.69251 290
68.71263 292
68.73274 294
68.75286 307
68.77297 278
68.79308 279
68.8132 327
68.83331 286
68.85342 301
68.87354 312
68.89365 279
68.91376 273
68.93388 295
68.95399 275
68.97411 297
68.99422 275
69.01433 302
69.03445 293
69.05456 286
69.07467 285
69.09479 254
69.1149 298
69.13502 271
69.15513 292
69.17524 264
69.19536 267
69.21547 281
69.23558 271
69.2557 263
69.27581 276
69.29593 242
69.31604 281
69.33615 272
69.35627 293
69.37638 276
69.39649 265
69.41661 295
69.43672 290
69.45683 293
69.47695 251
69.49706 282
69.51718 281
69.53729 286
69.5574 267
69.57752 273
69.59763 265
69.61774 275
69.63786 264
69.65797 273
69.67809 269
69.6982 259
69.71831 248
69.73843 288
69.75854 272
69.77865 256
69.79877 261
69.81888 269
69.839 273
69.85911 274
69.87922 282
69.89934 276
69.91945 294
69.93956 263
69.95968 273
69.97979 271
69.9999 244
70.02002 258
70.04013 294
70.06025 265
70.08036 278
70.10047 267
70.12059 289
70.1407 240
70.16081 269
70.18093 256
70.20104 269
70.22116 253
70.24127 262
70.26138 250
70.2815 274
70.30161 261
70.32172 264
70.34184 280
70.36195 257
70.38207 273
70.40218 257
70.42229 240
70.44241 251
70.46252 256
70.48263 252
70.50275 237
70.52286 255
70.54297 261
70.56309 296
70.5832 277
70.60332 250
70.62343 244
70.64354 267
70.66366 285
70.68377 282
70.70388 270
70.724 254
70.74411 238
70.76423 273
70.78434 270
70.80445 269
70.82457 272
70.84468 290
70.86479 251
70.88491 260
70.90502 252
70.92513 274
70.94525 264
70.96536 260
70.98548 263
71.00559 288
71.0257 273
71.04582 265
71.06593 289
71.08604 261
71.10616 276
71.12627 279
71.14639 265
71.1665 255
71.18661 270
71.20673 298
71.22684 297
71.24695 269
71.26707 274
71.28718 282
71.3073 278
71.32741 263
71.34752 276
71.36764 278
71.38775 250
71.40786 275
71.42798 283
71.44809 279
71.4682 248
71.48832 265
71.50843 267
71.52855 289
71.54866 292
71.56877 292
71.58889 270
71.609 277
71.62911 248
71.64923 251
71.66934 293
71.68946 291
71.70957 298
71.72968 308
71.7498 281
71.76991 319
71.79002 278
71.81014 289
71.83025 266
71.85037 291
71.87048 286
71.89059 324
71.91071 310
71.93082 313
71.95093 300
71.97105 308
71.99116 307
72.01127 326
72.03139 316
72.0515 324
72.07162 302
72.09173 305
72.11184 298
72.13196 306
72.15207 310
72.17218 281
72.1923 339
72.21241 293
72.23253 291
72.25264 309
72.27275 306
72.29287 291
72.31298 287
72.33309 276
72.35321 296
72.37332 294
72.39344 293
72.41355 265
72.43366 287
72.45378 286
72.47389 296
72.494 285
72.51412 305
72.53423 290
72.55434 282
72.57446 304
72.59457 293
72.61469 278
72.6348 296
72.65491 277
72.67503 297
72.69514 287
72.71525 299
72.73537 271
72.75548 312
72.7756 294
72.79571 317
72.81582 307
72.83594 299
72.85605 324
72.87616 327
72.89628 327
72.91639 310
72.9365 335
72.95662 324
72.97673 330
72.99685 336
73.01696 360
73.03707 345
73.05719 355
73.0773 335
73.09741 314
73.11753 376
73.13764 353
73.15776 344
73.17787 368
73.19798 385
73.2181 366
73.23821 372
73.25832 419
73.27844 421
73.29855 460
73.31867 432
73.33878 449
73.35889 486
73.37901 473
73.39912 523
73.41923 501
73.43935 477
73.45946 467
73.47957 460
73.49969 419
73.5198 456
73.53992 421
73.56003 415
73.58014 414
73.60026 417
73.62037 421
73.64048 458
73.6606 441
73.68071 379
73.70083 369
73.72094 376
73.74105 350
73.76117 326
73.78128 337
73.80139 328
73.82151 323
73.84162 321
73.86174 311
73.88185 323
73.90196 334
73.92208 322
73.94219 321
73.9623 333
73.98242 300
74.00253 302
74.02264 301
74.04276 331
74.06287 329
74.08299 327
74.1031 310
74.12321 302
74.14333 307
74.16344 311
74.18355 344
74.20367 314
74.22378 305
74.2439 302
74.26401 306
74.28412 283
74.30424 278
74.32435 298
74.34446 297
74.36458 261
74.38469 285
74.40481 315
74.42492 306
74.44503 312
74.46515 284
74.48526 299
74.50537 275
74.52549 269
74.5456 288
74.56571 281
74.58583 318
74.60594 286
74.62606 285
74.64617 275
74.66628 282
74.6864 259
74.70651 302
74.72662 316
74.74674 272
74.76685 294
74.78697 266
74.80708 289
74.82719 293
74.84731 282
74.86742 293
74.88753 287
74.90765 249
74.92776 244
74.94787 270
74.96799 250
74.9881 304
75.00822 305
