3.00117 20498
3.02128 19520
3.0414 18723
3.06151 18585
3.08162 17808
3.10174 17642
3.12185 16855
3.14197 16783
3.16208 15902
3.18219 15504
3.20231 15279
3.22242 14661
3.24253 14296
3.26265 14086
3.28276 13130
3.30288 13051
3.32299 12584
3.3431 12153
3.36322 11718
3.38333 11118
3.40344 11156
3.42356 10528
3.44367 10416
3.46379 9938
3.4839 9554
3.50401 9689
3.52413 8990
3.54424 8726
3.56435 8324
3.58447 7953
3.60458 7875
3.62469 7535
3.64481 7397
3.66492 6999
3.68504 6634
3.70515 6670
3.72526 6289
3.74538 6200
3.76549 5776
3.7856 5536
3.80572 5468
3.82583 5167
3.84595 4948
3.86606 4758
3.88617 4612
3.90629 4424
3.9264 4184
3.94651 4092
3.96663 3704
3.98674 3621
4.00686 3521
4.02697 3352
4.04708 3295
4.0672 3165
4.08731 3054
4.10742 3004
4.12754 2751
4.14765 2569
4.16776 2520
4.18788 2522
4.20799 2433
4.22811 2366
4.24822 2262
4.26833 2185
4.28845 2065
4.30856 2162
4.32867 2068
4.34879 1969
4.3689 1902
4.38902 1756
4.40913 1855
4.42924 1844
4.44936 1764
4.46947 1705
4.48958 1589
4.5097 1617
4.52981 1620
4.54992 1470
4.57004 1478
4.59015 1452
4.61027 1475
4.63038 1415
4.65049 1338
4.67061 1303
4.69072 1318
4.71083 1371
4.73095 1381
4.75106 1244
4.77118 1252
4.79129 1188
4.8114 1227
4.83152 1195
4.85163 1213
4.87174 1200
4.89186 1065
4.91197 1056
4.93209 1103
4.9522 1083
4.97231 1052
4.99243 1038
5.01254 993
5.03265 998
5.05277 948
5.07288 982
5.09299 980
5.11311 901
5.13322 897
5.15334 891
5.17345 931
5.19356 845
5.21368 797
5.23379 840
5.2539 753
5.27402 852
5.29413 853
5.31425 802
5.33436 825
5.35447 753
5.37459 800
5.3947 779
5.41481 761
5.43493 724
5.45504 662
5.47516 684
5.49527 674
5.51538 727
5.5355 687
5.55561 669
5.57572 624
5.59584 611
5.61595 611
5.63606 655
5.65618 643
5.67629 648
5.69641 599
5.71652 617
5.73663 614
5.75675 574
5.77686 611
5.79697 614
5.81709 523
5.8372 590
5.85732 589
5.87743 574
5.89754 569
5.91766 515
5.93777 575
5.95788 550
5.978 522
5.99811 555
6.01823 558
6.03834 512
6.05845 520
6.07857 566
6.09868 531
6.11879 555
6.13891 557
6.15902 592
6.17913 526
6.19925 537
6.21936 506
6.23948 585
6.25959 530
6.2797 452
6.29982 513
6.31993 523
6.34004 507
6.36016 511
6.38027 515
6.40039 500
6.4205 471
6.44061 469
6.46073 467
6.48084 502
6.50095 458
6.52107 459
6.54118 501
6.56129 497
6.58141 470
6.60152 502
6.62164 444
6.64175 479
6.66186 502
6.68198 450
6.70209 428
6.7222 500
6.74232 483
6.76243 483
6.78255 438
6.80266 481
6.82277 427
6.84289 470
6.863 450
6.88311 444
6.90323 469
6.92334 450
6.94346 470
6.96357 423
6.98368 397
7.0038 463
7.02391 458
7.04402 401
7.06414 478
7.08425 476
7.10436 429
7.12448 438
7.14459 450
7.16471 473
7.18482 465
7.20493 426
7.22505 399
7.24516 447
7.26527 416
7.28539 408
7.3055 419
7.32562 426
7.34573 418
7.36584 476
7.38596 404
7.40607 413
7.42618 414
7.4463 427
7.46641 409
7.48653 408
7.50664 410
7.52675 410
7.54687 410
7.56698 413
7.58709 438
7.60721 427
7.62732 405
7.64743 397
7.66755 433
7.68766 407
7.70778 413
7.72789 430
7.748 419
7.76812 447
7.78823 438
7.80834 424
7.82846 382
7.84857 397
7.86869 450
7.8888 392
7.90891 416
7.92903 390
7.94914 398
7.96925 380
7.98937 388
8.00948 404
8.0296 389
8.04971 419
8.06982 389
8.08994 412
8.11005 402
8.13016 429
8.15028 391
8.17039 407
8.1905 368
8.21062 400
8.23073 420
8.25085 381
8.27096 425
8.29107 386
8.31119 405
8.3313 354
8.35141 377
8.37153 385
8.39164 424
8.41176 376
8.43187 437
8.45198 407
8.4721 416
8.49221 379
8.51232 415
8.53244 390
8.55255 422
8.57266 385
8.59278 409
8.61289 398
8.63301 420
8.65312 400
8.67323 397
8.69335 423
8.71346 414
8.73357 403
8.75369 419
8.7738 421
8.79392 419
8.81403 423
8.83414 414
8.85426 369
8.87437 403
8.89448 373
8.9146 415
8.93471 371
8.95483 383
8.97494 368
8.99505 383
9.01517 386
9.03528 347
9.05539 336
9.07551 354
9.09562 352
9.11573 350
9.13585 328
9.15596 337
9.17608 309
9.19619 318
9.2163 327
9.23642 335
9.25653 311
9.27664 354
9.29676 348
9.31687 302
9.33699 375
9.3571 308
9.37721 328
9.39733 317
9.41744 330
9.43755 364
9.45767 350
9.47778 304
9.4979 318
9.51801 289
9.53812 327
9.55824 296
9.57835 309
9.59846 268
9.61858 317
9.63869 321
9.6588 309
9.67892 313
9.69903 275
9.71915 329
9.73926 317
9.75937 307
9.77949 284
9.7996 307
9.81971 326
9.83983 318
9.85994 299
9.88006 314
9.90017 303
9.92028 283
9.9404 312
9.96051 318
9.98062 302
10.00074 257
10.02085 261
10.04097 277
10.06108 284
10.08119 274
10.10131 275
10.12142 288
10.14153 292
10.16165 277
10.18176 302
10.20187 293
10.22199 282
10.2421 286
10.26222 304
10.28233 283
10.30244 299
10.32256 289
10.34267 284
10.36278 288
10.3829 298
10.40301 284
10.42313 306
10.44324 302
10.46335 301
10.48347 322
10.50358 285
10.52369 294
10.54381 310
10.56392 312
10.58403 271
10.60415 284
10.62426 299
10.64438 297
10.66449 273
10.6846 282
10.70472 263
10.72483 275
10.74494 243
10.76506 283
10.78517 283
10.80529 278
10.8254 288
10.84551 294
10.86563 275
10.88574 287
10.90585 280
10.92597 271
10.94608 280
10.9662 259
10.98631 289
11.00642 286
11.02654 287
11.04665 285
11.06676 286
11.08688 272
11.10699 292
11.1271 260
11.14722 260
11.16733 243
11.18745 292
11.20756 288
11.22767 266
11.24779 268
11.2679 266
11.28801 295
11.30813 260
11.32824 271
11.34836 279
11.36847 282
11.38858 306
11.4087 293
11.42881 288
11.44892 254
11.46904 280
11.48915 292
11.50927 274
11.52938 269
11.54949 295
11.56961 266
11.58972 278
11.60983 283
11.62995 271
11.65006 313
11.67017 285
11.69029 231
11.7104 257
11.73052 257
11.75063 306
11.77074 284
11.79086 286
11.81097 286
11.83108 284
11.8512 223
11.87131 274
11.89143 293
11.91154 261
11.93165 281
11.95177 285
11.97188 293
11.99199 295
12.01211 288
12.03222 280
12.05234 303
12.07245 319
12.09256 309
12.11268 281
12.13279 294
12.1529 330
12.17302 295
12.19313 309
12.21324 313
12.23336 316
12.25347 295
12.27359 317
12.2937 337
12.31381 327
12.33393 316
12.35404 304
12.37415 342
12.39427 306
12.41438 319
12.4345 320
12.45461 327
12.47472 311
12.49484 316
12.51495 286
12.53506 303
12.55518 289
12.57529 292
12.5954 287
12.61552 261
12.63563 236
12.65575 279
12.67586 304
12.69597 258
12.71609 252
12.7362 279
12.75631 265
12.77643 300
12.79654 274
12.81666 271
12.83677 252
12.85688 279
12.877 263
12.89711 269
12.91722 293
12.93734 256
12.95745 271
12.97757 242
12.99768 281
13.01779 246
13.03791 277
13.05802 285
13.07813 264
13.09825 262
13.11836 253
13.13847 282
13.15859 255
13.1787 283
13.19882 231
13.21893 265
13.23904 256
13.25916 295
13.27927 278
13.29938 278
13.3195 273
13.33961 288
13.35973 286
13.37984 272
13.39995 249
13.42007 250
13.44018 274
13.46029 251
13.48041 234
13.50052 283
13.52064 264
13.54075 266
13.56086 264
13.58098 246
13.60109 258
13.6212 280
13.64132 277
13.66143 267
13.68154 277
13.70166 278
13.72177 267
13.74189 258
13.762 270
13.78211 287
13.80223 264
13.82234 266
13.84245 269
13.86257 274
13.88268 261
13.9028 241
13.92291 233
13.94302 236
13.96314 273
13.98325 271
14.00336 247
14.02348 280
14.04359 270
14.06371 262
14.08382 267
14.10393 260
14.12405 257
14.14416 300
14.16427 256
14.18439 251
14.2045 283
14.22461 280
14.24473 291
14.26484 271
14.28496 234
14.30507 257
14.32518 277
14.3453 276
14.36541 260
14.38552 272
14.40564 268
14.42575 253
14.44587 280
14.46598 256
14.48609 269
14.50621 233
14.52632 245
14.54643 240
14.56655 260
14.58666 222
14.60677 263
14.62689 241
14.647 254
14.66712 303
14.68723 259
14.70734 270
14.72746 273
14.74757 231
14.76768 285
14.7878 279
14.80791 267
14.82803 256
14.84814 290
14.86825 285
14.88837 290
14.90848 280
14.92859 295
14.94871 245
14.96882 273
14.98894 282
15.00905 267
15.02916 263
15.04928 261
15.06939 263
15.0895 288
15.10962 246
15.12973 293
15.14984 270
15.16996 295
15.19007 310
15.21019 270
15.2303 249
15.25041 244
15.27053 255
15.29064 232
15.31075 272
15.33087 308
15.35098 278
15.3711 262
15.39121 257
15.41132 279
15.43144 239
15.45155 277
15.47166 258
15.49178 247
15.51189 242
15.53201 252
15.55212 256
15.57223 245
15.59235 268
15.61246 270
15.63257 301
15.65269 262
15.6728 262
15.69291 266
15.71303 229
15.73314 218
15.75326 243
15.77337 281
15.79348 259
15.8136 255
15.83371 288
15.85382 261
15.87394 281
15.89405 250
15.91417 269
15.93428 246
15.95439 273
15.97451 255
15.99462 260
16.01473 258
16.03485 270
16.05496 270
16.07508 258
16.09519 245
16.1153 243
16.13542 276
16.15553 247
16.17564 275
16.19576 262
16.21587 273
16.23598 253
16.2561 254
16.27621 273
16.29633 262
16.31644 277
16.33655 269
16.35667 251
16.37678 272
16.39689 305
16.41701 259
16.43712 256
16.45724 262
16.47735 252
16.49746 279
16.51758 257
16.53769 242
16.5578 263
16.57792 265
16.59803 271
16.61814 262
16.63826 252
16.65837 252
16.67849 259
16.6986 252
16.71871 289
16.73883 248
16.75894 246
16.77905 239
16.79917 248
16.81928 241
16.8394 242
16.85951 278
16.87962 296
16.89974 270
16.91985 239
16.93996 239
16.96008 270
16.98019 282
17.00031 313
17.02042 247
17.04053 271
17.06065 259
17.08076 251
17.10087 246
17.12099 257
17.1411 280
17.16121 255
17.18133 252
17.20144 250
17.22156 273
17.24167 297
17.26178 254
17.2819 265
17.30201 261
17.32212 281
17.34224 273
17.36235 312
17.38247 242
17.40258 276
17.42269 234
17.44281 283
17.46292 259
17.48303 242
17.50315 275
17.52326 278
17.54338 252
17.56349 255
17.5836 269
17.60372 308
17.62383 279
17.64394 255
17.66406 294
17.68417 299
17.70428 289
17.7244 284
17.74451 308
17.76463 283
17.78474 287
17.80485 290
17.82497 280
17.84508 296
17.86519 292
17.88531 304
17.90542 292
17.92554 279
17.94565 248
17.96576 277
17.98588 281
18.00599 279
18.0261 279
18.04622 258
18.06633 273
18.08645 258
18.10656 276
18.12667 272
18.14679 266
18.1669 292
18.18701 308
18.20713 288
18.22724 272
18.24735 279
18.26747 305
18.28758 291
18.3077 275
18.32781 269
18.34792 261
18.36804 249
18.38815 278
18.40826 271
18.42838 281
18.44849 271
18.46861 286
18.48872 266
18.50883 305
18.52895 268
18.54906 289
18.56917 283
18.58929 269
18.6094 345
18.62951 279
18.64963 279
18.66974 281
18.68986 304
18.70997 290
18.73008 286
18.7502 275
18.77031 295
18.79042 275
18.81054 269
18.83065 263
18.85077 277
18.87088 236
18.89099 288
18.91111 306
18.93122 281
18.95133 279
18.97145 318
18.99156 278
19.01168 290
19.03179 278
19.0519 317
19.07202 260
19.09213 290
19.11224 312
19.13236 293
19.15247 359
19.17258 308
19.1927 296
19.21281 333
19.23293 325
19.25304 312
19.27315 332
19.29327 375
19.31338 349
19.33349 346
19.35361 329
19.37372 388
19.39384 371
19.41395 391
19.43406 370
19.45418 413
19.47429 418
19.4944 382
19.51452 479
19.53463 516
19.55475 477
19.57486 544
19.59497 505
19.61509 557
19.6352 549
19.65531 575
19.67543 588
19.69554 609
19.71565 629
19.73577 586
19.75588 608
19.776 642
19.79611 643
19.81622 597
19.83634 593
19.85645 579
19.87656 599
19.89668 529
19.91679 550
19.93691 528
19.95702 493
19.97713 489
19.99725 507
20.01736 496
20.03747 493
20.05759 489
20.0777 456
20.09782 433
20.11793 455
20.13804 475
20.15816 421
20.17827 458
20.19838 477
20.2185 529
20.23861 453
20.25872 433
20.27884 449
20.29895 438
20.31907 424
20.33918 440
20.35929 434
20.37941 411
20.39952 448
20.41963 440
20.43975 429
20.45986 430
20.47998 476
20.50009 435
20.5202 442
20.54032 467
20.56043 432
20.58054 445
20.60066 521
20.62077 577
20.64088 621
20.661 663
20.68111 792
20.70123 966
20.72134 1197
20.74145 1503
20.76157 1772
20.78168 1978
20.80179 2104
20.82191 2007
20.84202 1988
20.86214 1683
20.88225 1354
20.90236 1040
20.92248 822
20.94259 646
20.9627 583
20.98282 528
21.00293 462
21.02305 473
21.04316 487
21.06327 473
21.08339 412
21.1035 398
21.12361 422
21.14373 396
21.16384 377
21.18395 378
21.20407 399
21.22418 365
21.2443 392
21.26441 379
21.28452 413
21.30464 364
21.32475 350
21.34486 362
21.36498 379
21.38509 338
21.40521 409
21.42532 357
21.44543 358
21.46555 342
21.48566 342
21.50577 393
21.52589 369
21.546 347
21.56612 363
21.58623 349
21.60634 341
21.62646 371
21.64657 340
21.66668 372
21.6868 389
21.70691 371
21.72702 347
21.74714 323
21.76725 360
21.78737 394
21.80748 354
21.82759 357
21.84771 363
21.86782 357
21.88793 386
21.90805 421
21.92816 426
21.94828 399
21.96839 408
21.9885 394
22.00862 387
22.02873 353
22.04884 377
22.06896 337
22.08907 374
22.10919 341
22.1293 382
22.14941 320
22.16953 343
22.18964 306
22.20975 335
22.22987 344
22.24998 376
22.27009 304
22.29021 356
22.31032 347
22.33044 346
22.35055 359
22.37066 357
22.39078 328
22.41089 343
22.431 333
22.45112 389
22.47123 345
22.49135 333
22.51146 359
22.53157 338
22.55169 349
22.5718 326
22.59191 335
22.61203 360
22.63214 372
22.65225 342
22.67237 355
22.69248 344
22.7126 343
22.73271 362
22.75282 347
22.77294 367
22.79305 400
22.81316 404
22.83328 374
22.85339 410
22.87351 414
22.89362 484
22.91373 459
22.93385 531
22.95396 559
22.97407 634
22.99419 653
23.0143 664
23.03442 655
23.05453 579
23.07464 627
23.09476 574
23.11487 477
23.13498 465
23.1551 401
23.17521 428
23.19532 394
23.21544 380
23.23555 355
23.25567 410
23.27578 361
23.29589 354
23.31601 405
23.33612 385
23.35623 357
23.37635 369
23.39646 386
23.41658 347
23.43669 380
23.4568 393
23.47692 394
23.49703 391
23.51714 364
23.53726 399
23.55737 394
23.57749 391
23.5976 383
23.61771 343
23.63783 420
23.65794 370
23.67805 339
23.69817 365
23.71828 371
23.73839 397
23.75851 356
23.77862 375
23.79874 357
23.81885 382
23.83896 327
23.85908 404
23.87919 398
23.8993 368
23.91942 396
23.93953 384
23.95965 388
23.97976 374
23.99987 351
24.01999 348
24.0401 409
24.06021 389
24.08033 343
24.10044 371
24.12056 382
24.14067 387
24.16078 411
24.1809 369
24.20101 359
24.22112 382
24.24124 359
24.26135 371
24.28146 381
24.30158 423
24.32169 340
24.34181 350
24.36192 371
24.38203 369
24.40215 338
24.42226 350
24.44237 350
24.46249 405
24.4826 352
24.50272 343
24.52283 356
24.54294 357
24.56306 344
24.58317 370
24.60328 377
24.6234 314
24.64351 352
24.66362 352
24.68374 341
24.70385 328
24.72397 366
24.74408 380
24.76419 353
24.78431 331
24.80442 346
24.82453 380
24.84465 366
24.86476 394
24.88488 356
24.90499 377
24.9251 357
24.94522 372
24.96533 361
24.98544 383
25.00556 364
25.02567 370
25.04579 364
25.0659 350
25.08601 362
25.10613 401
25.12624 381
25.14635 401
25.16647 372
25.18658 415
25.20669 405
25.22681 422
25.24692 381
25.26704 358
25.28715 383
25.30726 354
25.32738 357
25.34749 395
25.3676 373
25.38772 392
25.40783 397
25.42795 412
25.44806 396
25.46817 407
25.48829 398
25.5084 411
25.52851 407
25.54863 392
25.56874 398
25.58886 427
25.60897 422
25.62908 412
25.6492 391
25.66931 401
25.68942 404
25.70954 362
25.72965 425
25.74976 404
25.76988 394
25.78999 395
25.81011 393
25.83022 410
25.85033 414
25.87045 403
25.89056 402
25.91067 393
25.93079 415
25.9509 412
25.97102 410
25.99113 433
26.01124 396
26.03136 444
26.05147 430
26.07158 437
26.0917 475
26.11181 515
26.13193 462
26.15204 547
26.17215 529
26.19227 560
26.21238 546
26.23249 668
26.25261 621
26.27272 708
26.29283 704
26.31295 797
26.33306 809
26.35318 892
26.37329 1069
26.3934 1231
26.41352 1604
26.43363 2018
26.45374 2622
26.47386 3503
26.49397 4546
26.51409 5918
26.5342 7334
26.55431 8305
26.57443 8743
26.59454 8763
26.61465 7833
26.63477 6891
26.65488 5392
26.67499 4045
26.69511 2950
26.71522 2163
26.73534 1493
26.75545 1127
26.77556 919
26.79568 819
26.81579 706
26.8359 695
26.85602 626
26.87613 630
26.89625 630
26.91636 590
26.93647 543
26.95659 523
26.9767 513
26.99681 545
27.01693 497
27.03704 520
27.05716 476
27.07727 493
27.09738 474
27.1175 461
27.13761 455
27.15772 445
27.17784 438
27.19795 426
27.21806 432
27.23818 462
27.25829 490
27.27841 437
27.29852 474
27.31863 496
27.33875 480
27.35886 523
27.37897 518
27.39909 526
27.4192 534
27.43932 512
27.45943 521
27.47954 524
27.49966 506
27.51977 449
27.53988 449
27.56 500
27.58011 406
27.60023 480
27.62034 466
27.64045 481
27.66057 487
27.68068 507
27.70079 500
27.72091 478
27.74102 548
27.76113 524
27.78125 519
27.80136 503
27.82148 516
27.84159 483
27.8617 530
27.88182 525
27.90193 499
27.92204 497
27.94216 501
27.96227 473
27.98239 458
28.0025 444
28.02261 455
28.04273 355
28.06284 375
28.08295 377
28.10307 409
28.12318 401
28.1433 378
28.16341 382
28.18352 404
28.20364 390
28.22375 352
28.24386 387
28.26398 349
28.28409 375
28.3042 373
28.32432 427
28.34443 352
28.36455 403
28.38466 378
28.40477 368
28.42489 378
28.445 384
28.46511 401
28.48523 338
28.50534 384
28.52546 371
28.54557 380
28.56568 357
28.5858 362
28.60591 421
28.62602 401
28.64614 379
28.66625 351
28.68636 410
28.70648 390
28.72659 401
28.74671 403
28.76682 344
28.78693 370
28.80705 372
28.82716 369
28.84727 372
28.86739 387
28.8875 418
28.90762 379
28.92773 427
28.94784 441
28.96796 434
28.98807 423
29.00818 457
29.0283 467
29.04841 522
29.06853 505
29.08864 542
29.10875 582
29.12887 628
29.14898 669
29.16909 786
29.18921 908
29.20932 1152
29.22943 1404
29.24955 1625
29.26966 2072
29.28978 2513
29.30989 2788
29.33 3207
29.35012 3467
29.37023 3370
29.39034 3234
29.41046 3088
29.43057 2679
29.45069 2205
29.4708 1892
29.49091 1584
29.51103 1280
29.53114 980
29.55125 839
29.57137 729
29.59148 660
29.6116 628
29.63171 574
29.65182 533
29.67194 511
29.69205 501
29.71216 485
29.73228 464
29.75239 470
29.7725 466
29.79262 433
29.81273 417
29.83285 414
29.85296 427
29.87307 401
29.89319 415
29.9133 420
29.93341 391
29.95353 408
29.97364 414
29.99376 377
30.01387 371
30.03398 357
30.0541 373
30.07421 353
30.09432 350
30.11444 385
30.13455 362
30.15467 399
30.17478 367
30.19489 373
30.21501 376
30.23512 343
30.25523 363
30.27535 387
30.29546 339
30.31557 362
30.33569 389
30.3558 377
30.37592 366
30.39603 339
30.41614 374
30.43626 371
30.45637 348
30.47648 354
30.4966 349
30.51671 319
30.53683 330
30.55694 322
30.57705 357
30.59717 340
30.61728 359
30.63739 316
30.65751 336
30.67762 334
30.69773 374
30.71785 382
30.73796 356
30.75808 392
30.77819 353
30.7983 310
30.81842 373
30.83853 369
30.85864 340
30.87876 347
30.89887 310
30.91899 321
30.9391 348
30.95921 327
30.97933 327
30.99944 300
31.01955 311
31.03967 323
31.05978 338
31.0799 322
31.10001 313
31.12012 383
31.14024 324
31.16035 313
31.18046 311
31.20058 331
31.22069 323
31.2408 358
31.26092 361
31.28103 396
31.30115 377
31.32126 345
31.34137 373
31.36149 380
31.3816 378
31.40171 386
31.42183 322
31.44194 375
31.46206 337
31.48217 361
31.50228 343
31.5224 338
31.54251 334
31.56262 353
31.58274 319
31.60285 326
31.62297 294
31.64308 315
31.66319 304
31.68331 333
31.70342 314
31.72353 311
31.74365 306
31.76376 300
31.78387 308
31.80399 299
31.8241 300
31.84422 301
31.86433 280
31.88444 284
31.90456 318
31.92467 299
31.94478 297
31.9649 335
31.98501 316
32.00513 325
32.02524 295
32.04535 288
32.06547 308
32.08558 287
32.10569 308
32.12581 319
32.14592 310
32.16604 295
32.18615 317
32.20626 316
32.22638 286
32.24649 321
32.2666 300
32.28672 275
32.30683 308
32.32694 295
32.34706 307
32.36717 298
32.38729 277
32.4074 323
32.42751 308
32.44763 328
32.46774 288
32.48785 305
32.50797 313
32.52808 310
32.5482 319
32.56831 323
32.58842 308
32.60854 301
32.62865 349
32.64876 305
32.66888 329
32.68899 312
32.7091 322
32.72922 301
32.74933 294
32.76945 297
32.78956 291
32.80967 290
32.82979 299
32.8499 322
32.87001 308
32.89013 307
32.91024 327
32.93036 322
32.95047 323
32.97058 358
32.9907 295
33.01081 359
33.03092 397
33.05104 337
33.07115 316
33.09127 338
33.11138 302
33.13149 345
33.15161 332
33.17172 292
33.19183 299
33.21195 318
33.23206 317
33.25217 306
33.27229 306
33.2924 299
33.31252 276
33.33263 315
33.35274 284
33.37286 310
33.39297 288
33.41308 253
33.4332 268
33.45331 306
33.47343 318
33.49354 283
33.51365 296
33.53377 309
33.55388 272
33.57399 284
33.59411 294
33.61422 280
33.63434 299
33.65445 290
33.67456 308
33.69468 299
33.71479 323
33.7349 285
33.75502 292
33.77513 303
33.79524 325
33.81536 312
33.83547 292
33.85559 295
33.8757 298
33.89581 307
33.91593 257
33.93604 316
33.95615 320
33.97627 296
33.99638 317
34.0165 328
34.03661 306
34.05672 310
34.07684 337
34.09695 317
34.11706 373
34.13718 334
34.15729 394
34.17741 351
34.19752 379
34.21763 339
34.23775 385
34.25786 363
34.27797 348
34.29809 371
34.3182 399
34.33831 395
34.35843 383
34.37854 420
34.39866 431
34.41877 412
34.43888 462
34.459 445
34.47911 425
34.49922 462
34.51934 433
34.53945 493
34.55957 501
34.57968 447
34.59979 438
34.61991 441
34.64002 497
34.66013 440
34.68025 475
34.70036 491
34.72047 452
34.74059 460
34.7607 478
34.78082 477
34.80093 456
34.82104 497
34.84116 508
34.86127 457
34.88138 476
34.9015 497
34.92161 506
34.94173 490
34.96184 476
34.98195 450
35.00207 460
35.02218 480
35.04229 456
35.06241 453
35.08252 488
35.10264 445
35.12275 453
35.14286 468
35.16298 444
35.18309 432
35.2032 417
35.22332 379
35.24343 457
35.26354 376
35.28366 426
35.30377 378
35.32389 457
35.344 441
35.36411 436
35.38423 381
35.40434 437
35.42445 405
35.44457 378
35.46468 412
35.4848 433
35.50491 419
35.52502 449
35.54514 445
35.56525 414
35.58536 444
35.60548 384
35.62559 396
35.64571 404
35.66582 399
35.68593 444
35.70605 433
35.72616 437
35.74627 462
35.76639 459
35.7865 465
35.80661 470
35.82673 541
35.84684 579
35.86696 593
35.88707 697
35.90718 718
35.9273 722
35.94741 749
35.96752 744
35.98764 720
36.00775 680
36.02787 621
36.04798 607
36.06809 544
36.08821 518
36.10832 469
36.12843 465
36.14855 424
36.16866 384
36.18878 432
36.20889 418
36.229 416
36.24912 407
36.26923 387
36.28934 417
36.30946 442
36.32957 487
36.34968 552
36.3698 568
36.38991 670
36.41003 714
36.43014 780
36.45025 886
36.47037 911
36.49048 891
36.51059 838
36.53071 774
36.55082 714
36.57094 646
36.59105 592
36.61116 574
36.63128 474
36.65139 469
36.6715 394
36.69162 398
36.71173 402
36.73184 379
36.75196 341
36.77207 339
36.79219 375
36.8123 360
36.83241 380
36.85253 356
36.87264 380
36.89275 373
36.91287 372
36.93298 328
36.9531 330
36.97321 329
36.99332 356
37.01344 349
37.03355 333
37.05366 357
37.07378 330
37.09389 351
37.11401 337
37.13412 362
37.15423 380
37.17435 304
37.19446 344
37.21457 325
37.23469 358
37.2548 336
37.27491 335
37.29503 388
37.31514 371
37.33526 340
37.35537 330
37.37548 305
37.3956 345
37.41571 390
37.43582 350
37.45594 352
37.47605 374
37.49617 346
37.51628 331
37.53639 363
37.55651 328
37.57662 367
37.59673 354
37.61685 378
37.63696 362
37.65708 357
37.67719 331
37.6973 317
37.71742 353
37.73753 355
37.75764 351
37.77776 341
37.79787 330
37.81798 287
37.8381 323
37.85821 320
37.87833 310
37.89844 303
37.91855 342
37.93867 282
37.95878 331
37.97889 289
37.99901 335
38.01912 290
38.03924 308
38.05935 312
38.07946 313
38.09958 334
38.11969 320
38.1398 291
38.15992 296
38.18003 348
38.20015 303
38.22026 317
38.24037 306
38.26049 294
38.2806 324
38.30071 315
38.32083 316
38.34094 303
38.36105 317
38.38117 275
38.40128 305
38.4214 293
38.44151 292
38.46162 321
38.48174 298
38.50185 284
38.52196 328
38.54208 280
38.56219 280
38.58231 297
38.60242 297
38.62253 296
38.64265 280
38.66276 338
38.68287 317
38.70299 305
38.7231 292
38.74321 290
38.76333 295
38.78344 308
38.80356 288
38.82367 306
38.84378 318
38.8639 278
38.88401 349
38.90412 308
38.92424 321
38.94435 323
38.96447 301
38.98458 346
39.00469 320
39.02481 373
39.04492 329
39.06503 331
39.08515 358
39.10526 390
39.12538 387
39.14549 428
39.1656 443
39.18572 421
39.20583 525
39.22594 505
39.24606 695
39.26617 714
39.28628 880
39.3064 981
39.32651 1049
39.34663 1216
39.36674 1286
39.38685 1288
39.40697 1301
39.42708 1184
39.44719 1123
39.46731 1013
39.48742 937
39.50754 866
39.52765 703
39.54776 639
39.56788 553
39.58799 445
39.6081 403
39.62822 394
39.64833 360
39.66845 375
39.68856 337
39.70867 403
39.72879 323
39.7489 361
39.76901 326
39.78913 339
39.80924 314
39.82935 332
39.84947 331
39.86958 316
39.8897 323
39.90981 316
39.92992 334
39.95004 327
39.97015 307
39.99026 309
40.01038 343
40.03049 392
40.05061 341
40.07072 377
40.09083 371
40.11095 406
40.13106 428
40.15117 445
40.17129 532
40.1914 517
40.21152 495
40.23163 533
40.25174 481
40.27186 473
40.29197 433
40.31208 438
40.3322 388
40.35231 387
40.37242 369
40.39254 345
40.41265 315
40.43277 317
40.45288 303
40.47299 307
40.49311 295
40.51322 320
40.53333 302
40.55345 288
40.57356 323
40.59368 313
40.61379 327
40.6339 281
40.65402 317
40.67413 297
40.69424 321
40.71436 328
40.73447 292
40.75458 309
40.7747 271
40.79481 299
40.81493 328
40.83504 340
40.85515 300
40.87527 297
40.89538 291
40.91549 286
40.93561 275
40.95572 319
40.97584 296
40.99595 305
41.01606 325
41.03618 299
41.05629 308
41.0764 270
41.09652 300
41.11663 303
41.13675 292
41.15686 319
41.17697 319
41.19709 292
41.2172 265
41.23731 309
41.25743 303
41.27754 309
41.29765 296
41.31777 291
41.33788 289
41.358 311
41.37811 319
41.39822 313
41.41834 267
41.43845 271
41.45856 318
41.47868 325
41.49879 315
41.51891 270
41.53902 300
41.55913 294
41.57925 303
41.59936 297
41.61947 309
41.63959 289
41.6597 299
41.67982 310
41.69993 318
41.72004 325
41.74016 325
41.76027 308
41.78038 293
41.8005 290
41.82061 316
41.84072 307
41.86084 303
41.88095 307
41.90107 297
41.92118 304
41.94129 302
41.96141 269
41.98152 286
42.00163 309
42.02175 302
42.04186 301
42.06198 311
42.08209 319
42.1022 326
42.12232 295
42.14243 341
42.16254 354
42.18266 355
42.20277 363
42.22289 390
42.243 393
42.26311 453
42.28323 446
42.30334 497
42.32345 580
42.34357 612
42.36368 624
42.38379 660
42.40391 610
42.42402 593
42.44414 535
42.46425 517
42.48436 438
42.50448 414
42.52459 412
42.5447 379
42.56482 366
42.58493 353
42.60505 314
42.62516 322
42.64527 316
42.66539 309
42.6855 325
42.70561 331
42.72573 294
42.74584 332
42.76595 339
42.78607 332
42.80618 299
42.8263 299
42.84641 336
42.86652 337
42.88664 347
42.90675 358
42.92686 367
42.94698 384
42.96709 372
42.98721 403
43.00732 493
43.02743 494
43.04755 545
43.06766 644
43.08777 706
43.10789 733
43.128 726
43.14812 651
43.16823 706
43.18834 706
43.20846 630
43.22857 572
43.24868 592
43.2688 485
43.28891 478
43.30902 403
43.32914 403
43.34925 361
43.36937 343
43.38948 329
43.40959 345
43.42971 303
43.44982 295
43.46993 336
43.49005 325
43.51016 274
43.53028 293
43.55039 291
43.5705 271
43.59062 275
43.61073 261
43.63084 277
43.65096 263
43.67107 273
43.69119 292
43.7113 277
43.73141 299
43.75153 258
43.77164 291
43.79175 285
43.81187 260
43.83198 266
43.85209 237
43.87221 277
43.89232 294
43.91244 282
43.93255 294
43.95266 251
43.97278 259
43.99289 285
44.013 264
44.03312 288
44.05323 251
44.07335 269
44.09346 267
44.11357 295
44.13369 256
44.1538 261
44.17391 266
44.19403 256
44.21414 285
44.23426 292
44.25437 245
44.27448 237
44.2946 278
44.31471 260
44.33482 293
44.35494 255
44.37505 264
44.39516 263
44.41528 287
44.43539 239
44.45551 271
44.47562 276
44.49573 283
44.51585 275
44.53596 267
44.55607 242
44.57619 263
44.5963 267
44.61642 247
44.63653 253
44.65664 268
44.67676 269
44.69687 243
44.71698 284
44.7371 285
44.75721 273
44.77732 259
44.79744 268
44.81755 271
44.83767 325
44.85778 304
44.87789 278
44.89801 247
44.91812 275
44.93823 262
44.95835 263
44.97846 265
44.99858 306
45.01869 288
45.0388 270
45.05892 280
45.07903 272
45.09914 290
45.11926 254
45.13937 313
45.15949 271
45.1796 307
45.19971 291
45.21983 279
45.23994 290
45.26005 307
45.28017 283
45.30028 278
45.32039 267
45.34051 299
45.36062 282
45.38074 297
45.40085 291
45.42096 315
45.44108 320
45.46119 307
45.4813 308
45.50142 286
45.52153 298
45.54165 346
45.56176 327
45.58187 337
45.60199 387
45.6221 393
45.64221 414
45.66233 476
45.68244 455
45.70256 484
45.72267 513
45.74278 483
45.7629 449
45.78301 410
45.80312 419
45.82324 388
45.84335 368
45.86346 377
45.88358 346
45.90369 338
45.92381 336
45.94392 310
45.96403 277
45.98415 284
46.00426 280
46.02437 264
46.04449 274
46.0646 274
46.08472 272
46.10483 279
46.12494 259
46.14506 286
46.16517 277
46.18528 237
46.2054 276
46.22551 243
46.24563 244
46.26574 258
46.28585 271
46.30597 242
46.32608 260
46.34619 261
46.36631 235
46.38642 267
46.40653 251
46.42665 269
46.44676 269
46.46688 275
46.48699 251
46.5071 292
46.52722 246
46.54733 284
46.56744 275
46.58756 248
46.60767 252
46.62779 270
46.6479 278
46.66801 266
46.68813 271
46.70824 272
46.72835 266
46.74847 277
46.76858 284
46.78869 268
46.80881 274
46.82892 270
46.84904 306
46.86915 296
46.88926 325
46.90938 307
46.92949 320
46.9496 337
46.96972 362
46.98983 390
47.00995 410
47.03006 398
47.05017 393
47.07029 459
47.0904 455
47.11051 450
47.13063 469
47.15074 416
47.17086 430
47.19097 424
47.21108 435
47.2312 398
47.25131 418
47.27142 410
47.29154 476
47.31165 478
47.33176 539
47.35188 530
47.37199 594
47.39211 631
47.41222 652
47.43233 711
47.45245 691
47.47256 698
47.49267 694
47.51279 682
47.5329 652
47.55302 666
47.57313 585
47.59324 565
47.61336 501
47.63347 483
47.65358 429
47.6737 419
47.69381 382
47.71393 352
47.73404 340
47.75415 329
47.77427 296
47.79438 328
47.81449 340
47.83461 289
47.85472 286
47.87483 261
47.89495 298
47.91506 260
47.93518 261
47.95529 322
47.9754 300
47.99552 304
48.01563 274
48.03574 307
48.05586 277
48.07597 297
48.09609 294
48.1162 306
48.13631 287
48.15643 332
48.17654 334
48.19665 305
48.21677 335
48.23688 328
48.257 353
48.27711 378
48.29722 417
48.31734 413
48.33745 519
48.35756 523
48.37768 594
48.39779 633
48.4179 736
48.43802 716
48.45813 711
48.47825 718
48.49836 736
48.51847 712
48.53859 689
48.5587 604
48.57881 614
48.59893 584
48.61904 512
48.63916 499
48.65927 455
48.67938 411
48.6995 388
48.71961 335
48.73972 329
48.75984 313
48.77995 313
48.80006 261
48.82018 307
48.84029 281
48.86041 303
48.88052 271
48.90063 278
48.92075 254
48.94086 288
48.96097 286
48.98109 271
49.0012 281
49.02132 253
49.04143 262
49.06154 273
49.08166 276
49.10177 264
49.12188 260
49.142 271
49.16211 293
49.18223 260
49.20234 277
49.22245 272
49.24257 261
49.26268 275
49.28279 270
49.30291 287
49.32302 252
49.34313 265
49.36325 243
49.38336 260
49.40348 239
49.42359 285
49.4437 259
49.46382 303
49.48393 244
49.50404 260
49.52416 285
49.54427 289
49.56439 269
49.5845 253
49.60461 268
49.62473 291
49.64484 284
49.66495 305
49.68507 281
49.70518 304
49.7253 286
49.74541 278
49.76552 291
49.78564 320
49.80575 368
49.82586 359
49.84598 368
49.86609 413
49.8862 415
49.90632 452
49.92643 504
49.94655 619
49.96666 687
49.98677 800
50.00689 920
50.027 1017
50.04711 1055
50.06723 1040
50.08734 998
50.10746 910
50.12757 881
50.14768 809
50.1678 727
50.18791 646
50.20802 635
50.22814 564
50.24825 498
50.26837 407
50.28848 351
50.30859 333
50.32871 319
50.34882 302
50.36893 304
50.38905 301
50.40916 279
50.42927 292
50.44939 272
50.4695 314
50.48962 297
50.50973 302
50.52984 264
50.54996 266
50.57007 281
50.59018 274
50.6103 284
50.63041 248
50.65053 315
50.67064 263
50.69075 237
50.71087 287
50.73098 251
50.75109 260
50.77121 267
50.79132 258
50.81143 261
50.83155 244
50.85166 261
50.87178 281
50.89189 254
50.912 293
50.93212 242
50.95223 239
50.97234 236
50.99246 235
51.01257 241
51.03269 266
51.0528 230
51.07291 229
51.09303 232
51.11314 273
51.13325 231
51.15337 258
51.17348 239
51.1936 237
51.21371 210
51.23382 242
51.25394 239
51.27405 226
51.29416 253
51.31428 226
51.33439 228
51.3545 256
51.37462 239
51.39473 227
51.41485 226
51.43496 252
51.45507 234
51.47519 249
51.4953 244
51.51541 211
51.53553 247
51.55564 241
51.57576 241
51.59587 258
51.61598 262
51.6361 204
51.65621 211
51.67632 230
51.69644 229
51.71655 189
51.73667 258
51.75678 212
51.77689 230
51.79701 219
51.81712 217
51.83723 242
51.85735 225
51.87746 251
51.89757 217
51.91769 218
51.9378 222
51.95792 237
51.97803 267
51.99814 233
52.01826 252
52.03837 222
52.05848 234
52.0786 238
52.09871 236
52.11883 243
52.13894 270
52.15905 212
52.17917 251
52.19928 224
52.21939 224
52.23951 236
52.25962 253
52.27974 232
52.29985 216
52.31996 258
52.34008 215
52.36019 229
52.3803 243
52.40042 267
52.42053 225
52.44064 246
52.46076 239
52.48087 233
52.50099 220
52.5211 247
52.54121 228
52.56133 260
52.58144 238
52.60155 252
52.62167 247
52.64178 243
52.6619 243
52.68201 249
52.70212 224
52.72224 227
52.74235 242
52.76246 264
52.78258 221
52.80269 255
52.8228 258
52.84292 284
52.86303 230
52.88315 223
52.90326 256
52.92337 257
52.94349 225
52.9636 226
52.98371 238
53.00383 257
53.02394 242
53.04406 244
53.06417 275
53.08428 239
53.1044 251
53.12451 258
53.14462 257
53.16474 275
53.18485 266
53.20497 259
53.22508 270
53.24519 264
53.26531 280
53.28542 256
53.30553 260
53.32565 266
53.34576 277
53.36587 274
53.38599 258
53.4061 266
53.42622 267
53.44633 244
53.46644 273
53.48656 266
53.50667 275
53.52678 279
53.5469 252
53.56701 266
53.58713 277
53.60724 296
53.62735 269
53.64747 278
53.66758 270
53.68769 281
53.70781 276
53.72792 292
53.74804 297
53.76815 277
53.78826 293
53.80838 301
53.82849 286
53.8486 281
53.86872 259
53.88883 270
53.90894 326
53.92906 289
53.94917 259
53.96929 292
53.9894 246
54.00951 268
54.02963 301
54.04974 280
54.06985 276
54.08997 271
54.11008 296
54.1302 276
54.15031 280
54.17042 297
54.19054 285
54.21065 271
54.23076 276
54.25088 288
54.27099 305
54.29111 266
54.31122 247
54.33133 303
54.35145 272
54.37156 281
54.39167 306
54.41179 272
54.4319 296
54.45201 315
54.47213 266
54.49224 290
54.51236 305
54.53247 290
54.55258 313
54.5727 305
54.59281 349
54.61292 341
54.63304 362
54.65315 339
54.67327 379
54.69338 359
54.71349 430
54.73361 447
54.75372 493
54.77383 507
54.79395 525
54.81406 512
54.83417 478
54.85429 486
54.8744 423
54.89452 406
54.91463 411
54.93474 406
54.95486 375
54.97497 383
54.99508 357
55.0152 318
55.03531 369
55.05543 344
55.07554 313
55.09565 333
55.11577 296
55.13588 309
55.15599 319
55.17611 349
55.19622 343
55.21634 400
55.23645 404
55.25656 388
55.27668 380
55.29679 366
55.3169 344
55.33702 364
55.35713 312
55.37724 330
55.39736 316
55.41747 306
55.43759 290
55.4577 325
55.47781 343
55.49793 298
55.51804 285
55.53815 242
55.55827 280
55.57838 263
55.5985 285
55.61861 313
55.63872 286
55.65884 265
55.67895 270
55.69906 279
55.71918 249
55.73929 281
55.75941 295
55.77952 276
55.79963 283
55.81975 274
55.83986 285
55.85997 301
55.88009 259
55.9002 281
55.92031 296
55.94043 257
55.96054 270
55.98066 278
56.00077 289
56.02088 276
56.041 265
56.06111 285
56.08122 249
56.10134 285
56.12145 275
56.14157 261
56.16168 288
56.18179 283
56.20191 265
56.22202 275
56.24213 285
56.26225 302
56.28236 287
56.30248 281
56.32259 268
56.3427 255
56.36282 293
56.38293 314
56.40304 315
56.42316 286
56.44327 321
56.46338 315
56.4835 347
56.50361 324
56.52373 350
56.54384 322
56.56395 334
56.58407 333
56.60418 347
56.62429 346
56.64441 289
56.66452 309
56.68464 333
56.70475 266
56.72486 277
56.74498 267
56.76509 292
56.7852 254
56.80532 271
56.82543 299
56.84554 284
56.86566 275
56.88577 288
56.90589 293
56.926 259
56.94611 262
56.96623 261
56.98634 257
57.00645 288
57.02657 293
57.04668 268
57.0668 266
57.08691 305
57.10702 290
57.12714 286
57.14725 321
57.16736 305
57.18748 307
57.20759 318
57.22771 346
57.24782 372
57.26793 398
57.28805 389
57.30816 418
57.32827 407
57.34839 425
57.3685 470
57.38861 459
57.40873 459
57.42884 430
57.44896 431
57.46907 435
57.48918 408
57.5093 347
57.52941 379
57.54952 381
57.56964 379
57.58975 329
57.60987 318
57.62998 312
57.65009 296
57.67021 292
57.69032 290
57.71043 284
57.73055 272
57.75066 273
57.77078 227
57.79089 251
57.811 252
57.83112 288
57.85123 251
57.87134 247
57.89146 247
57.91157 266
57.93168 306
57.9518 292
57.97191 281
57.99203 304
58.01214 247
58.03225 279
58.05237 244
58.07248 271
58.09259 250
58.11271 240
58.13282 259
58.15294 275
58.17305 253
58.19316 258
58.21328 259
58.23339 298
58.2535 235
58.27362 274
58.29373 280
58.31385 244
58.33396 230
58.35407 266
58.37419 254
58.3943 233
58.41441 257
58.43453 245
58.45464 239
58.47475 234
58.49487 256
58.51498 262
58.5351 255
58.55521 247
58.57532 279
58.59544 257
58.61555 266
58.63566 263
58.65578 254
58.67589 259
58.69601 240
58.71612 262
58.73623 249
58.75635 240
58.77646 221
58.79657 230
58.81669 250
58.8368 242
58.85691 255
58.87703 211
58.89714 261
58.91726 268
58.93737 240
58.95748 245
58.9776 226
58.99771 230
59.01782 274
59.03794 262
59.05805 265
59.07817 236
59.09828 260
59.11839 263
59.13851 256
59.15862 283
59.17873 260
59.19885 254
59.21896 250
59.23908 243
59.25919 220
59.2793 240
59.29942 238
59.31953 247
59.33964 269
59.35976 252
59.37987 237
59.39998 252
59.4201 243
59.44021 247
59.46033 262
59.48044 261
59.50055 239
59.52067 258
59.54078 280
59.56089 286
59.58101 291
59.60112 288
59.62124 294
59.64135 340
59.66146 346
59.68158 357
59.70169 382
59.7218 410
59.74192 432
59.76203 482
59.78215 588
59.80226 645
59.82237 650
59.84249 755
59.8626 774
59.88271 781
59.90283 719
59.92294 707
59.94305 657
59.96317 577
59.98328 518
60.0034 518
60.02351 546
60.04362 496
60.06374 487
60.08385 474
60.10396 394
60.12408 377
60.14419 328
60.16431 319
60.18442 290
60.20453 312
60.22465 275
60.24476 290
60.26487 297
60.28499 279
60.3051 290
60.32522 264
60.34533 253
60.36544 317
60.38556 266
60.40567 289
60.42578 296
60.4459 290
60.46601 295
60.48612 293
60.50624 335
60.52635 332
60.54647 308
60.56658 362
60.58669 374
60.60681 380
60.62692 385
60.64703 389
60.66715 395
60.68726 402
60.70738 370
60.72749 358
60.7476 394
60.76772 387
60.78783 340
60.80794 342
60.82806 364
60.84817 358
60.86828 337
60.8884 328
60.90851 346
60.92863 341
60.94874 331
60.96885 348
60.98897 313
61.00908 314
61.02919 356
61.04931 341
61.06942 317
61.08954 339
61.10965 336
61.12976 329
61.14988 323
61.16999 357
61.1901 327
61.21022 359
61.23033 325
61.25045 330
61.27056 352
61.29067 358
61.31079 366
61.3309 362
61.35101 329
61.37113 356
61.39124 350
61.41135 370
61.43147 358
61.45158 362
61.4717 368
61.49181 336
61.51192 348
61.53204 365
61.55215 347
61.57226 347
61.59238 375
61.61249 353
61.63261 321
61.65272 295
61.67283 306
61.69295 363
61.71306 346
61.73317 356
61.75329 304
61.7734 339
61.79352 312
61.81363 285
61.83374 286
61.85386 343
61.87397 279
61.89408 298
61.9142 282
61.93431 299
61.95442 315
61.97454 297
61.99465 275
62.01477 290
62.03488 306
62.05499 298
62.07511 271
62.09522 292
62.11533 292
62.13545 304
62.15556 265
62.17568 305
62.19579 273
62.2159 288
62.23602 272
62.25613 276
62.27624 250
62.29636 257
62.31647 275
62.33659 283
62.3567 266
62.37681 254
62.39693 279
62.41704 275
62.43715 239
62.45727 288
62.47738 246
62.49749 262
62.51761 260
62.53772 250
62.55784 263
62.57795 252
62.59806 270
62.61818 291
62.63829 264
62.6584 257
62.67852 262
62.69863 265
62.71875 247
62.73886 242
62.75897 265
62.77909 262
62.7992 247
62.81931 266
62.83943 254
62.85954 262
62.87965 254
62.89977 256
62.91988 262
62.94 297
62.96011 282
62.98022 268
63.00034 276
63.02045 279
63.04056 300
63.06068 261
63.08079 294
63.10091 278
63.12102 269
63.14113 247
63.16125 258
63.18136 279
63.20147 251
63.22159 224
63.2417 243
63.26182 248
63.28193 274
63.30204 254
63.32216 228
63.34227 225
63.36238 263
63.3825 236
63.40261 234
63.42272 251
63.44284 246
63.46295 226
63.48307 230
63.50318 237
63.52329 232
63.54341 258
63.56352 239
63.58363 267
63.60375 241
63.62386 256
63.64398 258
63.66409 250
63.6842 238
63.70432 261
63.72443 222
63.74454 256
63.76466 253
63.78477 286
63.80489 282
63.825 292
63.84511 274
63.86523 321
63.88534 301
63.90545 339
63.92557 336
63.94568 326
63.96579 351
63.98591 299
64.00602 308
64.02614 310
64.04625 271
64.06636 296
64.08648 257
64.10659 289
64.1267 278
64.14682 269
64.16693 251
64.18705 267
64.20716 256
64.22727 249
64.24739 240
64.2675 251
64.28761 241
64.30773 248
64.32784 247
64.34796 247
64.36807 241
64.38818 237
64.4083 236
64.42841 246
64.44852 247
64.46864 288
64.48875 297
64.50886 307
64.52898 303
64.54909 337
64.56921 341
64.58932 357
64.60943 331
64.62955 355
64.64966 319
64.66977 374
64.68989 349
64.71 337
64.73012 319
64.75023 307
64.77034 305
64.79046 322
64.81057 298
64.83068 295
64.8508 314
64.87091 266
64.89102 289
64.91114 267
64.93125 262
64.95137 251
64.97148 247
64.99159 253
65.01171 248
65.03182 241
65.05193 253
65.07205 233
65.09216 260
65.11228 245
65.13239 272
65.1525 246
65.17262 264
65.19273 217
65.21284 246
65.23296 251
65.25307 255
65.27319 260
65.2933 244
65.31341 257
65.33353 254
65.35364 259
65.37375 264
65.39387 249
65.41398 268
65.43409 249
65.45421 280
65.47432 258
65.49444 296
65.51455 278
65.53466 304
65.55478 313
65.57489 303
65.595 302
65.61512 304
65.63523 314
65.65535 252
65.67546 306
65.69557 273
65.71569 321
65.7358 292
65.75591 281
65.77603 286
65.79614 260
65.81626 240
65.83637 231
65.85648 268
65.8766 258
65.89671 223
65.91682 256
65.93694 244
65.95705 249
65.97716 222
65.99728 212
66.01739 220
66.03751 247
66.05762 232
66.07773 219
66.09785 218
66.11796 237
66.13807 253
66.15819 234
66.1783 255
66.19842 211
66.21853 241
66.23864 229
66.25876 258
66.27887 218
66.29898 224
66.3191 259
66.33921 209
66.35933 237
66.37944 216
66.39955 217
66.41967 212
66.43978 233
66.45989 219
66.48001 223
66.50012 224
66.52023 195
66.54035 215
66.56046 216
66.58058 222
66.60069 225
66.6208 240
66.64092 229
66.66103 224
66.68114 218
66.70126 225
66.72137 219
66.74149 205
66.7616 227
66.78171 237
66.80183 225
66.82194 225
66.84205 257
66.86217 197
66.88228 262
66.90239 237
66.92251 211
66.94262 227
66.96274 206
66.98285 253
67.00296 244
67.02308 255
67.04319 257
67.0633 237
67.08342 237
67.10353 242
67.12365 236
67.14376 218
67.16387 223
67.18399 245
67.2041 243
67.22421 227
67.24433 260
67.26444 219
67.28456 253
67.30467 254
67.32478 226
67.3449 248
67.36501 266
67.38512 272
67.40524 258
67.42535 295
67.44546 299
67.46558 293
67.48569 310
67.50581 343
67.52592 335
67.54603 372
67.56615 455
67.58626 448
67.60637 526
67.62649 534
67.6466 513
67.66672 549
67.68683 509
67.70694 516
67.72706 451
67.74717 467
67.76728 416
67.7874 462
67.80751 485
67.82763 438
67.84774 448
67.86785 442
67.88797 464
67.90808 443
67.92819 443
67.94831 474
67.96842 466
67.98853 545
68.00865 592
68.02876 630
68.04888 581
68.06899 647
68.0891 644
68.10922 604
68.12933 602
68.14944 590
68.16956 613
68.18967 634
68.20979 638
68.2299 685
68.25001 574
68.27013 609
68.29024 546
68.31035 474
68.33047 424
68.35058 373
68.3707 378
68.39081 356
68.41092 357
68.43104 336
68.45115 326
68.47126 324
68.49138 310
68.51149 312
68.5316 280
68.55172 262
68.57183 231
68.59195 255
68.61206 251
68.63217 242
68.65229 271
68.6724 244
68.69251 225
68.71263 244
68.73274 227
68.75286 254
68.77297 220
68.79308 252
68.8132 219
68.83331 225
68.85342 236
68.87354 236
68.89365 248
68.91376 238
68.93388 227
68.95399 251
68.97411 245
68.99422 243
69.01433 246
69.03445 248
69.05456 252
69.07467 231
69.09479 236
69.1149 257
69.13502 239
69.15513 249
69.17524 248
69.19536 215
69.21547 248
69.23558 283
69.2557 250
69.27581 234
69.29593 248
69.31604 242
69.33615 262
69.35627 240
69.37638 225
69.39649 264
69.41661 221
69.43672 249
69.45683 255
69.47695 237
69.49706 237
69.51718 237
69.53729 244
69.5574 256
69.57752 221
69.59763 217
69.61774 213
69.63786 230
69.65797 245
69.67809 234
69.6982 250
69.71831 224
69.73843 208
69.75854 223
69.77865 239
69.79877 234
69.81888 222
69.839 234
69.85911 209
69.87922 236
69.89934 249
69.91945 220
69.93956 214
69.95968 240
69.97979 229
69.9999 207
70.02002 252
70.04013 245
70.06025 251
70.08036 269
70.10047 211
70.12059 282
70.1407 285
70.16081 248
70.18093 262
70.20104 253
70.22116 273
70.24127 247
70.26138 267
70.2815 275
70.30161 245
70.32172 256
70.34184 254
70.36195 254
70.38207 242
70.40218 238
70.42229 234
70.44241 241
70.46252 243
70.48263 213
70.50275 257
70.52286 214
70.54297 235
70.56309 222
70.5832 222
70.60332 212
70.62343 214
70.64354 205
70.66366 222
70.68377 207
70.70388 231
70.724 215
70.74411 226
70.76423 216
70.78434 230
70.80445 261
70.82457 236
70.84468 222
70.86479 225
70.88491 235
70.90502 208
70.92513 203
70.94525 224
70.96536 262
70.98548 205
71.00559 204
71.0257 220
71.04582 196
71.06593 242
71.08604 233
71.10616 227
71.12627 205
71.14639 212
71.1665 216
71.18661 211
71.20673 240
71.22684 210
71.24695 246
71.26707 206
71.28718 232
71.3073 215
71.32741 247
71.34752 235
71.36764 223
71.38775 233
71.40786 256
71.42798 225
71.44809 233
71.4682 240
71.48832 228
71.50843 224
71.52855 213
71.54866 232
71.56877 237
71.58889 241
71.609 206
71.62911 242
71.64923 242
71.66934 230
71.68946 232
71.70957 249
71.72968 217
71.7498 218
71.76991 200
71.79002 244
71.81014 252
71.83025 283
71.85037 208
71.87048 228
71.89059 247
71.91071 243
71.93082 240
71.95093 219
71.97105 243
71.99116 250
72.01127 214
72.03139 227
72.0515 205
72.07162 244
72.09173 253
72.11184 206
72.13196 244
72.15207 245
72.17218 245
72.1923 237
72.21241 243
72.23253 223
72.25264 218
72.27275 235
72.29287 245
72.31298 241
72.33309 250
72.35321 249
72.37332 244
72.39344 245
72.41355 231
72.43366 227
72.45378 265
72.47389 235
72.494 239
72.51412 266
72.53423 262
72.55434 242
72.57446 224
72.59457 255
72.61469 262
72.6348 297
72.65491 273
72.67503 293
72.69514 271
72.71525 275
72.73537 289
72.75548 284
72.7756 267
72.79571 288
72.81582 292
72.83594 300
72.85605 328
72.87616 299
72.89628 290
72.91639 290
72.9365 317
72.95662 294
72.97673 266
72.99685 257
73.01696 302
73.03707 257
73.05719 296
73.0773 308
73.09741 260
73.11753 297
73.13764 288
73.15776 296
73.17787 247
73.19798 271
73.2181 250
73.23821 279
73.25832 328
73.27844 322
73.29855 307
73.31867 350
73.33878 377
73.35889 345
73.37901 346
73.39912 353
73.41923 370
73.43935 343
73.45946 315
73.47957 284
73.49969 265
73.5198 294
73.53992 270
73.56003 286
73.58014 317
73.60026 314
73.62037 273
73.64048 282
73.6606 283
73.68071 289
73.70083 279
73.72094 259
73.74105 253
73.76117 252
73.78128 266
73.80139 250
73.82151 266
73.84162 233
73.86174 234
73.88185 228
73.90196 233
73.92208 239
73.94219 253
73.9623 229
73.98242 207
74.00253 210
74.02264 254
74.04276 229
74.06287 218
74.08299 232
74.1031 245
74.12321 217
74.14333 222
74.16344 222
74.18355 258
74.20367 209
74.22378 221
74.2439 233
74.26401 238
74.28412 221
74.30424 226
74.32435 204
74.34446 233
74.36458 220
74.38469 219
74.40481 217
74.42492 236
74.44503 226
74.46515 238
74.48526 229
74.50537 217
74.52549 244
74.5456 220
74.56571 217
74.58583 233
74.60594 214
74.62606 233
74.64617 237
74.66628 238
74.6864 214
74.70651 205
74.72662 206
74.74674 220
74.76685 212
74.78697 212
74.80708 258
74.82719 226
74.84731 226
74.86742 230
74.88753 225
74.90765 204
74.92776 211
74.94787 239
74.96799 211
74.9881 211
75.00822 220
