3.00117 20894
3.02128 20351
3.0414 19963
3.06151 19069
3.08162 18685
3.10174 18305
3.12185 17812
3.14197 17405
3.16208 16570
3.18219 16169
3.20231 15772
3.22242 15094
3.24253 15127
3.26265 14306
3.28276 13831
3.30288 13939
3.32299 13066
3.3431 12965
3.36322 12185
3.38333 11893
3.40344 11368
3.42356 11142
3.44367 10967
3.46379 10190
3.4839 10120
3.50401 9674
3.52413 9326
3.54424 9167
3.56435 8528
3.58447 8353
3.60458 8177
3.62469 7712
3.64481 7600
3.66492 7114
3.68504 6840
3.70515 6690
3.72526 6234
3.74538 6203
3.76549 5643
3.7856 5576
3.80572 5463
3.82583 5043
3.84595 5038
3.86606 4594
3.88617 4617
3.90629 4418
3.9264 4272
3.94651 4092
3.96663 3668
3.98674 3705
4.00686 3459
4.02697 3321
4.04708 3251
4.0672 2900
4.08731 2900
4.10742 2803
4.12754 2663
4.14765 2676
4.16776 2302
4.18788 2380
4.20799 2161
4.22811 2155
4.24822 2041
4.26833 1921
4.28845 1850
4.30856 1844
4.32867 1742
4.34879 1773
4.3689 1556
4.38902 1500
4.40913 1575
4.42924 1559
4.44936 1535
4.46947 1340
4.48958 1410
4.5097 1371
4.52981 1278
4.54992 1295
4.57004 1200
4.59015 1178
4.61027 1137
4.63038 1188
4.65049 1214
4.67061 998
4.69072 1029
4.71083 1021
4.73095 1002
4.75106 1001
4.77118 919
4.79129 865
4.8114 958
4.83152 790
4.85163 860
4.87174 833
4.89186 834
4.91197 859
4.93209 771
4.9522 745
4.97231 682
4.99243 707
5.01254 709
5.03265 741
5.05277 706
5.07288 622
5.09299 586
5.11311 651
5.13322 653
5.15334 595
5.17345 632
5.19356 533
5.21368 529
5.23379 552
5.2539 526
5.27402 535
5.29413 502
5.31425 495
5.33436 493
5.35447 454
5.37459 435
5.3947 449
5.41481 448
5.43493 464
5.45504 447
5.47516 435
5.49527 415
5.51538 357
5.5355 378
5.55561 379
5.57572 355
5.59584 369
5.61595 329
5.63606 321
5.65618 301
5.67629 290
5.69641 339
5.71652 310
5.73663 352
5.75675 285
5.77686 322
5.79697 294
5.81709 282
5.8372 281
5.85732 264
5.87743 262
5.89754 283
5.91766 254
5.93777 236
5.95788 228
5.978 254
5.99811 275
6.01823 279
6.03834 225
6.05845 264
6.07857 242
6.09868 260
6.11879 249
6.13891 215
6.15902 237
6.17913 229
6.19925 237
6.21936 269
6.23948 237
6.25959 233
6.2797 201
6.29982 212
6.31993 228
6.34004 208
6.36016 219
6.38027 236
6.40039 212
6.4205 211
6.44061 237
6.46073 212
6.48084 196
6.50095 192
6.52107 188
6.54118 220
6.56129 203
6.58141 203
6.60152 185
6.62164 209
6.64175 216
6.66186 241
6.68198 199
6.70209 204
6.7222 217
6.74232 197
6.76243 204
6.78255 179
6.80266 224
6.82277 193
6.84289 199
6.863 189
6.88311 200
6.90323 210
6.92334 205
6.94346 203
6.96357 186
6.98368 183
7.0038 208
7.02391 199
7.04402 202
7.06414 216
7.08425 223
7.10436 226
7.12448 178
7.14459 222
7.16471 213
7.18482 183
7.20493 216
7.22505 196
7.24516 214
7.26527 197
7.28539 187
7.3055 188
7.32562 207
7.34573 222
7.36584 203
7.38596 231
7.40607 221
7.42618 237
7.4463 170
7.46641 189
7.48653 235
7.50664 205
7.52675 194
7.54687 185
7.56698 211
7.58709 221
7.60721 196
7.62732 221
7.64743 220
7.66755 215
7.68766 192
7.70778 227
7.72789 218
7.748 228
7.76812 207
7.78823 221
7.80834 230
7.82846 208
7.84857 239
7.86869 239
7.8888 197
7.90891 208
7.92903 229
7.94914 210
7.96925 240
7.98937 210
8.00948 260
8.0296 228
8.04971 202
8.06982 231
8.08994 237
8.11005 228
8.13016 218
8.15028 221
8.17039 225
8.1905 221
8.21062 221
8.23073 216
8.25085 220
8.27096 212
8.29107 222
8.31119 231
8.3313 224
8.35141 241
8.37153 235
8.39164 268
8.41176 231
8.43187 213
8.45198 237
8.4721 242
8.49221 250
8.51232 241
8.53244 235
8.55255 232
8.57266 235
8.59278 226
8.61289 234
8.63301 242
8.65312 237
8.67323 245
8.69335 235
8.71346 225
8.73357 225
8.75369 269
8.7738 227
8.79392 254
8.81403 245
8.83414 258
8.85426 236
8.87437 237
8.89448 243
8.9146 263
8.93471 219
8.95483 231
8.97494 210
8.99505 231
9.01517 228
9.03528 239
9.05539 217
9.07551 225
9.09562 239
9.11573 246
9.13585 256
9.15596 237
9.17608 249
9.19619 244
9.2163 253
9.23642 237
9.25653 228
9.27664 232
9.29676 246
9.31687 224
9.33699 207
9.3571 233
9.37721 246
9.39733 231
9.41744 266
9.43755 221
9.45767 247
9.47778 235
9.4979 263
9.51801 204
9.53812 226
9.55824 232
9.57835 238
9.59846 232
9.61858 237
9.63869 223
9.6588 213
9.67892 224
9.69903 239
9.71915 246
9.73926 206
9.75937 234
9.77949 244
9.7996 211
9.81971 267
9.83983 232
9.85994 246
9.88006 264
9.90017 216
9.92028 233
9.9404 242
9.96051 228
9.98062 256
10.00074 228
10.02085 199
10.04097 217
10.06108 234
10.08119 240
10.10131 248
10.12142 230
10.14153 233
10.16165 248
10.18176 234
10.20187 213
10.22199 209
10.2421 222
10.26222 220
10.28233 248
10.30244 214
10.32256 259
10.34267 220
10.36278 228
10.3829 212
10.40301 221
10.42313 246
10.44324 224
10.46335 236
10.48347 253
10.50358 240
10.52369 201
10.54381 233
10.56392 220
10.58403 229
10.60415 256
10.62426 245
10.64438 257
10.66449 216
10.6846 244
10.70472 251
10.72483 230
10.74494 239
10.76506 215
10.78517 242
10.80529 208
10.8254 203
10.84551 250
10.86563 241
10.88574 243
10.90585 239
10.92597 272
10.94608 234
10.9662 260
10.98631 215
11.00642 250
11.02654 239
11.04665 225
11.06676 258
11.08688 251
11.10699 246
11.1271 238
11.14722 247
11.16733 219
11.18745 236
11.20756 248
11.22767 240
11.24779 233
11.2679 233
11.28801 220
11.30813 212
11.32824 202
11.34836 247
11.36847 245
11.38858 230
11.4087 252
11.42881 287
11.44892 265
11.46904 245
11.48915 230
11.50927 262
11.52938 245
11.54949 223
11.56961 254
11.58972 257
11.60983 228
11.62995 250
11.65006 239
11.67017 261
11.69029 249
11.7104 245
11.73052 244
11.75063 267
11.77074 245
11.79086 245
11.81097 263
11.83108 292
11.8512 235
11.87131 230
11.89143 261
11.91154 268
11.93165 265
11.95177 286
11.97188 271
11.99199 281
12.01211 262
12.03222 261
12.05234 268
12.07245 275
12.09256 279
12.11268 292
12.13279 291
12.1529 247
12.17302 284
12.19313 278
12.21324 322
12.23336 283
12.25347 285
12.27359 254
12.2937 268
12.31381 312
12.33393 295
12.35404 290
12.37415 325
12.39427 283
12.41438 259
12.4345 310
12.45461 293
12.47472 265
12.49484 256
12.51495 258
12.53506 220
12.55518 247
12.57529 262
12.5954 236
12.61552 257
12.63563 248
12.65575 248
12.67586 259
12.69597 255
12.71609 245
12.7362 219
12.75631 220
12.77643 203
12.79654 220
12.81666 224
12.83677 202
12.85688 200
12.877 255
12.89711 224
12.91722 242
12.93734 235
12.95745 227
12.97757 214
12.99768 216
13.01779 224
13.03791 224
13.05802 208
13.07813 234
13.09825 210
13.11836 219
13.13847 198
13.15859 233
13.1787 209
13.19882 210
13.21893 215
13.23904 222
13.25916 240
13.27927 247
13.29938 226
13.3195 207
13.33961 220
13.35973 204
13.37984 191
13.39995 208
13.42007 196
13.44018 212
13.46029 194
13.48041 208
13.50052 223
13.52064 212
13.54075 190
13.56086 216
13.58098 207
13.60109 238
13.6212 230
13.64132 221
13.66143 202
13.68154 232
13.70166 203
13.72177 204
13.74189 199
13.762 233
13.78211 227
13.80223 211
13.82234 189
13.84245 226
13.86257 208
13.88268 192
13.9028 213
13.92291 202
13.94302 192
13.96314 183
13.98325 205
14.00336 206
14.02348 210
14.04359 182
14.06371 213
14.08382 213
14.10393 209
14.12405 193
14.14416 206
14.16427 193
14.18439 193
14.2045 208
14.22461 198
14.24473 201
14.26484 184
14.28496 181
14.30507 182
14.32518 200
14.3453 199
14.36541 196
14.38552 199
14.40564 209
14.42575 167
14.44587 208
14.46598 215
14.48609 204
14.50621 201
14.52632 220
14.54643 174
14.56655 192
14.58666 180
14.60677 224
14.62689 196
14.647 186
14.66712 176
14.68723 231
14.70734 187
14.72746 193
14.74757 218
14.76768 197
14.7878 218
14.80791 176
14.82803 182
14.84814 159
14.86825 239
14.88837 175
14.90848 206
14.92859 220
14.94871 205
14.96882 205
14.98894 175
15.00905 192
15.02916 201
15.04928 190
15.06939 195
15.0895 189
15.10962 197
15.12973 187
15.14984 170
15.16996 164
15.19007 191
15.21019 229
15.2303 189
15.25041 204
15.27053 200
15.29064 205
15.31075 194
15.33087 191
15.35098 209
15.3711 191
15.39121 190
15.41132 183
15.43144 160
15.45155 179
15.47166 186
15.49178 174
15.51189 193
15.53201 208
15.55212 161
15.57223 184
15.59235 184
15.61246 199
15.63257 186
15.65269 183
15.6728 186
15.69291 188
15.71303 172
15.73314 197
15.75326 177
15.77337 180
15.79348 199
15.8136 165
15.83371 207
15.85382 192
15.87394 189
15.89405 198
15.91417 190
15.93428 183
15.95439 196
15.97451 185
15.99462 178
16.01473 192
16.03485 196
16.05496 192
16.07508 196
16.09519 204
16.1153 171
16.13542 184
16.15553 192
16.17564 198
16.19576 180
16.21587 198
16.23598 193
16.2561 192
16.27621 180
16.29633 161
16.31644 169
16.33655 195
16.35667 186
16.37678 188
16.39689 166
16.41701 221
16.43712 167
16.45724 158
16.47735 170
16.49746 170
16.51758 196
16.53769 170
16.5578 179
16.57792 177
16.59803 189
16.61814 221
16.63826 185
16.65837 197
16.67849 204
16.6986 196
16.71871 159
16.73883 191
16.75894 170
16.77905 175
16.79917 168
16.81928 179
16.8394 188
16.85951 201
16.87962 179
16.89974 198
16.91985 184
16.93996 159
16.96008 204
16.98019 202
17.00031 172
17.02042 199
17.04053 186
17.06065 191
17.08076 162
17.10087 198
17.12099 214
17.1411 180
17.16121 191
17.18133 166
17.20144 176
17.22156 202
17.24167 183
17.26178 194
17.2819 187
17.30201 192
17.32212 172
17.34224 138
17.36235 184
17.38247 147
17.40258 171
17.42269 163
17.44281 155
17.46292 186
17.48303 178
17.50315 205
17.52326 176
17.54338 192
17.56349 155
17.5836 172
17.60372 210
17.62383 192
17.64394 178
17.66406 185
17.68417 187
17.70428 171
17.7244 173
17.74451 190
17.76463 178
17.78474 176
17.80485 191
17.82497 175
17.84508 187
17.86519 186
17.88531 169
17.90542 182
17.92554 192
17.94565 167
17.96576 208
17.98588 174
18.00599 157
18.0261 166
18.04622 183
18.06633 195
18.08645 191
18.10656 186
18.12667 180
18.14679 182
18.1669 168
18.18701 185
18.20713 196
18.22724 206
18.24735 181
18.26747 169
18.28758 181
18.3077 178
18.32781 195
18.34792 219
18.36804 183
18.38815 192
18.40826 175
18.42838 189
18.44849 180
18.46861 171
18.48872 171
18.50883 184
18.52895 196
18.54906 195
18.56917 181
18.58929 179
18.6094 163
18.62951 168
18.64963 186
18.66974 175
18.68986 190
18.70997 192
18.73008 178
18.7502 190
18.77031 198
18.79042 203
18.81054 202
18.83065 180
18.85077 211
18.87088 184
18.89099 208
18.91111 178
18.93122 182
18.95133 181
18.97145 187
18.99156 220
19.01168 214
19.03179 178
19.0519 194
19.07202 214
19.09213 159
19.11224 191
19.13236 177
19.15247 189
19.17258 182
19.1927 193
19.21281 184
19.23293 176
19.25304 174
19.27315 199
19.29327 184
19.31338 199
19.33349 178
19.35361 211
19.37372 145
19.39384 173
19.41395 178
19.43406 197
19.45418 215
19.47429 211
19.4944 185
19.51452 205
19.53463 189
19.55475 220
19.57486 219
19.59497 248
19.61509 197
19.6352 212
19.65531 219
19.67543 248
19.69554 277
19.71565 283
19.73577 257
19.75588 271
19.776 310
19.79611 357
19.81622 314
19.83634 355
19.85645 313
19.87656 340
19.89668 343
19.91679 339
19.93691 385
19.95702 314
19.97713 380
19.99725 351
20.01736 351
20.03747 331
20.05759 326
20.0777 329
20.09782 326
20.11793 326
20.13804 342
20.15816 326
20.17827 342
20.19838 321
20.2185 339
20.23861 349
20.25872 343
20.27884 322
20.29895 357
20.31907 355
20.33918 340
20.35929 340
20.37941 371
20.39952 369
20.41963 368
20.43975 365
20.45986 386
20.47998 420
20.50009 464
20.5202 465
20.54032 461
20.56043 420
20.58054 501
20.60066 554
20.62077 621
20.64088 723
20.661 882
20.68111 1185
20.70123 1609
20.72134 2075
20.74145 2920
20.76157 4118
20.78168 5561
20.80179 7003
20.82191 8088
20.84202 8049
20.86214 7134
20.88225 5761
20.90236 4069
20.92248 2642
20.94259 1646
20.9627 1116
20.98282 833
21.00293 621
21.02305 625
21.04316 577
21.06327 501
21.08339 460
21.1035 452
21.12361 405
21.14373 419
21.16384 378
21.18395 381
21.20407 318
21.22418 346
21.2443 336
21.26441 314
21.28452 322
21.30464 348
21.32475 320
21.34486 319
21.36498 302
21.38509 298
21.40521 287
21.42532 290
21.44543 293
21.46555 296
21.48566 312
21.50577 248
21.52589 279
21.546 256
21.56612 295
21.58623 294
21.60634 253
21.62646 281
21.64657 264
21.66668 279
21.6868 275
21.70691 250
21.72702 259
21.74714 254
21.76725 257
21.78737 238
21.80748 264
21.82759 249
21.84771 268
21.86782 235
21.88793 262
21.90805 270
21.92816 245
21.94828 238
21.96839 265
21.9885 256
22.00862 293
22.02873 260
22.04884 261
22.06896 264
22.08907 224
22.10919 234
22.1293 265
22.14941 251
22.16953 263
22.18964 257
22.20975 267
22.22987 266
22.24998 258
22.27009 228
22.29021 255
22.31032 257
22.33044 249
22.35055 243
22.37066 253
22.39078 217
22.41089 217
22.431 234
22.45112 222
22.47123 244
22.49135 247
22.51146 234
22.53157 208
22.55169 233
22.5718 219
22.59191 245
22.61203 197
22.63214 242
22.65225 264
22.67237 232
22.69248 240
22.7126 241
22.73271 230
22.75282 241
22.77294 220
22.79305 242
22.81316 228
22.83328 223
22.85339 215
22.87351 244
22.89362 220
22.91373 188
22.93385 250
22.95396 231
22.97407 231
22.99419 201
23.0143 217
23.03442 259
23.05453 239
23.07464 246
23.09476 265
23.11487 216
23.13498 253
23.1551 268
23.17521 229
23.19532 226
23.21544 276
23.23555 223
23.25567 251
23.27578 215
23.29589 238
23.31601 215
23.33612 238
23.35623 204
23.37635 226
23.39646 224
23.41658 223
23.43669 228
23.4568 231
23.47692 211
23.49703 224
23.51714 228
23.53726 220
23.55737 237
23.57749 203
23.5976 230
23.61771 213
23.63783 215
23.65794 249
23.67805 244
23.69817 241
23.71828 221
23.73839 233
23.75851 241
23.77862 247
23.79874 258
23.81885 253
23.83896 244
23.85908 272
23.87919 246
23.8993 300
23.91942 305
23.93953 336
23.95965 356
23.97976 370
23.99987 345
24.01999 320
24.0401 256
24.06021 276
24.08033 275
24.10044 256
24.12056 268
24.14067 269
24.16078 266
24.1809 241
24.20101 277
24.22112 249
24.24124 247
24.26135 246
24.28146 222
24.30158 249
24.32169 249
24.34181 282
24.36192 248
24.38203 253
24.40215 225
24.42226 248
24.44237 241
24.46249 223
24.4826 245
24.50272 240
24.52283 252
24.54294 272
24.56306 245
24.58317 248
24.60328 248
24.6234 252
24.64351 267
24.66362 291
24.68374 302
24.70385 253
24.72397 294
24.74408 263
24.76419 288
24.78431 278
24.80442 270
24.82453 295
24.84465 307
24.86476 300
24.88488 285
24.90499 321
24.9251 293
24.94522 283
24.96533 256
24.98544 262
25.00556 277
25.02567 273
25.04579 249
25.0659 300
25.08601 300
25.10613 262
25.12624 266
25.14635 286
25.16647 313
25.18658 298
25.20669 304
25.22681 314
25.24692 317
25.26704 315
25.28715 309
25.30726 313
25.32738 294
25.34749 293
25.3676 279
25.38772 293
25.40783 278
25.42795 274
25.44806 278
25.46817 304
25.48829 329
25.5084 338
25.52851 265
25.54863 328
25.56874 335
25.58886 318
25.60897 358
25.62908 357
25.6492 328
25.66931 397
25.68942 410
25.70954 397
25.72965 448
25.74976 456
25.76988 443
25.78999 466
25.81011 426
25.83022 429
25.85033 470
25.87045 480
25.89056 452
25.91067 501
25.93079 481
25.9509 448
25.97102 489
25.99113 499
26.01124 477
26.03136 543
26.05147 532
26.07158 545
26.0917 544
26.11181 618
26.13193 675
26.15204 704
26.17215 729
26.19227 783
26.21238 860
26.23249 942
26.25261 953
26.27272 1016
26.29283 1181
26.31295 1271
26.33306 1459
26.35318 1669
26.37329 1950
26.3934 2417
26.41352 3027
26.43363 3855
26.45374 5168
26.47386 7167
26.49397 9840
26.51409 13986
26.5342 19138
26.55431 25300
26.57443 31538
26.59454 35733
26.61465 36449
26.63477 32818
26.65488 27257
26.67499 20753
26.69511 15488
26.71522 10271
26.73534 6125
26.75545 3702
26.77556 2384
26.79568 1868
26.81579 1607
26.8359 1410
26.85602 1285
26.87613 1144
26.89625 1053
26.91636 1028
26.93647 1003
26.95659 938
26.9767 845
26.99681 755
27.01693 655
27.03704 686
27.05716 602
27.07727 580
27.09738 538
27.1175 480
27.13761 484
27.15772 480
27.17784 456
27.19795 453
27.21806 450
27.23818 447
27.25829 405
27.27841 418
27.29852 435
27.31863 435
27.33875 414
27.35886 491
27.37897 476
27.39909 488
27.4192 530
27.43932 509
27.45943 468
27.47954 455
27.49966 425
27.51977 419
27.53988 390
27.56 397
27.58011 353
27.60023 355
27.62034 313
27.64045 336
27.66057 328
27.68068 308
27.70079 326
27.72091 334
27.74102 339
27.76113 321
27.78125 349
27.80136 314
27.82148 325
27.84159 321
27.8617 309
27.88182 288
27.90193 293
27.92204 334
27.94216 296
27.96227 308
27.98239 292
28.0025 282
28.02261 269
28.04273 287
28.06284 263
28.08295 327
28.10307 269
28.12318 309
28.1433 280
28.16341 230
28.18352 257
28.20364 282
28.22375 291
28.24386 262
28.26398 263
28.28409 250
28.3042 257
28.32432 305
28.34443 285
28.36455 273
28.38466 256
28.40477 264
28.42489 275
28.445 256
28.46511 266
28.48523 257
28.50534 244
28.52546 253
28.54557 243
28.56568 249
28.5858 250
28.60591 251
28.62602 261
28.64614 236
28.66625 246
28.68636 243
28.70648 242
28.72659 258
28.74671 256
28.76682 260
28.78693 233
28.80705 235
28.82716 241
28.84727 247
28.86739 210
28.8875 238
28.90762 255
28.92773 253
28.94784 236
28.96796 214
28.98807 214
29.00818 266
29.0283 235
29.04841 246
29.06853 238
29.08864 232
29.10875 229
29.12887 235
29.14898 211
29.16909 228
29.18921 224
29.20932 233
29.22943 250
29.24955 249
29.26966 226
29.28978 235
29.30989 250
29.33 242
29.35012 262
29.37023 249
29.39034 231
29.41046 248
29.43057 246
29.45069 265
29.4708 286
29.49091 258
29.51103 222
29.53114 224
29.55125 239
29.57137 229
29.59148 219
29.6116 177
29.63171 237
29.65182 220
29.67194 241
29.69205 199
29.71216 230
29.73228 228
29.75239 216
29.7725 239
29.79262 238
29.81273 220
29.83285 237
29.85296 231
29.87307 221
29.89319 231
29.9133 244
29.93341 235
29.95353 236
29.97364 218
29.99376 243
30.01387 233
30.03398 229
30.0541 212
30.07421 252
30.09432 240
30.11444 235
30.13455 250
30.15467 236
30.17478 280
30.19489 271
30.21501 220
30.23512 251
30.25523 247
30.27535 223
30.29546 229
30.31557 209
30.33569 210
30.3558 237
30.37592 264
30.39603 233
30.41614 227
30.43626 210
30.45637 221
30.47648 227
30.4966 225
30.51671 194
30.53683 228
30.55694 242
30.57705 213
30.59717 218
30.61728 222
30.63739 241
30.65751 230
30.67762 223
30.69773 209
30.71785 245
30.73796 233
30.75808 177
30.77819 223
30.7983 219
30.81842 205
30.83853 235
30.85864 209
30.87876 199
30.89887 206
30.91899 223
30.9391 209
30.95921 206
30.97933 192
30.99944 222
31.01955 189
31.03967 170
31.05978 221
31.0799 162
31.10001 210
31.12012 211
31.14024 179
31.16035 194
31.18046 208
31.20058 225
31.22069 199
31.2408 191
31.26092 200
31.28103 217
31.30115 195
31.32126 211
31.34137 192
31.36149 207
31.3816 207
31.40171 168
31.42183 194
31.44194 187
31.46206 202
31.48217 171
31.50228 208
31.5224 214
31.54251 185
31.56262 196
31.58274 193
31.60285 180
31.62297 197
31.64308 197
31.66319 175
31.68331 214
31.70342 168
31.72353 202
31.74365 203
31.76376 223
31.78387 178
31.80399 180
31.8241 190
31.84422 207
31.86433 195
31.88444 196
31.90456 194
31.92467 190
31.94478 167
31.9649 217
31.98501 170
32.00513 198
32.02524 198
32.04535 184
32.06547 177
32.08558 203
32.10569 185
32.12581 176
32.14592 154
32.16604 195
32.18615 176
32.20626 201
32.22638 187
32.24649 200
32.2666 189
32.28672 191
32.30683 155
32.32694 198
32.34706 187
32.36717 197
32.38729 182
32.4074 208
32.42751 197
32.44763 184
32.46774 222
32.48785 197
32.50797 160
32.52808 199
32.5482 195
32.56831 183
32.58842 185
32.60854 186
32.62865 178
32.64876 209
32.66888 184
32.68899 173
32.7091 162
32.72922 190
32.74933 184
32.76945 207
32.78956 185
32.80967 177
32.82979 190
32.8499 215
32.87001 173
32.89013 194
32.91024 198
32.93036 195
32.95047 185
32.97058 194
32.9907 220
33.01081 169
33.03092 184
33.05104 197
33.07115 205
33.09127 215
33.11138 235
33.13149 202
33.15161 194
33.17172 199
33.19183 223
33.21195 232
33.23206 201
33.25217 194
33.27229 212
33.2924 199
33.31252 194
33.33263 205
33.35274 171
33.37286 202
33.39297 206
33.41308 203
33.4332 187
33.45331 181
33.47343 170
33.49354 182
33.51365 203
33.53377 181
33.55388 192
33.57399 177
33.59411 183
33.61422 175
33.63434 180
33.65445 162
33.67456 188
33.69468 179
33.71479 173
33.7349 176
33.75502 174
33.77513 186
33.79524 177
33.81536 180
33.83547 167
33.85559 183
33.8757 169
33.89581 189
33.91593 175
33.93604 196
33.95615 179
33.97627 143
33.99638 183
34.0165 157
34.03661 179
34.05672 168
34.07684 179
34.09695 166
34.11706 156
34.13718 198
34.15729 192
34.17741 145
34.19752 168
34.21763 168
34.23775 200
34.25786 166
34.27797 158
34.29809 174
34.3182 179
34.33831 156
34.35843 158
34.37854 184
34.39866 168
34.41877 188
34.43888 198
34.459 155
34.47911 173
34.49922 184
34.51934 190
34.53945 172
34.55957 182
34.57968 198
34.59979 192
34.61991 206
34.64002 175
34.66013 220
34.68025 194
34.70036 222
34.72047 194
34.74059 206
34.7607 226
34.78082 227
34.80093 217
34.82104 223
34.84116 197
34.86127 222
34.88138 227
34.9015 258
34.92161 240
34.94173 235
34.96184 242
34.98195 251
35.00207 237
35.02218 234
35.04229 229
35.06241 233
35.08252 240
35.10264 275
35.12275 239
35.14286 233
35.16298 228
35.18309 230
35.2032 199
35.22332 212
35.24343 226
35.26354 211
35.28366 232
35.30377 229
35.32389 195
35.344 262
35.36411 235
35.38423 264
35.40434 269
35.42445 242
35.44457 276
35.46468 278
35.4848 298
35.50491 271
35.52502 306
35.54514 289
35.56525 298
35.58536 287
35.60548 255
35.62559 282
35.64571 296
35.66582 244
35.68593 264
35.70605 280
35.72616 276
35.74627 215
35.76639 236
35.7865 235
35.80661 244
35.82673 239
35.84684 232
35.86696 252
35.88707 231
35.90718 218
35.9273 265
35.94741 257
35.96752 237
35.98764 230
36.00775 256
36.02787 258
36.04798 251
36.06809 260
36.08821 249
36.10832 250
36.12843 259
36.14855 308
36.16866 264
36.18878 275
36.20889 313
36.229 324
36.24912 360
36.26923 360
36.28934 413
36.30946 499
36.32957 535
36.34968 636
36.3698 840
36.38991 976
36.41003 1249
36.43014 1546
36.45025 1914
36.47037 2223
36.49048 2462
36.51059 2558
36.53071 2392
36.55082 1981
36.57094 1631
36.59105 1435
36.61116 1185
36.63128 1015
36.65139 787
36.6715 475
36.69162 371
36.71173 338
36.73184 310
36.75196 289
36.77207 249
36.79219 239
36.8123 254
36.83241 250
36.85253 245
36.87264 232
36.89275 224
36.91287 274
36.93298 237
36.9531 256
36.97321 231
36.99332 244
37.01344 238
37.03355 222
37.05366 215
37.07378 204
37.09389 212
37.11401 213
37.13412 187
37.15423 208
37.17435 205
37.19446 194
37.21457 206
37.23469 200
37.2548 207
37.27491 203
37.29503 183
37.31514 183
37.33526 176
37.35537 204
37.37548 198
37.3956 197
37.41571 208
37.43582 178
37.45594 210
37.47605 199
37.49617 190
37.51628 191
37.53639 201
37.55651 184
37.57662 208
37.59673 226
37.61685 193
37.63696 194
37.65708 201
37.67719 237
37.6973 187
37.71742 202
37.73753 226
37.75764 213
37.77776 218
37.79787 169
37.81798 206
37.8381 210
37.85821 210
37.87833 187
37.89844 177
37.91855 212
37.93867 229
37.95878 199
37.97889 202
37.99901 217
38.01912 207
38.03924 203
38.05935 202
38.07946 207
38.09958 226
38.11969 201
38.1398 234
38.15992 185
38.18003 230
38.20015 212
38.22026 198
38.24037 201
38.26049 226
38.2806 224
38.30071 224
38.32083 210
38.34094 212
38.36105 210
38.38117 212
38.40128 220
38.4214 228
38.44151 226
38.46162 229
38.48174 223
38.50185 209
38.52196 215
38.54208 247
38.56219 214
38.58231 214
38.60242 231
38.62253 213
38.64265 198
38.66276 218
38.68287 227
38.70299 230
38.7231 233
38.74321 209
38.76333 194
38.78344 181
38.80356 237
38.82367 237
38.84378 231
38.8639 212
38.88401 218
38.90412 232
38.92424 212
38.94435 222
38.96447 191
38.98458 225
39.00469 229
39.02481 233
39.04492 275
39.06503 281
39.08515 267
39.10526 259
39.12538 280
39.14549 259
39.1656 322
39.18572 341
39.20583 420
39.22594 425
39.24606 530
39.26617 606
39.28628 709
39.3064 911
39.32651 1147
39.34663 1393
39.36674 1677
39.38685 2018
39.40697 2236
39.42708 2468
39.44719 2211
39.46731 1975
39.48742 1580
39.50754 1387
39.52765 1213
39.54776 1047
39.56788 777
39.58799 598
39.6081 431
39.62822 330
39.64833 316
39.66845 264
39.68856 267
39.70867 262
39.72879 242
39.7489 254
39.76901 234
39.78913 213
39.80924 227
39.82935 237
39.84947 219
39.86958 243
39.8897 194
39.90981 234
39.92992 250
39.95004 237
39.97015 246
39.99026 278
40.01038 258
40.03049 293
40.05061 313
40.07072 362
40.09083 424
40.11095 449
40.13106 551
40.15117 633
40.17129 780
40.1914 913
40.21152 1092
40.23163 1257
40.25174 1191
40.27186 1148
40.29197 948
40.31208 793
40.3322 761
40.35231 694
40.37242 558
40.39254 519
40.41265 388
40.43277 272
40.45288 296
40.47299 241
40.49311 229
40.51322 210
40.53333 260
40.55345 206
40.57356 238
40.59368 213
40.61379 217
40.6339 222
40.65402 200
40.67413 173
40.69424 210
40.71436 208
40.73447 206
40.75458 211
40.7747 211
40.79481 193
40.81493 228
40.83504 180
40.85515 208
40.87527 171
40.89538 205
40.91549 204
40.93561 216
40.95572 191
40.97584 200
40.99595 203
41.01606 189
41.03618 194
41.05629 203
41.0764 202
41.09652 200
41.11663 191
41.13675 226
41.15686 208
41.17697 207
41.19709 185
41.2172 197
41.23731 199
41.25743 197
41.27754 183
41.29765 231
41.31777 204
41.33788 165
41.358 184
41.37811 187
41.39822 172
41.41834 201
41.43845 198
41.45856 183
41.47868 165
41.49879 204
41.51891 178
41.53902 191
41.55913 182
41.57925 190
41.59936 193
41.61947 180
41.63959 188
41.6597 206
41.67982 196
41.69993 197
41.72004 193
41.74016 193
41.76027 209
41.78038 177
41.8005 200
41.82061 204
41.84072 184
41.86084 213
41.88095 199
41.90107 181
41.92118 212
41.94129 218
41.96141 177
41.98152 207
42.00163 206
42.02175 217
42.04186 199
42.06198 215
42.08209 220
42.1022 234
42.12232 250
42.14243 280
42.16254 314
42.18266 343
42.20277 339
42.22289 430
42.243 549
42.26311 571
42.28323 687
42.30334 824
42.32345 1071
42.34357 1208
42.36368 1473
42.38379 1566
42.40391 1641
42.42402 1551
42.44414 1379
42.46425 1247
42.48436 1022
42.50448 961
42.52459 894
42.5447 737
42.56482 595
42.58493 430
42.60505 297
42.62516 246
42.64527 245
42.66539 241
42.6855 208
42.70561 185
42.72573 220
42.74584 200
42.76595 202
42.78607 205
42.80618 191
42.8263 186
42.84641 190
42.86652 200
42.88664 152
42.90675 176
42.92686 180
42.94698 185
42.96709 193
42.98721 191
43.00732 177
43.02743 194
43.04755 185
43.06766 171
43.08777 179
43.10789 172
43.128 164
43.14812 167
43.16823 177
43.18834 187
43.20846 158
43.22857 172
43.24868 165
43.2688 176
43.28891 159
43.30902 143
43.32914 159
43.34925 184
43.36937 159
43.38948 161
43.40959 172
43.42971 191
43.44982 152
43.46993 156
43.49005 160
43.51016 144
43.53028 168
43.55039 200
43.5705 174
43.59062 187
43.61073 168
43.63084 163
43.65096 183
43.67107 165
43.69119 177
43.7113 193
43.73141 182
43.75153 185
43.77164 167
43.79175 184
43.81187 166
43.83198 155
43.85209 171
43.87221 179
43.89232 172
43.91244 175
43.93255 145
43.95266 162
43.97278 160
43.99289 144
44.013 162
44.03312 175
44.05323 168
44.07335 153
44.09346 137
44.11357 146
44.13369 166
44.1538 178
44.17391 163
44.19403 179
44.21414 171
44.23426 153
44.25437 166
44.27448 170
44.2946 153
44.31471 171
44.33482 162
44.35494 152
44.37505 175
44.39516 161
44.41528 166
44.43539 162
44.45551 171
44.47562 166
44.49573 170
44.51585 179
44.53596 152
44.55607 180
44.57619 198
44.5963 166
44.61642 172
44.63653 166
44.65664 139
44.67676 171
44.69687 155
44.71698 160
44.7371 172
44.75721 165
44.77732 181
44.79744 153
44.81755 164
44.83767 165
44.85778 160
44.87789 161
44.89801 160
44.91812 207
44.93823 166
44.95835 174
44.97846 164
44.99858 167
45.01869 178
45.0388 144
45.05892 170
45.07903 185
45.09914 168
45.11926 187
45.13937 176
45.15949 166
45.1796 172
45.19971 171
45.21983 183
45.23994 152
45.26005 167
45.28017 178
45.30028 170
45.32039 179
45.34051 198
45.36062 193
45.38074 206
45.40085 183
45.42096 193
45.44108 220
45.46119 227
45.4813 249
45.50142 240
45.52153 273
45.54165 300
45.56176 330
45.58187 407
45.60199 430
45.6221 511
45.64221 569
45.66233 698
45.68244 833
45.70256 952
45.72267 1104
45.74278 1111
45.7629 1109
45.78301 910
45.80312 853
45.82324 700
45.84335 684
45.86346 611
45.88358 611
45.90369 482
45.92381 391
45.94392 272
45.96403 245
45.98415 222
46.00426 201
46.02437 183
46.04449 194
46.0646 188
46.08472 194
46.10483 179
46.12494 189
46.14506 172
46.16517 153
46.18528 179
46.2054 179
46.22551 167
46.24563 175
46.26574 180
46.28585 156
46.30597 170
46.32608 166
46.34619 166
46.36631 168
46.38642 157
46.40653 166
46.42665 181
46.44676 161
46.46688 154
46.48699 160
46.5071 147
46.52722 168
46.54733 168
46.56744 143
46.58756 158
46.60767 152
46.62779 159
46.6479 171
46.66801 161
46.68813 148
46.70824 149
46.72835 151
46.74847 157
46.76858 168
46.78869 157
46.80881 143
46.82892 161
46.84904 158
46.86915 157
46.88926 151
46.90938 143
46.92949 177
46.9496 177
46.96972 153
46.98983 149
47.00995 161
47.03006 155
47.05017 168
47.07029 164
47.0904 150
47.11051 170
47.13063 157
47.15074 163
47.17086 158
47.19097 164
47.21108 152
47.2312 156
47.25131 163
47.27142 177
47.29154 166
47.31165 167
47.33176 158
47.35188 155
47.37199 146
47.39211 164
47.41222 138
47.43233 147
47.45245 164
47.47256 133
47.49267 150
47.51279 161
47.5329 167
47.55302 183
47.57313 143
47.59324 155
47.61336 157
47.63347 159
47.65358 160
47.6737 163
47.69381 143
47.71393 156
47.73404 140
47.75415 180
47.77427 175
47.79438 168
47.81449 163
47.83461 143
47.85472 144
47.87483 145
47.89495 167
47.91506 198
47.93518 143
47.95529 172
47.9754 187
47.99552 161
48.01563 183
48.03574 164
48.05586 169
48.07597 168
48.09609 163
48.1162 174
48.13631 163
48.15643 176
48.17654 143
48.19665 181
48.21677 145
48.23688 166
48.257 155
48.27711 162
48.29722 175
48.31734 166
48.33745 157
48.35756 163
48.37768 170
48.39779 181
48.4179 168
48.43802 168
48.45813 158
48.47825 167
48.49836 177
48.51847 183
48.53859 165
48.5587 162
48.57881 157
48.59893 170
48.61904 168
48.63916 159
48.65927 157
48.67938 159
48.6995 168
48.71961 161
48.73972 142
48.75984 169
48.77995 166
48.80006 152
48.82018 166
48.84029 157
48.86041 162
48.88052 162
48.90063 193
48.92075 204
48.94086 161
48.96097 179
48.98109 166
49.0012 164
49.02132 172
49.04143 180
49.06154 178
49.08166 158
49.10177 160
49.12188 190
49.142 161
49.16211 201
49.18223 163
49.20234 183
49.22245 196
49.24257 167
49.26268 175
49.28279 184
49.30291 163
49.32302 199
49.34313 192
49.36325 189
49.38336 174
49.40348 187
49.42359 175
49.4437 201
49.46382 197
49.48393 205
49.50404 201
49.52416 214
49.54427 242
49.56439 210
49.5845 208
49.60461 218
49.62473 238
49.64484 245
49.66495 268
49.68507 257
49.70518 297
49.7253 279
49.74541 308
49.76552 362
49.78564 367
49.80575 416
49.82586 451
49.84598 500
49.86609 578
49.8862 701
49.90632 783
49.92643 942
49.94655 1139
49.96666 1357
49.98677 1768
50.00689 2129
50.027 2621
50.04711 3065
50.06723 3358
50.08734 3632
50.10746 3558
50.12757 3069
50.14768 2487
50.1678 2092
50.18791 2069
50.20802 1976
50.22814 1771
50.24825 1593
50.26837 1208
50.28848 848
50.30859 579
50.32871 459
50.34882 359
50.36893 322
50.38905 304
50.40916 298
50.42927 299
50.44939 295
50.4695 308
50.48962 272
50.50973 270
50.52984 298
50.54996 272
50.57007 267
50.59018 286
50.6103 269
50.63041 257
50.65053 234
50.67064 239
50.69075 205
50.71087 217
50.73098 201
50.75109 206
50.77121 212
50.79132 174
50.81143 189
50.83155 173
50.85166 173
50.87178 194
50.89189 216
50.912 199
50.93212 184
50.95223 165
50.97234 153
50.99246 161
51.01257 169
51.03269 162
51.0528 170
51.07291 182
51.09303 150
51.11314 194
51.13325 178
51.15337 132
51.17348 146
51.1936 153
51.21371 161
51.23382 125
51.25394 158
51.27405 142
51.29416 164
51.31428 162
51.33439 155
51.3545 146
51.37462 152
51.39473 171
51.41485 151
51.43496 134
51.45507 169
51.47519 160
51.4953 177
51.51541 142
51.53553 160
51.55564 163
51.57576 145
51.59587 139
51.61598 140
51.6361 141
51.65621 159
51.67632 122
51.69644 148
51.71655 151
51.73667 154
51.75678 137
51.77689 155
51.79701 145
51.81712 138
51.83723 140
51.85735 135
51.87746 155
51.89757 138
51.91769 142
51.9378 167
51.95792 164
51.97803 160
51.99814 175
52.01826 153
52.03837 151
52.05848 166
52.0786 149
52.09871 153
52.11883 155
52.13894 150
52.15905 130
52.17917 160
52.19928 138
52.21939 159
52.23951 140
52.25962 144
52.27974 142
52.29985 146
52.31996 146
52.34008 132
52.36019 151
52.3803 160
52.40042 159
52.42053 152
52.44064 150
52.46076 147
52.48087 136
52.50099 152
52.5211 148
52.54121 179
52.56133 158
52.58144 159
52.60155 163
52.62167 145
52.64178 172
52.6619 139
52.68201 128
52.70212 154
52.72224 138
52.74235 138
52.76246 151
52.78258 141
52.80269 160
52.8228 160
52.84292 145
52.86303 153
52.88315 136
52.90326 171
52.92337 148
52.94349 160
52.9636 152
52.98371 148
53.00383 149
53.02394 171
53.04406 139
53.06417 162
53.08428 139
53.1044 160
53.12451 162
53.14462 169
53.16474 142
53.18485 166
53.20497 167
53.22508 166
53.24519 148
53.26531 179
53.28542 174
53.30553 206
53.32565 194
53.34576 184
53.36587 165
53.38599 170
53.4061 197
53.42622 180
53.44633 156
53.46644 178
53.48656 186
53.50667 182
53.52678 182
53.5469 158
53.56701 165
53.58713 182
53.60724 189
53.62735 183
53.64747 172
53.66758 151
53.68769 174
53.70781 180
53.72792 194
53.74804 184
53.76815 180
53.78826 162
53.80838 183
53.82849 166
53.8486 175
53.86872 168
53.88883 190
53.90894 180
53.92906 181
53.94917 172
53.96929 217
53.9894 183
54.00951 190
54.02963 186
54.04974 185
54.06985 195
54.08997 186
54.11008 185
54.1302 190
54.15031 201
54.17042 189
54.19054 209
54.21065 193
54.23076 198
54.25088 201
54.27099 210
54.29111 201
54.31122 207
54.33133 214
54.35145 207
54.37156 191
54.39167 212
54.41179 199
54.4319 227
54.45201 200
54.47213 214
54.49224 240
54.51236 250
54.53247 236
54.55258 258
54.5727 257
54.59281 286
54.61292 320
54.63304 356
54.65315 423
54.67327 426
54.69338 543
54.71349 630
54.73361 722
54.75372 807
54.77383 912
54.79395 1001
54.81406 1063
54.83417 1081
54.85429 988
54.8744 822
54.89452 751
54.91463 673
54.93474 695
54.95486 666
54.97497 662
54.99508 575
55.0152 488
55.03531 404
55.05543 368
55.07554 356
55.09565 328
55.11577 331
55.13588 345
55.15599 365
55.17611 433
55.19622 457
55.21634 505
55.23645 508
55.25656 563
55.27668 549
55.29679 549
55.3169 481
55.33702 423
55.35713 393
55.37724 382
55.39736 382
55.41747 409
55.43759 339
55.4577 337
55.47781 286
55.49793 276
55.51804 214
55.53815 208
55.55827 209
55.57838 201
55.5985 182
55.61861 184
55.63872 211
55.65884 192
55.67895 198
55.69906 169
55.71918 163
55.73929 168
55.75941 166
55.77952 186
55.79963 171
55.81975 164
55.83986 158
55.85997 151
55.88009 168
55.9002 164
55.92031 152
55.94043 154
55.96054 158
55.98066 160
56.00077 149
56.02088 178
56.041 169
56.06111 161
56.08122 160
56.10134 138
56.12145 163
56.14157 161
56.16168 166
56.18179 155
56.20191 136
56.22202 158
56.24213 159
56.26225 138
56.28236 170
56.30248 135
56.32259 156
56.3427 165
56.36282 146
56.38293 142
56.40304 146
56.42316 157
56.44327 168
56.46338 156
56.4835 156
56.50361 162
56.52373 154
56.54384 152
56.56395 143
56.58407 149
56.60418 156
56.62429 159
56.64441 133
56.66452 149
56.68464 141
56.70475 134
56.72486 156
56.74498 149
56.76509 176
56.7852 174
56.80532 167
56.82543 160
56.84554 171
56.86566 160
56.88577 157
56.90589 165
56.926 151
56.94611 141
56.96623 164
56.98634 145
57.00645 151
57.02657 154
57.04668 186
57.0668 195
57.08691 164
57.10702 204
57.12714 216
57.14725 188
57.16736 201
57.18748 180
57.20759 209
57.22771 189
57.24782 166
57.26793 151
57.28805 186
57.30816 183
57.32827 160
57.34839 155
57.3685 160
57.38861 167
57.40873 165
57.42884 148
57.44896 130
57.46907 150
57.48918 134
57.5093 152
57.52941 152
57.54952 165
57.56964 155
57.58975 147
57.60987 149
57.62998 163
57.65009 129
57.67021 147
57.69032 156
57.71043 134
57.73055 159
57.75066 162
57.77078 146
57.79089 131
57.811 124
57.83112 129
57.85123 138
57.87134 149
57.89146 155
57.91157 144
57.93168 178
57.9518 173
57.97191 163
57.99203 154
58.01214 134
58.03225 145
58.05237 140
58.07248 145
58.09259 150
58.11271 147
58.13282 154
58.15294 127
58.17305 146
58.19316 160
58.21328 150
58.23339 157
58.2535 159
58.27362 134
58.29373 129
58.31385 167
58.33396 145
58.35407 128
58.37419 163
58.3943 141
58.41441 160
58.43453 136
58.45464 167
58.47475 148
58.49487 123
58.51498 186
58.5351 154
58.55521 176
58.57532 140
58.59544 165
58.61555 143
58.63566 174
58.65578 166
58.67589 160
58.69601 154
58.71612 143
58.73623 154
58.75635 167
58.77646 149
58.79657 182
58.81669 122
58.8368 153
58.85691 154
58.87703 155
58.89714 146
58.91726 146
58.93737 163
58.95748 166
58.9776 143
58.99771 132
59.01782 153
59.03794 164
59.05805 140
59.07817 147
59.09828 160
59.11839 174
59.13851 168
59.15862 186
59.17873 169
59.19885 147
59.21896 170
59.23908 184
59.25919 169
59.2793 174
59.29942 179
59.31953 185
59.33964 188
59.35976 198
59.37987 177
59.39998 182
59.4201 191
59.44021 218
59.46033 204
59.48044 226
59.50055 237
59.52067 267
59.54078 262
59.56089 292
59.58101 290
59.60112 314
59.62124 354
59.64135 439
59.66146 442
59.68158 469
59.70169 598
59.7218 663
59.74192 796
59.76203 925
59.78215 1095
59.80226 1292
59.82237 1487
59.84249 1862
59.8626 2110
59.88271 2099
59.90283 2199
59.92294 2074
59.94305 1843
59.96317 1472
59.98328 1261
60.0034 1248
60.02351 1163
60.04362 1171
60.06374 1151
60.08385 1052
60.10396 873
60.12408 675
60.14419 529
60.16431 384
60.18442 339
60.20453 292
60.22465 286
60.24476 251
60.26487 225
60.28499 221
60.3051 203
60.32522 202
60.34533 202
60.36544 186
60.38556 195
60.40567 173
60.42578 171
60.4459 159
60.46601 162
60.48612 183
60.50624 146
60.52635 166
60.54647 158
60.56658 177
60.58669 159
60.60681 163
60.62692 163
60.64703 181
60.66715 186
60.68726 145
60.70738 150
60.72749 160
60.7476 147
60.76772 159
60.78783 161
60.80794 162
60.82806 182
60.84817 161
60.86828 149
60.8884 180
60.90851 153
60.92863 176
60.94874 163
60.96885 156
60.98897 137
61.00908 147
61.02919 159
61.04931 138
61.06942 182
61.08954 154
61.10965 160
61.12976 155
61.14988 146
61.16999 141
61.1901 167
61.21022 146
61.23033 142
61.25045 152
61.27056 141
61.29067 149
61.31079 152
61.3309 163
61.35101 138
61.37113 139
61.39124 158
61.41135 157
61.43147 132
61.45158 151
61.4717 160
61.49181 159
61.51192 167
61.53204 162
61.55215 147
61.57226 148
61.59238 137
61.61249 156
61.63261 166
61.65272 172
61.67283 169
61.69295 145
61.71306 153
61.73317 152
61.75329 153
61.7734 150
61.79352 154
61.81363 167
61.83374 167
61.85386 144
61.87397 168
61.89408 154
61.9142 153
61.93431 164
61.95442 169
61.97454 183
61.99465 177
62.01477 198
62.03488 177
62.05499 186
62.07511 183
62.09522 188
62.11533 186
62.13545 193
62.15556 211
62.17568 189
62.19579 166
62.2159 205
62.23602 179
62.25613 187
62.27624 161
62.29636 182
62.31647 168
62.33659 175
62.3567 172
62.37681 163
62.39693 189
62.41704 183
62.43715 155
62.45727 159
62.47738 154
62.49749 177
62.51761 177
62.53772 161
62.55784 145
62.57795 166
62.59806 156
62.61818 144
62.63829 161
62.6584 161
62.67852 174
62.69863 147
62.71875 160
62.73886 156
62.75897 173
62.77909 157
62.7992 157
62.81931 187
62.83943 149
62.85954 173
62.87965 144
62.89977 168
62.91988 121
62.94 164
62.96011 155
62.98022 137
63.00034 157
63.02045 135
63.04056 143
63.06068 143
63.08079 155
63.10091 132
63.12102 138
63.14113 160
63.16125 152
63.18136 167
63.20147 153
63.22159 142
63.2417 143
63.26182 142
63.28193 141
63.30204 147
63.32216 167
63.34227 152
63.36238 162
63.3825 152
63.40261 156
63.42272 159
63.44284 159
63.46295 139
63.48307 166
63.50318 151
63.52329 161
63.54341 157
63.56352 167
63.58363 156
63.60375 179
63.62386 159
63.64398 154
63.66409 185
63.6842 182
63.70432 193
63.72443 196
63.74454 216
63.76466 239
63.78477 228
63.80489 275
63.825 286
63.84511 289
63.86523 342
63.88534 383
63.90545 386
63.92557 432
63.94568 485
63.96579 509
63.98591 551
64.00602 480
64.02614 448
64.04625 368
64.06636 313
64.08648 330
64.10659 331
64.1267 347
64.14682 330
64.16693 324
64.18705 305
64.20716 233
64.22727 218
64.24739 194
64.2675 157
64.28761 163
64.30773 161
64.32784 176
64.34796 134
64.36807 164
64.38818 147
64.4083 149
64.42841 169
64.44852 162
64.46864 158
64.48875 157
64.50886 138
64.52898 133
64.54909 146
64.56921 135
64.58932 133
64.60943 133
64.62955 155
64.64966 142
64.66977 141
64.68989 118
64.71 127
64.73012 133
64.75023 123
64.77034 124
64.79046 138
64.81057 158
64.83068 126
64.8508 145
64.87091 129
64.89102 125
64.91114 129
64.93125 120
64.95137 123
64.97148 130
64.99159 138
65.01171 164
65.03182 138
65.05193 142
65.07205 166
65.09216 145
65.11228 156
65.13239 147
65.1525 141
65.17262 146
65.19273 126
65.21284 132
65.23296 162
65.25307 139
65.27319 162
65.2933 157
65.31341 154
65.33353 157
65.35364 150
65.37375 140
65.39387 159
65.41398 169
65.43409 165
65.45421 133
65.47432 159
65.49444 164
65.51455 162
65.53466 180
65.55478 176
65.57489 180
65.595 171
65.61512 182
65.63523 198
65.65535 215
65.67546 221
65.69557 237
65.71569 231
65.7358 221
65.75591 234
65.77603 180
65.79614 203
65.81626 198
65.83637 187
65.85648 170
65.8766 193
65.89671 202
65.91682 190
65.93694 168
65.95705 185
65.97716 165
65.99728 146
66.01739 139
66.03751 143
66.05762 161
66.07773 157
66.09785 161
66.11796 119
66.13807 172
66.15819 143
66.1783 150
66.19842 147
66.21853 133
66.23864 164
66.25876 157
66.27887 148
66.29898 142
66.3191 168
66.33921 149
66.35933 140
66.37944 156
66.39955 142
66.41967 162
66.43978 161
66.45989 150
66.48001 160
66.50012 170
66.52023 153
66.54035 139
66.56046 145
66.58058 158
66.60069 150
66.6208 144
66.64092 144
66.66103 141
66.68114 144
66.70126 131
66.72137 148
66.74149 163
66.7616 147
66.78171 161
66.80183 159
66.82194 147
66.84205 153
66.86217 142
66.88228 161
66.90239 158
66.92251 177
66.94262 157
66.96274 168
66.98285 162
67.00296 164
67.02308 148
67.04319 185
67.0633 155
67.08342 147
67.10353 164
67.12365 162
67.14376 169
67.16387 171
67.18399 180
67.2041 190
67.22421 162
67.24433 210
67.26444 185
67.28456 181
67.30467 227
67.32478 244
67.3449 235
67.36501 276
67.38512 288
67.40524 309
67.42535 326
67.44546 345
67.46558 364
67.48569 433
67.50581 489
67.52592 540
67.54603 607
67.56615 761
67.58626 862
67.60637 961
67.62649 1093
67.6466 1209
67.66672 1242
67.68683 1355
67.70694 1258
67.72706 1124
67.74717 1006
67.76728 904
67.7874 854
67.80751 840
67.82763 888
67.84774 977
67.86785 960
67.88797 1027
67.90808 1043
67.92819 987
67.94831 951
67.96842 1099
67.98853 1171
68.00865 1278
68.02876 1480
68.04888 1528
68.06899 1745
68.0891 1780
68.10922 1744
68.12933 1623
68.14944 1479
68.16956 1402
68.18967 1436
68.20979 1495
68.2299 1524
68.25001 1542
68.27013 1516
68.29024 1449
68.31035 1250
68.33047 1061
68.35058 841
68.3707 694
68.39081 626
68.41092 618
68.43104 610
68.45115 568
68.47126 551
68.49138 445
68.51149 422
68.5316 293
68.55172 260
68.57183 247
68.59195 253
68.61206 213
68.63217 183
68.65229 200
68.6724 185
68.69251 204
68.71263 197
68.73274 183
68.75286 181
68.77297 175
68.79308 165
68.8132 202
68.83331 165
68.85342 168
68.87354 151
68.89365 169
68.91376 154
68.93388 143
68.95399 153
68.97411 158
68.99422 143
69.01433 153
69.03445 162
69.05456 155
69.07467 150
69.09479 168
69.1149 160
69.13502 143
69.15513 170
69.17524 153
69.19536 138
69.21547 145
69.23558 143
69.2557 171
69.27581 136
69.29593 155
69.31604 147
69.33615 144
69.35627 162
69.37638 138
69.39649 139
69.41661 143
69.43672 133
69.45683 143
69.47695 147
69.49706 146
69.51718 146
69.53729 166
69.5574 156
69.57752 158
69.59763 151
69.61774 133
69.63786 148
69.65797 123
69.67809 125
69.6982 135
69.71831 138
69.73843 152
69.75854 138
69.77865 122
69.79877 143
69.81888 146
69.839 149
69.85911 143
69.87922 144
69.89934 139
69.91945 124
69.93956 143
69.95968 134
69.97979 137
69.9999 135
70.02002 132
70.04013 148
70.06025 131
70.08036 142
70.10047 126
70.12059 141
70.1407 133
70.16081 132
70.18093 137
70.20104 129
70.22116 121
70.24127 131
70.26138 142
70.2815 119
70.30161 133
70.32172 135
70.34184 124
70.36195 128
70.38207 131
70.40218 121
70.42229 133
70.44241 127
70.46252 134
70.48263 152
70.50275 129
70.52286 126
70.54297 123
70.56309 129
70.5832 135
70.60332 131
70.62343 141
70.64354 136
70.66366 119
70.68377 122
70.70388 125
70.724 122
70.74411 141
70.76423 147
70.78434 160
70.80445 121
70.82457 138
70.84468 118
70.86479 144
70.88491 141
70.90502 118
70.92513 145
70.94525 127
70.96536 118
70.98548 125
71.00559 119
71.0257 121
71.04582 140
71.06593 125
71.08604 132
71.10616 154
71.12627 148
71.14639 131
71.1665 130
71.18661 129
71.20673 127
71.22684 131
71.24695 129
71.26707 133
71.28718 128
71.3073 120
71.32741 133
71.34752 127
71.36764 125
71.38775 124
71.40786 118
71.42798 142
71.44809 123
71.4682 126
71.48832 118
71.50843 144
71.52855 114
71.54866 132
71.56877 121
71.58889 118
71.609 132
71.62911 137
71.64923 134
71.66934 139
71.68946 140
71.70957 120
71.72968 133
71.7498 112
71.76991 133
71.79002 124
71.81014 140
71.83025 137
71.85037 119
71.87048 130
71.89059 128
71.91071 129
71.93082 129
71.95093 133
71.97105 146
71.99116 113
72.01127 147
72.03139 148
72.0515 127
72.07162 136
72.09173 132
72.11184 133
72.13196 145
72.15207 129
72.17218 160
72.1923 136
72.21241 115
72.23253 140
72.25264 125
72.27275 116
72.29287 134
72.31298 137
72.33309 146
72.35321 139
72.37332 125
72.39344 140
72.41355 121
72.43366 128
72.45378 141
72.47389 123
72.494 147
72.51412 144
72.53423 143
72.55434 128
72.57446 139
72.59457 120
72.61469 133
72.6348 135
72.65491 125
72.67503 139
72.69514 128
72.71525 116
72.73537 130
72.75548 119
72.7756 130
72.79571 143
72.81582 133
72.83594 127
72.85605 131
72.87616 138
72.89628 131
72.91639 153
72.9365 151
72.95662 150
72.97673 145
72.99685 140
73.01696 155
73.03707 164
73.05719 178
73.0773 156
73.09741 161
73.11753 176
73.13764 182
73.15776 203
73.17787 196
73.19798 239
73.2181 245
73.23821 270
73.25832 299
73.27844 348
73.29855 353
73.31867 405
73.33878 462
73.35889 449
73.37901 473
73.39912 528
73.41923 477
73.43935 496
73.45946 408
73.47957 365
73.49969 345
73.5198 313
73.53992 271
73.56003 278
73.58014 350
73.60026 353
73.62037 313
73.64048 301
73.6606 284
73.68071 255
73.70083 219
73.72094 208
73.74105 169
73.76117 164
73.78128 155
73.80139 156
73.82151 147
73.84162 137
73.86174 136
73.88185 154
73.90196 138
73.92208 137
73.94219 136
73.9623 132
73.98242 123
74.00253 125
74.02264 128
74.04276 136
74.06287 154
74.08299 143
74.1031 136
74.12321 152
74.14333 145
74.16344 121
74.18355 137
74.20367 129
74.22378 123
74.2439 137
74.26401 147
74.28412 141
74.30424 144
74.32435 130
74.34446 123
74.36458 126
74.38469 114
74.40481 127
74.42492 135
74.44503 154
74.46515 142
74.48526 125
74.50537 125
74.52549 143
74.5456 154
74.56571 134
74.58583 158
74.60594 131
74.62606 145
74.64617 156
74.66628 145
74.6864 138
74.70651 144
74.72662 127
74.74674 125
74.76685 127
74.78697 136
74.80708 166
74.82719 122
74.84731 121
74.86742 141
74.88753 147
74.90765 149
74.92776 135
74.94787 138
74.96799 123
74.9881 150
75.00822 145
