3.00117 20957
3.02128 20052
3.0414 19817
3.06151 19285
3.08162 18904
3.10174 18370
3.12185 17552
3.14197 17128
3.16208 16523
3.18219 15917
3.20231 15741
3.22242 14987
3.24253 14946
3.26265 14288
3.28276 13517
3.30288 13344
3.32299 13099
3.3431 12747
3.36322 11960
3.38333 11455
3.40344 11347
3.42356 10882
3.44367 10996
3.46379 10191
3.4839 9808
3.50401 9461
3.52413 8941
3.54424 8930
3.56435 8684
3.58447 8363
3.60458 8078
3.62469 7588
3.64481 7388
3.66492 6916
3.68504 6704
3.70515 6618
3.72526 6095
3.74538 6192
3.76549 5711
3.7856 5370
3.80572 5277
3.82583 5128
3.84595 4922
3.86606 4520
3.88617 4350
3.90629 4215
3.9264 3960
3.94651 3979
3.96663 3710
3.98674 3432
4.00686 3415
4.02697 3120
4.04708 3138
4.0672 2830
4.08731 2720
4.10742 2634
4.12754 2514
4.14765 2426
4.16776 2212
4.18788 2082
4.20799 2192
4.22811 2049
4.24822 1909
4.26833 1856
4.28845 1758
4.30856 1761
4.32867 1727
4.34879 1573
4.3689 1543
4.38902 1474
4.40913 1470
4.42924 1453
4.44936 1290
4.46947 1276
4.48958 1335
4.5097 1279
4.52981 1246
4.54992 1140
4.57004 1115
4.59015 1096
4.61027 1021
4.63038 1123
4.65049 984
4.67061 1011
4.69072 932
4.71083 941
4.73095 1047
4.75106 885
4.77118 849
4.79129 887
4.8114 824
4.83152 853
4.85163 725
4.87174 734
4.89186 801
4.91197 774
4.93209 808
4.9522 684
4.97231 676
4.99243 669
5.01254 669
5.03265 653
5.05277 591
5.07288 584
5.09299 646
5.11311 554
5.13322 578
5.15334 495
5.17345 537
5.19356 494
5.21368 490
5.23379 492
5.2539 453
5.27402 483
5.29413 456
5.31425 452
5.33436 486
5.35447 437
5.37459 408
5.3947 399
5.41481 406
5.43493 413
5.45504 390
5.47516 351
5.49527 359
5.51538 373
5.5355 366
5.55561 306
5.57572 334
5.59584 339
5.61595 332
5.63606 314
5.65618 302
5.67629 264
5.69641 313
5.71652 284
5.73663 272
5.75675 284
5.77686 258
5.79697 241
5.81709 275
5.8372 255
5.85732 252
5.87743 219
5.89754 241
5.91766 219
5.93777 241
5.95788 212
5.978 214
5.99811 216
6.01823 201
6.03834 201
6.05845 235
6.07857 218
6.09868 239
6.11879 194
6.13891 199
6.15902 213
6.17913 216
6.19925 184
6.21936 194
6.23948 200
6.25959 210
6.2797 185
6.29982 205
6.31993 184
6.34004 175
6.36016 204
6.38027 178
6.40039 204
6.4205 177
6.44061 204
6.46073 170
6.48084 163
6.50095 170
6.52107 153
6.54118 198
6.56129 188
6.58141 182
6.60152 146
6.62164 168
6.64175 164
6.66186 170
6.68198 185
6.70209 204
6.7222 156
6.74232 160
6.76243 181
6.78255 166
6.80266 178
6.82277 161
6.84289 171
6.863 158
6.88311 176
6.90323 169
6.92334 169
6.94346 162
6.96357 171
6.98368 185
7.0038 183
7.02391 168
7.04402 173
7.06414 199
7.08425 172
7.10436 167
7.12448 206
7.14459 170
7.16471 158
7.18482 186
7.20493 181
7.22505 169
7.24516 181
7.26527 193
7.28539 177
7.3055 177
7.32562 166
7.34573 203
7.36584 199
7.38596 185
7.40607 186
7.42618 185
7.4463 173
7.46641 219
7.48653 204
7.50664 189
7.52675 188
7.54687 193
7.56698 183
7.58709 195
7.60721 181
7.62732 191
7.64743 180
7.66755 184
7.68766 213
7.70778 189
7.72789 192
7.748 221
7.76812 193
7.78823 185
7.80834 188
7.82846 196
7.84857 224
7.86869 190
7.8888 191
7.90891 226
7.92903 226
7.94914 205
7.96925 189
7.98937 208
8.00948 207
8.0296 204
8.04971 186
8.06982 174
8.08994 199
8.11005 213
8.13016 185
8.15028 211
8.17039 211
8.1905 193
8.21062 195
8.23073 194
8.25085 205
8.27096 215
8.29107 199
8.31119 196
8.3313 219
8.35141 230
8.37153 214
8.39164 202
8.41176 203
8.43187 224
8.45198 204
8.4721 196
8.49221 204
8.51232 194
8.53244 228
8.55255 201
8.57266 234
8.59278 205
8.61289 229
8.63301 230
8.65312 229
8.67323 210
8.69335 205
8.71346 185
8.73357 228
8.75369 229
8.7738 238
8.79392 202
8.81403 217
8.83414 230
8.85426 207
8.87437 269
8.89448 220
8.9146 242
8.93471 202
8.95483 238
8.97494 222
8.99505 223
9.01517 213
9.03528 231
9.05539 194
9.07551 235
9.09562 243
9.11573 229
9.13585 222
9.15596 215
9.17608 219
9.19619 218
9.2163 211
9.23642 196
9.25653 256
9.27664 241
9.29676 234
9.31687 248
9.33699 211
9.3571 231
9.37721 221
9.39733 204
9.41744 228
9.43755 230
9.45767 248
9.47778 222
9.4979 234
9.51801 200
9.53812 227
9.55824 189
9.57835 238
9.59846 222
9.61858 242
9.63869 235
9.6588 230
9.67892 204
9.69903 209
9.71915 245
9.73926 209
9.75937 211
9.77949 255
9.7996 223
9.81971 243
9.83983 204
9.85994 222
9.88006 217
9.90017 235
9.92028 180
9.9404 204
9.96051 222
9.98062 228
10.00074 227
10.02085 235
10.04097 213
10.06108 235
10.08119 222
10.10131 217
10.12142 251
10.14153 209
10.16165 228
10.18176 238
10.20187 183
10.22199 233
10.2421 210
10.26222 201
10.28233 209
10.30244 242
10.32256 232
10.34267 166
10.36278 192
10.3829 223
10.40301 185
10.42313 226
10.44324 193
10.46335 215
10.48347 221
10.50358 240
10.52369 201
10.54381 215
10.56392 242
10.58403 214
10.60415 203
10.62426 221
10.64438 261
10.66449 211
10.6846 212
10.70472 199
10.72483 248
10.74494 211
10.76506 215
10.78517 200
10.80529 221
10.8254 203
10.84551 221
10.86563 224
10.88574 191
10.90585 215
10.92597 201
10.94608 226
10.9662 221
10.98631 232
11.00642 221
11.02654 219
11.04665 213
11.06676 231
11.08688 198
11.10699 212
11.1271 196
11.14722 219
11.16733 219
11.18745 204
11.20756 238
11.22767 216
11.24779 217
11.2679 191
11.28801 229
11.30813 226
11.32824 232
11.34836 225
11.36847 198
11.38858 217
11.4087 232
11.42881 216
11.44892 220
11.46904 218
11.48915 235
11.50927 214
11.52938 222
11.54949 200
11.56961 218
11.58972 214
11.60983 226
11.62995 226
11.65006 225
11.67017 206
11.69029 216
11.7104 235
11.73052 218
11.75063 203
11.77074 193
11.79086 223
11.81097 213
11.83108 259
11.8512 225
11.87131 218
11.89143 192
11.91154 199
11.93165 221
11.95177 217
11.97188 228
11.99199 220
12.01211 228
12.03222 229
12.05234 237
12.07245 207
12.09256 209
12.11268 234
12.13279 260
12.1529 213
12.17302 244
12.19313 263
12.21324 242
12.23336 234
12.25347 245
12.27359 241
12.2937 278
12.31381 241
12.33393 303
12.35404 290
12.37415 277
12.39427 305
12.41438 242
12.4345 258
12.45461 261
12.47472 241
12.49484 235
12.51495 251
12.53506 217
12.55518 205
12.57529 208
12.5954 185
12.61552 215
12.63563 220
12.65575 211
12.67586 210
12.69597 199
12.71609 200
12.7362 220
12.75631 202
12.77643 183
12.79654 201
12.81666 192
12.83677 221
12.85688 196
12.877 219
12.89711 231
12.91722 192
12.93734 217
12.95745 196
12.97757 234
12.99768 186
13.01779 241
13.03791 211
13.05802 213
13.07813 220
13.09825 218
13.11836 227
13.13847 218
13.15859 211
13.1787 249
13.19882 207
13.21893 218
13.23904 199
13.25916 218
13.27927 198
13.29938 193
13.3195 236
13.33961 219
13.35973 252
13.37984 226
13.39995 220
13.42007 208
13.44018 194
13.46029 227
13.48041 191
13.50052 221
13.52064 206
13.54075 220
13.56086 247
13.58098 246
13.60109 251
13.6212 268
13.64132 294
13.66143 322
13.68154 332
13.70166 302
13.72177 252
13.74189 251
13.762 207
13.78211 191
13.80223 199
13.82234 191
13.84245 223
13.86257 217
13.88268 189
13.9028 202
13.92291 193
13.94302 188
13.96314 194
13.98325 203
14.00336 210
14.02348 211
14.04359 192
14.06371 156
14.08382 193
14.10393 208
14.12405 197
14.14416 213
14.16427 188
14.18439 182
14.2045 171
14.22461 185
14.24473 178
14.26484 176
14.28496 184
14.30507 168
14.32518 202
14.3453 210
14.36541 185
14.38552 207
14.40564 174
14.42575 176
14.44587 171
14.46598 191
14.48609 180
14.50621 178
14.52632 188
14.54643 184
14.56655 194
14.58666 203
14.60677 206
14.62689 195
14.647 188
14.66712 200
14.68723 217
14.70734 183
14.72746 162
14.74757 201
14.76768 165
14.7878 176
14.80791 190
14.82803 206
14.84814 187
14.86825 191
14.88837 223
14.90848 201
14.92859 261
14.94871 213
14.96882 195
14.98894 182
15.00905 190
15.02916 247
15.04928 206
15.06939 203
15.0895 181
15.10962 208
15.12973 201
15.14984 190
15.16996 230
15.19007 214
15.21019 224
15.2303 192
15.25041 178
15.27053 194
15.29064 182
15.31075 185
15.33087 169
15.35098 194
15.3711 185
15.39121 176
15.41132 188
15.43144 184
15.45155 166
15.47166 192
15.49178 171
15.51189 157
15.53201 173
15.55212 170
15.57223 180
15.59235 180
15.61246 164
15.63257 162
15.65269 188
15.6728 173
15.69291 160
15.71303 178
15.73314 207
15.75326 187
15.77337 184
15.79348 161
15.8136 182
15.83371 177
15.85382 190
15.87394 163
15.89405 172
15.91417 160
15.93428 157
15.95439 202
15.97451 179
15.99462 164
16.01473 176
16.03485 170
16.05496 165
16.07508 170
16.09519 152
16.1153 153
16.13542 162
16.15553 143
16.17564 170
16.19576 181
16.21587 163
16.23598 182
16.2561 166
16.27621 178
16.29633 160
16.31644 193
16.33655 178
16.35667 154
16.37678 182
16.39689 180
16.41701 182
16.43712 189
16.45724 153
16.47735 164
16.49746 178
16.51758 165
16.53769 178
16.5578 164
16.57792 185
16.59803 153
16.61814 169
16.63826 168
16.65837 168
16.67849 183
16.6986 162
16.71871 189
16.73883 144
16.75894 166
16.77905 158
16.79917 167
16.81928 159
16.8394 151
16.85951 164
16.87962 153
16.89974 154
16.91985 191
16.93996 164
16.96008 136
16.98019 182
17.00031 172
17.02042 151
17.04053 172
17.06065 161
17.08076 178
17.10087 181
17.12099 171
17.1411 163
17.16121 178
17.18133 167
17.20144 170
17.22156 154
17.24167 160
17.26178 171
17.2819 181
17.30201 167
17.32212 176
17.34224 147
17.36235 164
17.38247 195
17.40258 148
17.42269 174
17.44281 157
17.46292 155
17.48303 189
17.50315 169
17.52326 185
17.54338 187
17.56349 142
17.5836 163
17.60372 163
17.62383 189
17.64394 163
17.66406 156
17.68417 163
17.70428 144
17.7244 154
17.74451 151
17.76463 140
17.78474 158
17.80485 164
17.82497 183
17.84508 168
17.86519 181
17.88531 175
17.90542 165
17.92554 178
17.94565 167
17.96576 185
17.98588 188
18.00599 175
18.0261 155
18.04622 157
18.06633 169
18.08645 145
18.10656 154
18.12667 162
18.14679 165
18.1669 190
18.18701 146
18.20713 164
18.22724 163
18.24735 167
18.26747 139
18.28758 147
18.3077 154
18.32781 152
18.34792 155
18.36804 166
18.38815 179
18.40826 169
18.42838 163
18.44849 167
18.46861 174
18.48872 155
18.50883 155
18.52895 162
18.54906 157
18.56917 165
18.58929 170
18.6094 184
18.62951 169
18.64963 167
18.66974 196
18.68986 176
18.70997 174
18.73008 163
18.7502 160
18.77031 172
18.79042 185
18.81054 186
18.83065 216
18.85077 182
18.87088 190
18.89099 186
18.91111 184
18.93122 159
18.95133 189
18.97145 175
18.99156 158
19.01168 179
19.03179 154
19.0519 167
19.07202 162
19.09213 179
19.11224 177
19.13236 158
19.15247 150
19.17258 172
19.1927 185
19.21281 159
19.23293 174
19.25304 194
19.27315 178
19.29327 225
19.31338 196
19.33349 216
19.35361 185
19.37372 173
19.39384 179
19.41395 176
19.43406 178
19.45418 191
19.47429 183
19.4944 166
19.51452 168
19.53463 153
19.55475 165
19.57486 161
19.59497 196
19.61509 197
19.6352 201
19.65531 200
19.67543 180
19.69554 201
19.71565 208
19.73577 170
19.75588 181
19.776 202
19.79611 230
19.81622 232
19.83634 225
19.85645 233
19.87656 213
19.89668 215
19.91679 249
19.93691 199
19.95702 222
19.97713 223
19.99725 225
20.01736 237
20.03747 229
20.05759 239
20.0777 212
20.09782 215
20.11793 226
20.13804 226
20.15816 243
20.17827 247
20.19838 257
20.2185 243
20.23861 232
20.25872 288
20.27884 251
20.29895 287
20.31907 279
20.33918 269
20.35929 264
20.37941 272
20.39952 324
20.41963 318
20.43975 321
20.45986 287
20.47998 306
20.50009 329
20.5202 367
20.54032 356
20.56043 372
20.58054 374
20.60066 424
20.62077 387
20.64088 439
20.661 434
20.68111 468
20.70123 636
20.72134 732
20.74145 963
20.76157 1392
20.78168 2132
20.80179 3403
20.82191 5087
20.84202 7331
20.86214 8976
20.88225 9542
20.90236 8123
20.92248 6023
20.94259 4188
20.9627 2566
20.98282 1473
21.00293 1056
21.02305 993
21.04316 964
21.06327 923
21.08339 902
21.1035 719
21.12361 624
21.14373 576
21.16384 465
21.18395 420
21.20407 390
21.22418 366
21.2443 314
21.26441 319
21.28452 315
21.30464 299
21.32475 284
21.34486 296
21.36498 288
21.38509 265
21.40521 297
21.42532 264
21.44543 275
21.46555 258
21.48566 270
21.50577 256
21.52589 268
21.546 258
21.56612 242
21.58623 223
21.60634 270
21.62646 294
21.64657 272
21.66668 239
21.6868 249
21.70691 244
21.72702 195
21.74714 214
21.76725 247
21.78737 248
21.80748 232
21.82759 209
21.84771 236
21.86782 207
21.88793 221
21.90805 266
21.92816 224
21.94828 199
21.96839 223
21.9885 232
22.00862 242
22.02873 208
22.04884 209
22.06896 246
22.08907 232
22.10919 249
22.1293 206
22.14941 239
22.16953 224
22.18964 213
22.20975 236
22.22987 220
22.24998 252
22.27009 279
22.29021 282
22.31032 309
22.33044 323
22.35055 290
22.37066 354
22.39078 282
22.41089 292
22.431 299
22.45112 265
22.47123 287
22.49135 280
22.51146 295
22.53157 274
22.55169 316
22.5718 283
22.59191 310
22.61203 301
22.63214 266
22.65225 271
22.67237 252
22.69248 238
22.7126 240
22.73271 223
22.75282 235
22.77294 203
22.79305 189
22.81316 204
22.83328 219
22.85339 232
22.87351 205
22.89362 221
22.91373 211
22.93385 237
22.95396 227
22.97407 240
22.99419 224
23.0143 211
23.03442 272
23.05453 244
23.07464 266
23.09476 266
23.11487 273
23.13498 291
23.1551 359
23.17521 304
23.19532 368
23.21544 356
23.23555 375
23.25567 380
23.27578 359
23.29589 337
23.31601 315
23.33612 308
23.35623 286
23.37635 282
23.39646 323
23.41658 261
23.43669 268
23.4568 291
23.47692 316
23.49703 302
23.51714 326
23.53726 354
23.55737 358
23.57749 364
23.5976 327
23.61771 378
23.63783 312
23.65794 313
23.67805 293
23.69817 288
23.71828 271
23.73839 263
23.75851 269
23.77862 287
23.79874 268
23.81885 285
23.83896 265
23.85908 324
23.87919 283
23.8993 288
23.91942 329
23.93953 334
23.95965 362
23.97976 394
23.99987 381
24.01999 483
24.0401 458
24.06021 411
24.08033 357
24.10044 296
24.12056 272
24.14067 242
24.16078 237
24.1809 249
24.20101 207
24.22112 230
24.24124 221
24.26135 237
24.28146 253
24.30158 255
24.32169 245
24.34181 264
24.36192 283
24.38203 288
24.40215 245
24.42226 259
24.44237 242
24.46249 245
24.4826 215
24.50272 221
24.52283 238
24.54294 255
24.56306 259
24.58317 240
24.60328 247
24.6234 244
24.64351 256
24.66362 256
24.68374 251
24.70385 272
24.72397 291
24.74408 277
24.76419 267
24.78431 284
24.80442 258
24.82453 275
24.84465 271
24.86476 270
24.88488 273
24.90499 296
24.9251 262
24.94522 307
24.96533 268
24.98544 232
25.00556 220
25.02567 218
25.04579 219
25.0659 233
25.08601 234
25.10613 219
25.12624 255
25.14635 212
25.16647 248
25.18658 259
25.20669 266
25.22681 207
25.24692 234
25.26704 252
25.28715 294
25.30726 272
25.32738 305
25.34749 272
25.3676 282
25.38772 265
25.40783 282
25.42795 291
25.44806 329
25.46817 300
25.48829 372
25.5084 427
25.52851 416
25.54863 515
25.56874 525
25.58886 518
25.60897 590
25.62908 603
25.6492 685
25.66931 649
25.68942 606
25.70954 554
25.72965 520
25.74976 508
25.76988 481
25.78999 450
25.81011 409
25.83022 421
25.85033 408
25.87045 423
25.89056 410
25.91067 385
25.93079 400
25.9509 477
25.97102 408
25.99113 458
26.01124 406
26.03136 428
26.05147 456
26.07158 497
26.0917 447
26.11181 468
26.13193 513
26.15204 558
26.17215 606
26.19227 624
26.21238 653
26.23249 705
26.25261 723
26.27272 784
26.29283 838
26.31295 901
26.33306 960
26.35318 1055
26.37329 1216
26.3934 1260
26.41352 1462
26.43363 1750
26.45374 2069
26.47386 2541
26.49397 3333
26.51409 4451
26.5342 6197
26.55431 9283
26.57443 14279
26.59454 21777
26.61465 31589
26.63477 41251
26.65488 43640
26.67499 36477
26.69511 27751
26.71522 22860
26.73534 16871
26.75545 9540
26.77556 4394
26.79568 2689
26.81579 2083
26.8359 1768
26.85602 1534
26.87613 1404
26.89625 1305
26.91636 1238
26.93647 1196
26.95659 1108
26.9767 1017
26.99681 973
27.01693 1035
27.03704 1095
27.05716 1092
27.07727 1043
27.09738 997
27.1175 937
27.13761 862
27.15772 784
27.17784 722
27.19795 621
27.21806 636
27.23818 570
27.25829 509
27.27841 528
27.29852 567
27.31863 582
27.33875 645
27.35886 661
27.37897 790
27.39909 928
27.4192 1232
27.43932 1393
27.45943 1506
27.47954 1595
27.49966 1594
27.51977 1477
27.53988 1264
27.56 1146
27.58011 917
27.60023 726
27.62034 531
27.64045 484
27.66057 428
27.68068 390
27.70079 378
27.72091 337
27.74102 360
27.76113 384
27.78125 369
27.80136 354
27.82148 360
27.84159 323
27.8617 367
27.88182 312
27.90193 323
27.92204 389
27.94216 326
27.96227 334
27.98239 309
28.0025 312
28.02261 323
28.04273 261
28.06284 315
28.08295 279
28.10307 298
28.12318 302
28.1433 298
28.16341 311
28.18352 283
28.20364 281
28.22375 262
28.24386 288
28.26398 226
28.28409 243
28.3042 256
28.32432 251
28.34443 276
28.36455 260
28.38466 273
28.40477 277
28.42489 252
28.445 269
28.46511 266
28.48523 262
28.50534 232
28.52546 254
28.54557 293
28.56568 247
28.5858 273
28.60591 284
28.62602 217
28.64614 262
28.66625 193
28.68636 284
28.70648 244
28.72659 249
28.74671 244
28.76682 231
28.78693 231
28.80705 249
28.82716 252
28.84727 227
28.86739 222
28.8875 213
28.90762 226
28.92773 267
28.94784 219
28.96796 239
28.98807 240
29.00818 242
29.0283 223
29.04841 251
29.06853 226
29.08864 256
29.10875 233
29.12887 251
29.14898 230
29.16909 227
29.18921 220
29.20932 240
29.22943 237
29.24955 236
29.26966 245
29.28978 229
29.30989 222
29.33 252
29.35012 234
29.37023 257
29.39034 306
29.41046 314
29.43057 322
29.45069 361
29.4708 314
29.49091 321
29.51103 341
29.53114 294
29.55125 294
29.57137 313
29.59148 307
29.6116 272
29.63171 258
29.65182 262
29.67194 260
29.69205 278
29.71216 256
29.73228 286
29.75239 307
29.7725 291
29.79262 332
29.81273 304
29.83285 307
29.85296 320
29.87307 341
29.89319 335
29.9133 303
29.93341 324
29.95353 293
29.97364 309
29.99376 311
30.01387 324
30.03398 262
30.0541 327
30.07421 298
30.09432 281
30.11444 275
30.13455 278
30.15467 342
30.17478 339
30.19489 335
30.21501 351
30.23512 328
30.25523 342
30.27535 302
30.29546 337
30.31557 319
30.33569 272
30.3558 258
30.37592 244
30.39603 247
30.41614 226
30.43626 265
30.45637 274
30.47648 243
30.4966 249
30.51671 237
30.53683 240
30.55694 207
30.57705 253
30.59717 217
30.61728 249
30.63739 237
30.65751 269
30.67762 308
30.69773 325
30.71785 350
30.73796 352
30.75808 400
30.77819 431
30.7983 399
30.81842 446
30.83853 422
30.85864 390
30.87876 335
30.89887 388
30.91899 340
30.9391 329
30.95921 314
30.97933 273
30.99944 254
31.01955 203
31.03967 226
31.05978 204
31.0799 180
31.10001 213
31.12012 180
31.14024 196
31.16035 165
31.18046 179
31.20058 223
31.22069 206
31.2408 187
31.26092 181
31.28103 216
31.30115 190
31.32126 181
31.34137 184
31.36149 209
31.3816 174
31.40171 191
31.42183 171
31.44194 203
31.46206 202
31.48217 180
31.50228 206
31.5224 189
31.54251 158
31.56262 176
31.58274 171
31.60285 200
31.62297 187
31.64308 167
31.66319 147
31.68331 176
31.70342 174
31.72353 171
31.74365 172
31.76376 183
31.78387 186
31.80399 177
31.8241 173
31.84422 205
31.86433 176
31.88444 178
31.90456 174
31.92467 178
31.94478 208
31.9649 177
31.98501 158
32.00513 170
32.02524 166
32.04535 175
32.06547 190
32.08558 211
32.10569 207
32.12581 222
32.14592 208
32.16604 215
32.18615 215
32.20626 232
32.22638 211
32.24649 230
32.2666 232
32.28672 241
32.30683 250
32.32694 246
32.34706 267
32.36717 245
32.38729 267
32.4074 224
32.42751 257
32.44763 252
32.46774 244
32.48785 222
32.50797 232
32.52808 228
32.5482 181
32.56831 200
32.58842 203
32.60854 169
32.62865 207
32.64876 192
32.66888 186
32.68899 210
32.7091 182
32.72922 180
32.74933 174
32.76945 158
32.78956 158
32.80967 162
32.82979 148
32.8499 162
32.87001 180
32.89013 168
32.91024 153
32.93036 169
32.95047 173
32.97058 186
32.9907 171
33.01081 172
33.03092 150
33.05104 189
33.07115 173
33.09127 158
33.11138 185
33.13149 165
33.15161 148
33.17172 167
33.19183 165
33.21195 158
33.23206 169
33.25217 151
33.27229 164
33.2924 154
33.31252 153
33.33263 153
33.35274 158
33.37286 159
33.39297 158
33.41308 166
33.4332 176
33.45331 181
33.47343 165
33.49354 157
33.51365 170
33.53377 159
33.55388 154
33.57399 178
33.59411 166
33.61422 148
33.63434 169
33.65445 158
33.67456 158
33.69468 156
33.71479 172
33.7349 147
33.75502 170
33.77513 154
33.79524 200
33.81536 174
33.83547 170
33.85559 148
33.8757 147
33.89581 166
33.91593 163
33.93604 153
33.95615 155
33.97627 182
33.99638 166
34.0165 155
34.03661 193
34.05672 173
34.07684 167
34.09695 183
34.11706 195
34.13718 208
34.15729 185
34.17741 219
34.19752 222
34.21763 219
34.23775 247
34.25786 249
34.27797 243
34.29809 212
34.3182 220
34.33831 240
34.35843 247
34.37854 209
34.39866 209
34.41877 194
34.43888 198
34.459 222
34.47911 214
34.49922 201
34.51934 174
34.53945 230
34.55957 233
34.57968 241
34.59979 197
34.61991 243
34.64002 233
34.66013 225
34.68025 230
34.70036 240
34.72047 229
34.74059 233
34.7607 257
34.78082 217
34.80093 248
34.82104 229
34.84116 247
34.86127 246
34.88138 254
34.9015 289
34.92161 298
34.94173 291
34.96184 249
34.98195 279
35.00207 280
35.02218 259
35.04229 278
35.06241 270
35.08252 268
35.10264 272
35.12275 257
35.14286 272
35.16298 278
35.18309 256
35.2032 226
35.22332 247
35.24343 253
35.26354 239
35.28366 243
35.30377 251
35.32389 263
35.344 261
35.36411 241
35.38423 243
35.40434 225
35.42445 246
35.44457 244
35.46468 248
35.4848 253
35.50491 263
35.52502 289
35.54514 295
35.56525 268
35.58536 278
35.60548 265
35.62559 268
35.64571 221
35.66582 231
35.68593 220
35.70605 223
35.72616 228
35.74627 251
35.76639 209
35.7865 196
35.80661 197
35.82673 205
35.84684 240
35.86696 212
35.88707 220
35.90718 206
35.9273 168
35.94741 235
35.96752 231
35.98764 210
36.00775 196
36.02787 208
36.04798 209
36.06809 209
36.08821 224
36.10832 253
36.12843 216
36.14855 222
36.16866 214
36.18878 245
36.20889 230
36.229 222
36.24912 227
36.26923 247
36.28934 249
36.30946 256
36.32957 316
36.34968 351
36.3698 372
36.38991 438
36.41003 485
36.43014 733
36.45025 880
36.47037 1177
36.49048 1720
36.51059 2279
36.53071 2853
36.55082 3097
36.57094 2464
36.59105 1849
36.61116 1518
36.63128 1602
36.65139 1394
36.6715 1035
36.69162 638
36.71173 381
36.73184 321
36.75196 308
36.77207 301
36.79219 251
36.8123 262
36.83241 257
36.85253 242
36.87264 271
36.89275 238
36.91287 240
36.93298 229
36.9531 240
36.97321 250
36.99332 231
37.01344 245
37.03355 244
37.05366 234
37.07378 245
37.09389 241
37.11401 241
37.13412 205
37.15423 209
37.17435 206
37.19446 195
37.21457 185
37.23469 210
37.2548 203
37.27491 185
37.29503 210
37.31514 200
37.33526 181
37.35537 195
37.37548 197
37.3956 171
37.41571 196
37.43582 209
37.45594 179
37.47605 194
37.49617 164
37.51628 171
37.53639 192
37.55651 219
37.57662 193
37.59673 172
37.61685 218
37.63696 183
37.65708 187
37.67719 199
37.6973 168
37.71742 175
37.73753 200
37.75764 195
37.77776 204
37.79787 178
37.81798 185
37.8381 197
37.85821 196
37.87833 165
37.89844 189
37.91855 180
37.93867 174
37.95878 181
37.97889 194
37.99901 155
38.01912 209
38.03924 184
38.05935 164
38.07946 182
38.09958 172
38.11969 176
38.1398 183
38.15992 180
38.18003 175
38.20015 186
38.22026 183
38.24037 193
38.26049 207
38.2806 189
38.30071 186
38.32083 208
38.34094 187
38.36105 195
38.38117 187
38.40128 182
38.4214 200
38.44151 193
38.46162 207
38.48174 227
38.50185 278
38.52196 222
38.54208 220
38.56219 250
38.58231 249
38.60242 234
38.62253 226
38.64265 237
38.66276 246
38.68287 219
38.70299 204
38.7231 200
38.74321 201
38.76333 192
38.78344 172
38.80356 177
38.82367 163
38.84378 184
38.8639 187
38.88401 170
38.90412 195
38.92424 164
38.94435 193
38.96447 192
38.98458 192
39.00469 182
39.02481 206
39.04492 190
39.06503 190
39.08515 183
39.10526 198
39.12538 202
39.14549 208
39.1656 206
39.18572 222
39.20583 228
39.22594 275
39.24606 287
39.26617 348
39.28628 350
39.3064 431
39.32651 491
39.34663 605
39.36674 792
39.38685 1008
39.40697 1383
39.42708 1864
39.44719 2434
39.46731 2653
39.48742 2393
39.50754 1658
39.52765 1389
39.54776 1299
39.56788 1346
39.58799 1164
39.6081 798
39.62822 470
39.64833 353
39.66845 301
39.68856 260
39.70867 227
39.72879 254
39.7489 232
39.76901 206
39.78913 222
39.80924 214
39.82935 185
39.84947 215
39.86958 200
39.8897 180
39.90981 177
39.92992 204
39.95004 201
39.97015 204
39.99026 217
40.01038 223
40.03049 223
40.05061 234
40.07072 249
40.09083 242
40.11095 283
40.13106 295
40.15117 359
40.17129 402
40.1914 522
40.21152 622
40.23163 831
40.25174 1017
40.27186 1379
40.29197 1499
40.31208 1283
40.3322 975
40.35231 811
40.37242 786
40.39254 799
40.41265 668
40.43277 501
40.45288 310
40.47299 269
40.49311 239
40.51322 228
40.53333 215
40.55345 215
40.57356 216
40.59368 192
40.61379 192
40.6339 185
40.65402 199
40.67413 207
40.69424 178
40.71436 189
40.73447 183
40.75458 181
40.7747 196
40.79481 175
40.81493 190
40.83504 170
40.85515 175
40.87527 175
40.89538 163
40.91549 174
40.93561 178
40.95572 166
40.97584 182
40.99595 170
41.01606 166
41.03618 175
41.05629 199
41.0764 192
41.09652 184
41.11663 169
41.13675 183
41.15686 193
41.17697 197
41.19709 171
41.2172 167
41.23731 183
41.25743 178
41.27754 191
41.29765 187
41.31777 164
41.33788 163
41.358 195
41.37811 184
41.39822 166
41.41834 170
41.43845 168
41.45856 172
41.47868 188
41.49879 183
41.51891 187
41.53902 182
41.55913 209
41.57925 200
41.59936 198
41.61947 202
41.63959 217
41.6597 217
41.67982 261
41.69993 258
41.72004 306
41.74016 328
41.76027 327
41.78038 375
41.8005 380
41.82061 380
41.84072 349
41.86084 314
41.88095 320
41.90107 257
41.92118 297
41.94129 278
41.96141 215
41.98152 213
42.00163 196
42.02175 190
42.04186 214
42.06198 212
42.08209 201
42.1022 193
42.12232 223
42.14243 226
42.16254 237
42.18266 241
42.20277 243
42.22289 280
42.243 280
42.26311 339
42.28323 340
42.30334 371
42.32345 483
42.34357 612
42.36368 817
42.38379 1091
42.40391 1293
42.42402 1651
42.44414 1986
42.46425 1876
42.48436 1464
42.50448 1086
42.52459 961
42.5447 1126
42.56482 1100
42.58493 915
42.60505 567
42.62516 341
42.64527 299
42.66539 269
42.6855 230
42.70561 224
42.72573 230
42.74584 236
42.76595 215
42.78607 274
42.80618 241
42.8263 229
42.84641 199
42.86652 208
42.88664 188
42.90675 179
42.92686 179
42.94698 208
42.96709 194
42.98721 170
43.00732 175
43.02743 159
43.04755 173
43.06766 180
43.08777 162
43.10789 189
43.128 165
43.14812 149
43.16823 160
43.18834 168
43.20846 168
43.22857 185
43.24868 155
43.2688 171
43.28891 178
43.30902 173
43.32914 166
43.34925 159
43.36937 156
43.38948 165
43.40959 182
43.42971 167
43.44982 177
43.46993 172
43.49005 148
43.51016 168
43.53028 158
43.55039 171
43.5705 197
43.59062 158
43.61073 173
43.63084 171
43.65096 172
43.67107 171
43.69119 169
43.7113 177
43.73141 166
43.75153 152
43.77164 174
43.79175 164
43.81187 154
43.83198 152
43.85209 175
43.87221 184
43.89232 156
43.91244 165
43.93255 142
43.95266 168
43.97278 165
43.99289 183
44.013 157
44.03312 178
44.05323 162
44.07335 160
44.09346 161
44.11357 185
44.13369 169
44.1538 189
44.17391 166
44.19403 175
44.21414 186
44.23426 170
44.25437 161
44.27448 179
44.2946 163
44.31471 163
44.33482 158
44.35494 160
44.37505 152
44.39516 152
44.41528 144
44.43539 155
44.45551 164
44.47562 173
44.49573 155
44.51585 153
44.53596 173
44.55607 163
44.57619 157
44.5963 149
44.61642 162
44.63653 159
44.65664 167
44.67676 156
44.69687 169
44.71698 169
44.7371 150
44.75721 167
44.77732 155
44.79744 163
44.81755 171
44.83767 161
44.85778 168
44.87789 163
44.89801 156
44.91812 161
44.93823 177
44.95835 169
44.97846 141
44.99858 182
45.01869 194
45.0388 167
45.05892 150
45.07903 165
45.09914 181
45.11926 170
45.13937 165
45.15949 169
45.1796 160
45.19971 168
45.21983 167
45.23994 183
45.26005 156
45.28017 178
45.30028 160
45.32039 163
45.34051 179
45.36062 186
45.38074 199
45.40085 197
45.42096 213
45.44108 183
45.46119 215
45.4813 217
45.50142 238
45.52153 224
45.54165 225
45.56176 259
45.58187 260
45.60199 312
45.6221 333
45.64221 360
45.66233 407
45.68244 497
45.70256 629
45.72267 726
45.74278 937
45.7629 1075
45.78301 1310
45.80312 1287
45.82324 990
45.84335 800
45.86346 656
45.88358 727
45.90369 742
45.92381 727
45.94392 529
45.96403 388
45.98415 282
46.00426 211
46.02437 215
46.04449 227
46.0646 213
46.08472 201
46.10483 182
46.12494 207
46.14506 189
46.16517 192
46.18528 178
46.2054 179
46.22551 181
46.24563 181
46.26574 197
46.28585 149
46.30597 173
46.32608 170
46.34619 171
46.36631 171
46.38642 162
46.40653 154
46.42665 160
46.44676 153
46.46688 154
46.48699 146
46.5071 146
46.52722 175
46.54733 155
46.56744 158
46.58756 134
46.60767 156
46.62779 154
46.6479 149
46.66801 156
46.68813 178
46.70824 141
46.72835 151
46.74847 150
46.76858 153
46.78869 158
46.80881 141
46.82892 149
46.84904 156
46.86915 157
46.88926 147
46.90938 145
46.92949 175
46.9496 161
46.96972 161
46.98983 150
47.00995 167
47.03006 164
47.05017 156
47.07029 182
47.0904 175
47.11051 199
47.13063 198
47.15074 193
47.17086 181
47.19097 201
47.21108 195
47.2312 173
47.25131 183
47.27142 192
47.29154 190
47.31165 159
47.33176 189
47.35188 185
47.37199 156
47.39211 170
47.41222 179
47.43233 199
47.45245 181
47.47256 174
47.49267 176
47.51279 174
47.5329 156
47.55302 182
47.57313 173
47.59324 151
47.61336 174
47.63347 180
47.65358 160
47.6737 151
47.69381 142
47.71393 150
47.73404 141
47.75415 137
47.77427 142
47.79438 129
47.81449 145
47.83461 129
47.85472 147
47.87483 136
47.89495 148
47.91506 138
47.93518 144
47.95529 146
47.9754 148
47.99552 164
48.01563 184
48.03574 146
48.05586 150
48.07597 134
48.09609 160
48.1162 155
48.13631 139
48.15643 143
48.17654 150
48.19665 135
48.21677 168
48.23688 150
48.257 149
48.27711 160
48.29722 135
48.31734 164
48.33745 142
48.35756 153
48.37768 138
48.39779 149
48.4179 144
48.43802 156
48.45813 153
48.47825 157
48.49836 146
48.51847 153
48.53859 157
48.5587 160
48.57881 180
48.59893 149
48.61904 143
48.63916 177
48.65927 162
48.67938 178
48.6995 161
48.71961 157
48.73972 166
48.75984 200
48.77995 220
48.80006 197
48.82018 168
48.84029 182
48.86041 172
48.88052 202
48.90063 236
48.92075 165
48.94086 169
48.96097 204
48.98109 188
49.0012 195
49.02132 183
49.04143 188
49.06154 206
49.08166 192
49.10177 202
49.12188 202
49.142 219
49.16211 193
49.18223 183
49.20234 196
49.22245 205
49.24257 192
49.26268 184
49.28279 160
49.30291 169
49.32302 172
49.34313 173
49.36325 166
49.38336 161
49.40348 167
49.42359 156
49.4437 175
49.46382 161
49.48393 148
49.50404 189
49.52416 174
49.54427 172
49.56439 174
49.5845 197
49.60461 186
49.62473 195
49.64484 201
49.66495 184
49.68507 225
49.70518 230
49.7253 234
49.74541 221
49.76552 243
49.78564 236
49.80575 238
49.82586 314
49.84598 308
49.86609 349
49.8862 378
49.90632 422
49.92643 501
49.94655 538
49.96666 630
49.98677 804
50.00689 959
50.027 1199
50.04711 1632
50.06723 2182
50.08734 2858
50.10746 3546
50.12757 4260
50.14768 4118
50.1678 3248
50.18791 2149
50.20802 1800
50.22814 1787
50.24825 2161
50.26837 2182
50.28848 1945
50.30859 1261
50.32871 791
50.34882 530
50.36893 445
50.38905 342
50.40916 367
50.42927 338
50.44939 329
50.4695 320
50.48962 343
50.50973 436
50.52984 424
50.54996 436
50.57007 399
50.59018 414
50.6103 406
50.63041 370
50.65053 393
50.67064 345
50.69075 344
50.71087 314
50.73098 330
50.75109 298
50.77121 294
50.79132 267
50.81143 242
50.83155 248
50.85166 272
50.87178 217
50.89189 219
50.912 235
50.93212 217
50.95223 211
50.97234 172
50.99246 194
51.01257 155
51.03269 199
51.0528 177
51.07291 165
51.09303 177
51.11314 180
51.13325 163
51.15337 182
51.17348 155
51.1936 142
51.21371 140
51.23382 175
51.25394 144
51.27405 151
51.29416 156
51.31428 161
51.33439 153
51.3545 155
51.37462 145
51.39473 168
51.41485 163
51.43496 164
51.45507 157
51.47519 143
51.4953 142
51.51541 148
51.53553 135
51.55564 150
51.57576 159
51.59587 148
51.61598 160
51.6361 141
51.65621 152
51.67632 144
51.69644 152
51.71655 131
51.73667 145
51.75678 148
51.77689 151
51.79701 171
51.81712 143
51.83723 170
51.85735 127
51.87746 130
51.89757 144
51.91769 119
51.9378 158
51.95792 141
51.97803 133
51.99814 130
52.01826 148
52.03837 125
52.05848 136
52.0786 152
52.09871 158
52.11883 156
52.13894 131
52.15905 145
52.17917 145
52.19928 147
52.21939 142
52.23951 138
52.25962 149
52.27974 126
52.29985 137
52.31996 160
52.34008 160
52.36019 126
52.3803 146
52.40042 159
52.42053 128
52.44064 158
52.46076 152
52.48087 134
52.50099 157
52.5211 164
52.54121 148
52.56133 143
52.58144 142
52.60155 159
52.62167 145
52.64178 152
52.6619 135
52.68201 155
52.70212 135
52.72224 147
52.74235 154
52.76246 165
52.78258 148
52.80269 170
52.8228 168
52.84292 139
52.86303 153
52.88315 160
52.90326 134
52.92337 141
52.94349 156
52.9636 152
52.98371 139
53.00383 139
53.02394 144
53.04406 138
53.06417 174
53.08428 155
53.1044 155
53.12451 155
53.14462 172
53.16474 148
53.18485 178
53.20497 157
53.22508 161
53.24519 172
53.26531 166
53.28542 178
53.30553 176
53.32565 136
53.34576 144
53.36587 132
53.38599 148
53.4061 176
53.42622 171
53.44633 177
53.46644 155
53.48656 165
53.50667 162
53.52678 163
53.5469 163
53.56701 159
53.58713 148
53.60724 149
53.62735 142
53.64747 171
53.66758 170
53.68769 138
53.70781 158
53.72792 158
53.74804 160
53.76815 176
53.78826 168
53.80838 160
53.82849 193
53.8486 163
53.86872 162
53.88883 171
53.90894 168
53.92906 161
53.94917 163
53.96929 168
53.9894 159
54.00951 162
54.02963 149
54.04974 139
54.06985 163
54.08997 146
54.11008 148
54.1302 154
54.15031 163
54.17042 128
54.19054 187
54.21065 146
54.23076 180
54.25088 172
54.27099 169
54.29111 154
54.31122 164
54.33133 167
54.35145 175
54.37156 191
54.39167 161
54.41179 163
54.4319 183
54.45201 173
54.47213 195
54.49224 184
54.51236 185
54.53247 230
54.55258 186
54.5727 216
54.59281 209
54.61292 223
54.63304 210
54.65315 241
54.67327 281
54.69338 281
54.71349 377
54.73361 406
54.75372 467
54.77383 573
54.79395 690
54.81406 874
54.83417 1020
54.85429 1267
54.8744 1282
54.89452 1127
54.91463 828
54.93474 632
54.95486 577
54.97497 609
54.99508 717
55.0152 742
55.03531 671
55.05543 478
55.07554 359
55.09565 327
55.11577 272
55.13588 270
55.15599 272
55.17611 277
55.19622 296
55.21634 334
55.23645 375
55.25656 475
55.27668 475
55.29679 573
55.3169 627
55.33702 585
55.35713 486
55.37724 359
55.39736 344
55.41747 364
55.43759 352
55.4577 385
55.47781 387
55.49793 319
55.51804 265
55.53815 236
55.55827 204
55.57838 210
55.5985 197
55.61861 197
55.63872 172
55.65884 170
55.67895 180
55.69906 184
55.71918 169
55.73929 164
55.75941 144
55.77952 182
55.79963 149
55.81975 172
55.83986 149
55.85997 136
55.88009 162
55.9002 152
55.92031 147
55.94043 132
55.96054 170
55.98066 150
56.00077 145
56.02088 155
56.041 146
56.06111 137
56.08122 136
56.10134 133
56.12145 127
56.14157 154
56.16168 131
56.18179 143
56.20191 138
56.22202 143
56.24213 144
56.26225 134
56.28236 137
56.30248 141
56.32259 155
56.3427 127
56.36282 128
56.38293 134
56.40304 127
56.42316 152
56.44327 127
56.46338 128
56.4835 145
56.50361 136
56.52373 147
56.54384 159
56.56395 139
56.58407 139
56.60418 130
56.62429 167
56.64441 145
56.66452 149
56.68464 168
56.70475 159
56.72486 152
56.74498 143
56.76509 144
56.7852 146
56.80532 155
56.82543 138
56.84554 184
56.86566 158
56.88577 162
56.90589 152
56.926 158
56.94611 139
56.96623 139
56.98634 153
57.00645 141
57.02657 158
57.04668 144
57.0668 150
57.08691 154
57.10702 165
57.12714 168
57.14725 169
57.16736 180
57.18748 185
57.20759 219
57.22771 203
57.24782 205
57.26793 192
57.28805 150
57.30816 154
57.32827 169
57.34839 187
57.3685 170
57.38861 191
57.40873 179
57.42884 181
57.44896 163
57.46907 146
57.48918 175
57.5093 156
57.52941 168
57.54952 143
57.56964 149
57.58975 149
57.60987 143
57.62998 137
57.65009 145
57.67021 139
57.69032 136
57.71043 154
57.73055 143
57.75066 117
57.77078 152
57.79089 158
57.811 130
57.83112 140
57.85123 128
57.87134 138
57.89146 136
57.91157 143
57.93168 167
57.9518 138
57.97191 154
57.99203 155
58.01214 125
58.03225 150
58.05237 140
58.07248 145
58.09259 136
58.11271 133
58.13282 136
58.15294 128
58.17305 147
58.19316 157
58.21328 174
58.23339 135
58.2535 142
58.27362 143
58.29373 139
58.31385 160
58.33396 158
58.35407 150
58.37419 143
58.3943 144
58.41441 139
58.43453 167
58.45464 167
58.47475 159
58.49487 153
58.51498 150
58.5351 137
58.55521 133
58.57532 169
58.59544 144
58.61555 148
58.63566 193
58.65578 167
58.67589 178
58.69601 152
58.71612 174
58.73623 166
58.75635 167
58.77646 131
58.79657 133
58.81669 147
58.8368 153
58.85691 138
58.87703 145
58.89714 146
58.91726 160
58.93737 140
58.95748 154
58.9776 165
58.99771 143
59.01782 147
59.03794 139
59.05805 146
59.07817 156
59.09828 142
59.11839 146
59.13851 154
59.15862 140
59.17873 159
59.19885 129
59.21896 147
59.23908 146
59.25919 154
59.2793 154
59.29942 159
59.31953 156
59.33964 159
59.35976 148
59.37987 156
59.39998 169
59.4201 161
59.44021 178
59.46033 185
59.48044 157
59.50055 181
59.52067 196
59.54078 210
59.56089 219
59.58101 214
59.60112 215
59.62124 244
59.64135 263
59.66146 309
59.68158 301
59.70169 319
59.7218 386
59.74192 380
59.76203 485
59.78215 492
59.80226 634
59.82237 787
59.84249 979
59.8626 1272
59.88271 1549
59.90283 2028
59.92294 2409
59.94305 2612
59.96317 2635
59.98328 2010
60.0034 1399
60.02351 1058
60.04362 1039
60.06374 1206
60.08385 1335
60.10396 1405
60.12408 1361
60.14419 1040
60.16431 696
60.18442 458
60.20453 360
60.22465 271
60.24476 245
60.26487 235
60.28499 224
60.3051 206
60.32522 200
60.34533 206
60.36544 170
60.38556 193
60.40567 186
60.42578 177
60.4459 154
60.46601 180
60.48612 152
60.50624 160
60.52635 170
60.54647 144
60.56658 173
60.58669 172
60.60681 150
60.62692 137
60.64703 178
60.66715 166
60.68726 126
60.70738 155
60.72749 192
60.7476 150
60.76772 150
60.78783 144
60.80794 133
60.82806 144
60.84817 163
60.86828 133
60.8884 151
60.90851 179
60.92863 133
60.94874 130
60.96885 163
60.98897 157
61.00908 153
61.02919 147
61.04931 157
61.06942 149
61.08954 180
61.10965 163
61.12976 178
61.14988 192
61.16999 193
61.1901 176
61.21022 190
61.23033 169
61.25045 166
61.27056 163
61.29067 165
61.31079 150
61.3309 190
61.35101 180
61.37113 168
61.39124 133
61.41135 166
61.43147 175
61.45158 145
61.4717 150
61.49181 161
61.51192 178
61.53204 163
61.55215 129
61.57226 161
61.59238 161
61.61249 164
61.63261 177
61.65272 141
61.67283 151
61.69295 139
61.71306 155
61.73317 160
61.75329 142
61.7734 142
61.79352 152
61.81363 157
61.83374 162
61.85386 157
61.87397 175
61.89408 171
61.9142 148
61.93431 164
61.95442 154
61.97454 165
61.99465 174
62.01477 143
62.03488 163
62.05499 164
62.07511 164
62.09522 162
62.11533 139
62.13545 174
62.15556 150
62.17568 167
62.19579 155
62.2159 158
62.23602 155
62.25613 164
62.27624 171
62.29636 150
62.31647 153
62.33659 182
62.3567 165
62.37681 176
62.39693 176
62.41704 153
62.43715 146
62.45727 146
62.47738 142
62.49749 129
62.51761 152
62.53772 160
62.55784 135
62.57795 157
62.59806 132
62.61818 143
62.63829 151
62.6584 154
62.67852 162
62.69863 150
62.71875 159
62.73886 144
62.75897 149
62.77909 158
62.7992 142
62.81931 158
62.83943 144
62.85954 144
62.87965 145
62.89977 145
62.91988 140
62.94 151
62.96011 156
62.98022 152
63.00034 160
63.02045 152
63.04056 148
63.06068 149
63.08079 154
63.10091 158
63.12102 178
63.14113 143
63.16125 167
63.18136 162
63.20147 141
63.22159 151
63.2417 142
63.26182 165
63.28193 151
63.30204 170
63.32216 147
63.34227 146
63.36238 147
63.3825 160
63.40261 155
63.42272 146
63.44284 158
63.46295 134
63.48307 151
63.50318 146
63.52329 145
63.54341 139
63.56352 159
63.58363 163
63.60375 126
63.62386 167
63.64398 159
63.66409 159
63.6842 163
63.70432 173
63.72443 175
63.74454 176
63.76466 168
63.78477 188
63.80489 202
63.825 247
63.84511 189
63.86523 268
63.88534 258
63.90545 303
63.92557 356
63.94568 382
63.96579 450
63.98591 511
64.00602 560
64.02614 583
64.04625 590
64.06636 523
64.08648 358
64.10659 328
64.1267 264
64.14682 316
64.16693 334
64.18705 341
64.20716 360
64.22727 334
64.24739 293
64.2675 203
64.28761 186
64.30773 166
64.32784 179
64.34796 165
64.36807 177
64.38818 145
64.4083 154
64.42841 141
64.44852 133
64.46864 142
64.48875 140
64.50886 161
64.52898 135
64.54909 124
64.56921 150
64.58932 139
64.60943 147
64.62955 139
64.64966 147
64.66977 146
64.68989 137
64.71 148
64.73012 129
64.75023 156
64.77034 150
64.79046 144
64.81057 119
64.83068 140
64.8508 153
64.87091 132
64.89102 127
64.91114 156
64.93125 149
64.95137 143
64.97148 138
64.99159 127
65.01171 150
65.03182 154
65.05193 144
65.07205 158
65.09216 145
65.11228 148
65.13239 144
65.1525 162
65.17262 159
65.19273 137
65.21284 156
65.23296 172
65.25307 155
65.27319 163
65.2933 145
65.31341 160
65.33353 181
65.35364 152
65.37375 164
65.39387 178
65.41398 139
65.43409 160
65.45421 162
65.47432 147
65.49444 149
65.51455 159
65.53466 154
65.55478 169
65.57489 179
65.595 160
65.61512 178
65.63523 181
65.65535 163
65.67546 173
65.69557 199
65.71569 207
65.7358 219
65.75591 244
65.77603 242
65.79614 228
65.81626 199
65.83637 194
65.85648 162
65.8766 174
65.89671 174
65.91682 194
65.93694 196
65.95705 202
65.97716 187
65.99728 178
66.01739 193
66.03751 146
66.05762 155
66.07773 144
66.09785 159
66.11796 140
66.13807 139
66.15819 129
66.1783 152
66.19842 149
66.21853 156
66.23864 170
66.25876 167
66.27887 162
66.29898 164
66.3191 163
66.33921 160
66.35933 183
66.37944 168
66.39955 142
66.41967 163
66.43978 201
66.45989 164
66.48001 171
66.50012 145
66.52023 162
66.54035 184
66.56046 135
66.58058 152
66.60069 155
66.6208 136
66.64092 146
66.66103 134
66.68114 136
66.70126 143
66.72137 140
66.74149 140
66.7616 137
66.78171 144
66.80183 145
66.82194 140
66.84205 139
66.86217 139
66.88228 155
66.90239 158
66.92251 157
66.94262 165
66.96274 169
66.98285 150
67.00296 169
67.02308 178
67.04319 146
67.0633 165
67.08342 158
67.10353 172
67.12365 180
67.14376 160
67.16387 158
67.18399 182
67.2041 170
67.22421 174
67.24433 185
67.26444 162
67.28456 194
67.30467 184
67.32478 203
67.3449 193
67.36501 203
67.38512 217
67.40524 214
67.42535 234
67.44546 243
67.46558 234
67.48569 279
67.50581 291
67.52592 311
67.54603 359
67.56615 423
67.58626 536
67.60637 579
67.62649 666
67.6466 873
67.66672 1030
67.68683 1224
67.70694 1410
67.72706 1546
67.74717 1547
67.76728 1251
67.7874 914
67.80751 774
67.82763 675
67.84774 682
67.86785 830
67.88797 844
67.90808 991
67.92819 1097
67.94831 1031
67.96842 875
67.98853 794
68.00865 865
68.02876 882
68.04888 1058
68.06899 1221
68.0891 1508
68.10922 1671
68.12933 1924
68.14944 1875
68.16956 1599
68.18967 1293
68.20979 1227
68.2299 1231
68.25001 1418
68.27013 1605
68.29024 1751
68.31035 1826
68.33047 1686
68.35058 1379
68.3707 1028
68.39081 768
68.41092 686
68.43104 613
68.45115 638
68.47126 670
68.49138 691
68.51149 630
68.5316 513
68.55172 406
68.57183 312
68.59195 285
68.61206 239
68.63217 222
68.65229 217
68.6724 187
68.69251 202
68.71263 195
68.73274 189
68.75286 179
68.77297 161
68.79308 178
68.8132 163
68.83331 165
68.85342 178
68.87354 172
68.89365 160
68.91376 153
68.93388 149
68.95399 167
68.97411 151
68.99422 155
69.01433 147
69.03445 151
69.05456 153
69.07467 136
69.09479 155
69.1149 141
69.13502 151
69.15513 148
69.17524 162
69.19536 116
69.21547 130
69.23558 134
69.2557 139
69.27581 131
69.29593 110
69.31604 151
69.33615 136
69.35627 158
69.37638 132
69.39649 120
69.41661 150
69.43672 124
69.45683 158
69.47695 144
69.49706 115
69.51718 147
69.53729 151
69.5574 132
69.57752 128
69.59763 138
69.61774 144
69.63786 114
69.65797 107
69.67809 133
69.6982 112
69.71831 123
69.73843 121
69.75854 145
69.77865 136
69.79877 138
69.81888 141
69.839 130
69.85911 126
69.87922 134
69.89934 132
69.91945 132
69.93956 130
69.95968 117
69.97979 122
69.9999 127
70.02002 121
70.04013 133
70.06025 135
70.08036 121
70.10047 133
70.12059 131
70.1407 123
70.16081 156
70.18093 137
70.20104 140
70.22116 141
70.24127 125
70.26138 146
70.2815 144
70.30161 111
70.32172 126
70.34184 133
70.36195 114
70.38207 133
70.40218 120
70.42229 147
70.44241 131
70.46252 129
70.48263 134
70.50275 116
70.52286 132
70.54297 133
70.56309 125
70.5832 121
70.60332 143
70.62343 117
70.64354 148
70.66366 150
70.68377 145
70.70388 145
70.724 131
70.74411 134
70.76423 119
70.78434 133
70.80445 130
70.82457 116
70.84468 123
70.86479 124
70.88491 133
70.90502 136
70.92513 114
70.94525 131
70.96536 143
70.98548 136
71.00559 114
71.0257 135
71.04582 111
71.06593 112
71.08604 117
71.10616 130
71.12627 120
71.14639 138
71.1665 111
71.18661 144
71.20673 100
71.22684 125
71.24695 132
71.26707 150
71.28718 123
71.3073 125
71.32741 134
71.34752 139
71.36764 124
71.38775 127
71.40786 122
71.42798 141
71.44809 130
71.4682 135
71.48832 149
71.50843 142
71.52855 138
71.54866 170
71.56877 164
71.58889 145
71.609 140
71.62911 140
71.64923 143
71.66934 134
71.68946 145
71.70957 162
71.72968 157
71.7498 142
71.76991 135
71.79002 143
71.81014 139
71.83025 138
71.85037 140
71.87048 137
71.89059 123
71.91071 124
71.93082 144
71.95093 122
71.97105 126
71.99116 140
72.01127 156
72.03139 148
72.0515 146
72.07162 152
72.09173 153
72.11184 145
72.13196 137
72.15207 142
72.17218 146
72.1923 144
72.21241 143
72.23253 138
72.25264 139
72.27275 147
72.29287 157
72.31298 145
72.33309 130
72.35321 161
72.37332 138
72.39344 134
72.41355 139
72.43366 141
72.45378 140
72.47389 130
72.494 132
72.51412 156
72.53423 139
72.55434 121
72.57446 155
72.59457 117
72.61469 143
72.6348 139
72.65491 145
72.67503 157
72.69514 148
72.71525 137
72.73537 150
72.75548 122
72.7756 153
72.79571 140
72.81582 138
72.83594 141
72.85605 138
72.87616 139
72.89628 126
72.91639 140
72.9365 147
72.95662 149
72.97673 153
72.99685 144
73.01696 153
73.03707 140
73.05719 145
73.0773 148
73.09741 168
73.11753 190
73.13764 173
73.15776 202
73.17787 151
73.19798 185
73.2181 176
73.23821 182
73.25832 229
73.27844 241
73.29855 258
73.31867 263
73.33878 303
73.35889 338
73.37901 364
73.39912 465
73.41923 529
73.43935 533
73.45946 597
73.47957 539
73.49969 406
73.5198 329
73.53992 325
73.56003 262
73.58014 287
73.60026 291
73.62037 297
73.64048 347
73.6606 349
73.68071 367
73.70083 327
73.72094 262
73.74105 210
73.76117 177
73.78128 165
73.80139 125
73.82151 167
73.84162 170
73.86174 136
73.88185 151
73.90196 129
73.92208 156
73.94219 130
73.9623 140
73.98242 148
74.00253 142
74.02264 137
74.04276 140
74.06287 140
74.08299 130
74.1031 135
74.12321 128
74.14333 132
74.16344 125
74.18355 126
74.20367 132
74.22378 135
74.2439 124
74.26401 130
74.28412 120
74.30424 127
74.32435 123
74.34446 155
74.36458 139
74.38469 132
74.40481 126
74.42492 140
74.44503 115
74.46515 135
74.48526 148
74.50537 127
74.52549 153
74.5456 138
74.56571 157
74.58583 136
74.60594 122
74.62606 150
74.64617 130
74.66628 135
74.6864 125
74.70651 136
74.72662 125
74.74674 146
74.76685 133
74.78697 144
74.80708 146
74.82719 144
74.84731 149
74.86742 117
74.88753 123
74.90765 133
74.92776 137
74.94787 126
74.96799 122
74.9881 120
75.00822 135
