3.00117 18824
3.02128 18718
3.0414 17958
3.06151 17535
3.08162 17408
3.10174 16298
3.12185 16571
3.14197 15450
3.16208 15285
3.18219 15066
3.20231 14229
3.22242 14186
3.24253 13387
3.26265 12988
3.28276 12853
3.30288 12040
3.32299 12263
3.3431 11412
3.36322 11184
3.38333 11145
3.40344 10364
3.42356 10365
3.44367 10100
3.46379 9632
3.4839 9257
3.50401 8830
3.52413 8638
3.54424 8391
3.56435 7853
3.58447 7796
3.60458 7133
3.62469 7088
3.64481 6887
3.66492 6495
3.68504 6450
3.70515 6095
3.72526 5955
3.74538 5638
3.76549 5507
3.7856 5368
3.80572 4827
3.82583 5057
3.84595 4645
3.86606 4454
3.88617 4388
3.90629 3884
3.9264 3906
3.94651 3720
3.96663 3596
3.98674 3484
4.00686 3123
4.02697 3112
4.04708 3036
4.0672 2910
4.08731 2788
4.10742 2522
4.12754 2558
4.14765 2456
4.16776 2321
4.18788 2355
4.20799 2120
4.22811 2172
4.24822 2060
4.26833 1921
4.28845 1971
4.30856 1734
4.32867 1780
4.34879 1712
4.3689 1718
4.38902 1721
4.40913 1585
4.42924 1596
4.44936 1488
4.46947 1435
4.48958 1474
4.5097 1372
4.52981 1359
4.54992 1375
4.57004 1297
4.59015 1356
4.61027 1284
4.63038 1280
4.65049 1225
4.67061 1185
4.69072 1167
4.71083 1154
4.73095 1097
4.75106 1084
4.77118 1039
4.79129 1040
4.8114 1001
4.83152 1000
4.85163 988
4.87174 899
4.89186 1035
4.91197 950
4.93209 883
4.9522 908
4.97231 914
4.99243 873
5.01254 823
5.03265 773
5.05277 823
5.07288 828
5.09299 763
5.11311 733
5.13322 712
5.15334 744
5.17345 754
5.19356 675
5.21368 652
5.23379 678
5.2539 614
5.27402 651
5.29413 585
5.31425 598
5.33436 599
5.35447 565
5.37459 580
5.3947 590
5.41481 568
5.43493 537
5.45504 550
5.47516 561
5.49527 514
5.51538 502
5.5355 501
5.55561 459
5.57572 472
5.59584 499
5.61595 499
5.63606 483
5.65618 446
5.67629 428
5.69641 399
5.71652 424
5.73663 418
5.75675 402
5.77686 386
5.79697 410
5.81709 423
5.8372 399
5.85732 392
5.87743 397
5.89754 393
5.91766 387
5.93777 394
5.95788 352
5.978 367
5.99811 363
6.01823 378
6.03834 378
6.05845 352
6.07857 393
6.09868 353
6.11879 369
6.13891 362
6.15902 359
6.17913 356
6.19925 355
6.21936 370
6.23948 364
6.25959 322
6.2797 328
6.29982 365
6.31993 327
6.34004 347
6.36016 332
6.38027 314
6.40039 345
6.4205 339
6.44061 329
6.46073 319
6.48084 320
6.50095 334
6.52107 324
6.54118 328
6.56129 312
6.58141 331
6.60152 331
6.62164 314
6.64175 329
6.66186 327
6.68198 313
6.70209 322
6.7222 292
6.74232 320
6.76243 269
6.78255 324
6.80266 303
6.82277 334
6.84289 303
6.863 301
6.88311 287
6.90323 290
6.92334 311
6.94346 324
6.96357 356
6.98368 298
7.0038 332
7.02391 293
7.04402 257
7.06414 333
7.08425 316
7.10436 297
7.12448 313
7.14459 284
7.16471 269
7.18482 298
7.20493 309
7.22505 299
7.24516 322
7.26527 293
7.28539 324
7.3055 347
7.32562 331
7.34573 280
7.36584 312
7.38596 301
7.40607 305
7.42618 284
7.4463 321
7.46641 323
7.48653 287
7.50664 334
7.52675 279
7.54687 316
7.56698 314
7.58709 343
7.60721 287
7.62732 309
7.64743 268
7.66755 311
7.68766 279
7.70778 303
7.72789 300
7.748 290
7.76812 328
7.78823 310
7.80834 338
7.82846 307
7.84857 334
7.86869 283
7.8888 319
7.90891 279
7.92903 288
7.94914 308
7.96925 312
7.98937 319
8.00948 322
8.0296 335
8.04971 263
8.06982 309
8.08994 284
8.11005 309
8.13016 304
8.15028 299
8.17039 299
8.1905 294
8.21062 314
8.23073 324
8.25085 311
8.27096 293
8.29107 328
8.31119 317
8.3313 304
8.35141 306
8.37153 348
8.39164 289
8.41176 296
8.43187 315
8.45198 288
8.4721 311
8.49221 309
8.51232 296
8.53244 278
8.55255 314
8.57266 291
8.59278 333
8.61289 305
8.63301 305
8.65312 298
8.67323 291
8.69335 284
8.71346 324
8.73357 290
8.75369 315
8.7738 346
8.79392 361
8.81403 286
8.83414 270
8.85426 292
8.87437 308
8.89448 319
8.9146 317
8.93471 298
8.95483 305
8.97494 310
8.99505 292
9.01517 299
9.03528 271
9.05539 308
9.07551 294
9.09562 299
9.11573 316
9.13585 320
9.15596 292
9.17608 322
9.19619 293
9.2163 311
9.23642 298
9.25653 265
9.27664 273
9.29676 321
9.31687 325
9.33699 297
9.3571 294
9.37721 303
9.39733 331
9.41744 324
9.43755 317
9.45767 275
9.47778 353
9.4979 291
9.51801 341
9.53812 326
9.55824 291
9.57835 296
9.59846 319
9.61858 295
9.63869 316
9.6588 311
9.67892 320
9.69903 290
9.71915 274
9.73926 300
9.75937 289
9.77949 328
9.7996 289
9.81971 292
9.83983 305
9.85994 303
9.88006 307
9.90017 295
9.92028 274
9.9404 273
9.96051 299
9.98062 305
10.00074 284
10.02085 345
10.04097 322
10.06108 342
10.08119 306
10.10131 278
10.12142 314
10.14153 305
10.16165 290
10.18176 320
10.20187 324
10.22199 330
10.2421 296
10.26222 283
10.28233 313
10.30244 287
10.32256 305
10.34267 288
10.36278 337
10.3829 331
10.40301 289
10.42313 265
10.44324 311
10.46335 284
10.48347 324
10.50358 301
10.52369 308
10.54381 308
10.56392 302
10.58403 303
10.60415 305
10.62426 321
10.64438 311
10.66449 294
10.6846 311
10.70472 293
10.72483 273
10.74494 311
10.76506 306
10.78517 298
10.80529 279
10.8254 301
10.84551 313
10.86563 310
10.88574 304
10.90585 288
10.92597 317
10.94608 285
10.9662 343
10.98631 316
11.00642 331
11.02654 344
11.04665 307
11.06676 364
11.08688 306
11.10699 332
11.1271 319
11.14722 340
11.16733 319
11.18745 327
11.20756 289
11.22767 332
11.24779 278
11.2679 351
11.28801 325
11.30813 337
11.32824 320
11.34836 320
11.36847 329
11.38858 309
11.4087 325
11.42881 320
11.44892 308
11.46904 310
11.48915 331
11.50927 358
11.52938 356
11.54949 354
11.56961 345
11.58972 357
11.60983 333
11.62995 325
11.65006 353
11.67017 358
11.69029 370
11.7104 350
11.73052 375
11.75063 356
11.77074 344
11.79086 360
11.81097 414
11.83108 402
11.8512 405
11.87131 423
11.89143 428
11.91154 468
11.93165 403
11.95177 467
11.97188 448
11.99199 463
12.01211 515
12.03222 523
12.05234 550
12.07245 538
12.09256 601
12.11268 637
12.13279 632
12.1529 707
12.17302 680
12.19313 687
12.21324 791
12.23336 805
12.25347 834
12.27359 817
12.2937 876
12.31381 906
12.33393 880
12.35404 830
12.37415 829
12.39427 792
12.41438 726
12.4345 745
12.45461 655
12.47472 621
12.49484 594
12.51495 556
12.53506 511
12.55518 473
12.57529 466
12.5954 423
12.61552 436
12.63563 416
12.65575 399
12.67586 381
12.69597 406
12.71609 333
12.7362 349
12.75631 328
12.77643 371
12.79654 365
12.81666 333
12.83677 315
12.85688 313
12.877 325
12.89711 315
12.91722 306
12.93734 326
12.95745 330
12.97757 321
12.99768 312
13.01779 353
13.03791 304
13.05802 279
13.07813 293
13.09825 305
13.11836 300
13.13847 317
13.15859 310
13.1787 312
13.19882 262
13.21893 328
13.23904 270
13.25916 282
13.27927 297
13.29938 265
13.3195 321
13.33961 260
13.35973 307
13.37984 279
13.39995 297
13.42007 277
13.44018 297
13.46029 287
13.48041 295
13.50052 272
13.52064 291
13.54075 260
13.56086 271
13.58098 291
13.60109 268
13.6212 302
13.64132 309
13.66143 298
13.68154 317
13.70166 267
13.72177 294
13.74189 287
13.762 290
13.78211 268
13.80223 264
13.82234 258
13.84245 265
13.86257 266
13.88268 285
13.9028 252
13.92291 283
13.94302 301
13.96314 257
13.98325 256
14.00336 284
14.02348 266
14.04359 254
14.06371 276
14.08382 271
14.10393 267
14.12405 292
14.14416 256
14.16427 242
14.18439 278
14.2045 249
14.22461 282
14.24473 308
14.26484 307
14.28496 316
14.30507 244
14.32518 266
14.3453 298
14.36541 298
14.38552 261
14.40564 308
14.42575 277
14.44587 278
14.46598 261
14.48609 269
14.50621 278
14.52632 245
14.54643 268
14.56655 243
14.58666 297
14.60677 231
14.62689 246
14.647 262
14.66712 273
14.68723 273
14.70734 290
14.72746 276
14.74757 275
14.76768 269
14.7878 248
14.80791 292
14.82803 284
14.84814 256
14.86825 233
14.88837 280
14.90848 247
14.92859 270
14.94871 273
14.96882 257
14.98894 247
15.00905 283
15.02916 222
15.04928 242
15.06939 262
15.0895 292
15.10962 248
15.12973 252
15.14984 281
15.16996 249
15.19007 319
15.21019 256
15.2303 284
15.25041 256
15.27053 261
15.29064 234
15.31075 291
15.33087 288
15.35098 231
15.3711 258
15.39121 262
15.41132 272
15.43144 263
15.45155 264
15.47166 260
15.49178 291
15.51189 254
15.53201 249
15.55212 276
15.57223 258
15.59235 244
15.61246 251
15.63257 284
15.65269 254
15.6728 270
15.69291 264
15.71303 280
15.73314 257
15.75326 225
15.77337 229
15.79348 278
15.8136 255
15.83371 253
15.85382 272
15.87394 267
15.89405 255
15.91417 271
15.93428 253
15.95439 261
15.97451 238
15.99462 266
16.01473 235
16.03485 272
16.05496 266
16.07508 281
16.09519 271
16.1153 227
16.13542 253
16.15553 266
16.17564 249
16.19576 249
16.21587 258
16.23598 286
16.2561 278
16.27621 299
16.29633 299
16.31644 259
16.33655 240
16.35667 260
16.37678 253
16.39689 254
16.41701 218
16.43712 256
16.45724 239
16.47735 266
16.49746 261
16.51758 292
16.53769 276
16.5578 254
16.57792 266
16.59803 246
16.61814 257
16.63826 265
16.65837 262
16.67849 248
16.6986 242
16.71871 238
16.73883 255
16.75894 263
16.77905 263
16.79917 277
16.81928 254
16.8394 260
16.85951 257
16.87962 273
16.89974 269
16.91985 250
16.93996 231
16.96008 256
16.98019 285
17.00031 261
17.02042 266
17.04053 220
17.06065 266
17.08076 289
17.10087 255
17.12099 251
17.1411 264
17.16121 275
17.18133 251
17.20144 266
17.22156 256
17.24167 246
17.26178 259
17.2819 279
17.30201 227
17.32212 245
17.34224 255
17.36235 260
17.38247 276
17.40258 271
17.42269 287
17.44281 263
17.46292 276
17.48303 285
17.50315 266
17.52326 278
17.54338 248
17.56349 246
17.5836 276
17.60372 260
17.62383 248
17.64394 273
17.66406 260
17.68417 284
17.70428 258
17.7244 290
17.74451 288
17.76463 296
17.78474 256
17.80485 274
17.82497 259
17.84508 280
17.86519 326
17.88531 284
17.90542 307
17.92554 306
17.94565 298
17.96576 300
17.98588 287
18.00599 333
18.0261 325
18.04622 321
18.06633 348
18.08645 345
18.10656 373
18.12667 424
18.14679 493
18.1669 566
18.18701 611
18.20713 711
18.22724 735
18.24735 854
18.26747 933
18.28758 927
18.3077 878
18.32781 764
18.34792 719
18.36804 542
18.38815 468
18.40826 409
18.42838 433
18.44849 361
18.46861 358
18.48872 348
18.50883 311
18.52895 319
18.54906 296
18.56917 323
18.58929 324
18.6094 272
18.62951 326
18.64963 285
18.66974 274
18.68986 291
18.70997 303
18.73008 312
18.7502 276
18.77031 270
18.79042 263
18.81054 313
18.83065 287
18.85077 265
18.87088 303
18.89099 287
18.91111 297
18.93122 244
18.95133 266
18.97145 287
18.99156 267
19.01168 259
19.03179 268
19.0519 273
19.07202 304
19.09213 278
19.11224 268
19.13236 232
19.15247 276
19.17258 275
19.1927 277
19.21281 256
19.23293 271
19.25304 276
19.27315 278
19.29327 287
19.31338 281
19.33349 287
19.35361 280
19.37372 289
19.39384 284
19.41395 282
19.43406 298
19.45418 299
19.47429 294
19.4944 262
19.51452 305
19.53463 309
19.55475 295
19.57486 301
19.59497 316
19.61509 349
19.6352 338
19.65531 342
19.67543 424
19.69554 391
19.71565 435
19.73577 458
19.75588 538
19.776 512
19.79611 542
19.81622 611
19.83634 632
19.85645 653
19.87656 674
19.89668 637
19.91679 666
19.93691 661
19.95702 653
19.97713 640
19.99725 603
20.01736 614
20.03747 632
20.05759 637
20.0777 610
20.09782 660
20.11793 649
20.13804 691
20.15816 740
20.17827 743
20.19838 769
20.2185 792
20.23861 817
20.25872 821
20.27884 785
20.29895 766
20.31907 827
20.33918 728
20.35929 718
20.37941 782
20.39952 742
20.41963 764
20.43975 736
20.45986 802
20.47998 768
20.50009 768
20.5202 819
20.54032 764
20.56043 784
20.58054 818
20.60066 802
20.62077 867
20.64088 952
20.661 1093
20.68111 1285
20.70123 1621
20.72134 1968
20.74145 2527
20.76157 3310
20.78168 3983
20.80179 4682
20.82191 5250
20.84202 4971
20.86214 4471
20.88225 3578
20.90236 2684
20.92248 1935
20.94259 1394
20.9627 967
20.98282 802
21.00293 763
21.02305 693
21.04316 680
21.06327 645
21.08339 644
21.1035 608
21.12361 691
21.14373 626
21.16384 668
21.18395 634
21.20407 611
21.22418 628
21.2443 609
21.26441 623
21.28452 627
21.30464 622
21.32475 655
21.34486 559
21.36498 580
21.38509 636
21.40521 641
21.42532 646
21.44543 573
21.46555 634
21.48566 628
21.50577 615
21.52589 616
21.546 622
21.56612 564
21.58623 626
21.60634 535
21.62646 542
21.64657 567
21.66668 476
21.6868 498
21.70691 495
21.72702 544
21.74714 483
21.76725 500
21.78737 453
21.80748 480
21.82759 470
21.84771 470
21.86782 492
21.88793 445
21.90805 492
21.92816 400
21.94828 421
21.96839 455
21.9885 462
22.00862 485
22.02873 457
22.04884 430
22.06896 422
22.08907 398
22.10919 446
22.1293 394
22.14941 431
22.16953 404
22.18964 451
22.20975 372
22.22987 434
22.24998 414
22.27009 458
22.29021 414
22.31032 420
22.33044 396
22.35055 427
22.37066 405
22.39078 411
22.41089 404
22.431 410
22.45112 367
22.47123 402
22.49135 397
22.51146 381
22.53157 392
22.55169 380
22.5718 389
22.59191 405
22.61203 377
22.63214 399
22.65225 372
22.67237 389
22.69248 423
22.7126 373
22.73271 385
22.75282 357
22.77294 417
22.79305 377
22.81316 382
22.83328 355
22.85339 374
22.87351 403
22.89362 351
22.91373 400
22.93385 382
22.95396 324
22.97407 394
22.99419 373
23.0143 395
23.03442 361
23.05453 346
23.07464 359
23.09476 384
23.11487 374
23.13498 353
23.1551 367
23.17521 367
23.19532 409
23.21544 411
23.23555 351
23.25567 371
23.27578 340
23.29589 352
23.31601 343
23.33612 310
23.35623 345
23.37635 339
23.39646 337
23.41658 339
23.43669 355
23.4568 375
23.47692 374
23.49703 358
23.51714 367
23.53726 336
23.55737 353
23.57749 373
23.5976 368
23.61771 413
23.63783 358
23.65794 388
23.67805 379
23.69817 378
23.71828 359
23.73839 404
23.75851 380
23.77862 402
23.79874 419
23.81885 393
23.83896 369
23.85908 377
23.87919 390
23.8993 385
23.91942 414
23.93953 465
23.95965 396
23.97976 422
23.99987 448
24.01999 425
24.0401 421
24.06021 393
24.08033 383
24.10044 379
24.12056 394
24.14067 372
24.16078 368
24.1809 390
24.20101 370
24.22112 396
24.24124 388
24.26135 402
24.28146 427
24.30158 427
24.32169 434
24.34181 419
24.36192 388
24.38203 394
24.40215 407
24.42226 392
24.44237 412
24.46249 450
24.4826 420
24.50272 473
24.52283 454
24.54294 474
24.56306 493
24.58317 499
24.60328 551
24.6234 554
24.64351 578
24.66362 569
24.68374 625
24.70385 626
24.72397 694
24.74408 654
24.76419 684
24.78431 684
24.80442 703
24.82453 756
24.84465 695
24.86476 730
24.88488 709
24.90499 676
24.9251 649
24.94522 603
24.96533 623
24.98544 605
25.00556 638
25.02567 541
25.04579 469
25.0659 499
25.08601 512
25.10613 469
25.12624 496
25.14635 464
25.16647 497
25.18658 481
25.20669 460
25.22681 445
25.24692 494
25.26704 489
25.28715 497
25.30726 464
25.32738 454
25.34749 398
25.3676 385
25.38772 383
25.40783 391
25.42795 394
25.44806 432
25.46817 401
25.48829 425
25.5084 394
25.52851 376
25.54863 391
25.56874 388
25.58886 387
25.60897 376
25.62908 420
25.6492 445
25.66931 447
25.68942 437
25.70954 458
25.72965 476
25.74976 461
25.76988 462
25.78999 529
25.81011 532
25.83022 518
25.85033 490
25.87045 487
25.89056 514
25.91067 491
25.93079 526
25.9509 513
25.97102 518
25.99113 574
26.01124 610
26.03136 626
26.05147 651
26.07158 602
26.0917 660
26.11181 685
26.13193 705
26.15204 722
26.17215 746
26.19227 796
26.21238 846
26.23249 923
26.25261 943
26.27272 1062
26.29283 1117
26.31295 1176
26.33306 1268
26.35318 1513
26.37329 1635
26.3934 2021
26.41352 2719
26.43363 3366
26.45374 4469
26.47386 6176
26.49397 8105
26.51409 10529
26.5342 13759
26.55431 17576
26.57443 20170
26.59454 21998
26.61465 22451
26.63477 20702
26.65488 16453
26.67499 12410
26.69511 9503
26.71522 6611
26.73534 3991
26.75545 2563
26.77556 1876
26.79568 1470
26.81579 1289
26.8359 1213
26.85602 1057
26.87613 1050
26.89625 996
26.91636 883
26.93647 773
26.95659 730
26.9767 701
26.99681 632
27.01693 592
27.03704 609
27.05716 537
27.07727 513
27.09738 527
27.1175 506
27.13761 528
27.15772 485
27.17784 508
27.19795 480
27.21806 458
27.23818 466
27.25829 438
27.27841 478
27.29852 456
27.31863 484
27.33875 448
27.35886 443
27.37897 439
27.39909 415
27.4192 468
27.43932 455
27.45943 463
27.47954 395
27.49966 441
27.51977 433
27.53988 437
27.56 340
27.58011 426
27.60023 412
27.62034 380
27.64045 356
27.66057 372
27.68068 400
27.70079 379
27.72091 396
27.74102 421
27.76113 380
27.78125 402
27.80136 358
27.82148 401
27.84159 387
27.8617 389
27.88182 408
27.90193 379
27.92204 378
27.94216 377
27.96227 418
27.98239 371
28.0025 390
28.02261 408
28.04273 362
28.06284 370
28.08295 371
28.10307 397
28.12318 369
28.1433 388
28.16341 329
28.18352 346
28.20364 354
28.22375 352
28.24386 333
28.26398 372
28.28409 313
28.3042 356
28.32432 325
28.34443 332
28.36455 365
28.38466 312
28.40477 349
28.42489 300
28.445 356
28.46511 351
28.48523 352
28.50534 362
28.52546 313
28.54557 301
28.56568 338
28.5858 309
28.60591 323
28.62602 335
28.64614 361
28.66625 318
28.68636 312
28.70648 340
28.72659 323
28.74671 316
28.76682 332
28.78693 321
28.80705 310
28.82716 313
28.84727 353
28.86739 324
28.8875 292
28.90762 314
28.92773 314
28.94784 293
28.96796 296
28.98807 315
29.00818 334
29.0283 287
29.04841 320
29.06853 310
29.08864 334
29.10875 307
29.12887 318
29.14898 325
29.16909 281
29.18921 338
29.20932 304
29.22943 310
29.24955 303
29.26966 303
29.28978 284
29.30989 322
29.33 299
29.35012 334
29.37023 333
29.39034 341
29.41046 313
29.43057 311
29.45069 303
29.4708 298
29.49091 290
29.51103 254
29.53114 301
29.55125 290
29.57137 297
29.59148 278
29.6116 270
29.63171 326
29.65182 273
29.67194 309
29.69205 293
29.71216 284
29.73228 314
29.75239 300
29.7725 300
29.79262 264
29.81273 286
29.83285 263
29.85296 289
29.87307 312
29.89319 284
29.9133 274
29.93341 276
29.95353 301
29.97364 264
29.99376 304
30.01387 279
30.03398 269
30.0541 278
30.07421 292
30.09432 273
30.11444 292
30.13455 286
30.15467 297
30.17478 292
30.19489 274
30.21501 296
30.23512 293
30.25523 303
30.27535 288
30.29546 291
30.31557 291
30.33569 268
30.3558 263
30.37592 302
30.39603 285
30.41614 307
30.43626 281
30.45637 275
30.47648 281
30.4966 317
30.51671 282
30.53683 294
30.55694 278
30.57705 267
30.59717 299
30.61728 290
30.63739 274
30.65751 280
30.67762 253
30.69773 262
30.71785 258
30.73796 282
30.75808 300
30.77819 293
30.7983 332
30.81842 306
30.83853 292
30.85864 288
30.87876 297
30.89887 280
30.91899 290
30.9391 285
30.95921 287
30.97933 287
30.99944 287
31.01955 307
31.03967 270
31.05978 271
31.0799 311
31.10001 277
31.12012 278
31.14024 270
31.16035 297
31.18046 305
31.20058 289
31.22069 311
31.2408 266
31.26092 282
31.28103 288
31.30115 261
31.32126 281
31.34137 271
31.36149 281
31.3816 267
31.40171 288
31.42183 283
31.44194 303
31.46206 262
31.48217 283
31.50228 265
31.5224 270
31.54251 258
31.56262 274
31.58274 272
31.60285 264
31.62297 293
31.64308 271
31.66319 316
31.68331 284
31.70342 264
31.72353 293
31.74365 283
31.76376 275
31.78387 263
31.80399 277
31.8241 267
31.84422 268
31.86433 273
31.88444 298
31.90456 263
31.92467 282
31.94478 285
31.9649 272
31.98501 283
32.00513 292
32.02524 287
32.04535 271
32.06547 281
32.08558 265
32.10569 265
32.12581 257
32.14592 277
32.16604 299
32.18615 287
32.20626 277
32.22638 273
32.24649 266
32.2666 320
32.28672 287
32.30683 287
32.32694 296
32.34706 311
32.36717 299
32.38729 298
32.4074 288
32.42751 322
32.44763 367
32.46774 318
32.48785 368
32.50797 363
32.52808 355
32.5482 350
32.56831 338
32.58842 361
32.60854 330
32.62865 338
32.64876 316
32.66888 307
32.68899 303
32.7091 283
32.72922 311
32.74933 278
32.76945 311
32.78956 285
32.80967 293
32.82979 324
32.8499 316
32.87001 293
32.89013 324
32.91024 330
32.93036 308
32.95047 292
32.97058 313
32.9907 309
33.01081 336
33.03092 282
33.05104 324
33.07115 350
33.09127 332
33.11138 335
33.13149 335
33.15161 297
33.17172 342
33.19183 301
33.21195 326
33.23206 304
33.25217 340
33.27229 328
33.2924 309
33.31252 314
33.33263 298
33.35274 281
33.37286 305
33.39297 325
33.41308 295
33.4332 302
33.45331 278
33.47343 322
33.49354 283
33.51365 338
33.53377 300
33.55388 299
33.57399 315
33.59411 340
33.61422 328
33.63434 315
33.65445 352
33.67456 322
33.69468 314
33.71479 297
33.7349 314
33.75502 298
33.77513 321
33.79524 287
33.81536 306
33.83547 290
33.85559 293
33.8757 296
33.89581 304
33.91593 308
33.93604 289
33.95615 290
33.97627 297
33.99638 302
34.0165 275
34.03661 301
34.05672 287
34.07684 313
34.09695 301
34.11706 291
34.13718 277
34.15729 290
34.17741 252
34.19752 301
34.21763 328
34.23775 293
34.25786 262
34.27797 256
34.29809 254
34.3182 271
34.33831 259
34.35843 290
34.37854 292
34.39866 278
34.41877 317
34.43888 285
34.459 270
34.47911 289
34.49922 311
34.51934 274
34.53945 268
34.55957 311
34.57968 308
34.59979 327
34.61991 323
34.64002 355
34.66013 351
34.68025 331
34.70036 333
34.72047 381
34.74059 391
34.7607 422
34.78082 410
34.80093 393
34.82104 413
34.84116 424
34.86127 418
34.88138 477
34.9015 450
34.92161 460
34.94173 437
34.96184 434
34.98195 487
35.00207 460
35.02218 449
35.04229 434
35.06241 455
35.08252 456
35.10264 462
35.12275 450
35.14286 480
35.16298 427
35.18309 473
35.2032 448
35.22332 463
35.24343 479
35.26354 438
35.28366 437
35.30377 481
35.32389 459
35.344 457
35.36411 482
35.38423 427
35.40434 489
35.42445 462
35.44457 452
35.46468 482
35.4848 407
35.50491 413
35.52502 449
35.54514 438
35.56525 441
35.58536 446
35.60548 420
35.62559 449
35.64571 442
35.66582 454
35.68593 454
35.70605 463
35.72616 422
35.74627 452
35.76639 470
35.7865 438
35.80661 448
35.82673 472
35.84684 470
35.86696 521
35.88707 510
35.90718 476
35.9273 490
35.94741 464
35.96752 469
35.98764 458
36.00775 475
36.02787 467
36.04798 466
36.06809 442
36.08821 475
36.10832 423
36.12843 412
36.14855 414
36.16866 410
36.18878 472
36.20889 451
36.229 466
36.24912 433
36.26923 475
36.28934 545
36.30946 593
36.32957 664
36.34968 738
36.3698 832
36.38991 1016
36.41003 1144
36.43014 1300
36.45025 1486
36.47037 1740
36.49048 1798
36.51059 1817
36.53071 1656
36.55082 1466
36.57094 1289
36.59105 1076
36.61116 1006
36.63128 843
36.65139 719
36.6715 589
36.69162 445
36.71173 459
36.73184 457
36.75196 452
36.77207 436
36.79219 425
36.8123 384
36.83241 390
36.85253 366
36.87264 386
36.89275 427
36.91287 409
36.93298 363
36.9531 363
36.97321 389
36.99332 419
37.01344 406
37.03355 380
37.05366 411
37.07378 418
37.09389 436
37.11401 385
37.13412 427
37.15423 382
37.17435 376
37.19446 398
37.21457 414
37.23469 399
37.2548 435
37.27491 407
37.29503 416
37.31514 428
37.33526 389
37.35537 421
37.37548 407
37.3956 434
37.41571 464
37.43582 433
37.45594 403
37.47605 422
37.49617 440
37.51628 410
37.53639 441
37.55651 428
37.57662 461
37.59673 495
37.61685 440
37.63696 437
37.65708 483
37.67719 454
37.6973 439
37.71742 392
37.73753 456
37.75764 382
37.77776 386
37.79787 411
37.81798 420
37.8381 368
37.85821 397
37.87833 367
37.89844 372
37.91855 382
37.93867 360
37.95878 379
37.97889 385
37.99901 363
38.01912 393
38.03924 422
38.05935 403
38.07946 421
38.09958 456
38.11969 412
38.1398 448
38.15992 428
38.18003 479
38.20015 488
38.22026 487
38.24037 473
38.26049 438
38.2806 470
38.30071 436
38.32083 440
38.34094 511
38.36105 481
38.38117 477
38.40128 493
38.4214 442
38.44151 482
38.46162 469
38.48174 447
38.50185 434
38.52196 427
38.54208 439
38.56219 399
38.58231 414
38.60242 389
38.62253 394
38.64265 390
38.66276 390
38.68287 376
38.70299 398
38.7231 382
38.74321 391
38.76333 343
38.78344 347
38.80356 414
38.82367 351
38.84378 371
38.8639 369
38.88401 388
38.90412 365
38.92424 351
38.94435 405
38.96447 371
38.98458 401
39.00469 410
39.02481 362
39.04492 380
39.06503 395
39.08515 422
39.10526 401
39.12538 406
39.14549 439
39.1656 467
39.18572 464
39.20583 525
39.22594 545
39.24606 640
39.26617 658
39.28628 739
39.3064 877
39.32651 997
39.34663 1161
39.36674 1304
39.38685 1395
39.40697 1586
39.42708 1488
39.44719 1457
39.46731 1295
39.48742 1116
39.50754 925
39.52765 860
39.54776 778
39.56788 618
39.58799 501
39.6081 422
39.62822 407
39.64833 379
39.66845 340
39.68856 324
39.70867 304
39.72879 331
39.7489 292
39.76901 308
39.78913 299
39.80924 315
39.82935 327
39.84947 321
39.86958 287
39.8897 327
39.90981 313
39.92992 346
39.95004 321
39.97015 337
39.99026 367
40.01038 374
40.03049 370
40.05061 385
40.07072 432
40.09083 489
40.11095 520
40.13106 562
40.15117 618
40.17129 700
40.1914 793
40.21152 776
40.23163 906
40.25174 863
40.27186 825
40.29197 719
40.31208 646
40.3322 588
40.35231 514
40.37242 532
40.39254 456
40.41265 414
40.43277 368
40.45288 375
40.47299 314
40.49311 303
40.51322 340
40.53333 365
40.55345 331
40.57356 304
40.59368 347
40.61379 299
40.6339 322
40.65402 326
40.67413 277
40.69424 305
40.71436 332
40.73447 322
40.75458 305
40.7747 299
40.79481 332
40.81493 319
40.83504 328
40.85515 321
40.87527 320
40.89538 300
40.91549 290
40.93561 327
40.95572 327
40.97584 310
40.99595 323
41.01606 324
41.03618 306
41.05629 304
41.0764 323
41.09652 294
41.11663 285
41.13675 297
41.15686 312
41.17697 298
41.19709 303
41.2172 271
41.23731 303
41.25743 288
41.27754 320
41.29765 299
41.31777 283
41.33788 302
41.358 310
41.37811 304
41.39822 280
41.41834 299
41.43845 308
41.45856 295
41.47868 296
41.49879 302
41.51891 303
41.53902 288
41.55913 332
41.57925 304
41.59936 312
41.61947 310
41.63959 318
41.6597 312
41.67982 302
41.69993 316
41.72004 295
41.74016 286
41.76027 308
41.78038 316
41.8005 290
41.82061 340
41.84072 318
41.86084 328
41.88095 276
41.90107 294
41.92118 302
41.94129 283
41.96141 304
41.98152 324
42.00163 296
42.02175 306
42.04186 289
42.06198 300
42.08209 305
42.1022 301
42.12232 328
42.14243 334
42.16254 322
42.18266 365
42.20277 374
42.22289 386
42.243 440
42.26311 553
42.28323 668
42.30334 708
42.32345 725
42.34357 947
42.36368 1008
42.38379 1013
42.40391 1045
42.42402 992
42.44414 888
42.46425 806
42.48436 727
42.50448 680
42.52459 624
42.5447 482
42.56482 441
42.58493 327
42.60505 300
42.62516 313
42.64527 305
42.66539 251
42.6855 265
42.70561 283
42.72573 254
42.74584 235
42.76595 266
42.78607 252
42.80618 246
42.8263 264
42.84641 265
42.86652 270
42.88664 247
42.90675 245
42.92686 253
42.94698 256
42.96709 200
42.98721 233
43.00732 242
43.02743 220
43.04755 241
43.06766 235
43.08777 233
43.10789 249
43.128 231
43.14812 243
43.16823 232
43.18834 256
43.20846 256
43.22857 260
43.24868 218
43.2688 231
43.28891 257
43.30902 269
43.32914 256
43.34925 266
43.36937 226
43.38948 242
43.40959 252
43.42971 235
43.44982 236
43.46993 247
43.49005 231
43.51016 243
43.53028 227
43.55039 246
43.5705 252
43.59062 270
43.61073 234
43.63084 252
43.65096 236
43.67107 242
43.69119 226
43.7113 265
43.73141 259
43.75153 271
43.77164 238
43.79175 269
43.81187 252
43.83198 254
43.85209 246
43.87221 222
43.89232 245
43.91244 252
43.93255 258
43.95266 230
43.97278 272
43.99289 268
44.013 287
44.03312 257
44.05323 271
44.07335 290
44.09346 266
44.11357 270
44.13369 305
44.1538 287
44.17391 305
44.19403 268
44.21414 272
44.23426 271
44.25437 262
44.27448 282
44.2946 258
44.31471 248
44.33482 263
44.35494 238
44.37505 248
44.39516 261
44.41528 260
44.43539 246
44.45551 268
44.47562 233
44.49573 242
44.51585 233
44.53596 241
44.55607 236
44.57619 260
44.5963 242
44.61642 228
44.63653 229
44.65664 240
44.67676 206
44.69687 268
44.71698 250
44.7371 283
44.75721 253
44.77732 229
44.79744 267
44.81755 240
44.83767 248
44.85778 260
44.87789 248
44.89801 255
44.91812 262
44.93823 259
44.95835 262
44.97846 263
44.99858 252
45.01869 240
45.0388 267
45.05892 291
45.07903 261
45.09914 280
45.11926 233
45.13937 275
45.15949 309
45.1796 291
45.19971 291
45.21983 278
45.23994 329
45.26005 265
45.28017 317
45.30028 333
45.32039 327
45.34051 327
45.36062 342
45.38074 336
45.40085 309
45.42096 347
45.44108 345
45.46119 345
45.4813 371
45.50142 369
45.52153 392
45.54165 396
45.56176 430
45.58187 466
45.60199 502
45.6221 498
45.64221 564
45.66233 674
45.68244 760
45.70256 776
45.72267 854
45.74278 878
45.7629 783
45.78301 713
45.80312 710
45.82324 568
45.84335 536
45.86346 524
45.88358 530
45.90369 435
45.92381 366
45.94392 337
45.96403 296
45.98415 284
46.00426 287
46.02437 285
46.04449 261
46.0646 289
46.08472 292
46.10483 268
46.12494 277
46.14506 250
46.16517 275
46.18528 280
46.2054 257
46.22551 248
46.24563 264
46.26574 259
46.28585 290
46.30597 241
46.32608 255
46.34619 238
46.36631 242
46.38642 284
46.40653 263
46.42665 246
46.44676 267
46.46688 250
46.48699 272
46.5071 254
46.52722 252
46.54733 250
46.56744 248
46.58756 265
46.60767 271
46.62779 270
46.6479 247
46.66801 266
46.68813 245
46.70824 249
46.72835 251
46.74847 268
46.76858 277
46.78869 265
46.80881 271
46.82892 257
46.84904 250
46.86915 262
46.88926 238
46.90938 239
46.92949 264
46.9496 232
46.96972 258
46.98983 246
47.00995 246
47.03006 234
47.05017 261
47.07029 244
47.0904 290
47.11051 258
47.13063 263
47.15074 273
47.17086 280
47.19097 257
47.21108 279
47.2312 247
47.25131 251
47.27142 257
47.29154 259
47.31165 265
47.33176 270
47.35188 288
47.37199 266
47.39211 271
47.41222 263
47.43233 226
47.45245 237
47.47256 244
47.49267 256
47.51279 262
47.5329 278
47.55302 267
47.57313 232
47.59324 233
47.61336 254
47.63347 288
47.65358 257
47.6737 230
47.69381 255
47.71393 219
47.73404 254
47.75415 256
47.77427 260
47.79438 265
47.81449 267
47.83461 284
47.85472 270
47.87483 299
47.89495 264
47.91506 285
47.93518 257
47.95529 287
47.9754 258
47.99552 290
48.01563 254
48.03574 278
48.05586 252
48.07597 248
48.09609 257
48.1162 269
48.13631 262
48.15643 214
48.17654 218
48.19665 232
48.21677 261
48.23688 251
48.257 242
48.27711 254
48.29722 279
48.31734 258
48.33745 242
48.35756 252
48.37768 251
48.39779 254
48.4179 253
48.43802 276
48.45813 245
48.47825 297
48.49836 252
48.51847 249
48.53859 244
48.5587 256
48.57881 266
48.59893 247
48.61904 272
48.63916 265
48.65927 264
48.67938 273
48.6995 274
48.71961 292
48.73972 224
48.75984 243
48.77995 252
48.80006 288
48.82018 285
48.84029 250
48.86041 262
48.88052 278
48.90063 265
48.92075 269
48.94086 266
48.96097 273
48.98109 257
49.0012 267
49.02132 252
49.04143 235
49.06154 257
49.08166 229
49.10177 264
49.12188 262
49.142 255
49.16211 266
49.18223 243
49.20234 246
49.22245 263
49.24257 251
49.26268 266
49.28279 222
49.30291 234
49.32302 260
49.34313 267
49.36325 270
49.38336 297
49.40348 289
49.42359 271
49.4437 294
49.46382 294
49.48393 270
49.50404 308
49.52416 269
49.54427 283
49.56439 321
49.5845 280
49.60461 303
49.62473 292
49.64484 316
49.66495 298
49.68507 322
49.70518 319
49.7253 357
49.74541 323
49.76552 370
49.78564 421
49.80575 447
49.82586 479
49.84598 499
49.86609 510
49.8862 594
49.90632 667
49.92643 819
49.94655 904
49.96666 1134
49.98677 1365
50.00689 1569
50.027 1768
50.04711 1988
50.06723 2187
50.08734 2270
50.10746 2200
50.12757 1982
50.14768 1643
50.1678 1395
50.18791 1243
50.20802 1252
50.22814 1191
50.24825 996
50.26837 829
50.28848 602
50.30859 506
50.32871 391
50.34882 380
50.36893 349
50.38905 355
50.40916 353
50.42927 316
50.44939 304
50.4695 327
50.48962 322
50.50973 340
50.52984 346
50.54996 332
50.57007 342
50.59018 335
50.6103 341
50.63041 318
50.65053 309
50.67064 292
50.69075 339
50.71087 284
50.73098 283
50.75109 306
50.77121 219
50.79132 299
50.81143 272
50.83155 262
50.85166 256
50.87178 281
50.89189 259
50.912 284
50.93212 272
50.95223 279
50.97234 247
50.99246 277
51.01257 240
51.03269 269
51.0528 257
51.07291 262
51.09303 245
51.11314 249
51.13325 245
51.15337 268
51.17348 227
51.1936 249
51.21371 257
51.23382 283
51.25394 252
51.27405 215
51.29416 232
51.31428 258
51.33439 229
51.3545 269
51.37462 219
51.39473 231
51.41485 237
51.43496 224
51.45507 237
51.47519 254
51.4953 242
51.51541 243
51.53553 255
51.55564 250
51.57576 214
51.59587 232
51.61598 244
51.6361 261
51.65621 243
51.67632 238
51.69644 246
51.71655 241
51.73667 231
51.75678 227
51.77689 214
51.79701 241
51.81712 237
51.83723 239
51.85735 247
51.87746 242
51.89757 254
51.91769 251
51.9378 243
51.95792 233
51.97803 223
51.99814 226
52.01826 262
52.03837 291
52.05848 269
52.0786 263
52.09871 273
52.11883 289
52.13894 249
52.15905 288
52.17917 270
52.19928 267
52.21939 261
52.23951 254
52.25962 258
52.27974 254
52.29985 241
52.31996 239
52.34008 252
52.36019 254
52.3803 202
52.40042 222
52.42053 246
52.44064 261
52.46076 225
52.48087 219
52.50099 267
52.5211 227
52.54121 234
52.56133 259
52.58144 239
52.60155 235
52.62167 209
52.64178 243
52.6619 225
52.68201 253
52.70212 247
52.72224 254
52.74235 238
52.76246 244
52.78258 218
52.80269 252
52.8228 231
52.84292 248
52.86303 242
52.88315 252
52.90326 272
52.92337 282
52.94349 243
52.9636 270
52.98371 258
53.00383 261
53.02394 270
53.04406 276
53.06417 248
53.08428 284
53.1044 244
53.12451 249
53.14462 245
53.16474 239
53.18485 262
53.20497 252
53.22508 261
53.24519 257
53.26531 263
53.28542 258
53.30553 251
53.32565 248
53.34576 269
53.36587 243
53.38599 258
53.4061 272
53.42622 234
53.44633 263
53.46644 297
53.48656 253
53.50667 248
53.52678 289
53.5469 254
53.56701 244
53.58713 291
53.60724 270
53.62735 296
53.64747 278
53.66758 274
53.68769 271
53.70781 274
53.72792 293
53.74804 292
53.76815 275
53.78826 261
53.80838 268
53.82849 261
53.8486 276
53.86872 277
53.88883 283
53.90894 312
53.92906 318
53.94917 331
53.96929 345
53.9894 311
54.00951 317
54.02963 311
54.04974 322
54.06985 318
54.08997 371
54.11008 350
54.1302 348
54.15031 350
54.17042 330
54.19054 344
54.21065 345
54.23076 345
54.25088 354
54.27099 357
54.29111 368
54.31122 338
54.33133 359
54.35145 336
54.37156 334
54.39167 365
54.41179 353
54.4319 352
54.45201 358
54.47213 371
54.49224 345
54.51236 384
54.53247 361
54.55258 356
54.5727 403
54.59281 395
54.61292 438
54.63304 441
54.65315 471
54.67327 481
54.69338 548
54.71349 579
54.73361 687
54.75372 809
54.77383 745
54.79395 865
54.81406 872
54.83417 848
54.85429 846
54.8744 731
54.89452 669
54.91463 642
54.93474 663
54.95486 606
54.97497 666
54.99508 605
55.0152 517
55.03531 477
55.05543 407
55.07554 421
55.09565 397
55.11577 420
55.13588 411
55.15599 434
55.17611 472
55.19622 556
55.21634 535
55.23645 546
55.25656 548
55.27668 524
55.29679 514
55.3169 513
55.33702 444
55.35713 468
55.37724 436
55.39736 415
55.41747 418
55.43759 385
55.4577 374
55.47781 322
55.49793 322
55.51804 332
55.53815 290
55.55827 318
55.57838 285
55.5985 312
55.61861 300
55.63872 265
55.65884 286
55.67895 267
55.69906 286
55.71918 291
55.73929 295
55.75941 271
55.77952 283
55.79963 276
55.81975 275
55.83986 280
55.85997 284
55.88009 255
55.9002 260
55.92031 294
55.94043 267
55.96054 268
55.98066 250
56.00077 273
56.02088 276
56.041 289
56.06111 252
56.08122 279
56.10134 265
56.12145 309
56.14157 263
56.16168 235
56.18179 259
56.20191 279
56.22202 226
56.24213 278
56.26225 259
56.28236 257
56.30248 250
56.32259 291
56.3427 310
56.36282 269
56.38293 271
56.40304 260
56.42316 266
56.44327 265
56.46338 276
56.4835 261
56.50361 270
56.52373 237
56.54384 273
56.56395 272
56.58407 272
56.60418 235
56.62429 258
56.64441 269
56.66452 266
56.68464 274
56.70475 232
56.72486 260
56.74498 271
56.76509 255
56.7852 278
56.80532 243
56.82543 257
56.84554 290
56.86566 282
56.88577 235
56.90589 271
56.926 254
56.94611 257
56.96623 257
56.98634 266
57.00645 284
57.02657 263
57.04668 242
57.0668 255
57.08691 274
57.10702 261
57.12714 282
57.14725 301
57.16736 264
57.18748 251
57.20759 248
57.22771 268
57.24782 235
57.26793 289
57.28805 259
57.30816 271
57.32827 250
57.34839 263
57.3685 245
57.38861 249
57.40873 250
57.42884 228
57.44896 233
57.46907 251
57.48918 252
57.5093 227
57.52941 243
57.54952 270
57.56964 241
57.58975 261
57.60987 208
57.62998 256
57.65009 223
57.67021 245
57.69032 277
57.71043 243
57.73055 239
57.75066 245
57.77078 243
57.79089 241
57.811 256
57.83112 242
57.85123 247
57.87134 243
57.89146 239
57.91157 242
57.93168 232
57.9518 253
57.97191 273
57.99203 275
58.01214 232
58.03225 230
58.05237 257
58.07248 252
58.09259 273
58.11271 248
58.13282 246
58.15294 232
58.17305 220
58.19316 262
58.21328 218
58.23339 253
58.2535 257
58.27362 245
58.29373 250
58.31385 253
58.33396 225
58.35407 240
58.37419 256
58.3943 264
58.41441 256
58.43453 254
58.45464 234
58.47475 241
58.49487 238
58.51498 255
58.5351 252
58.55521 221
58.57532 229
58.59544 232
58.61555 235
58.63566 261
58.65578 232
58.67589 243
58.69601 253
58.71612 232
58.73623 221
58.75635 258
58.77646 208
58.79657 219
58.81669 265
58.8368 225
58.85691 243
58.87703 217
58.89714 255
58.91726 233
58.93737 228
58.95748 236
58.9776 242
58.99771 237
59.01782 252
59.03794 268
59.05805 256
59.07817 238
59.09828 236
59.11839 266
59.13851 242
59.15862 231
59.17873 255
59.19885 274
59.21896 259
59.23908 247
59.25919 272
59.2793 230
59.29942 260
59.31953 246
59.33964 249
59.35976 259
59.37987 282
59.39998 262
59.4201 279
59.44021 279
59.46033 256
59.48044 289
59.50055 301
59.52067 291
59.54078 308
59.56089 328
59.58101 376
59.60112 374
59.62124 382
59.64135 377
59.66146 447
59.68158 486
59.70169 506
59.7218 595
59.74192 646
59.76203 786
59.78215 867
59.80226 988
59.82237 1192
59.84249 1306
59.8626 1449
59.88271 1546
59.90283 1478
59.92294 1396
59.94305 1176
59.96317 1032
59.98328 944
60.0034 888
60.02351 928
60.04362 888
60.06374 866
60.08385 773
60.10396 668
60.12408 558
60.14419 499
60.16431 383
60.18442 338
60.20453 318
60.22465 299
60.24476 326
60.26487 273
60.28499 301
60.3051 302
60.32522 306
60.34533 274
60.36544 283
60.38556 294
60.40567 261
60.42578 264
60.4459 231
60.46601 244
60.48612 250
60.50624 243
60.52635 235
60.54647 261
60.56658 280
60.58669 247
60.60681 228
60.62692 236
60.64703 219
60.66715 241
60.68726 253
60.70738 245
60.72749 290
60.7476 252
60.76772 229
60.78783 216
60.80794 247
60.82806 215
60.84817 281
60.86828 260
60.8884 238
60.90851 234
60.92863 274
60.94874 253
60.96885 228
60.98897 259
61.00908 212
61.02919 245
61.04931 248
61.06942 248
61.08954 220
61.10965 215
61.12976 279
61.14988 219
61.16999 227
61.1901 259
61.21022 229
61.23033 248
61.25045 261
61.27056 221
61.29067 203
61.31079 217
61.3309 240
61.35101 240
61.37113 255
61.39124 250
61.41135 228
61.43147 254
61.45158 226
61.4717 249
61.49181 233
61.51192 234
61.53204 227
61.55215 256
61.57226 263
61.59238 243
61.61249 249
61.63261 234
61.65272 230
61.67283 249
61.69295 241
61.71306 235
61.73317 259
61.75329 272
61.7734 271
61.79352 275
61.81363 268
61.83374 272
61.85386 260
61.87397 271
61.89408 285
61.9142 277
61.93431 303
61.95442 297
61.97454 301
61.99465 314
62.01477 334
62.03488 311
62.05499 329
62.07511 315
62.09522 360
62.11533 329
62.13545 363
62.15556 359
62.17568 370
62.19579 377
62.2159 356
62.23602 390
62.25613 371
62.27624 394
62.29636 382
62.31647 387
62.33659 345
62.3567 378
62.37681 348
62.39693 366
62.41704 376
62.43715 327
62.45727 382
62.47738 275
62.49749 321
62.51761 321
62.53772 306
62.55784 302
62.57795 305
62.59806 287
62.61818 279
62.63829 270
62.6584 300
62.67852 256
62.69863 269
62.71875 276
62.73886 273
62.75897 282
62.77909 263
62.7992 283
62.81931 252
62.83943 274
62.85954 243
62.87965 227
62.89977 241
62.91988 239
62.94 256
62.96011 240
62.98022 254
63.00034 216
63.02045 261
63.04056 228
63.06068 255
63.08079 275
63.10091 246
63.12102 269
63.14113 273
63.16125 257
63.18136 253
63.20147 260
63.22159 255
63.2417 259
63.26182 276
63.28193 283
63.30204 248
63.32216 260
63.34227 259
63.36238 277
63.3825 268
63.40261 268
63.42272 253
63.44284 271
63.46295 281
63.48307 264
63.50318 263
63.52329 258
63.54341 272
63.56352 273
63.58363 271
63.60375 299
63.62386 253
63.64398 290
63.66409 290
63.6842 308
63.70432 288
63.72443 310
63.74454 326
63.76466 322
63.78477 320
63.80489 308
63.825 351
63.84511 340
63.86523 362
63.88534 430
63.90545 460
63.92557 448
63.94568 511
63.96579 492
63.98591 464
64.00602 434
64.02614 420
64.04625 395
64.06636 372
64.08648 390
64.10659 341
64.1267 360
64.14682 349
64.16693 379
64.18705 351
64.20716 309
64.22727 270
64.24739 285
64.2675 259
64.28761 245
64.30773 254
64.32784 251
64.34796 256
64.36807 255
64.38818 262
64.4083 226
64.42841 254
64.44852 251
64.46864 229
64.48875 272
64.50886 281
64.52898 233
64.54909 253
64.56921 258
64.58932 254
64.60943 244
64.62955 229
64.64966 247
64.66977 245
64.68989 229
64.71 234
64.73012 220
64.75023 253
64.77034 221
64.79046 224
64.81057 258
64.83068 236
64.8508 250
64.87091 205
64.89102 223
64.91114 248
64.93125 224
64.95137 226
64.97148 258
64.99159 243
65.01171 218
65.03182 236
65.05193 234
65.07205 209
65.09216 211
65.11228 199
65.13239 224
65.1525 220
65.17262 233
65.19273 251
65.21284 223
65.23296 214
65.25307 248
65.27319 243
65.2933 221
65.31341 240
65.33353 200
65.35364 214
65.37375 206
65.39387 233
65.41398 226
65.43409 256
65.45421 229
65.47432 245
65.49444 235
65.51455 238
65.53466 240
65.55478 260
65.57489 235
65.595 254
65.61512 240
65.63523 260
65.65535 274
65.67546 285
65.69557 258
65.71569 296
65.7358 275
65.75591 308
65.77603 246
65.79614 246
65.81626 251
65.83637 263
65.85648 256
65.8766 265
65.89671 248
65.91682 272
65.93694 263
65.95705 242
65.97716 255
65.99728 237
66.01739 245
66.03751 258
66.05762 258
66.07773 230
66.09785 251
66.11796 244
66.13807 279
66.15819 233
66.1783 225
66.19842 247
66.21853 264
66.23864 255
66.25876 233
66.27887 256
66.29898 228
66.3191 243
66.33921 224
66.35933 224
66.37944 257
66.39955 243
66.41967 241
66.43978 248
66.45989 232
66.48001 221
66.50012 253
66.52023 243
66.54035 260
66.56046 233
66.58058 244
66.60069 265
66.6208 241
66.64092 257
66.66103 222
66.68114 245
66.70126 227
66.72137 228
66.74149 235
66.7616 213
66.78171 240
66.80183 249
66.82194 237
66.84205 249
66.86217 241
66.88228 232
66.90239 242
66.92251 252
66.94262 229
66.96274 249
66.98285 223
67.00296 275
67.02308 248
67.04319 247
67.0633 251
67.08342 262
67.10353 248
67.12365 257
67.14376 241
67.16387 266
67.18399 237
67.2041 256
67.22421 284
67.24433 260
67.26444 276
67.28456 303
67.30467 298
67.32478 302
67.3449 288
67.36501 333
67.38512 309
67.40524 320
67.42535 344
67.44546 332
67.46558 378
67.48569 426
67.50581 433
67.52592 512
67.54603 580
67.56615 616
67.58626 678
67.60637 791
67.62649 924
67.6466 952
67.66672 970
67.68683 916
67.70694 932
67.72706 793
67.74717 730
67.76728 657
67.7874 732
67.80751 663
67.82763 759
67.84774 750
67.86785 794
67.88797 798
67.90808 810
67.92819 785
67.94831 802
67.96842 830
67.98853 922
68.00865 992
68.02876 1142
68.04888 1197
68.06899 1190
68.0891 1205
68.10922 1270
68.12933 1073
68.14944 1059
68.16956 1046
68.18967 1070
68.20979 1147
68.2299 1146
68.25001 1176
68.27013 1117
68.29024 1025
68.31035 848
68.33047 752
68.35058 663
68.3707 592
68.39081 552
68.41092 569
68.43104 519
68.45115 512
68.47126 443
68.49138 439
68.51149 359
68.5316 345
68.55172 308
68.57183 292
68.59195 294
68.61206 263
68.63217 272
68.65229 273
68.6724 280
68.69251 280
68.71263 247
68.73274 261
68.75286 225
68.77297 230
68.79308 270
68.8132 234
68.83331 224
68.85342 258
68.87354 236
68.89365 239
68.91376 227
68.93388 254
68.95399 222
68.97411 254
68.99422 226
69.01433 247
69.03445 234
69.05456 230
69.07467 264
69.09479 214
69.1149 226
69.13502 224
69.15513 217
69.17524 233
69.19536 221
69.21547 265
69.23558 225
69.2557 206
69.27581 244
69.29593 223
69.31604 240
69.33615 208
69.35627 192
69.37638 228
69.39649 236
69.41661 221
69.43672 226
69.45683 200
69.47695 238
69.49706 217
69.51718 197
69.53729 220
69.5574 210
69.57752 214
69.59763 216
69.61774 214
69.63786 253
69.65797 225
69.67809 218
69.6982 237
69.71831 209
69.73843 214
69.75854 238
69.77865 235
69.79877 225
69.81888 240
69.839 191
69.85911 203
69.87922 229
69.89934 209
69.91945 213
69.93956 258
69.95968 238
69.97979 224
69.9999 226
70.02002 226
70.04013 222
70.06025 215
70.08036 241
70.10047 230
70.12059 211
70.1407 255
70.16081 211
70.18093 243
70.20104 201
70.22116 225
70.24127 216
70.26138 218
70.2815 198
70.30161 238
70.32172 211
70.34184 227
70.36195 237
70.38207 194
70.40218 207
70.42229 223
70.44241 228
70.46252 266
70.48263 189
70.50275 222
70.52286 196
70.54297 209
70.56309 224
70.5832 239
70.60332 215
70.62343 185
70.64354 226
70.66366 251
70.68377 226
70.70388 227
70.724 216
70.74411 220
70.76423 221
70.78434 215
70.80445 212
70.82457 206
70.84468 229
70.86479 209
70.88491 215
70.90502 200
70.92513 218
70.94525 198
70.96536 201
70.98548 230
71.00559 219
71.0257 199
71.04582 210
71.06593 209
71.08604 212
71.10616 241
71.12627 231
71.14639 230
71.1665 223
71.18661 201
71.20673 215
71.22684 200
71.24695 219
71.26707 203
71.28718 201
71.3073 223
71.32741 193
71.34752 215
71.36764 197
71.38775 212
71.40786 194
71.42798 174
71.44809 235
71.4682 222
71.48832 203
71.50843 213
71.52855 213
71.54866 215
71.56877 213
71.58889 227
71.609 204
71.62911 225
71.64923 193
71.66934 228
71.68946 212
71.70957 240
71.72968 226
71.7498 213
71.76991 224
71.79002 225
71.81014 202
71.83025 216
71.85037 236
71.87048 220
71.89059 219
71.91071 228
71.93082 253
71.95093 206
71.97105 206
71.99116 232
72.01127 211
72.03139 214
72.0515 232
72.07162 214
72.09173 198
72.11184 200
72.13196 218
72.15207 203
72.17218 211
72.1923 222
72.21241 217
72.23253 205
72.25264 221
72.27275 221
72.29287 226
72.31298 216
72.33309 211
72.35321 218
72.37332 217
72.39344 236
72.41355 236
72.43366 231
72.45378 216
72.47389 238
72.494 241
72.51412 225
72.53423 215
72.55434 223
72.57446 222
72.59457 219
72.61469 215
72.6348 228
72.65491 249
72.67503 219
72.69514 195
72.71525 202
72.73537 222
72.75548 244
72.7756 221
72.79571 230
72.81582 200
72.83594 198
72.85605 203
72.87616 228
72.89628 221
72.91639 227
72.9365 233
72.95662 189
72.97673 241
72.99685 200
73.01696 213
73.03707 213
73.05719 266
73.0773 229
73.09741 225
73.11753 254
73.13764 256
73.15776 254
73.17787 255
73.19798 314
73.2181 272
73.23821 306
73.25832 315
73.27844 381
73.29855 378
73.31867 401
73.33878 431
73.35889 476
73.37901 468
73.39912 481
73.41923 475
73.43935 448
73.45946 421
73.47957 359
73.49969 350
73.5198 333
73.53992 333
73.56003 335
73.58014 378
73.60026 365
73.62037 335
73.64048 332
73.6606 281
73.68071 279
73.70083 299
73.72094 246
73.74105 257
73.76117 269
73.78128 229
73.80139 246
73.82151 243
73.84162 245
73.86174 222
73.88185 237
73.90196 215
73.92208 227
73.94219 216
73.9623 207
73.98242 211
74.00253 246
74.02264 192
74.04276 221
74.06287 236
74.08299 233
74.1031 191
74.12321 228
74.14333 196
74.16344 201
74.18355 201
74.20367 215
74.22378 249
74.2439 250
74.26401 219
74.28412 181
74.30424 190
74.32435 216
74.34446 203
74.36458 202
74.38469 213
74.40481 211
74.42492 216
74.44503 198
74.46515 206
74.48526 234
74.50537 225
74.52549 223
74.5456 203
74.56571 210
74.58583 217
74.60594 215
74.62606 216
74.64617 202
74.66628 197
74.6864 191
74.70651 203
74.72662 220
74.74674 207
74.76685 211
74.78697 215
74.80708 226
74.82719 231
74.84731 219
74.86742 218
74.88753 211
74.90765 197
74.92776 217
74.94787 238
74.96799 238
74.9881 244
75.00822 216
