3.00117 20576
3.02128 19924
3.0414 19337
3.06151 19003
3.08162 18310
3.10174 18180
3.12185 17591
3.14197 16935
3.16208 16329
3.18219 15814
3.20231 15860
3.22242 14923
3.24253 14510
3.26265 14371
3.28276 13471
3.30288 13504
3.32299 12685
3.3431 12638
3.36322 11693
3.38333 11502
3.40344 11396
3.42356 11043
3.44367 10751
3.46379 10234
3.4839 9653
3.50401 9520
3.52413 9392
3.54424 8902
3.56435 8636
3.58447 8218
3.60458 8047
3.62469 7769
3.64481 7333
3.66492 6870
3.68504 6807
3.70515 6724
3.72526 6324
3.74538 6135
3.76549 5903
3.7856 5431
3.80572 5462
3.82583 5190
3.84595 4864
3.86606 4712
3.88617 4447
3.90629 4294
3.9264 4083
3.94651 4090
3.96663 3758
3.98674 3531
4.00686 3611
4.02697 3293
4.04708 3129
4.0672 3092
4.08731 2808
4.10742 2859
4.12754 2792
4.14765 2537
4.16776 2372
4.18788 2305
4.20799 2269
4.22811 2147
4.24822 2078
4.26833 1976
4.28845 1891
4.30856 1907
4.32867 1895
4.34879 1697
4.3689 1693
4.38902 1650
4.40913 1612
4.42924 1606
4.44936 1572
4.46947 1514
4.48958 1423
4.5097 1412
4.52981 1526
4.54992 1342
4.57004 1269
4.59015 1291
4.61027 1299
4.63038 1270
4.65049 1199
4.67061 1139
4.69072 1077
4.71083 1148
4.73095 1189
4.75106 1049
4.77118 1057
4.79129 994
4.8114 1074
4.83152 1032
4.85163 935
4.87174 919
4.89186 968
4.91197 880
4.93209 896
4.9522 789
4.97231 845
4.99243 829
5.01254 816
5.03265 814
5.05277 730
5.07288 743
5.09299 734
5.11311 722
5.13322 781
5.15334 701
5.17345 698
5.19356 675
5.21368 667
5.23379 674
5.2539 606
5.27402 603
5.29413 608
5.31425 567
5.33436 591
5.35447 552
5.37459 565
5.3947 568
5.41481 500
5.43493 570
5.45504 503
5.47516 509
5.49527 540
5.51538 452
5.5355 487
5.55561 448
5.57572 510
5.59584 488
5.61595 435
5.63606 443
5.65618 434
5.67629 419
5.69641 471
5.71652 442
5.73663 422
5.75675 405
5.77686 419
5.79697 403
5.81709 382
5.8372 406
5.85732 366
5.87743 378
5.89754 381
5.91766 335
5.93777 382
5.95788 381
5.978 405
5.99811 316
6.01823 365
6.03834 325
6.05845 388
6.07857 358
6.09868 362
6.11879 350
6.13891 336
6.15902 336
6.17913 383
6.19925 344
6.21936 358
6.23948 349
6.25959 340
6.2797 344
6.29982 330
6.31993 298
6.34004 349
6.36016 339
6.38027 301
6.40039 326
6.4205 327
6.44061 324
6.46073 284
6.48084 338
6.50095 322
6.52107 352
6.54118 337
6.56129 282
6.58141 312
6.60152 366
6.62164 311
6.64175 317
6.66186 328
6.68198 317
6.70209 324
6.7222 339
6.74232 298
6.76243 314
6.78255 312
6.80266 301
6.82277 283
6.84289 335
6.863 278
6.88311 300
6.90323 335
6.92334 272
6.94346 254
6.96357 311
6.98368 327
7.0038 339
7.02391 333
7.04402 310
7.06414 312
7.08425 298
7.10436 342
7.12448 260
7.14459 310
7.16471 329
7.18482 323
7.20493 281
7.22505 302
7.24516 346
7.26527 334
7.28539 317
7.3055 331
7.32562 318
7.34573 291
7.36584 313
7.38596 382
7.40607 297
7.42618 331
7.4463 319
7.46641 313
7.48653 315
7.50664 307
7.52675 349
7.54687 288
7.56698 293
7.58709 326
7.60721 301
7.62732 300
7.64743 331
7.66755 341
7.68766 318
7.70778 310
7.72789 318
7.748 307
7.76812 299
7.78823 325
7.80834 296
7.82846 298
7.84857 346
7.86869 327
7.8888 327
7.90891 329
7.92903 319
7.94914 321
7.96925 359
7.98937 336
8.00948 375
8.0296 338
8.04971 335
8.06982 349
8.08994 343
8.11005 358
8.13016 357
8.15028 372
8.17039 350
8.1905 360
8.21062 365
8.23073 341
8.25085 362
8.27096 361
8.29107 378
8.31119 429
8.3313 372
8.35141 387
8.37153 396
8.39164 347
8.41176 367
8.43187 406
8.45198 362
8.4721 364
8.49221 369
8.51232 367
8.53244 367
8.55255 358
8.57266 376
8.59278 367
8.61289 342
8.63301 363
8.65312 336
8.67323 385
8.69335 407
8.71346 397
8.73357 411
8.75369 346
8.7738 386
8.79392 420
8.81403 366
8.83414 405
8.85426 397
8.87437 404
8.89448 362
8.9146 359
8.93471 330
8.95483 361
8.97494 322
8.99505 296
9.01517 325
9.03528 305
9.05539 328
9.07551 324
9.09562 329
9.11573 305
9.13585 303
9.15596 323
9.17608 293
9.19619 330
9.2163 311
9.23642 294
9.25653 317
9.27664 307
9.29676 297
9.31687 292
9.33699 299
9.3571 291
9.37721 260
9.39733 309
9.41744 312
9.43755 278
9.45767 306
9.47778 308
9.4979 254
9.51801 285
9.53812 307
9.55824 273
9.57835 283
9.59846 304
9.61858 316
9.63869 246
9.6588 293
9.67892 275
9.69903 249
9.71915 285
9.73926 272
9.75937 314
9.77949 270
9.7996 336
9.81971 286
9.83983 303
9.85994 266
9.88006 257
9.90017 281
9.92028 307
9.9404 310
9.96051 264
9.98062 286
10.00074 281
10.02085 261
10.04097 283
10.06108 305
10.08119 297
10.10131 290
10.12142 269
10.14153 270
10.16165 296
10.18176 290
10.20187 307
10.22199 298
10.2421 287
10.26222 273
10.28233 295
10.30244 313
10.32256 292
10.34267 306
10.36278 273
10.3829 309
10.40301 294
10.42313 313
10.44324 289
10.46335 315
10.48347 296
10.50358 300
10.52369 272
10.54381 293
10.56392 306
10.58403 287
10.60415 290
10.62426 293
10.64438 298
10.66449 301
10.6846 281
10.70472 281
10.72483 268
10.74494 263
10.76506 286
10.78517 274
10.80529 288
10.8254 279
10.84551 270
10.86563 293
10.88574 297
10.90585 275
10.92597 292
10.94608 279
10.9662 277
10.98631 278
11.00642 283
11.02654 271
11.04665 256
11.06676 266
11.08688 258
11.10699 246
11.1271 298
11.14722 293
11.16733 290
11.18745 280
11.20756 305
11.22767 253
11.24779 258
11.2679 315
11.28801 289
11.30813 258
11.32824 275
11.34836 316
11.36847 268
11.38858 249
11.4087 267
11.42881 289
11.44892 311
11.46904 274
11.48915 273
11.50927 273
11.52938 282
11.54949 255
11.56961 316
11.58972 281
11.60983 279
11.62995 301
11.65006 274
11.67017 300
11.69029 254
11.7104 262
11.73052 231
11.75063 282
11.77074 279
11.79086 257
11.81097 261
11.83108 269
11.8512 258
11.87131 252
11.89143 269
11.91154 283
11.93165 289
11.95177 250
11.97188 297
11.99199 298
12.01211 282
12.03222 262
12.05234 307
12.07245 304
12.09256 295
12.11268 247
12.13279 266
12.1529 302
12.17302 279
12.19313 306
12.21324 317
12.23336 303
12.25347 275
12.27359 310
12.2937 298
12.31381 306
12.33393 287
12.35404 313
12.37415 271
12.39427 286
12.41438 304
12.4345 264
12.45461 310
12.47472 314
12.49484 271
12.51495 279
12.53506 232
12.55518 281
12.57529 297
12.5954 258
12.61552 253
12.63563 273
12.65575 251
12.67586 273
12.69597 269
12.71609 241
12.7362 283
12.75631 276
12.77643 264
12.79654 268
12.81666 265
12.83677 276
12.85688 286
12.877 269
12.89711 277
12.91722 246
12.93734 271
12.95745 262
12.97757 258
12.99768 247
13.01779 287
13.03791 274
13.05802 268
13.07813 270
13.09825 267
13.11836 281
13.13847 306
13.15859 278
13.1787 277
13.19882 252
13.21893 250
13.23904 283
13.25916 265
13.27927 270
13.29938 263
13.3195 245
13.33961 275
13.35973 253
13.37984 240
13.39995 265
13.42007 296
13.44018 269
13.46029 288
13.48041 260
13.50052 262
13.52064 304
13.54075 284
13.56086 299
13.58098 324
13.60109 307
13.6212 327
13.64132 269
13.66143 314
13.68154 280
13.70166 307
13.72177 288
13.74189 286
13.762 324
13.78211 338
13.80223 339
13.82234 389
13.84245 337
13.86257 341
13.88268 343
13.9028 295
13.92291 320
13.94302 282
13.96314 268
13.98325 309
14.00336 277
14.02348 276
14.04359 264
14.06371 254
14.08382 284
14.10393 289
14.12405 221
14.14416 275
14.16427 247
14.18439 256
14.2045 234
14.22461 238
14.24473 255
14.26484 261
14.28496 257
14.30507 238
14.32518 271
14.3453 217
14.36541 239
14.38552 262
14.40564 279
14.42575 234
14.44587 242
14.46598 225
14.48609 241
14.50621 242
14.52632 244
14.54643 251
14.56655 203
14.58666 223
14.60677 228
14.62689 226
14.647 242
14.66712 247
14.68723 255
14.70734 284
14.72746 236
14.74757 254
14.76768 208
14.7878 220
14.80791 240
14.82803 264
14.84814 305
14.86825 256
14.88837 268
14.90848 302
14.92859 298
14.94871 314
14.96882 292
14.98894 263
15.00905 312
15.02916 279
15.04928 279
15.06939 268
15.0895 279
15.10962 253
15.12973 241
15.14984 266
15.16996 240
15.19007 222
15.21019 258
15.2303 231
15.25041 233
15.27053 273
15.29064 259
15.31075 246
15.33087 243
15.35098 248
15.3711 225
15.39121 255
15.41132 247
15.43144 226
15.45155 246
15.47166 224
15.49178 250
15.51189 246
15.53201 222
15.55212 245
15.57223 246
15.59235 226
15.61246 238
15.63257 234
15.65269 252
15.6728 237
15.69291 255
15.71303 297
15.73314 287
15.75326 274
15.77337 264
15.79348 261
15.8136 255
15.83371 274
15.85382 248
15.87394 246
15.89405 229
15.91417 247
15.93428 234
15.95439 227
15.97451 233
15.99462 257
16.01473 248
16.03485 277
16.05496 268
16.07508 266
16.09519 233
16.1153 249
16.13542 240
16.15553 222
16.17564 275
16.19576 235
16.21587 223
16.23598 238
16.2561 217
16.27621 282
16.29633 226
16.31644 246
16.33655 253
16.35667 243
16.37678 248
16.39689 226
16.41701 218
16.43712 243
16.45724 233
16.47735 237
16.49746 251
16.51758 228
16.53769 244
16.5578 240
16.57792 224
16.59803 244
16.61814 225
16.63826 248
16.65837 198
16.67849 238
16.6986 251
16.71871 216
16.73883 263
16.75894 251
16.77905 255
16.79917 246
16.81928 240
16.8394 216
16.85951 276
16.87962 238
16.89974 269
16.91985 243
16.93996 235
16.96008 239
16.98019 208
17.00031 225
17.02042 231
17.04053 232
17.06065 236
17.08076 248
17.10087 225
17.12099 265
17.1411 252
17.16121 228
17.18133 245
17.20144 225
17.22156 204
17.24167 244
17.26178 269
17.2819 228
17.30201 232
17.32212 265
17.34224 240
17.36235 225
17.38247 259
17.40258 257
17.42269 265
17.44281 265
17.46292 225
17.48303 267
17.50315 244
17.52326 267
17.54338 243
17.56349 258
17.5836 249
17.60372 276
17.62383 276
17.64394 265
17.66406 272
17.68417 243
17.70428 245
17.7244 249
17.74451 246
17.76463 239
17.78474 258
17.80485 272
17.82497 259
17.84508 279
17.86519 263
17.88531 234
17.90542 243
17.92554 254
17.94565 250
17.96576 271
17.98588 250
18.00599 268
18.0261 271
18.04622 268
18.06633 250
18.08645 231
18.10656 272
18.12667 273
18.14679 243
18.1669 256
18.18701 279
18.20713 250
18.22724 239
18.24735 254
18.26747 236
18.28758 219
18.3077 214
18.32781 238
18.34792 254
18.36804 267
18.38815 249
18.40826 270
18.42838 257
18.44849 223
18.46861 240
18.48872 244
18.50883 244
18.52895 233
18.54906 234
18.56917 239
18.58929 226
18.6094 241
18.62951 257
18.64963 232
18.66974 263
18.68986 289
18.70997 275
18.73008 274
18.7502 267
18.77031 276
18.79042 253
18.81054 253
18.83065 284
18.85077 263
18.87088 246
18.89099 249
18.91111 259
18.93122 241
18.95133 244
18.97145 272
18.99156 243
19.01168 250
19.03179 279
19.0519 251
19.07202 207
19.09213 278
19.11224 255
19.13236 260
19.15247 299
19.17258 269
19.1927 294
19.21281 260
19.23293 273
19.25304 326
19.27315 302
19.29327 295
19.31338 329
19.33349 290
19.35361 276
19.37372 295
19.39384 274
19.41395 308
19.43406 303
19.45418 339
19.47429 318
19.4944 340
19.51452 341
19.53463 346
19.55475 353
19.57486 327
19.59497 350
19.61509 378
19.6352 351
19.65531 398
19.67543 431
19.69554 429
19.71565 465
19.73577 462
19.75588 489
19.776 464
19.79611 443
19.81622 455
19.83634 438
19.85645 500
19.87656 425
19.89668 449
19.91679 413
19.93691 434
19.95702 366
19.97713 416
19.99725 417
20.01736 384
20.03747 413
20.05759 399
20.0777 396
20.09782 390
20.11793 373
20.13804 383
20.15816 363
20.17827 407
20.19838 388
20.2185 392
20.23861 369
20.25872 387
20.27884 388
20.29895 370
20.31907 411
20.33918 402
20.35929 373
20.37941 408
20.39952 396
20.41963 366
20.43975 384
20.45986 407
20.47998 423
20.50009 421
20.5202 419
20.54032 473
20.56043 459
20.58054 504
20.60066 541
20.62077 616
20.64088 670
20.661 905
20.68111 1114
20.70123 1438
20.72134 1804
20.74145 2249
20.76157 2768
20.78168 3232
20.80179 3566
20.82191 3725
20.84202 3486
20.86214 3048
20.88225 2515
20.90236 1957
20.92248 1437
20.94259 1182
20.9627 935
20.98282 754
21.00293 718
21.02305 622
21.04316 581
21.06327 539
21.08339 520
21.1035 464
21.12361 421
21.14373 388
21.16384 384
21.18395 402
21.20407 425
21.22418 413
21.2443 404
21.26441 344
21.28452 388
21.30464 391
21.32475 357
21.34486 341
21.36498 343
21.38509 322
21.40521 373
21.42532 330
21.44543 363
21.46555 332
21.48566 322
21.50577 331
21.52589 343
21.546 334
21.56612 296
21.58623 320
21.60634 340
21.62646 337
21.64657 363
21.66668 311
21.6868 360
21.70691 323
21.72702 363
21.74714 313
21.76725 318
21.78737 393
21.80748 365
21.82759 376
21.84771 411
21.86782 470
21.88793 568
21.90805 596
21.92816 615
21.94828 703
21.96839 733
21.9885 714
22.00862 710
22.02873 693
22.04884 584
22.06896 485
22.08907 440
22.10919 413
22.1293 357
22.14941 388
22.16953 390
22.18964 349
22.20975 359
22.22987 381
22.24998 389
22.27009 336
22.29021 361
22.31032 350
22.33044 343
22.35055 336
22.37066 314
22.39078 371
22.41089 371
22.431 333
22.45112 317
22.47123 324
22.49135 332
22.51146 334
22.53157 331
22.55169 316
22.5718 371
22.59191 325
22.61203 340
22.63214 338
22.65225 343
22.67237 330
22.69248 342
22.7126 361
22.73271 331
22.75282 350
22.77294 338
22.79305 351
22.81316 346
22.83328 360
22.85339 369
22.87351 358
22.89362 377
22.91373 374
22.93385 424
22.95396 377
22.97407 426
22.99419 401
23.0143 395
23.03442 414
23.05453 419
23.07464 459
23.09476 402
23.11487 436
23.13498 465
23.1551 435
23.17521 403
23.19532 415
23.21544 387
23.23555 411
23.25567 379
23.27578 360
23.29589 386
23.31601 343
23.33612 362
23.35623 426
23.37635 393
23.39646 450
23.41658 418
23.43669 441
23.4568 496
23.47692 514
23.49703 574
23.51714 544
23.53726 503
23.55737 555
23.57749 528
23.5976 515
23.61771 476
23.63783 468
23.65794 439
23.67805 417
23.69817 431
23.71828 385
23.73839 436
23.75851 465
23.77862 423
23.79874 421
23.81885 492
23.83896 431
23.85908 424
23.87919 513
23.8993 508
23.91942 525
23.93953 515
23.95965 567
23.97976 553
23.99987 525
24.01999 570
24.0401 561
24.06021 532
24.08033 571
24.10044 525
24.12056 503
24.14067 558
24.16078 559
24.1809 571
24.20101 575
24.22112 636
24.24124 605
24.26135 566
24.28146 555
24.30158 554
24.32169 507
24.34181 405
24.36192 422
24.38203 404
24.40215 392
24.42226 390
24.44237 393
24.46249 318
24.4826 369
24.50272 347
24.52283 340
24.54294 370
24.56306 383
24.58317 353
24.60328 389
24.6234 407
24.64351 383
24.66362 394
24.68374 346
24.70385 381
24.72397 343
24.74408 348
24.76419 323
24.78431 319
24.80442 345
24.82453 349
24.84465 321
24.86476 340
24.88488 332
24.90499 349
24.9251 354
24.94522 330
24.96533 333
24.98544 349
25.00556 348
25.02567 323
25.04579 305
25.0659 336
25.08601 342
25.10613 319
25.12624 370
25.14635 326
25.16647 336
25.18658 342
25.20669 390
25.22681 376
25.24692 367
25.26704 347
25.28715 392
25.30726 432
25.32738 419
25.34749 435
25.3676 468
25.38772 429
25.40783 468
25.42795 507
25.44806 519
25.46817 520
25.48829 542
25.5084 528
25.52851 548
25.54863 581
25.56874 595
25.58886 582
25.60897 525
25.62908 546
25.6492 529
25.66931 522
25.68942 487
25.70954 502
25.72965 463
25.74976 455
25.76988 476
25.78999 425
25.81011 424
25.83022 481
25.85033 460
25.87045 408
25.89056 481
25.91067 450
25.93079 456
25.9509 468
25.97102 499
25.99113 516
26.01124 505
26.03136 485
26.05147 497
26.07158 579
26.0917 547
26.11181 614
26.13193 580
26.15204 643
26.17215 686
26.19227 729
26.21238 786
26.23249 784
26.25261 852
26.27272 986
26.29283 1099
26.31295 1223
26.33306 1448
26.35318 1577
26.37329 1813
26.3934 2194
26.41352 2744
26.43363 3553
26.45374 4637
26.47386 6007
26.49397 8011
26.51409 10382
26.5342 12718
26.55431 14602
26.57443 16097
26.59454 16282
26.61465 15309
26.63477 13587
26.65488 10868
26.67499 8063
26.69511 5932
26.71522 4128
26.73534 2674
26.75545 1850
26.77556 1426
26.79568 1211
26.81579 1095
26.8359 973
26.85602 914
26.87613 935
26.89625 874
26.91636 845
26.93647 822
26.95659 831
26.9767 843
26.99681 772
27.01693 806
27.03704 859
27.05716 776
27.07727 770
27.09738 696
27.1175 699
27.13761 612
27.15772 612
27.17784 625
27.19795 595
27.21806 577
27.23818 618
27.25829 692
27.27841 752
27.29852 766
27.31863 822
27.33875 839
27.35886 908
27.37897 958
27.39909 958
27.4192 998
27.43932 972
27.45943 886
27.47954 912
27.49966 845
27.51977 745
27.53988 722
27.56 768
27.58011 743
27.60023 774
27.62034 794
27.64045 868
27.66057 924
27.68068 882
27.70079 944
27.72091 963
27.74102 952
27.76113 1001
27.78125 1002
27.80136 1056
27.82148 1082
27.84159 1148
27.8617 1164
27.88182 1156
27.90193 1112
27.92204 1123
27.94216 1086
27.96227 973
27.98239 882
28.0025 781
28.02261 724
28.04273 664
28.06284 580
28.08295 558
28.10307 581
28.12318 547
28.1433 563
28.16341 534
28.18352 510
28.20364 544
28.22375 579
28.24386 524
28.26398 487
28.28409 490
28.3042 460
28.32432 453
28.34443 424
28.36455 441
28.38466 432
28.40477 391
28.42489 391
28.445 381
28.46511 380
28.48523 383
28.50534 351
28.52546 408
28.54557 369
28.56568 352
28.5858 355
28.60591 344
28.62602 341
28.64614 342
28.66625 382
28.68636 348
28.70648 335
28.72659 296
28.74671 330
28.76682 328
28.78693 319
28.80705 338
28.82716 308
28.84727 273
28.86739 331
28.8875 333
28.90762 304
28.92773 321
28.94784 326
28.96796 306
28.98807 314
29.00818 334
29.0283 308
29.04841 269
29.06853 301
29.08864 304
29.10875 325
29.12887 319
29.14898 315
29.16909 324
29.18921 308
29.20932 347
29.22943 305
29.24955 336
29.26966 359
29.28978 360
29.30989 394
29.33 385
29.35012 426
29.37023 389
29.39034 359
29.41046 390
29.43057 407
29.45069 397
29.4708 361
29.49091 336
29.51103 368
29.53114 334
29.55125 358
29.57137 399
29.59148 370
29.6116 396
29.63171 383
29.65182 399
29.67194 397
29.69205 411
29.71216 411
29.73228 401
29.75239 460
29.7725 381
29.79262 425
29.81273 412
29.83285 435
29.85296 394
29.87307 402
29.89319 463
29.9133 405
29.93341 410
29.95353 395
29.97364 446
29.99376 449
30.01387 457
30.03398 440
30.0541 486
30.07421 462
30.09432 490
30.11444 486
30.13455 495
30.15467 499
30.17478 500
30.19489 486
30.21501 509
30.23512 489
30.25523 458
30.27535 494
30.29546 431
30.31557 434
30.33569 430
30.3558 482
30.37592 446
30.39603 504
30.41614 495
30.43626 449
30.45637 467
30.47648 468
30.4966 450
30.51671 429
30.53683 390
30.55694 409
30.57705 398
30.59717 410
30.61728 405
30.63739 416
30.65751 383
30.67762 402
30.69773 446
30.71785 460
30.73796 446
30.75808 419
30.77819 439
30.7983 443
30.81842 411
30.83853 376
30.85864 414
30.87876 395
30.89887 410
30.91899 396
30.9391 356
30.95921 293
30.97933 312
30.99944 334
31.01955 285
31.03967 311
31.05978 348
31.0799 330
31.10001 325
31.12012 283
31.14024 352
31.16035 328
31.18046 332
31.20058 341
31.22069 340
31.2408 310
31.26092 346
31.28103 316
31.30115 322
31.32126 363
31.34137 319
31.36149 349
31.3816 330
31.40171 302
31.42183 312
31.44194 332
31.46206 310
31.48217 313
31.50228 301
31.5224 309
31.54251 316
31.56262 290
31.58274 296
31.60285 276
31.62297 241
31.64308 280
31.66319 296
31.68331 276
31.70342 286
31.72353 270
31.74365 258
31.76376 299
31.78387 250
31.80399 282
31.8241 304
31.84422 285
31.86433 260
31.88444 278
31.90456 283
31.92467 298
31.94478 282
31.9649 292
31.98501 284
32.00513 318
32.02524 301
32.04535 319
32.06547 320
32.08558 328
32.10569 328
32.12581 308
32.14592 327
32.16604 298
32.18615 306
32.20626 293
32.22638 308
32.24649 310
32.2666 311
32.28672 318
32.30683 333
32.32694 325
32.34706 341
32.36717 350
32.38729 344
32.4074 346
32.42751 350
32.44763 362
32.46774 363
32.48785 341
32.50797 301
32.52808 299
32.5482 324
32.56831 341
32.58842 332
32.60854 346
32.62865 331
32.64876 293
32.66888 342
32.68899 336
32.7091 321
32.72922 294
32.74933 283
32.76945 279
32.78956 301
32.80967 328
32.82979 292
32.8499 286
32.87001 282
32.89013 295
32.91024 334
32.93036 300
32.95047 299
32.97058 337
32.9907 286
33.01081 320
33.03092 294
33.05104 303
33.07115 331
33.09127 313
33.11138 305
33.13149 283
33.15161 342
33.17172 284
33.19183 291
33.21195 302
33.23206 296
33.25217 298
33.27229 318
33.2924 272
33.31252 286
33.33263 292
33.35274 286
33.37286 301
33.39297 278
33.41308 266
33.4332 237
33.45331 265
33.47343 280
33.49354 282
33.51365 258
33.53377 276
33.55388 268
33.57399 307
33.59411 256
33.61422 304
33.63434 273
33.65445 282
33.67456 302
33.69468 296
33.71479 265
33.7349 301
33.75502 341
33.77513 331
33.79524 315
33.81536 312
33.83547 285
33.85559 314
33.8757 292
33.89581 319
33.91593 332
33.93604 320
33.95615 333
33.97627 284
33.99638 263
34.0165 308
34.03661 305
34.05672 337
34.07684 351
34.09695 334
34.11706 350
34.13718 334
34.15729 354
34.17741 366
34.19752 387
34.21763 347
34.23775 394
34.25786 350
34.27797 363
34.29809 349
34.3182 385
34.33831 371
34.35843 403
34.37854 388
34.39866 419
34.41877 417
34.43888 407
34.459 419
34.47911 409
34.49922 423
34.51934 461
34.53945 449
34.55957 459
34.57968 468
34.59979 490
34.61991 513
34.64002 444
34.66013 475
34.68025 510
34.70036 509
34.72047 493
34.74059 503
34.7607 494
34.78082 417
34.80093 528
34.82104 506
34.84116 494
34.86127 513
34.88138 476
34.9015 541
34.92161 473
34.94173 487
34.96184 519
34.98195 502
35.00207 488
35.02218 478
35.04229 512
35.06241 482
35.08252 450
35.10264 461
35.12275 439
35.14286 456
35.16298 419
35.18309 437
35.2032 482
35.22332 440
35.24343 437
35.26354 437
35.28366 429
35.30377 453
35.32389 403
35.344 410
35.36411 445
35.38423 444
35.40434 416
35.42445 444
35.44457 448
35.46468 494
35.4848 451
35.50491 480
35.52502 518
35.54514 477
35.56525 450
35.58536 420
35.60548 440
35.62559 427
35.64571 423
35.66582 375
35.68593 395
35.70605 378
35.72616 379
35.74627 362
35.76639 365
35.7865 359
35.80661 350
35.82673 337
35.84684 319
35.86696 335
35.88707 346
35.90718 343
35.9273 295
35.94741 314
35.96752 328
35.98764 317
36.00775 325
36.02787 297
36.04798 331
36.06809 345
36.08821 321
36.10832 305
36.12843 313
36.14855 349
36.16866 341
36.18878 353
36.20889 331
36.229 370
36.24912 424
36.26923 453
36.28934 467
36.30946 448
36.32957 557
36.34968 654
36.3698 708
36.38991 848
36.41003 1045
36.43014 1110
36.45025 1203
36.47037 1414
36.49048 1395
36.51059 1308
36.53071 1277
36.55082 1064
36.57094 974
36.59105 850
36.61116 739
36.63128 683
36.65139 551
36.6715 499
36.69162 463
36.71173 384
36.73184 378
36.75196 410
36.77207 399
36.79219 391
36.8123 403
36.83241 372
36.85253 383
36.87264 391
36.89275 376
36.91287 405
36.93298 377
36.9531 374
36.97321 370
36.99332 387
37.01344 341
37.03355 350
37.05366 330
37.07378 331
37.09389 339
37.11401 323
37.13412 330
37.15423 274
37.17435 344
37.19446 325
37.21457 315
37.23469 300
37.2548 300
37.27491 323
37.29503 349
37.31514 327
37.33526 348
37.35537 317
37.37548 302
37.3956 315
37.41571 337
37.43582 335
37.45594 333
37.47605 317
37.49617 365
37.51628 338
37.53639 360
37.55651 348
37.57662 321
37.59673 304
37.61685 358
37.63696 338
37.65708 332
37.67719 349
37.6973 302
37.71742 318
37.73753 325
37.75764 299
37.77776 321
37.79787 282
37.81798 301
37.8381 262
37.85821 278
37.87833 292
37.89844 272
37.91855 304
37.93867 305
37.95878 267
37.97889 308
37.99901 284
38.01912 230
38.03924 254
38.05935 274
38.07946 277
38.09958 291
38.11969 289
38.1398 276
38.15992 289
38.18003 301
38.20015 296
38.22026 306
38.24037 297
38.26049 296
38.2806 275
38.30071 285
38.32083 280
38.34094 292
38.36105 305
38.38117 300
38.40128 301
38.4214 312
38.44151 324
38.46162 292
38.48174 312
38.50185 320
38.52196 294
38.54208 269
38.56219 293
38.58231 315
38.60242 304
38.62253 319
38.64265 310
38.66276 298
38.68287 330
38.70299 321
38.7231 317
38.74321 314
38.76333 291
38.78344 306
38.80356 290
38.82367 327
38.84378 276
38.8639 298
38.88401 304
38.90412 311
38.92424 303
38.94435 341
38.96447 301
38.98458 281
39.00469 287
39.02481 301
39.04492 301
39.06503 312
39.08515 302
39.10526 335
39.12538 313
39.14549 321
39.1656 346
39.18572 360
39.20583 392
39.22594 485
39.24606 534
39.26617 535
39.28628 672
39.3064 764
39.32651 903
39.34663 1013
39.36674 1065
39.38685 1230
39.40697 1202
39.42708 1179
39.44719 1136
39.46731 1055
39.48742 894
39.50754 747
39.52765 685
39.54776 623
39.56788 531
39.58799 442
39.6081 398
39.62822 367
39.64833 355
39.66845 323
39.68856 313
39.70867 315
39.72879 307
39.7489 270
39.76901 302
39.78913 293
39.80924 296
39.82935 301
39.84947 294
39.86958 317
39.8897 315
39.90981 330
39.92992 304
39.95004 329
39.97015 333
39.99026 365
40.01038 378
40.03049 346
40.05061 374
40.07072 388
40.09083 434
40.11095 471
40.13106 555
40.15117 624
40.17129 626
40.1914 695
40.21152 685
40.23163 711
40.25174 759
40.27186 699
40.29197 606
40.31208 573
40.3322 488
40.35231 508
40.37242 442
40.39254 408
40.41265 371
40.43277 297
40.45288 349
40.47299 320
40.49311 305
40.51322 309
40.53333 292
40.55345 272
40.57356 312
40.59368 277
40.61379 262
40.6339 263
40.65402 294
40.67413 303
40.69424 283
40.71436 304
40.73447 274
40.75458 287
40.7747 267
40.79481 307
40.81493 294
40.83504 282
40.85515 295
40.87527 287
40.89538 269
40.91549 287
40.93561 260
40.95572 291
40.97584 292
40.99595 281
41.01606 253
41.03618 307
41.05629 269
41.0764 289
41.09652 323
41.11663 315
41.13675 280
41.15686 323
41.17697 316
41.19709 303
41.2172 277
41.23731 299
41.25743 281
41.27754 283
41.29765 247
41.31777 286
41.33788 304
41.358 286
41.37811 278
41.39822 286
41.41834 285
41.43845 292
41.45856 284
41.47868 284
41.49879 272
41.51891 294
41.53902 323
41.55913 360
41.57925 309
41.59936 296
41.61947 351
41.63959 353
41.6597 368
41.67982 398
41.69993 374
41.72004 419
41.74016 377
41.76027 414
41.78038 384
41.8005 354
41.82061 351
41.84072 350
41.86084 359
41.88095 269
41.90107 312
41.92118 307
41.94129 331
41.96141 305
41.98152 314
42.00163 285
42.02175 310
42.04186 296
42.06198 326
42.08209 316
42.1022 333
42.12232 333
42.14243 366
42.16254 348
42.18266 382
42.20277 415
42.22289 456
42.243 529
42.26311 606
42.28323 662
42.30334 722
42.32345 808
42.34357 902
42.36368 924
42.38379 937
42.40391 938
42.42402 883
42.44414 873
42.46425 779
42.48436 668
42.50448 626
42.52459 554
42.5447 536
42.56482 456
42.58493 404
42.60505 359
42.62516 361
42.64527 330
42.66539 316
42.6855 340
42.70561 323
42.72573 318
42.74584 294
42.76595 295
42.78607 291
42.80618 311
42.8263 289
42.84641 290
42.86652 302
42.88664 301
42.90675 279
42.92686 290
42.94698 295
42.96709 285
42.98721 253
43.00732 262
43.02743 260
43.04755 271
43.06766 255
43.08777 270
43.10789 274
43.128 288
43.14812 271
43.16823 277
43.18834 280
43.20846 277
43.22857 247
43.24868 278
43.2688 249
43.28891 267
43.30902 278
43.32914 260
43.34925 272
43.36937 282
43.38948 245
43.40959 269
43.42971 282
43.44982 285
43.46993 277
43.49005 291
43.51016 259
43.53028 264
43.55039 236
43.5705 242
43.59062 255
43.61073 276
43.63084 249
43.65096 259
43.67107 226
43.69119 256
43.7113 250
43.73141 247
43.75153 253
43.77164 266
43.79175 233
43.81187 250
43.83198 239
43.85209 241
43.87221 245
43.89232 239
43.91244 242
43.93255 243
43.95266 281
43.97278 233
43.99289 238
44.013 242
44.03312 276
44.05323 252
44.07335 254
44.09346 262
44.11357 318
44.13369 239
44.1538 265
44.17391 247
44.19403 253
44.21414 243
44.23426 251
44.25437 233
44.27448 265
44.2946 240
44.31471 237
44.33482 244
44.35494 238
44.37505 229
44.39516 231
44.41528 232
44.43539 253
44.45551 245
44.47562 254
44.49573 238
44.51585 267
44.53596 248
44.55607 231
44.57619 227
44.5963 259
44.61642 265
44.63653 262
44.65664 243
44.67676 262
44.69687 240
44.71698 281
44.7371 243
44.75721 273
44.77732 254
44.79744 282
44.81755 251
44.83767 261
44.85778 258
44.87789 266
44.89801 265
44.91812 255
44.93823 210
44.95835 265
44.97846 250
44.99858 262
45.01869 268
45.0388 263
45.05892 275
45.07903 259
45.09914 296
45.11926 272
45.13937 268
45.15949 290
45.1796 284
45.19971 287
45.21983 254
45.23994 275
45.26005 265
45.28017 284
45.30028 283
45.32039 320
45.34051 288
45.36062 312
45.38074 294
45.40085 307
45.42096 313
45.44108 326
45.46119 317
45.4813 315
45.50142 330
45.52153 354
45.54165 383
45.56176 417
45.58187 452
45.60199 451
45.6221 535
45.64221 556
45.66233 599
45.68244 627
45.70256 683
45.72267 718
45.74278 647
45.7629 674
45.78301 607
45.80312 587
45.82324 529
45.84335 475
45.86346 445
45.88358 449
45.90369 417
45.92381 376
45.94392 320
45.96403 279
45.98415 319
46.00426 272
46.02437 307
46.04449 292
46.0646 303
46.08472 262
46.10483 274
46.12494 231
46.14506 280
46.16517 265
46.18528 309
46.2054 248
46.22551 301
46.24563 259
46.26574 234
46.28585 213
46.30597 237
46.32608 237
46.34619 226
46.36631 247
46.38642 243
46.40653 263
46.42665 243
46.44676 228
46.46688 249
46.48699 271
46.5071 226
46.52722 237
46.54733 219
46.56744 231
46.58756 219
46.60767 239
46.62779 243
46.6479 225
46.66801 216
46.68813 255
46.70824 253
46.72835 231
46.74847 234
46.76858 258
46.78869 263
46.80881 250
46.82892 241
46.84904 200
46.86915 215
46.88926 236
46.90938 261
46.92949 238
46.9496 250
46.96972 249
46.98983 280
47.00995 251
47.03006 270
47.05017 258
47.07029 269
47.0904 257
47.11051 281
47.13063 267
47.15074 263
47.17086 273
47.19097 247
47.21108 257
47.2312 261
47.25131 225
47.27142 256
47.29154 253
47.31165 250
47.33176 231
47.35188 239
47.37199 250
47.39211 241
47.41222 266
47.43233 236
47.45245 262
47.47256 250
47.49267 264
47.51279 253
47.5329 227
47.55302 239
47.57313 245
47.59324 260
47.61336 255
47.63347 241
47.65358 243
47.6737 229
47.69381 230
47.71393 224
47.73404 232
47.75415 238
47.77427 229
47.79438 271
47.81449 246
47.83461 234
47.85472 265
47.87483 277
47.89495 250
47.91506 259
47.93518 279
47.95529 279
47.9754 253
47.99552 245
48.01563 262
48.03574 289
48.05586 258
48.07597 288
48.09609 251
48.1162 273
48.13631 256
48.15643 250
48.17654 249
48.19665 259
48.21677 281
48.23688 219
48.257 261
48.27711 262
48.29722 264
48.31734 249
48.33745 255
48.35756 266
48.37768 254
48.39779 283
48.4179 249
48.43802 253
48.45813 258
48.47825 272
48.49836 244
48.51847 303
48.53859 264
48.5587 248
48.57881 274
48.59893 271
48.61904 280
48.63916 258
48.65927 298
48.67938 273
48.6995 296
48.71961 260
48.73972 263
48.75984 269
48.77995 287
48.80006 285
48.82018 300
48.84029 270
48.86041 285
48.88052 270
48.90063 261
48.92075 260
48.94086 278
48.96097 261
48.98109 254
49.0012 281
49.02132 270
49.04143 295
49.06154 297
49.08166 300
49.10177 263
49.12188 340
49.142 315
49.16211 291
49.18223 306
49.20234 283
49.22245 287
49.24257 303
49.26268 284
49.28279 257
49.30291 268
49.32302 261
49.34313 273
49.36325 269
49.38336 299
49.40348 267
49.42359 276
49.4437 298
49.46382 311
49.48393 278
49.50404 292
49.52416 306
49.54427 321
49.56439 304
49.5845 338
49.60461 297
49.62473 323
49.64484 333
49.66495 361
49.68507 330
49.70518 357
49.7253 397
49.74541 379
49.76552 388
49.78564 407
49.80575 452
49.82586 497
49.84598 533
49.86609 604
49.8862 682
49.90632 760
49.92643 852
49.94655 992
49.96666 1086
49.98677 1240
50.00689 1524
50.027 1637
50.04711 1811
50.06723 1784
50.08734 1795
50.10746 1634
50.12757 1556
50.14768 1294
50.1678 1199
50.18791 1040
50.20802 939
50.22814 885
50.24825 786
50.26837 644
50.28848 587
50.30859 447
50.32871 385
50.34882 394
50.36893 373
50.38905 376
50.40916 361
50.42927 457
50.44939 431
50.4695 391
50.48962 444
50.50973 388
50.52984 381
50.54996 403
50.57007 417
50.59018 406
50.6103 368
50.63041 379
50.65053 351
50.67064 370
50.69075 333
50.71087 306
50.73098 328
50.75109 333
50.77121 290
50.79132 300
50.81143 288
50.83155 289
50.85166 305
50.87178 303
50.89189 262
50.912 298
50.93212 261
50.95223 261
50.97234 317
50.99246 289
51.01257 297
51.03269 281
51.0528 293
51.07291 287
51.09303 291
51.11314 290
51.13325 264
51.15337 306
51.17348 293
51.1936 293
51.21371 287
51.23382 257
51.25394 269
51.27405 273
51.29416 254
51.31428 250
51.33439 250
51.3545 235
51.37462 251
51.39473 237
51.41485 266
51.43496 250
51.45507 223
51.47519 254
51.4953 223
51.51541 240
51.53553 244
51.55564 248
51.57576 241
51.59587 232
51.61598 238
51.6361 238
51.65621 228
51.67632 218
51.69644 214
51.71655 219
51.73667 246
51.75678 226
51.77689 244
51.79701 204
51.81712 218
51.83723 276
51.85735 221
51.87746 258
51.89757 207
51.91769 226
51.9378 229
51.95792 242
51.97803 253
51.99814 231
52.01826 246
52.03837 244
52.05848 254
52.0786 255
52.09871 234
52.11883 221
52.13894 208
52.15905 214
52.17917 280
52.19928 238
52.21939 275
52.23951 255
52.25962 222
52.27974 240
52.29985 224
52.31996 218
52.34008 251
52.36019 226
52.3803 246
52.40042 226
52.42053 248
52.44064 254
52.46076 252
52.48087 245
52.50099 261
52.5211 276
52.54121 246
52.56133 246
52.58144 245
52.60155 246
52.62167 247
52.64178 261
52.6619 256
52.68201 247
52.70212 287
52.72224 273
52.74235 220
52.76246 224
52.78258 254
52.80269 239
52.8228 227
52.84292 238
52.86303 258
52.88315 236
52.90326 259
52.92337 261
52.94349 278
52.9636 260
52.98371 278
53.00383 284
53.02394 273
53.04406 290
53.06417 299
53.08428 285
53.1044 296
53.12451 296
53.14462 273
53.16474 311
53.18485 302
53.20497 302
53.22508 308
53.24519 265
53.26531 275
53.28542 295
53.30553 275
53.32565 276
53.34576 260
53.36587 246
53.38599 272
53.4061 275
53.42622 261
53.44633 267
53.46644 250
53.48656 263
53.50667 267
53.52678 238
53.5469 278
53.56701 264
53.58713 289
53.60724 248
53.62735 271
53.64747 242
53.66758 270
53.68769 271
53.70781 255
53.72792 255
53.74804 255
53.76815 266
53.78826 257
53.80838 275
53.82849 277
53.8486 280
53.86872 296
53.88883 289
53.90894 298
53.92906 291
53.94917 276
53.96929 260
53.9894 238
54.00951 270
54.02963 293
54.04974 312
54.06985 288
54.08997 287
54.11008 273
54.1302 267
54.15031 287
54.17042 276
54.19054 279
54.21065 287
54.23076 285
54.25088 302
54.27099 278
54.29111 287
54.31122 276
54.33133 280
54.35145 273
54.37156 275
54.39167 303
54.41179 281
54.4319 289
54.45201 286
54.47213 290
54.49224 299
54.51236 310
54.53247 325
54.55258 316
54.5727 351
54.59281 323
54.61292 369
54.63304 367
54.65315 416
54.67327 470
54.69338 477
54.71349 567
54.73361 599
54.75372 667
54.77383 687
54.79395 654
54.81406 688
54.83417 676
54.85429 593
54.8744 620
54.89452 576
54.91463 526
54.93474 520
54.95486 488
54.97497 428
54.99508 431
55.0152 401
55.03531 396
55.05543 370
55.07554 345
55.09565 345
55.11577 355
55.13588 381
55.15599 365
55.17611 397
55.19622 410
55.21634 428
55.23645 450
55.25656 474
55.27668 437
55.29679 416
55.3169 394
55.33702 366
55.35713 396
55.37724 355
55.39736 369
55.41747 352
55.43759 323
55.4577 351
55.47781 296
55.49793 298
55.51804 266
55.53815 242
55.55827 310
55.57838 273
55.5985 261
55.61861 249
55.63872 276
55.65884 277
55.67895 267
55.69906 260
55.71918 269
55.73929 246
55.75941 282
55.77952 247
55.79963 209
55.81975 259
55.83986 241
55.85997 238
55.88009 280
55.9002 232
55.92031 237
55.94043 251
55.96054 243
55.98066 219
56.00077 252
56.02088 277
56.041 222
56.06111 257
56.08122 270
56.10134 224
56.12145 227
56.14157 251
56.16168 249
56.18179 241
56.20191 232
56.22202 242
56.24213 227
56.26225 249
56.28236 228
56.30248 233
56.32259 244
56.3427 265
56.36282 255
56.38293 249
56.40304 230
56.42316 251
56.44327 244
56.46338 256
56.4835 246
56.50361 247
56.52373 232
56.54384 249
56.56395 244
56.58407 237
56.60418 231
56.62429 247
56.64441 239
56.66452 253
56.68464 261
56.70475 253
56.72486 219
56.74498 289
56.76509 224
56.7852 258
56.80532 232
56.82543 247
56.84554 270
56.86566 267
56.88577 226
56.90589 252
56.926 238
56.94611 248
56.96623 238
56.98634 248
57.00645 264
57.02657 242
57.04668 250
57.0668 251
57.08691 260
57.10702 252
57.12714 291
57.14725 266
57.16736 257
57.18748 242
57.20759 269
57.22771 240
57.24782 278
57.26793 233
57.28805 274
57.30816 288
57.32827 271
57.34839 245
57.3685 249
57.38861 249
57.40873 274
57.42884 252
57.44896 252
57.46907 248
57.48918 249
57.5093 271
57.52941 243
57.54952 224
57.56964 267
57.58975 234
57.60987 281
57.62998 239
57.65009 228
57.67021 246
57.69032 241
57.71043 251
57.73055 276
57.75066 235
57.77078 239
57.79089 214
57.811 226
57.83112 265
57.85123 238
57.87134 273
57.89146 248
57.91157 238
57.93168 257
57.9518 246
57.97191 242
57.99203 233
58.01214 261
58.03225 227
58.05237 232
58.07248 254
58.09259 241
58.11271 274
58.13282 245
58.15294 257
58.17305 252
58.19316 229
58.21328 240
58.23339 234
58.2535 264
58.27362 253
58.29373 256
58.31385 248
58.33396 224
58.35407 263
58.37419 250
58.3943 245
58.41441 217
58.43453 264
58.45464 247
58.47475 248
58.49487 247
58.51498 244
58.5351 232
58.55521 243
58.57532 266
58.59544 245
58.61555 268
58.63566 252
58.65578 246
58.67589 272
58.69601 238
58.71612 260
58.73623 257
58.75635 265
58.77646 249
58.79657 272
58.81669 268
58.8368 249
58.85691 252
58.87703 238
58.89714 240
58.91726 252
58.93737 237
58.95748 266
58.9776 237
58.99771 214
59.01782 222
59.03794 239
59.05805 235
59.07817 251
59.09828 212
59.11839 274
59.13851 218
59.15862 280
59.17873 253
59.19885 253
59.21896 258
59.23908 214
59.25919 248
59.2793 273
59.29942 248
59.31953 271
59.33964 265
59.35976 268
59.37987 277
59.39998 256
59.4201 248
59.44021 266
59.46033 243
59.48044 277
59.50055 306
59.52067 309
59.54078 328
59.56089 315
59.58101 353
59.60112 348
59.62124 398
59.64135 391
59.66146 428
59.68158 490
59.70169 538
59.7218 649
59.74192 714
59.76203 825
59.78215 880
59.80226 981
59.82237 1103
59.84249 1242
59.8626 1226
59.88271 1211
59.90283 1154
59.92294 1085
59.94305 1039
59.96317 890
59.98328 795
60.0034 788
60.02351 838
60.04362 734
60.06374 716
60.08385 610
60.10396 557
60.12408 498
60.14419 421
60.16431 373
60.18442 324
60.20453 296
60.22465 289
60.24476 316
60.26487 293
60.28499 290
60.3051 274
60.32522 262
60.34533 273
60.36544 268
60.38556 256
60.40567 280
60.42578 240
60.4459 279
60.46601 261
60.48612 258
60.50624 252
60.52635 256
60.54647 252
60.56658 259
60.58669 264
60.60681 257
60.62692 240
60.64703 246
60.66715 254
60.68726 238
60.70738 247
60.72749 279
60.7476 264
60.76772 261
60.78783 292
60.80794 289
60.82806 247
60.84817 252
60.86828 262
60.8884 267
60.90851 271
60.92863 267
60.94874 294
60.96885 259
60.98897 267
61.00908 303
61.02919 292
61.04931 274
61.06942 326
61.08954 248
61.10965 244
61.12976 262
61.14988 262
61.16999 284
61.1901 263
61.21022 261
61.23033 271
61.25045 299
61.27056 274
61.29067 275
61.31079 287
61.3309 270
61.35101 300
61.37113 276
61.39124 287
61.41135 268
61.43147 308
61.45158 309
61.4717 310
61.49181 264
61.51192 313
61.53204 298
61.55215 307
61.57226 277
61.59238 332
61.61249 312
61.63261 288
61.65272 284
61.67283 286
61.69295 296
61.71306 284
61.73317 315
61.75329 288
61.7734 284
61.79352 282
61.81363 283
61.83374 290
61.85386 255
61.87397 281
61.89408 301
61.9142 287
61.93431 301
61.95442 275
61.97454 272
61.99465 264
62.01477 268
62.03488 265
62.05499 248
62.07511 293
62.09522 260
62.11533 271
62.13545 253
62.15556 249
62.17568 273
62.19579 284
62.2159 289
62.23602 289
62.25613 273
62.27624 260
62.29636 271
62.31647 273
62.33659 244
62.3567 263
62.37681 236
62.39693 252
62.41704 244
62.43715 262
62.45727 258
62.47738 267
62.49749 264
62.51761 228
62.53772 275
62.55784 272
62.57795 248
62.59806 242
62.61818 287
62.63829 245
62.6584 234
62.67852 245
62.69863 238
62.71875 250
62.73886 246
62.75897 252
62.77909 257
62.7992 246
62.81931 268
62.83943 252
62.85954 244
62.87965 226
62.89977 254
62.91988 262
62.94 258
62.96011 251
62.98022 255
63.00034 273
63.02045 277
63.04056 259
63.06068 253
63.08079 289
63.10091 265
63.12102 237
63.14113 249
63.16125 229
63.18136 275
63.20147 268
63.22159 274
63.2417 276
63.26182 273
63.28193 256
63.30204 223
63.32216 278
63.34227 250
63.36238 247
63.3825 254
63.40261 259
63.42272 281
63.44284 258
63.46295 255
63.48307 271
63.50318 262
63.52329 240
63.54341 256
63.56352 240
63.58363 268
63.60375 270
63.62386 272
63.64398 265
63.66409 295
63.6842 305
63.70432 311
63.72443 298
63.74454 334
63.76466 342
63.78477 316
63.80489 351
63.825 373
63.84511 363
63.86523 413
63.88534 384
63.90545 391
63.92557 419
63.94568 455
63.96579 445
63.98591 439
64.00602 391
64.02614 344
64.04625 402
64.06636 340
64.08648 351
64.10659 301
64.1267 306
64.14682 327
64.16693 293
64.18705 286
64.20716 270
64.22727 285
64.24739 264
64.2675 268
64.28761 241
64.30773 245
64.32784 251
64.34796 253
64.36807 237
64.38818 258
64.4083 258
64.42841 222
64.44852 233
64.46864 215
64.48875 249
64.50886 212
64.52898 232
64.54909 230
64.56921 181
64.58932 237
64.60943 223
64.62955 234
64.64966 238
64.66977 242
64.68989 242
64.71 213
64.73012 228
64.75023 228
64.77034 225
64.79046 248
64.81057 229
64.83068 223
64.8508 246
64.87091 236
64.89102 257
64.91114 251
64.93125 240
64.95137 251
64.97148 262
64.99159 238
65.01171 250
65.03182 242
65.05193 223
65.07205 263
65.09216 263
65.11228 245
65.13239 251
65.1525 255
65.17262 263
65.19273 276
65.21284 270
65.23296 249
65.25307 225
65.27319 252
65.2933 254
65.31341 243
65.33353 251
65.35364 269
65.37375 240
65.39387 252
65.41398 238
65.43409 240
65.45421 236
65.47432 243
65.49444 243
65.51455 260
65.53466 221
65.55478 268
65.57489 273
65.595 258
65.61512 250
65.63523 245
65.65535 259
65.67546 271
65.69557 286
65.71569 263
65.7358 262
65.75591 239
65.77603 271
65.79614 263
65.81626 290
65.83637 240
65.85648 225
65.8766 257
65.89671 230
65.91682 229
65.93694 236
65.95705 238
65.97716 250
65.99728 259
66.01739 246
66.03751 220
66.05762 233
66.07773 216
66.09785 236
66.11796 224
66.13807 213
66.15819 239
66.1783 245
66.19842 240
66.21853 264
66.23864 251
66.25876 248
66.27887 243
66.29898 256
66.3191 253
66.33921 227
66.35933 235
66.37944 230
66.39955 230
66.41967 229
66.43978 238
66.45989 224
66.48001 219
66.50012 221
66.52023 231
66.54035 218
66.56046 216
66.58058 239
66.60069 216
66.6208 230
66.64092 214
66.66103 216
66.68114 229
66.70126 209
66.72137 243
66.74149 213
66.7616 206
66.78171 222
66.80183 213
66.82194 230
66.84205 197
66.86217 256
66.88228 215
66.90239 231
66.92251 260
66.94262 241
66.96274 257
66.98285 239
67.00296 250
67.02308 241
67.04319 260
67.0633 255
67.08342 243
67.10353 256
67.12365 257
67.14376 250
67.16387 241
67.18399 247
67.2041 265
67.22421 264
67.24433 271
67.26444 284
67.28456 295
67.30467 280
67.32478 296
67.3449 288
67.36501 287
67.38512 307
67.40524 351
67.42535 285
67.44546 387
67.46558 372
67.48569 413
67.50581 441
67.52592 482
67.54603 543
67.56615 678
67.58626 674
67.60637 702
67.62649 775
67.6466 831
67.66672 804
67.68683 749
67.70694 743
67.72706 713
67.74717 626
67.76728 624
67.7874 611
67.80751 631
67.82763 639
67.84774 719
67.86785 642
67.88797 693
67.90808 692
67.92819 719
67.94831 729
67.96842 800
67.98853 854
68.00865 931
68.02876 1063
68.04888 1095
68.06899 1030
68.0891 1046
68.10922 1020
68.12933 989
68.14944 948
68.16956 880
68.18967 956
68.20979 977
68.2299 968
68.25001 884
68.27013 830
68.29024 831
68.31035 731
68.33047 680
68.35058 574
68.3707 516
68.39081 470
68.41092 434
68.43104 468
68.45115 452
68.47126 363
68.49138 350
68.51149 338
68.5316 339
68.55172 286
68.57183 271
68.59195 248
68.61206 278
68.63217 247
68.65229 269
68.6724 262
68.69251 270
68.71263 233
68.73274 240
68.75286 254
68.77297 255
68.79308 259
68.8132 259
68.83331 241
68.85342 237
68.87354 253
68.89365 230
68.91376 222
68.93388 239
68.95399 254
68.97411 242
68.99422 213
69.01433 236
69.03445 233
69.05456 246
69.07467 198
69.09479 237
69.1149 222
69.13502 241
69.15513 224
69.17524 249
69.19536 244
69.21547 270
69.23558 219
69.2557 244
69.27581 247
69.29593 266
69.31604 242
69.33615 240
69.35627 246
69.37638 247
69.39649 231
69.41661 246
69.43672 237
69.45683 224
69.47695 257
69.49706 262
69.51718 242
69.53729 236
69.5574 239
69.57752 240
69.59763 240
69.61774 228
69.63786 260
69.65797 243
69.67809 207
69.6982 233
69.71831 229
69.73843 243
69.75854 232
69.77865 246
69.79877 231
69.81888 222
69.839 196
69.85911 255
69.87922 214
69.89934 230
69.91945 228
69.93956 246
69.95968 242
69.97979 218
69.9999 227
70.02002 236
70.04013 232
70.06025 236
70.08036 230
70.10047 227
70.12059 248
70.1407 216
70.16081 254
70.18093 224
70.20104 230
70.22116 209
70.24127 178
70.26138 222
70.2815 201
70.30161 216
70.32172 217
70.34184 239
70.36195 215
70.38207 227
70.40218 180
70.42229 193
70.44241 215
70.46252 225
70.48263 225
70.50275 209
70.52286 207
70.54297 218
70.56309 215
70.5832 216
70.60332 201
70.62343 219
70.64354 234
70.66366 229
70.68377 218
70.70388 227
70.724 238
70.74411 232
70.76423 243
70.78434 234
70.80445 246
70.82457 202
70.84468 213
70.86479 207
70.88491 217
70.90502 249
70.92513 205
70.94525 215
70.96536 194
70.98548 206
71.00559 213
71.0257 209
71.04582 217
71.06593 214
71.08604 213
71.10616 224
71.12627 212
71.14639 199
71.1665 199
71.18661 218
71.20673 215
71.22684 210
71.24695 205
71.26707 203
71.28718 258
71.3073 197
71.32741 213
71.34752 217
71.36764 229
71.38775 215
71.40786 245
71.42798 218
71.44809 250
71.4682 219
71.48832 205
71.50843 238
71.52855 226
71.54866 237
71.56877 218
71.58889 246
71.609 210
71.62911 235
71.64923 224
71.66934 210
71.68946 224
71.70957 221
71.72968 219
71.7498 204
71.76991 238
71.79002 227
71.81014 208
71.83025 212
71.85037 212
71.87048 201
71.89059 220
71.91071 207
71.93082 222
71.95093 226
71.97105 224
71.99116 214
72.01127 226
72.03139 249
72.0515 247
72.07162 238
72.09173 216
72.11184 250
72.13196 213
72.15207 204
72.17218 229
72.1923 225
72.21241 247
72.23253 180
72.25264 231
72.27275 212
72.29287 214
72.31298 215
72.33309 248
72.35321 228
72.37332 225
72.39344 275
72.41355 214
72.43366 257
72.45378 244
72.47389 236
72.494 222
72.51412 200
72.53423 206
72.55434 227
72.57446 238
72.59457 230
72.61469 225
72.6348 229
72.65491 218
72.67503 253
72.69514 228
72.71525 213
72.73537 232
72.75548 247
72.7756 253
72.79571 216
72.81582 258
72.83594 264
72.85605 249
72.87616 240
72.89628 209
72.91639 267
72.9365 238
72.95662 256
72.97673 252
72.99685 249
73.01696 246
73.03707 260
73.05719 229
73.0773 233
73.09741 270
73.11753 236
73.13764 261
73.15776 270
73.17787 261
73.19798 287
73.2181 313
73.23821 333
73.25832 329
73.27844 341
73.29855 364
73.31867 412
73.33878 395
73.35889 421
73.37901 393
73.39912 404
73.41923 406
73.43935 409
73.45946 341
73.47957 340
73.49969 324
73.5198 331
73.53992 321
73.56003 319
73.58014 318
73.60026 330
73.62037 299
73.64048 290
73.6606 280
73.68071 307
73.70083 278
73.72094 227
73.74105 231
73.76117 237
73.78128 245
73.80139 236
73.82151 269
73.84162 263
73.86174 218
73.88185 240
73.90196 204
73.92208 234
73.94219 215
73.9623 246
73.98242 234
74.00253 223
74.02264 207
74.04276 225
74.06287 221
74.08299 250
74.1031 235
74.12321 241
74.14333 205
74.16344 247
74.18355 237
74.20367 243
74.22378 227
74.2439 222
74.26401 261
74.28412 219
74.30424 196
74.32435 214
74.34446 217
74.36458 257
74.38469 222
74.40481 236
74.42492 222
74.44503 230
74.46515 220
74.48526 207
74.50537 240
74.52549 244
74.5456 235
74.56571 236
74.58583 246
74.60594 245
74.62606 264
74.64617 247
74.66628 230
74.6864 209
74.70651 235
74.72662 232
74.74674 232
74.76685 234
74.78697 244
74.80708 235
74.82719 245
74.84731 238
74.86742 220
74.88753 230
74.90765 243
74.92776 225
74.94787 229
74.96799 223
74.9881 227
75.00822 211
