3.00117 24528
3.02128 23988
3.0414 22961
3.06151 22542
3.08162 22030
3.10174 20983
3.12185 21228
3.14197 20202
3.16208 19631
3.18219 19569
3.20231 18415
3.22242 18216
3.24253 17753
3.26265 16808
3.28276 16628
3.30288 16039
3.32299 15642
3.3431 15365
3.36322 14674
3.38333 14342
3.40344 13701
3.42356 13554
3.44367 12928
3.46379 12633
3.4839 12319
3.50401 11623
3.52413 11567
3.54424 11052
3.56435 10521
3.58447 10606
3.60458 9785
3.62469 9627
3.64481 9408
3.66492 9085
3.68504 8853
3.70515 8145
3.72526 8045
3.74538 7861
3.76549 7433
3.7856 7255
3.80572 6932
3.82583 6650
3.84595 6509
3.86606 6196
3.88617 6032
3.90629 5558
3.9264 5454
3.94651 5308
3.96663 5021
3.98674 4913
4.00686 4401
4.02697 4444
4.04708 4430
4.0672 4110
4.08731 4219
4.10742 3767
4.12754 3582
4.14765 3446
4.16776 3457
4.18788 3272
4.20799 2965
4.22811 2931
4.24822 2919
4.26833 2930
4.28845 2773
4.30856 2420
4.32867 2428
4.34879 2412
4.3689 2258
4.38902 2289
4.40913 2113
4.42924 2086
4.44936 2140
4.46947 2022
4.48958 2103
4.5097 1873
4.52981 1903
4.54992 1879
4.57004 1808
4.59015 1832
4.61027 1728
4.63038 1623
4.65049 1748
4.67061 1667
4.69072 1588
4.71083 1549
4.73095 1509
4.75106 1567
4.77118 1448
4.79129 1492
4.8114 1343
4.83152 1403
4.85163 1434
4.87174 1391
4.89186 1343
4.91197 1318
4.93209 1262
4.9522 1254
4.97231 1256
4.99243 1287
5.01254 1201
5.03265 1208
5.05277 1272
5.07288 1174
5.09299 1202
5.11311 1115
5.13322 1092
5.15334 1214
5.17345 1101
5.19356 1041
5.21368 1034
5.23379 1045
5.2539 1041
5.27402 1018
5.29413 1051
5.31425 977
5.33436 986
5.35447 1026
5.37459 938
5.3947 965
5.41481 1027
5.43493 930
5.45504 936
5.47516 815
5.49527 822
5.51538 856
5.5355 889
5.55561 862
5.57572 915
5.59584 830
5.61595 838
5.63606 856
5.65618 816
5.67629 859
5.69641 870
5.71652 829
5.73663 817
5.75675 767
5.77686 815
5.79697 826
5.81709 808
5.8372 769
5.85732 794
5.87743 814
5.89754 765
5.91766 738
5.93777 773
5.95788 793
5.978 766
5.99811 832
6.01823 765
6.03834 797
6.05845 780
6.07857 742
6.09868 737
6.11879 736
6.13891 673
6.15902 811
6.17913 766
6.19925 731
6.21936 764
6.23948 803
6.25959 784
6.2797 733
6.29982 803
6.31993 753
6.34004 725
6.36016 719
6.38027 712
6.40039 723
6.4205 701
6.44061 649
6.46073 753
6.48084 740
6.50095 725
6.52107 745
6.54118 686
6.56129 621
6.58141 748
6.60152 700
6.62164 739
6.64175 670
6.66186 643
6.68198 661
6.70209 711
6.7222 654
6.74232 658
6.76243 693
6.78255 718
6.80266 719
6.82277 688
6.84289 655
6.863 691
6.88311 680
6.90323 696
6.92334 660
6.94346 675
6.96357 675
6.98368 714
7.0038 698
7.02391 622
7.04402 667
7.06414 653
7.08425 680
7.10436 685
7.12448 720
7.14459 659
7.16471 693
7.18482 672
7.20493 697
7.22505 684
7.24516 678
7.26527 715
7.28539 683
7.3055 698
7.32562 728
7.34573 635
7.36584 688
7.38596 709
7.40607 673
7.42618 648
7.4463 646
7.46641 642
7.48653 694
7.50664 650
7.52675 622
7.54687 666
7.56698 680
7.58709 712
7.60721 641
7.62732 680
7.64743 664
7.66755 700
7.68766 639
7.70778 664
7.72789 680
7.748 715
7.76812 681
7.78823 668
7.80834 691
7.82846 628
7.84857 620
7.86869 666
7.8888 643
7.90891 646
7.92903 652
7.94914 668
7.96925 725
7.98937 686
8.00948 678
8.0296 678
8.04971 687
8.06982 704
8.08994 703
8.11005 685
8.13016 671
8.15028 667
8.17039 645
8.1905 641
8.21062 688
8.23073 655
8.25085 695
8.27096 668
8.29107 667
8.31119 676
8.3313 635
8.35141 692
8.37153 698
8.39164 629
8.41176 693
8.43187 656
8.45198 664
8.4721 675
8.49221 646
8.51232 675
8.53244 695
8.55255 695
8.57266 621
8.59278 731
8.61289 650
8.63301 646
8.65312 649
8.67323 659
8.69335 724
8.71346 627
8.73357 620
8.75369 650
8.7738 683
8.79392 669
8.81403 678
8.83414 708
8.85426 638
8.87437 640
8.89448 660
8.9146 672
8.93471 651
8.95483 655
8.97494 664
8.99505 668
9.01517 654
9.03528 675
9.05539 694
9.07551 657
9.09562 663
9.11573 664
9.13585 655
9.15596 664
9.17608 680
9.19619 676
9.2163 637
9.23642 661
9.25653 639
9.27664 680
9.29676 705
9.31687 670
9.33699 645
9.3571 621
9.37721 628
9.39733 646
9.41744 636
9.43755 687
9.45767 629
9.47778 684
9.4979 640
9.51801 642
9.53812 668
9.55824 649
9.57835 608
9.59846 657
9.61858 636
9.63869 663
9.6588 668
9.67892 607
9.69903 610
9.71915 642
9.73926 656
9.75937 623
9.77949 648
9.7996 645
9.81971 719
9.83983 647
9.85994 626
9.88006 674
9.90017 629
9.92028 640
9.9404 687
9.96051 634
9.98062 653
10.00074 620
10.02085 637
10.04097 652
10.06108 656
10.08119 678
10.10131 652
10.12142 672
10.14153 614
10.16165 659
10.18176 647
10.20187 688
10.22199 674
10.2421 638
10.26222 676
10.28233 655
10.30244 675
10.32256 615
10.34267 637
10.36278 693
10.3829 677
10.40301 677
10.42313 627
10.44324 679
10.46335 711
10.48347 667
10.50358 665
10.52369 678
10.54381 660
10.56392 708
10.58403 672
10.60415 626
10.62426 625
10.64438 660
10.66449 598
10.6846 653
10.70472 649
10.72483 665
10.74494 620
10.76506 627
10.78517 686
10.80529 657
10.8254 664
10.84551 669
10.86563 642
10.88574 617
10.90585 701
10.92597 599
10.94608 647
10.9662 643
10.98631 657
11.00642 649
11.02654 689
11.04665 644
11.06676 661
11.08688 670
11.10699 685
11.1271 628
11.14722 621
11.16733 642
11.18745 664
11.20756 688
11.22767 674
11.24779 650
11.2679 649
11.28801 642
11.30813 626
11.32824 607
11.34836 673
11.36847 634
11.38858 647
11.4087 668
11.42881 645
11.44892 675
11.46904 659
11.48915 650
11.50927 655
11.52938 659
11.54949 619
11.56961 687
11.58972 659
11.60983 664
11.62995 722
11.65006 735
11.67017 668
11.69029 668
11.7104 710
11.73052 652
11.75063 629
11.77074 708
11.79086 672
11.81097 646
11.83108 673
11.8512 651
11.87131 642
11.89143 679
11.91154 634
11.93165 645
11.95177 664
11.97188 669
11.99199 697
12.01211 709
12.03222 728
12.05234 667
12.07245 785
12.09256 727
12.11268 766
12.13279 756
12.1529 796
12.17302 754
12.19313 714
12.21324 797
12.23336 789
12.25347 818
12.27359 803
12.2937 895
12.31381 831
12.33393 771
12.35404 826
12.37415 795
12.39427 775
12.41438 767
12.4345 796
12.45461 716
12.47472 741
12.49484 745
12.51495 731
12.53506 724
12.55518 645
12.57529 702
12.5954 662
12.61552 657
12.63563 661
12.65575 670
12.67586 709
12.69597 610
12.71609 620
12.7362 651
12.75631 675
12.77643 629
12.79654 663
12.81666 611
12.83677 661
12.85688 619
12.877 636
12.89711 640
12.91722 626
12.93734 665
12.95745 638
12.97757 650
12.99768 620
13.01779 656
13.03791 638
13.05802 655
13.07813 661
13.09825 674
13.11836 615
13.13847 665
13.15859 588
13.1787 674
13.19882 615
13.21893 655
13.23904 601
13.25916 656
13.27927 629
13.29938 644
13.3195 624
13.33961 642
13.35973 625
13.37984 614
13.39995 655
13.42007 629
13.44018 637
13.46029 685
13.48041 616
13.50052 628
13.52064 644
13.54075 629
13.56086 630
13.58098 609
13.60109 638
13.6212 656
13.64132 623
13.66143 612
13.68154 658
13.70166 644
13.72177 650
13.74189 673
13.762 625
13.78211 660
13.80223 644
13.82234 663
13.84245 622
13.86257 621
13.88268 666
13.9028 621
13.92291 687
13.94302 640
13.96314 598
13.98325 647
14.00336 626
14.02348 679
14.04359 619
14.06371 635
14.08382 602
14.10393 614
14.12405 597
14.14416 639
14.16427 641
14.18439 632
14.2045 693
14.22461 580
14.24473 591
14.26484 633
14.28496 636
14.30507 641
14.32518 640
14.3453 623
14.36541 655
14.38552 674
14.40564 637
14.42575 696
14.44587 649
14.46598 607
14.48609 676
14.50621 628
14.52632 615
14.54643 617
14.56655 615
14.58666 631
14.60677 639
14.62689 639
14.647 620
14.66712 629
14.68723 632
14.70734 632
14.72746 603
14.74757 649
14.76768 677
14.7878 605
14.80791 655
14.82803 618
14.84814 640
14.86825 642
14.88837 635
14.90848 567
14.92859 660
14.94871 635
14.96882 641
14.98894 597
15.00905 629
15.02916 657
15.04928 595
15.06939 630
15.0895 630
15.10962 618
15.12973 575
15.14984 597
15.16996 629
15.19007 647
15.21019 595
15.2303 618
15.25041 662
15.27053 633
15.29064 594
15.31075 606
15.33087 684
15.35098 615
15.3711 670
15.39121 669
15.41132 629
15.43144 626
15.45155 647
15.47166 617
15.49178 626
15.51189 607
15.53201 605
15.55212 634
15.57223 608
15.59235 579
15.61246 612
15.63257 621
15.65269 619
15.6728 609
15.69291 624
15.71303 623
15.73314 645
15.75326 653
15.77337 630
15.79348 621
15.8136 630
15.83371 603
15.85382 610
15.87394 623
15.89405 585
15.91417 615
15.93428 618
15.95439 625
15.97451 632
15.99462 620
16.01473 629
16.03485 676
16.05496 679
16.07508 676
16.09519 651
16.1153 607
16.13542 646
16.15553 603
16.17564 642
16.19576 613
16.21587 648
16.23598 650
16.2561 572
16.27621 613
16.29633 665
16.31644 640
16.33655 621
16.35667 635
16.37678 658
16.39689 685
16.41701 599
16.43712 628
16.45724 679
16.47735 641
16.49746 617
16.51758 633
16.53769 652
16.5578 663
16.57792 695
16.59803 625
16.61814 603
16.63826 636
16.65837 645
16.67849 601
16.6986 632
16.71871 599
16.73883 653
16.75894 642
16.77905 651
16.79917 619
16.81928 580
16.8394 662
16.85951 617
16.87962 582
16.89974 596
16.91985 633
16.93996 649
16.96008 586
16.98019 600
17.00031 635
17.02042 623
17.04053 639
17.06065 636
17.08076 638
17.10087 627
17.12099 668
17.1411 603
17.16121 640
17.18133 639
17.20144 656
17.22156 667
17.24167 632
17.26178 590
17.2819 645
17.30201 625
17.32212 620
17.34224 643
17.36235 659
17.38247 628
17.40258 676
17.42269 605
17.44281 684
17.46292 660
17.48303 647
17.50315 648
17.52326 628
17.54338 674
17.56349 601
17.5836 649
17.60372 647
17.62383 630
17.64394 660
17.66406 714
17.68417 665
17.70428 672
17.7244 631
17.74451 545
17.76463 686
17.78474 682
17.80485 649
17.82497 626
17.84508 670
17.86519 638
17.88531 671
17.90542 646
17.92554 584
17.94565 658
17.96576 672
17.98588 648
18.00599 647
18.0261 620
18.04622 688
18.06633 668
18.08645 627
18.10656 674
18.12667 654
18.14679 653
18.1669 647
18.18701 705
18.20713 636
18.22724 633
18.24735 558
18.26747 627
18.28758 641
18.3077 615
18.32781 628
18.34792 630
18.36804 621
18.38815 667
18.40826 659
18.42838 650
18.44849 672
18.46861 655
18.48872 688
18.50883 661
18.52895 609
18.54906 653
18.56917 605
18.58929 606
18.6094 707
18.62951 642
18.64963 652
18.66974 637
18.68986 661
18.70997 664
18.73008 633
18.7502 589
18.77031 595
18.79042 628
18.81054 636
18.83065 704
18.85077 644
18.87088 642
18.89099 635
18.91111 629
18.93122 626
18.95133 669
18.97145 645
18.99156 636
19.01168 604
19.03179 659
19.0519 647
19.07202 690
19.09213 703
19.11224 616
19.13236 652
19.15247 634
19.17258 703
19.1927 660
19.21281 616
19.23293 686
19.25304 669
19.27315 708
19.29327 616
19.31338 710
19.33349 684
19.35361 651
19.37372 653
19.39384 722
19.41395 679
19.43406 708
19.45418 660
19.47429 779
19.4944 720
19.51452 754
19.53463 745
19.55475 764
19.57486 779
19.59497 747
19.61509 759
19.6352 760
19.65531 731
19.67543 789
19.69554 796
19.71565 759
19.73577 798
19.75588 805
19.776 825
19.79611 790
19.81622 874
19.83634 867
19.85645 845
19.87656 873
19.89668 874
19.91679 814
19.93691 811
19.95702 809
19.97713 815
19.99725 798
20.01736 892
20.03747 871
20.05759 825
20.0777 814
20.09782 803
20.11793 821
20.13804 828
20.15816 816
20.17827 831
20.19838 797
20.2185 801
20.23861 799
20.25872 797
20.27884 845
20.29895 816
20.31907 811
20.33918 816
20.35929 821
20.37941 825
20.39952 830
20.41963 804
20.43975 806
20.45986 816
20.47998 883
20.50009 845
20.5202 870
20.54032 788
20.56043 859
20.58054 835
20.60066 883
20.62077 839
20.64088 853
20.661 939
20.68111 974
20.70123 1087
20.72134 1221
20.74145 1353
20.76157 1584
20.78168 1890
20.80179 2042
20.82191 2179
20.84202 2214
20.86214 2153
20.88225 1957
20.90236 1665
20.92248 1460
20.94259 1237
20.9627 1063
20.98282 964
21.00293 1013
21.02305 931
21.04316 937
21.06327 897
21.08339 951
21.1035 972
21.12361 894
21.14373 908
21.16384 943
21.18395 899
21.20407 963
21.22418 945
21.2443 927
21.26441 965
21.28452 967
21.30464 1002
21.32475 988
21.34486 966
21.36498 959
21.38509 940
21.40521 899
21.42532 924
21.44543 945
21.46555 835
21.48566 863
21.50577 843
21.52589 805
21.546 869
21.56612 892
21.58623 803
21.60634 860
21.62646 868
21.64657 775
21.66668 833
21.6868 759
21.70691 857
21.72702 828
21.74714 731
21.76725 773
21.78737 768
21.80748 745
21.82759 814
21.84771 768
21.86782 723
21.88793 808
21.90805 783
21.92816 756
21.94828 807
21.96839 823
21.9885 927
22.00862 860
22.02873 834
22.04884 852
22.06896 751
22.08907 810
22.10919 777
22.1293 820
22.14941 750
22.16953 771
22.18964 755
22.20975 740
22.22987 717
22.24998 729
22.27009 709
22.29021 718
22.31032 686
22.33044 753
22.35055 731
22.37066 754
22.39078 751
22.41089 714
22.431 710
22.45112 742
22.47123 695
22.49135 706
22.51146 749
22.53157 737
22.55169 708
22.5718 757
22.59191 704
22.61203 714
22.63214 698
22.65225 701
22.67237 782
22.69248 687
22.7126 721
22.73271 707
22.75282 745
22.77294 672
22.79305 713
22.81316 731
22.83328 777
22.85339 682
22.87351 720
22.89362 717
22.91373 721
22.93385 693
22.95396 695
22.97407 736
22.99419 743
23.0143 736
23.03442 713
23.05453 767
23.07464 696
23.09476 742
23.11487 697
23.13498 748
23.1551 727
23.17521 740
23.19532 655
23.21544 717
23.23555 710
23.25567 719
23.27578 732
23.29589 723
23.31601 686
23.33612 748
23.35623 667
23.37635 683
23.39646 686
23.41658 738
23.43669 719
23.4568 767
23.47692 795
23.49703 687
23.51714 759
23.53726 753
23.55737 730
23.57749 741
23.5976 676
23.61771 759
23.63783 741
23.65794 747
23.67805 714
23.69817 748
23.71828 798
23.73839 765
23.75851 754
23.77862 748
23.79874 787
23.81885 827
23.83896 779
23.85908 792
23.87919 759
23.8993 825
23.91942 781
23.93953 794
23.95965 776
23.97976 783
23.99987 818
24.01999 826
24.0401 832
24.06021 826
24.08033 797
24.10044 782
24.12056 778
24.14067 768
24.16078 841
24.1809 778
24.20101 784
24.22112 845
24.24124 828
24.26135 797
24.28146 760
24.30158 760
24.32169 787
24.34181 804
24.36192 796
24.38203 809
24.40215 753
24.42226 785
24.44237 734
24.46249 803
24.4826 742
24.50272 768
24.52283 725
24.54294 801
24.56306 791
24.58317 752
24.60328 765
24.6234 767
24.64351 773
24.66362 672
24.68374 807
24.70385 802
24.72397 830
24.74408 839
24.76419 797
24.78431 872
24.80442 846
24.82453 865
24.84465 824
24.86476 806
24.88488 822
24.90499 785
24.9251 845
24.94522 848
24.96533 823
24.98544 842
25.00556 764
25.02567 758
25.04579 745
25.0659 804
25.08601 757
25.10613 752
25.12624 811
25.14635 715
25.16647 776
25.18658 814
25.20669 805
25.22681 764
25.24692 785
25.26704 815
25.28715 722
25.30726 807
25.32738 842
25.34749 742
25.3676 777
25.38772 748
25.40783 759
25.42795 740
25.44806 747
25.46817 786
25.48829 783
25.5084 760
25.52851 776
25.54863 773
25.56874 761
25.58886 720
25.60897 778
25.62908 755
25.6492 705
25.66931 788
25.68942 780
25.70954 765
25.72965 820
25.74976 721
25.76988 755
25.78999 801
25.81011 754
25.83022 773
25.85033 750
25.87045 773
25.89056 773
25.91067 693
25.93079 748
25.9509 790
25.97102 801
25.99113 762
26.01124 755
26.03136 767
26.05147 781
26.07158 820
26.0917 808
26.11181 834
26.13193 801
26.15204 885
26.17215 846
26.19227 888
26.21238 880
26.23249 899
26.25261 911
26.27272 913
26.29283 931
26.31295 988
26.33306 998
26.35318 1063
26.37329 1117
26.3934 1228
26.41352 1322
26.43363 1552
26.45374 1875
26.47386 2318
26.49397 2925
26.51409 3807
26.5342 4746
26.55431 5730
26.57443 6825
26.59454 7444
26.61465 7513
26.63477 7440
26.65488 6288
26.67499 5177
26.69511 4033
26.71522 2996
26.73534 2341
26.75545 1684
26.77556 1361
26.79568 1104
26.81579 1040
26.8359 967
26.85602 967
26.87613 945
26.89625 915
26.91636 914
26.93647 859
26.95659 849
26.9767 845
26.99681 843
27.01693 803
27.03704 806
27.05716 737
27.07727 832
27.09738 800
27.1175 771
27.13761 763
27.15772 804
27.17784 786
27.19795 760
27.21806 737
27.23818 765
27.25829 789
27.27841 727
27.29852 823
27.31863 795
27.33875 720
27.35886 729
27.37897 793
27.39909 738
27.4192 793
27.43932 749
27.45943 763
27.47954 746
27.49966 773
27.51977 829
27.53988 760
27.56 727
27.58011 779
27.60023 754
27.62034 764
27.64045 756
27.66057 719
27.68068 770
27.70079 761
27.72091 814
27.74102 763
27.76113 779
27.78125 784
27.80136 719
27.82148 777
27.84159 763
27.8617 821
27.88182 788
27.90193 892
27.92204 829
27.94216 833
27.96227 769
27.98239 801
28.0025 784
28.02261 756
28.04273 755
28.06284 748
28.08295 775
28.10307 734
28.12318 763
28.1433 714
28.16341 748
28.18352 777
28.20364 689
28.22375 739
28.24386 718
28.26398 730
28.28409 701
28.3042 725
28.32432 758
28.34443 721
28.36455 699
28.38466 689
28.40477 715
28.42489 672
28.445 734
28.46511 716
28.48523 732
28.50534 734
28.52546 692
28.54557 715
28.56568 682
28.5858 740
28.60591 785
28.62602 726
28.64614 665
28.66625 668
28.68636 678
28.70648 693
28.72659 757
28.74671 660
28.76682 699
28.78693 650
28.80705 721
28.82716 707
28.84727 665
28.86739 701
28.8875 713
28.90762 701
28.92773 667
28.94784 699
28.96796 698
28.98807 688
29.00818 711
29.0283 685
29.04841 684
29.06853 658
29.08864 707
29.10875 667
29.12887 704
29.14898 735
29.16909 689
29.18921 691
29.20932 686
29.22943 668
29.24955 715
29.26966 679
29.28978 668
29.30989 696
29.33 738
29.35012 716
29.37023 721
29.39034 706
29.41046 673
29.43057 714
29.45069 695
29.4708 764
29.49091 667
29.51103 655
29.53114 697
29.55125 675
29.57137 708
29.59148 681
29.6116 679
29.63171 702
29.65182 714
29.67194 652
29.69205 688
29.71216 723
29.73228 679
29.75239 690
29.7725 722
29.79262 705
29.81273 655
29.83285 682
29.85296 675
29.87307 687
29.89319 682
29.9133 634
29.93341 734
29.95353 702
29.97364 704
29.99376 704
30.01387 730
30.03398 731
30.0541 726
30.07421 702
30.09432 694
30.11444 725
30.13455 759
30.15467 699
30.17478 717
30.19489 759
30.21501 695
30.23512 694
30.25523 804
30.27535 748
30.29546 741
30.31557 784
30.33569 717
30.3558 779
30.37592 742
30.39603 701
30.41614 801
30.43626 765
30.45637 746
30.47648 689
30.4966 754
30.51671 721
30.53683 710
30.55694 736
30.57705 758
30.59717 712
30.61728 725
30.63739 745
30.65751 726
30.67762 739
30.69773 761
30.71785 742
30.73796 685
30.75808 758
30.77819 701
30.7983 729
30.81842 802
30.83853 721
30.85864 748
30.87876 716
30.89887 673
30.91899 700
30.9391 667
30.95921 711
30.97933 693
30.99944 745
31.01955 707
31.03967 649
31.05978 759
31.0799 695
31.10001 675
31.12012 683
31.14024 684
31.16035 725
31.18046 700
31.20058 647
31.22069 679
31.2408 693
31.26092 685
31.28103 704
31.30115 711
31.32126 684
31.34137 699
31.36149 690
31.3816 667
31.40171 739
31.42183 672
31.44194 681
31.46206 688
31.48217 762
31.50228 722
31.5224 724
31.54251 748
31.56262 683
31.58274 722
31.60285 692
31.62297 718
31.64308 703
31.66319 697
31.68331 701
31.70342 754
31.72353 732
31.74365 726
31.76376 717
31.78387 701
31.80399 716
31.8241 688
31.84422 720
31.86433 721
31.88444 713
31.90456 724
31.92467 681
31.94478 721
31.9649 729
31.98501 679
32.00513 732
32.02524 689
32.04535 680
32.06547 670
32.08558 719
32.10569 757
32.12581 757
32.14592 700
32.16604 724
32.18615 714
32.20626 712
32.22638 720
32.24649 680
32.2666 699
32.28672 732
32.30683 719
32.32694 755
32.34706 786
32.36717 808
32.38729 786
32.4074 796
32.42751 781
32.44763 796
32.46774 749
32.48785 850
32.50797 793
32.52808 798
32.5482 800
32.56831 815
32.58842 800
32.60854 777
32.62865 841
32.64876 803
32.66888 804
32.68899 793
32.7091 788
32.72922 753
32.74933 855
32.76945 842
32.78956 838
32.80967 855
32.82979 819
32.8499 850
32.87001 880
32.89013 814
32.91024 817
32.93036 846
32.95047 857
32.97058 881
32.9907 847
33.01081 889
33.03092 958
33.05104 903
33.07115 924
33.09127 956
33.11138 900
33.13149 924
33.15161 942
33.17172 975
33.19183 939
33.21195 901
33.23206 928
33.25217 914
33.27229 913
33.2924 921
33.31252 926
33.33263 900
33.35274 946
33.37286 914
33.39297 913
33.41308 982
33.4332 878
33.45331 877
33.47343 891
33.49354 833
33.51365 853
33.53377 872
33.55388 867
33.57399 861
33.59411 867
33.61422 808
33.63434 797
33.65445 824
33.67456 800
33.69468 794
33.71479 808
33.7349 747
33.75502 786
33.77513 759
33.79524 775
33.81536 812
33.83547 791
33.85559 788
33.8757 723
33.89581 711
33.91593 766
33.93604 735
33.95615 698
33.97627 704
33.99638 735
34.0165 703
34.03661 748
34.05672 753
34.07684 730
34.09695 793
34.11706 754
34.13718 790
34.15729 707
34.17741 770
34.19752 735
34.21763 784
34.23775 800
34.25786 804
34.27797 784
34.29809 764
34.3182 779
34.33831 784
34.35843 751
34.37854 824
34.39866 781
34.41877 765
34.43888 732
34.459 765
34.47911 754
34.49922 798
34.51934 745
34.53945 766
34.55957 763
34.57968 781
34.59979 741
34.61991 737
34.64002 804
34.66013 782
34.68025 803
34.70036 815
34.72047 792
34.74059 843
34.7607 840
34.78082 839
34.80093 823
34.82104 810
34.84116 880
34.86127 842
34.88138 896
34.9015 880
34.92161 859
34.94173 868
34.96184 903
34.98195 848
35.00207 886
35.02218 846
35.04229 891
35.06241 850
35.08252 876
35.10264 827
35.12275 870
35.14286 901
35.16298 863
35.18309 886
35.2032 892
35.22332 909
35.24343 893
35.26354 885
35.28366 842
35.30377 916
35.32389 879
35.344 875
35.36411 852
35.38423 933
35.40434 906
35.42445 954
35.44457 888
35.46468 976
35.4848 965
35.50491 1006
35.52502 985
35.54514 979
35.56525 1004
35.58536 1083
35.60548 1035
35.62559 1063
35.64571 1101
35.66582 1054
35.68593 1039
35.70605 1109
35.72616 1118
35.74627 1047
35.76639 1063
35.7865 1019
35.80661 1007
35.82673 991
35.84684 1017
35.86696 975
35.88707 952
35.90718 939
35.9273 959
35.94741 926
35.96752 876
35.98764 897
36.00775 902
36.02787 866
36.04798 857
36.06809 818
36.08821 877
36.10832 881
36.12843 824
36.14855 817
36.16866 855
36.18878 832
36.20889 909
36.229 825
36.24912 849
36.26923 847
36.28934 801
36.30946 828
36.32957 901
36.34968 955
36.3698 912
36.38991 958
36.41003 1098
36.43014 1161
36.45025 1174
36.47037 1195
36.49048 1232
36.51059 1375
36.53071 1197
36.55082 1225
36.57094 1178
36.59105 1070
36.61116 1019
36.63128 982
36.65139 960
36.6715 897
36.69162 903
36.71173 898
36.73184 890
36.75196 833
36.77207 904
36.79219 887
36.8123 917
36.83241 854
36.85253 866
36.87264 932
36.89275 876
36.91287 817
36.93298 896
36.9531 882
36.97321 862
36.99332 891
37.01344 833
37.03355 826
37.05366 828
37.07378 833
37.09389 812
37.11401 804
37.13412 795
37.15423 820
37.17435 795
37.19446 750
37.21457 744
37.23469 792
37.2548 759
37.27491 770
37.29503 798
37.31514 779
37.33526 729
37.35537 715
37.37548 736
37.3956 763
37.41571 792
37.43582 782
37.45594 718
37.47605 700
37.49617 764
37.51628 771
37.53639 758
37.55651 768
37.57662 725
37.59673 730
37.61685 726
37.63696 727
37.65708 702
37.67719 718
37.6973 769
37.71742 715
37.73753 743
37.75764 705
37.77776 719
37.79787 784
37.81798 792
37.8381 789
37.85821 776
37.87833 698
37.89844 748
37.91855 690
37.93867 762
37.95878 735
37.97889 739
37.99901 716
38.01912 695
38.03924 760
38.05935 742
38.07946 735
38.09958 705
38.11969 736
38.1398 780
38.15992 780
38.18003 770
38.20015 768
38.22026 751
38.24037 742
38.26049 734
38.2806 821
38.30071 782
38.32083 799
38.34094 792
38.36105 784
38.38117 717
38.40128 759
38.4214 805
38.44151 758
38.46162 773
38.48174 729
38.50185 781
38.52196 753
38.54208 789
38.56219 772
38.58231 764
38.60242 779
38.62253 754
38.64265 721
38.66276 735
38.68287 741
38.70299 759
38.7231 780
38.74321 740
38.76333 739
38.78344 721
38.80356 748
38.82367 731
38.84378 749
38.8639 728
38.88401 723
38.90412 676
38.92424 716
38.94435 722
38.96447 731
38.98458 685
39.00469 757
39.02481 802
39.04492 720
39.06503 762
39.08515 754
39.10526 809
39.12538 778
39.14549 783
39.1656 775
39.18572 776
39.20583 706
39.22594 781
39.24606 784
39.26617 806
39.28628 868
39.3064 897
39.32651 951
39.34663 1036
39.36674 1037
39.38685 1147
39.40697 1116
39.42708 1186
39.44719 1158
39.46731 1075
39.48742 1030
39.50754 979
39.52765 914
39.54776 878
39.56788 890
39.58799 837
39.6081 753
39.62822 716
39.64833 764
39.66845 763
39.68856 725
39.70867 705
39.72879 768
39.7489 726
39.76901 677
39.78913 748
39.80924 693
39.82935 684
39.84947 682
39.86958 720
39.8897 675
39.90981 738
39.92992 720
39.95004 778
39.97015 733
39.99026 784
40.01038 783
40.03049 793
40.05061 744
40.07072 784
40.09083 799
40.11095 815
40.13106 855
40.15117 837
40.17129 862
40.1914 927
40.21152 909
40.23163 930
40.25174 965
40.27186 955
40.29197 867
40.31208 874
40.3322 876
40.35231 839
40.37242 804
40.39254 735
40.41265 816
40.43277 739
40.45288 736
40.47299 739
40.49311 737
40.51322 711
40.53333 741
40.55345 761
40.57356 746
40.59368 762
40.61379 765
40.6339 715
40.65402 761
40.67413 709
40.69424 720
40.71436 730
40.73447 761
40.75458 743
40.7747 801
40.79481 750
40.81493 762
40.83504 740
40.85515 736
40.87527 815
40.89538 791
40.91549 753
40.93561 808
40.95572 748
40.97584 863
40.99595 770
41.01606 824
41.03618 764
41.05629 797
41.0764 730
41.09652 762
41.11663 769
41.13675 783
41.15686 722
41.17697 787
41.19709 731
41.2172 742
41.23731 779
41.25743 770
41.27754 769
41.29765 737
41.31777 755
41.33788 756
41.358 751
41.37811 718
41.39822 739
41.41834 751
41.43845 653
41.45856 797
41.47868 752
41.49879 779
41.51891 717
41.53902 696
41.55913 776
41.57925 761
41.59936 716
41.61947 705
41.63959 705
41.6597 753
41.67982 684
41.69993 750
41.72004 728
41.74016 733
41.76027 692
41.78038 715
41.8005 698
41.82061 713
41.84072 716
41.86084 669
41.88095 693
41.90107 672
41.92118 710
41.94129 726
41.96141 676
41.98152 719
42.00163 716
42.02175 638
42.04186 704
42.06198 662
42.08209 722
42.1022 695
42.12232 761
42.14243 708
42.16254 749
42.18266 703
42.20277 745
42.22289 750
42.243 754
42.26311 774
42.28323 831
42.30334 803
42.32345 862
42.34357 933
42.36368 961
42.38379 950
42.40391 928
42.42402 961
42.44414 922
42.46425 887
42.48436 861
42.50448 831
42.52459 850
42.5447 877
42.56482 757
42.58493 730
42.60505 749
42.62516 692
42.64527 699
42.66539 725
42.6855 704
42.70561 659
42.72573 694
42.74584 660
42.76595 658
42.78607 683
42.80618 699
42.8263 701
42.84641 655
42.86652 679
42.88664 685
42.90675 656
42.92686 685
42.94698 690
42.96709 689
42.98721 684
43.00732 688
43.02743 676
43.04755 642
43.06766 663
43.08777 695
43.10789 678
43.128 648
43.14812 658
43.16823 691
43.18834 675
43.20846 659
43.22857 719
43.24868 687
43.2688 702
43.28891 684
43.30902 675
43.32914 662
43.34925 720
43.36937 678
43.38948 667
43.40959 740
43.42971 686
43.44982 673
43.46993 751
43.49005 647
43.51016 630
43.53028 685
43.55039 657
43.5705 714
43.59062 658
43.61073 676
43.63084 637
43.65096 742
43.67107 701
43.69119 686
43.7113 670
43.73141 706
43.75153 687
43.77164 694
43.79175 646
43.81187 671
43.83198 673
43.85209 678
43.87221 675
43.89232 675
43.91244 665
43.93255 683
43.95266 679
43.97278 662
43.99289 684
44.013 693
44.03312 726
44.05323 736
44.07335 649
44.09346 647
44.11357 635
44.13369 711
44.1538 700
44.17391 674
44.19403 662
44.21414 696
44.23426 632
44.25437 720
44.27448 677
44.2946 666
44.31471 679
44.33482 656
44.35494 684
44.37505 707
44.39516 659
44.41528 667
44.43539 665
44.45551 688
44.47562 708
44.49573 678
44.51585 670
44.53596 707
44.55607 680
44.57619 720
44.5963 713
44.61642 632
44.63653 664
44.65664 662
44.67676 652
44.69687 689
44.71698 670
44.7371 669
44.75721 683
44.77732 662
44.79744 699
44.81755 649
44.83767 686
44.85778 714
44.87789 732
44.89801 695
44.91812 715
44.93823 688
44.95835 693
44.97846 641
44.99858 635
45.01869 678
45.0388 723
45.05892 708
45.07903 710
45.09914 680
45.11926 692
45.13937 657
45.15949 717
45.1796 645
45.19971 707
45.21983 732
45.23994 705
45.26005 704
45.28017 715
45.30028 672
45.32039 686
45.34051 682
45.36062 708
45.38074 663
45.40085 684
45.42096 748
45.44108 737
45.46119 730
45.4813 723
45.50142 707
45.52153 771
45.54165 711
45.56176 743
45.58187 749
45.60199 758
45.6221 772
45.64221 762
45.66233 841
45.68244 820
45.70256 856
45.72267 868
45.74278 875
45.7629 876
45.78301 874
45.80312 811
45.82324 805
45.84335 782
45.86346 759
45.88358 800
45.90369 750
45.92381 712
45.94392 727
45.96403 684
45.98415 692
46.00426 669
46.02437 678
46.04449 677
46.0646 680
46.08472 687
46.10483 649
46.12494 685
46.14506 664
46.16517 668
46.18528 650
46.2054 695
46.22551 671
46.24563 676
46.26574 695
46.28585 656
46.30597 689
46.32608 664
46.34619 694
46.36631 656
46.38642 659
46.40653 637
46.42665 711
46.44676 680
46.46688 665
46.48699 632
46.5071 673
46.52722 672
46.54733 691
46.56744 690
46.58756 650
46.60767 711
46.62779 663
46.6479 721
46.66801 715
46.68813 690
46.70824 669
46.72835 707
46.74847 679
46.76858 668
46.78869 711
46.80881 702
46.82892 660
46.84904 732
46.86915 672
46.88926 658
46.90938 663
46.92949 720
46.9496 657
46.96972 635
46.98983 713
47.00995 668
47.03006 692
47.05017 677
47.07029 655
47.0904 703
47.11051 718
47.13063 672
47.15074 656
47.17086 632
47.19097 720
47.21108 664
47.2312 686
47.25131 710
47.27142 668
47.29154 694
47.31165 646
47.33176 661
47.35188 688
47.37199 710
47.39211 705
47.41222 637
47.43233 700
47.45245 720
47.47256 658
47.49267 701
47.51279 673
47.5329 673
47.55302 678
47.57313 688
47.59324 694
47.61336 732
47.63347 712
47.65358 721
47.6737 701
47.69381 695
47.71393 715
47.73404 713
47.75415 724
47.77427 714
47.79438 702
47.81449 697
47.83461 688
47.85472 671
47.87483 633
47.89495 675
47.91506 677
47.93518 680
47.95529 673
47.9754 644
47.99552 710
48.01563 693
48.03574 691
48.05586 646
48.07597 695
48.09609 653
48.1162 681
48.13631 643
48.15643 716
48.17654 672
48.19665 671
48.21677 721
48.23688 684
48.257 678
48.27711 656
48.29722 689
48.31734 695
48.33745 723
48.35756 685
48.37768 688
48.39779 688
48.4179 728
48.43802 732
48.45813 676
48.47825 711
48.49836 698
48.51847 742
48.53859 750
48.5587 726
48.57881 759
48.59893 754
48.61904 703
48.63916 726
48.65927 756
48.67938 725
48.6995 709
48.71961 722
48.73972 665
48.75984 700
48.77995 655
48.80006 723
48.82018 708
48.84029 697
48.86041 683
48.88052 669
48.90063 695
48.92075 713
48.94086 701
48.96097 746
48.98109 648
49.0012 702
49.02132 748
49.04143 714
49.06154 697
49.08166 711
49.10177 717
49.12188 718
49.142 717
49.16211 717
49.18223 782
49.20234 723
49.22245 726
49.24257 737
49.26268 713
49.28279 726
49.30291 695
49.32302 720
49.34313 716
49.36325 776
49.38336 717
49.40348 742
49.42359 765
49.4437 711
49.46382 794
49.48393 764
49.50404 771
49.52416 741
49.54427 721
49.56439 719
49.5845 747
49.60461 735
49.62473 826
49.64484 713
49.66495 740
49.68507 732
49.70518 740
49.7253 743
49.74541 774
49.76552 724
49.78564 744
49.80575 724
49.82586 779
49.84598 784
49.86609 787
49.8862 849
49.90632 829
49.92643 886
49.94655 911
49.96666 969
49.98677 1026
50.00689 1187
50.027 1201
50.04711 1293
50.06723 1338
50.08734 1390
50.10746 1278
50.12757 1328
50.14768 1186
50.1678 1118
50.18791 1059
50.20802 1033
50.22814 980
50.24825 948
50.26837 895
50.28848 792
50.30859 767
50.32871 738
50.34882 728
50.36893 730
50.38905 731
50.40916 736
50.42927 712
50.44939 735
50.4695 712
50.48962 709
50.50973 725
50.52984 766
50.54996 709
50.57007 735
50.59018 686
50.6103 707
50.63041 704
50.65053 738
50.67064 723
50.69075 682
50.71087 701
50.73098 658
50.75109 665
50.77121 687
50.79132 703
50.81143 724
50.83155 649
50.85166 640
50.87178 701
50.89189 711
50.912 698
50.93212 737
50.95223 694
50.97234 694
50.99246 664
51.01257 711
51.03269 703
51.0528 616
51.07291 672
51.09303 699
51.11314 727
51.13325 683
51.15337 661
51.17348 678
51.1936 675
51.21371 713
51.23382 665
51.25394 674
51.27405 691
51.29416 624
51.31428 652
51.33439 681
51.3545 658
51.37462 665
51.39473 671
51.41485 726
51.43496 690
51.45507 653
51.47519 667
51.4953 667
51.51541 608
51.53553 688
51.55564 673
51.57576 673
51.59587 632
51.61598 692
51.6361 662
51.65621 669
51.67632 664
51.69644 685
51.71655 642
51.73667 698
51.75678 659
51.77689 640
51.79701 627
51.81712 667
51.83723 615
51.85735 601
51.87746 678
51.89757 688
51.91769 648
51.9378 704
51.95792 645
51.97803 641
51.99814 627
52.01826 702
52.03837 635
52.05848 652
52.0786 677
52.09871 661
52.11883 668
52.13894 678
52.15905 621
52.17917 654
52.19928 639
52.21939 734
52.23951 629
52.25962 699
52.27974 696
52.29985 685
52.31996 692
52.34008 654
52.36019 695
52.3803 652
52.40042 662
52.42053 683
52.44064 677
52.46076 636
52.48087 630
52.50099 668
52.5211 639
52.54121 699
52.56133 681
52.58144 645
52.60155 654
52.62167 672
52.64178 634
52.6619 705
52.68201 683
52.70212 713
52.72224 662
52.74235 664
52.76246 712
52.78258 694
52.80269 701
52.8228 682
52.84292 651
52.86303 720
52.88315 724
52.90326 714
52.92337 752
52.94349 749
52.9636 754
52.98371 704
53.00383 695
53.02394 731
53.04406 741
53.06417 703
53.08428 719
53.1044 736
53.12451 741
53.14462 740
53.16474 748
53.18485 710
53.20497 713
53.22508 767
53.24519 771
53.26531 742
53.28542 773
53.30553 705
53.32565 750
53.34576 780
53.36587 764
53.38599 764
53.4061 750
53.42622 753
53.44633 764
53.46644 751
53.48656 776
53.50667 786
53.52678 743
53.5469 766
53.56701 740
53.58713 773
53.60724 778
53.62735 805
53.64747 752
53.66758 810
53.68769 783
53.70781 782
53.72792 800
53.74804 784
53.76815 746
53.78826 823
53.80838 782
53.82849 806
53.8486 753
53.86872 794
53.88883 819
53.90894 766
53.92906 767
53.94917 849
53.96929 819
53.9894 817
54.00951 869
54.02963 820
54.04974 824
54.06985 815
54.08997 799
54.11008 842
54.1302 876
54.15031 822
54.17042 845
54.19054 811
54.21065 828
54.23076 822
54.25088 852
54.27099 801
54.29111 759
54.31122 829
54.33133 805
54.35145 820
54.37156 810
54.39167 776
54.41179 792
54.4319 800
54.45201 813
54.47213 795
54.49224 776
54.51236 798
54.53247 750
54.55258 876
54.5727 791
54.59281 768
54.61292 763
54.63304 793
54.65315 803
54.67327 797
54.69338 802
54.71349 888
54.73361 893
54.75372 914
54.77383 982
54.79395 950
54.81406 968
54.83417 959
54.85429 930
54.8744 885
54.89452 853
54.91463 835
54.93474 886
54.95486 884
54.97497 844
54.99508 866
55.0152 798
55.03531 803
55.05543 752
55.07554 777
55.09565 738
55.11577 765
55.13588 795
55.15599 767
55.17611 811
55.19622 735
55.21634 792
55.23645 774
55.25656 801
55.27668 807
55.29679 740
55.3169 814
55.33702 730
55.35713 753
55.37724 745
55.39736 739
55.41747 728
55.43759 740
55.4577 725
55.47781 727
55.49793 641
55.51804 721
55.53815 698
55.55827 738
55.57838 700
55.5985 701
55.61861 658
55.63872 695
55.65884 704
55.67895 729
55.69906 712
55.71918 709
55.73929 688
55.75941 718
55.77952 746
55.79963 750
55.81975 720
55.83986 669
55.85997 687
55.88009 672
55.9002 670
55.92031 696
55.94043 737
55.96054 710
55.98066 670
56.00077 726
56.02088 688
56.041 674
56.06111 661
56.08122 719
56.10134 644
56.12145 687
56.14157 640
56.16168 711
56.18179 714
56.20191 713
56.22202 715
56.24213 708
56.26225 678
56.28236 715
56.30248 653
56.32259 666
56.3427 658
56.36282 727
56.38293 673
56.40304 689
56.42316 659
56.44327 661
56.46338 709
56.4835 719
56.50361 710
56.52373 680
56.54384 723
56.56395 703
56.58407 685
56.60418 695
56.62429 717
56.64441 696
56.66452 689
56.68464 629
56.70475 679
56.72486 699
56.74498 678
56.76509 730
56.7852 673
56.80532 693
56.82543 685
56.84554 654
56.86566 696
56.88577 654
56.90589 663
56.926 708
56.94611 714
56.96623 700
56.98634 717
57.00645 754
57.02657 680
57.04668 674
57.0668 690
57.08691 715
57.10702 689
57.12714 757
57.14725 699
57.16736 701
57.18748 687
57.20759 716
57.22771 668
57.24782 755
57.26793 696
57.28805 688
57.30816 713
57.32827 712
57.34839 658
57.3685 700
57.38861 712
57.40873 678
57.42884 698
57.44896 734
57.46907 716
57.48918 698
57.5093 704
57.52941 687
57.54952 682
57.56964 719
57.58975 709
57.60987 699
57.62998 713
57.65009 726
57.67021 750
57.69032 676
57.71043 696
57.73055 745
57.75066 659
57.77078 744
57.79089 704
57.811 707
57.83112 737
57.85123 693
57.87134 706
57.89146 694
57.91157 713
57.93168 703
57.9518 708
57.97191 689
57.99203 696
58.01214 700
58.03225 700
58.05237 707
58.07248 682
58.09259 693
58.11271 678
58.13282 722
58.15294 668
58.17305 653
58.19316 652
58.21328 677
58.23339 690
58.2535 699
58.27362 670
58.29373 671
58.31385 631
58.33396 673
58.35407 749
58.37419 645
58.3943 686
58.41441 680
58.43453 654
58.45464 734
58.47475 665
58.49487 685
58.51498 656
58.5351 634
58.55521 693
58.57532 649
58.59544 674
58.61555 674
58.63566 652
58.65578 635
58.67589 696
58.69601 661
58.71612 728
58.73623 621
58.75635 698
58.77646 692
58.79657 631
58.81669 668
58.8368 679
58.85691 690
58.87703 694
58.89714 661
58.91726 735
58.93737 669
58.95748 682
58.9776 708
58.99771 654
59.01782 654
59.03794 712
59.05805 715
59.07817 638
59.09828 708
59.11839 696
59.13851 700
59.15862 688
59.17873 665
59.19885 669
59.21896 702
59.23908 684
59.25919 715
59.2793 720
59.29942 624
59.31953 747
59.33964 648
59.35976 752
59.37987 734
59.39998 718
59.4201 692
59.44021 715
59.46033 732
59.48044 684
59.50055 677
59.52067 708
59.54078 707
59.56089 690
59.58101 717
59.60112 690
59.62124 728
59.64135 720
59.66146 779
59.68158 718
59.70169 749
59.7218 787
59.74192 871
59.76203 862
59.78215 917
59.80226 915
59.82237 958
59.84249 1071
59.8626 1142
59.88271 1110
59.90283 1159
59.92294 1100
59.94305 1022
59.96317 993
59.98328 1040
60.0034 904
60.02351 931
60.04362 942
60.06374 927
60.08385 857
60.10396 858
60.12408 822
60.14419 741
60.16431 740
60.18442 723
60.20453 709
60.22465 704
60.24476 711
60.26487 737
60.28499 730
60.3051 701
60.32522 674
60.34533 702
60.36544 699
60.38556 646
60.40567 652
60.42578 726
60.4459 675
60.46601 673
60.48612 665
60.50624 708
60.52635 674
60.54647 686
60.56658 652
60.58669 644
60.60681 694
60.62692 683
60.64703 654
60.66715 690
60.68726 646
60.70738 716
60.72749 644
60.7476 705
60.76772 735
60.78783 691
60.80794 658
60.82806 739
60.84817 712
60.86828 625
60.8884 652
60.90851 667
60.92863 691
60.94874 722
60.96885 682
60.98897 686
61.00908 729
61.02919 690
61.04931 653
61.06942 643
61.08954 655
61.10965 718
61.12976 639
61.14988 703
61.16999 653
61.1901 699
61.21022 694
61.23033 721
61.25045 695
61.27056 648
61.29067 647
61.31079 652
61.3309 729
61.35101 692
61.37113 712
61.39124 717
61.41135 733
61.43147 678
61.45158 694
61.4717 684
61.49181 770
61.51192 744
61.53204 736
61.55215 760
61.57226 735
61.59238 759
61.61249 770
61.63261 712
61.65272 715
61.67283 712
61.69295 715
61.71306 696
61.73317 733
61.75329 711
61.7734 761
61.79352 724
61.81363 720
61.83374 698
61.85386 744
61.87397 745
61.89408 738
61.9142 742
61.93431 798
61.95442 773
61.97454 757
61.99465 721
62.01477 833
62.03488 786
62.05499 785
62.07511 732
62.09522 751
62.11533 746
62.13545 762
62.15556 753
62.17568 755
62.19579 795
62.2159 755
62.23602 777
62.25613 778
62.27624 751
62.29636 759
62.31647 712
62.33659 773
62.3567 776
62.37681 762
62.39693 791
62.41704 744
62.43715 781
62.45727 756
62.47738 806
62.49749 730
62.51761 735
62.53772 744
62.55784 761
62.57795 752
62.59806 739
62.61818 781
62.63829 739
62.6584 715
62.67852 747
62.69863 735
62.71875 795
62.73886 772
62.75897 747
62.77909 678
62.7992 716
62.81931 711
62.83943 691
62.85954 737
62.87965 722
62.89977 683
62.91988 730
62.94 688
62.96011 719
62.98022 732
63.00034 763
63.02045 727
63.04056 715
63.06068 725
63.08079 683
63.10091 759
63.12102 710
63.14113 717
63.16125 740
63.18136 679
63.20147 740
63.22159 764
63.2417 729
63.26182 689
63.28193 732
63.30204 638
63.32216 733
63.34227 743
63.36238 712
63.3825 733
63.40261 701
63.42272 752
63.44284 672
63.46295 699
63.48307 765
63.50318 702
63.52329 726
63.54341 767
63.56352 710
63.58363 720
63.60375 705
63.62386 721
63.64398 754
63.66409 753
63.6842 696
63.70432 721
63.72443 755
63.74454 714
63.76466 775
63.78477 739
63.80489 750
63.825 745
63.84511 777
63.86523 779
63.88534 786
63.90545 822
63.92557 810
63.94568 857
63.96579 780
63.98591 793
64.00602 860
64.02614 805
64.04625 786
64.06636 777
64.08648 778
64.10659 826
64.1267 753
64.14682 812
64.16693 812
64.18705 754
64.20716 783
64.22727 756
64.24739 750
64.2675 772
64.28761 749
64.30773 750
64.32784 713
64.34796 744
64.36807 701
64.38818 706
64.4083 730
64.42841 698
64.44852 765
64.46864 753
64.48875 677
64.50886 704
64.52898 732
64.54909 775
64.56921 700
64.58932 701
64.60943 709
64.62955 703
64.64966 670
64.66977 709
64.68989 716
64.71 650
64.73012 680
64.75023 693
64.77034 677
64.79046 734
64.81057 724
64.83068 616
64.8508 646
64.87091 696
64.89102 655
64.91114 657
64.93125 642
64.95137 693
64.97148 683
64.99159 712
65.01171 629
65.03182 665
65.05193 682
65.07205 681
65.09216 707
65.11228 672
65.13239 650
65.1525 644
65.17262 671
65.19273 704
65.21284 684
65.23296 679
65.25307 656
65.27319 678
65.2933 671
65.31341 647
65.33353 649
65.35364 637
65.37375 639
65.39387 679
65.41398 677
65.43409 672
65.45421 648
65.47432 710
65.49444 681
65.51455 648
65.53466 647
65.55478 654
65.57489 646
65.595 655
65.61512 624
65.63523 714
65.65535 673
65.67546 681
65.69557 672
65.71569 630
65.7358 693
65.75591 662
65.77603 638
65.79614 705
65.81626 663
65.83637 665
65.85648 665
65.8766 662
65.89671 726
65.91682 654
65.93694 640
65.95705 674
65.97716 660
65.99728 684
66.01739 627
66.03751 640
66.05762 677
66.07773 631
66.09785 599
66.11796 633
66.13807 693
66.15819 648
66.1783 646
66.19842 645
66.21853 711
66.23864 666
66.25876 658
66.27887 650
66.29898 702
66.3191 656
66.33921 661
66.35933 683
66.37944 674
66.39955 649
66.41967 595
66.43978 676
66.45989 681
66.48001 685
66.50012 630
66.52023 653
66.54035 667
66.56046 663
66.58058 669
66.60069 616
66.6208 696
66.64092 637
66.66103 597
66.68114 659
66.70126 661
66.72137 673
66.74149 673
66.7616 665
66.78171 658
66.80183 666
66.82194 638
66.84205 640
66.86217 680
66.88228 647
66.90239 672
66.92251 664
66.94262 641
66.96274 598
66.98285 660
67.00296 652
67.02308 709
67.04319 648
67.0633 665
67.08342 644
67.10353 650
67.12365 663
67.14376 660
67.16387 656
67.18399 665
67.2041 741
67.22421 655
67.24433 657
67.26444 628
67.28456 657
67.30467 659
67.32478 701
67.3449 674
67.36501 680
67.38512 663
67.40524 706
67.42535 712
67.44546 644
67.46558 736
67.48569 692
67.50581 729
67.52592 736
67.54603 738
67.56615 806
67.58626 778
67.60637 828
67.62649 839
67.6466 968
67.66672 871
67.68683 826
67.70694 909
67.72706 882
67.74717 846
67.76728 785
67.7874 812
67.80751 775
67.82763 824
67.84774 780
67.86785 831
67.88797 871
67.90808 841
67.92819 756
67.94831 856
67.96842 891
67.98853 922
68.00865 952
68.02876 960
68.04888 1014
68.06899 1010
68.0891 1024
68.10922 984
68.12933 1020
68.14944 998
68.16956 1010
68.18967 986
68.20979 968
68.2299 974
68.25001 978
68.27013 971
68.29024 956
68.31035 913
68.33047 878
68.35058 800
68.3707 787
68.39081 782
68.41092 756
68.43104 808
68.45115 774
68.47126 750
68.49138 728
68.51149 733
68.5316 692
68.55172 706
68.57183 653
68.59195 663
68.61206 646
68.63217 677
68.65229 652
68.6724 665
68.69251 673
68.71263 696
68.73274 638
68.75286 653
68.77297 640
68.79308 658
68.8132 654
68.83331 680
68.85342 661
68.87354 612
68.89365 667
68.91376 646
68.93388 634
68.95399 671
68.97411 636
68.99422 633
69.01433 640
69.03445 663
69.05456 621
69.07467 629
69.09479 669
69.1149 673
69.13502 650
69.15513 647
69.17524 649
69.19536 616
69.21547 606
69.23558 626
69.2557 653
69.27581 632
69.29593 645
69.31604 664
69.33615 632
69.35627 645
69.37638 651
69.39649 644
69.41661 638
69.43672 718
69.45683 688
69.47695 633
69.49706 621
69.51718 662
69.53729 664
69.5574 645
69.57752 666
69.59763 639
69.61774 649
69.63786 666
69.65797 620
69.67809 651
69.6982 630
69.71831 668
69.73843 678
69.75854 704
69.77865 651
69.79877 665
69.81888 632
69.839 681
69.85911 670
69.87922 645
69.89934 605
69.91945 632
69.93956 690
69.95968 649
69.97979 661
69.9999 687
70.02002 639
70.04013 642
70.06025 635
70.08036 654
70.10047 605
70.12059 636
70.1407 645
70.16081 653
70.18093 669
70.20104 654
70.22116 635
70.24127 627
70.26138 643
70.2815 601
70.30161 613
70.32172 639
70.34184 647
70.36195 687
70.38207 637
70.40218 659
70.42229 646
70.44241 626
70.46252 597
70.48263 613
70.50275 659
70.52286 666
70.54297 672
70.56309 610
70.5832 636
70.60332 595
70.62343 624
70.64354 627
70.66366 650
70.68377 616
70.70388 592
70.724 625
70.74411 653
70.76423 638
70.78434 614
70.80445 649
70.82457 648
70.84468 629
70.86479 644
70.88491 654
70.90502 630
70.92513 672
70.94525 645
70.96536 609
70.98548 650
71.00559 663
71.0257 659
71.04582 636
71.06593 637
71.08604 655
71.10616 624
71.12627 642
71.14639 650
71.1665 630
71.18661 618
71.20673 603
71.22684 619
71.24695 643
71.26707 641
71.28718 635
71.3073 625
71.32741 666
71.34752 676
71.36764 613
71.38775 664
71.40786 644
71.42798 674
71.44809 700
71.4682 669
71.48832 647
71.50843 641
71.52855 652
71.54866 647
71.56877 680
71.58889 641
71.609 697
71.62911 622
71.64923 636
71.66934 661
71.68946 637
71.70957 627
71.72968 700
71.7498 632
71.76991 671
71.79002 634
71.81014 673
71.83025 664
71.85037 656
71.87048 653
71.89059 627
71.91071 660
71.93082 649
71.95093 637
71.97105 685
71.99116 708
72.01127 620
72.03139 676
72.0515 650
72.07162 619
72.09173 673
72.11184 672
72.13196 645
72.15207 654
72.17218 660
72.1923 615
72.21241 638
72.23253 716
72.25264 670
72.27275 666
72.29287 671
72.31298 636
72.33309 616
72.35321 643
72.37332 674
72.39344 682
72.41355 642
72.43366 642
72.45378 666
72.47389 625
72.494 650
72.51412 643
72.53423 671
72.55434 643
72.57446 667
72.59457 630
72.61469 647
72.6348 657
72.65491 656
72.67503 670
72.69514 659
72.71525 583
72.73537 686
72.75548 647
72.7756 625
72.79571 643
72.81582 662
72.83594 671
72.85605 628
72.87616 611
72.89628 620
72.91639 664
72.9365 660
72.95662 631
72.97673 652
72.99685 685
73.01696 657
73.03707 634
73.05719 636
73.0773 674
73.09741 635
73.11753 677
73.13764 663
73.15776 617
73.17787 636
73.19798 643
73.2181 651
73.23821 686
73.25832 697
73.27844 708
73.29855 683
73.31867 686
73.33878 714
73.35889 716
73.37901 732
73.39912 692
73.41923 739
73.43935 732
73.45946 720
73.47957 715
73.49969 706
73.5198 694
73.53992 718
73.56003 744
73.58014 682
73.60026 681
73.62037 681
73.64048 709
73.6606 666
73.68071 689
73.70083 647
73.72094 640
73.74105 657
73.76117 670
73.78128 655
73.80139 608
73.82151 672
73.84162 624
73.86174 627
73.88185 686
73.90196 646
73.92208 653
73.94219 621
73.9623 653
73.98242 658
74.00253 629
74.02264 611
74.04276 599
74.06287 646
74.08299 615
74.1031 648
74.12321 631
74.14333 626
74.16344 629
74.18355 631
74.20367 640
74.22378 644
74.2439 657
74.26401 597
74.28412 682
74.30424 652
74.32435 621
74.34446 626
74.36458 599
74.38469 585
74.40481 643
74.42492 625
74.44503 642
74.46515 611
74.48526 603
74.50537 618
74.52549 612
74.5456 614
74.56571 648
74.58583 676
74.60594 620
74.62606 644
74.64617 614
74.66628 637
74.6864 615
74.70651 623
74.72662 638
74.74674 633
74.76685 655
74.78697 613
74.80708 642
74.82719 617
74.84731 635
74.86742 599
74.88753 623
74.90765 611
74.92776 644
74.94787 611
74.96799 655
74.9881 644
75.00822 584
