3.00117 21156
3.02128 21221
3.0414 20258
3.06151 19628
3.08162 19397
3.10174 18546
3.12185 18044
3.14197 17538
3.16208 16932
3.18219 16662
3.20231 16016
3.22242 15507
3.24253 14780
3.26265 14728
3.28276 14442
3.30288 13947
3.32299 13377
3.3431 12770
3.36322 12578
3.38333 12171
3.40344 11669
3.42356 11319
3.44367 10960
3.46379 10664
3.4839 10614
3.50401 9799
3.52413 9923
3.54424 9042
3.56435 8773
3.58447 8676
3.60458 8210
3.62469 7999
3.64481 7460
3.66492 7559
3.68504 7275
3.70515 6723
3.72526 6596
3.74538 5946
3.76549 6134
3.7856 6019
3.80572 5424
3.82583 5431
3.84595 5024
3.86606 4990
3.88617 4817
3.90629 4405
3.9264 4282
3.94651 4017
3.96663 3916
3.98674 3803
4.00686 3448
4.02697 3390
4.04708 3190
4.0672 3072
4.08731 3136
4.10742 2747
4.12754 2707
4.14765 2596
4.16776 2380
4.18788 2515
4.20799 2240
4.22811 2187
4.24822 2156
4.26833 2038
4.28845 1975
4.30856 1760
4.32867 1858
4.34879 1691
4.3689 1696
4.38902 1731
4.40913 1502
4.42924 1474
4.44936 1487
4.46947 1450
4.48958 1466
4.5097 1275
4.52981 1340
4.54992 1259
4.57004 1258
4.59015 1264
4.61027 1130
4.63038 1139
4.65049 1200
4.67061 1040
4.69072 1123
4.71083 1018
4.73095 1040
4.75106 1042
4.77118 1004
4.79129 983
4.8114 905
4.83152 820
4.85163 920
4.87174 847
4.89186 852
4.91197 811
4.93209 892
4.9522 816
4.97231 816
4.99243 809
5.01254 747
5.03265 701
5.05277 706
5.07288 665
5.09299 618
5.11311 653
5.13322 579
5.15334 630
5.17345 619
5.19356 610
5.21368 553
5.23379 516
5.2539 510
5.27402 502
5.29413 527
5.31425 502
5.33436 476
5.35447 512
5.37459 527
5.3947 442
5.41481 445
5.43493 460
5.45504 438
5.47516 425
5.49527 428
5.51538 420
5.5355 388
5.55561 395
5.57572 377
5.59584 397
5.61595 362
5.63606 326
5.65618 363
5.67629 344
5.69641 348
5.71652 318
5.73663 313
5.75675 312
5.77686 299
5.79697 304
5.81709 307
5.8372 270
5.85732 275
5.87743 263
5.89754 295
5.91766 292
5.93777 293
5.95788 270
5.978 270
5.99811 253
6.01823 254
6.03834 224
6.05845 237
6.07857 253
6.09868 255
6.11879 258
6.13891 271
6.15902 234
6.17913 250
6.19925 229
6.21936 247
6.23948 227
6.25959 244
6.2797 239
6.29982 234
6.31993 227
6.34004 230
6.36016 233
6.38027 249
6.40039 238
6.4205 239
6.44061 198
6.46073 197
6.48084 232
6.50095 229
6.52107 210
6.54118 220
6.56129 221
6.58141 238
6.60152 205
6.62164 217
6.64175 216
6.66186 191
6.68198 214
6.70209 217
6.7222 246
6.74232 217
6.76243 223
6.78255 242
6.80266 218
6.82277 238
6.84289 207
6.863 207
6.88311 205
6.90323 187
6.92334 221
6.94346 196
6.96357 180
6.98368 202
7.0038 234
7.02391 246
7.04402 195
7.06414 208
7.08425 187
7.10436 209
7.12448 214
7.14459 197
7.16471 250
7.18482 177
7.20493 219
7.22505 225
7.24516 208
7.26527 218
7.28539 205
7.3055 214
7.32562 193
7.34573 225
7.36584 224
7.38596 217
7.40607 215
7.42618 213
7.4463 224
7.46641 220
7.48653 193
7.50664 181
7.52675 202
7.54687 221
7.56698 197
7.58709 214
7.60721 225
7.62732 218
7.64743 206
7.66755 217
7.68766 235
7.70778 213
7.72789 204
7.748 202
7.76812 187
7.78823 230
7.80834 232
7.82846 224
7.84857 225
7.86869 198
7.8888 214
7.90891 204
7.92903 233
7.94914 233
7.96925 200
7.98937 212
8.00948 232
8.0296 215
8.04971 219
8.06982 173
8.08994 228
8.11005 235
8.13016 245
8.15028 222
8.17039 212
8.1905 217
8.21062 267
8.23073 204
8.25085 233
8.27096 223
8.29107 209
8.31119 188
8.3313 209
8.35141 221
8.37153 231
8.39164 210
8.41176 240
8.43187 229
8.45198 220
8.4721 247
8.49221 232
8.51232 231
8.53244 229
8.55255 215
8.57266 209
8.59278 253
8.61289 253
8.63301 242
8.65312 215
8.67323 227
8.69335 228
8.71346 241
8.73357 261
8.75369 234
8.7738 217
8.79392 248
8.81403 280
8.83414 228
8.85426 251
8.87437 265
8.89448 227
8.9146 214
8.93471 222
8.95483 247
8.97494 228
8.99505 238
9.01517 236
9.03528 205
9.05539 216
9.07551 238
9.09562 215
9.11573 251
9.13585 239
9.15596 216
9.17608 225
9.19619 249
9.2163 232
9.23642 218
9.25653 249
9.27664 247
9.29676 211
9.31687 250
9.33699 225
9.3571 229
9.37721 202
9.39733 243
9.41744 206
9.43755 220
9.45767 247
9.47778 237
9.4979 226
9.51801 268
9.53812 227
9.55824 242
9.57835 240
9.59846 215
9.61858 236
9.63869 219
9.6588 226
9.67892 241
9.69903 262
9.71915 231
9.73926 233
9.75937 311
9.77949 252
9.7996 272
9.81971 239
9.83983 246
9.85994 243
9.88006 242
9.90017 225
9.92028 250
9.9404 243
9.96051 236
9.98062 232
10.00074 236
10.02085 200
10.04097 229
10.06108 224
10.08119 228
10.10131 233
10.12142 235
10.14153 199
10.16165 246
10.18176 210
10.20187 227
10.22199 220
10.2421 260
10.26222 216
10.28233 253
10.30244 264
10.32256 290
10.34267 272
10.36278 247
10.3829 303
10.40301 298
10.42313 314
10.44324 311
10.46335 328
10.48347 370
10.50358 343
10.52369 307
10.54381 354
10.56392 291
10.58403 299
10.60415 234
10.62426 268
10.64438 253
10.66449 241
10.6846 239
10.70472 223
10.72483 221
10.74494 247
10.76506 224
10.78517 223
10.80529 242
10.8254 239
10.84551 248
10.86563 253
10.88574 232
10.90585 188
10.92597 229
10.94608 257
10.9662 235
10.98631 242
11.00642 181
11.02654 221
11.04665 241
11.06676 220
11.08688 224
11.10699 267
11.1271 237
11.14722 228
11.16733 237
11.18745 213
11.20756 234
11.22767 251
11.24779 277
11.2679 231
11.28801 215
11.30813 211
11.32824 256
11.34836 208
11.36847 231
11.38858 229
11.4087 236
11.42881 230
11.44892 240
11.46904 236
11.48915 234
11.50927 207
11.52938 215
11.54949 225
11.56961 243
11.58972 231
11.60983 211
11.62995 229
11.65006 238
11.67017 225
11.69029 265
11.7104 225
11.73052 224
11.75063 226
11.77074 231
11.79086 246
11.81097 212
11.83108 216
11.8512 209
11.87131 223
11.89143 231
11.91154 215
11.93165 243
11.95177 231
11.97188 221
11.99199 233
12.01211 232
12.03222 235
12.05234 212
12.07245 235
12.09256 196
12.11268 186
12.13279 200
12.1529 224
12.17302 245
12.19313 211
12.21324 209
12.23336 232
12.25347 231
12.27359 203
12.2937 229
12.31381 245
12.33393 226
12.35404 248
12.37415 233
12.39427 221
12.41438 229
12.4345 242
12.45461 239
12.47472 201
12.49484 208
12.51495 224
12.53506 222
12.55518 226
12.57529 273
12.5954 197
12.61552 204
12.63563 251
12.65575 224
12.67586 218
12.69597 227
12.71609 229
12.7362 215
12.75631 216
12.77643 222
12.79654 195
12.81666 191
12.83677 242
12.85688 200
12.877 181
12.89711 231
12.91722 223
12.93734 209
12.95745 208
12.97757 219
12.99768 244
13.01779 214
13.03791 226
13.05802 236
13.07813 241
13.09825 235
13.11836 268
13.13847 249
13.15859 247
13.1787 227
13.19882 236
13.21893 218
13.23904 215
13.25916 250
13.27927 225
13.29938 220
13.3195 231
13.33961 219
13.35973 241
13.37984 238
13.39995 203
13.42007 212
13.44018 217
13.46029 242
13.48041 223
13.50052 233
13.52064 224
13.54075 251
13.56086 269
13.58098 262
13.60109 307
13.6212 296
13.64132 312
13.66143 334
13.68154 287
13.70166 284
13.72177 253
13.74189 267
13.762 248
13.78211 270
13.80223 287
13.82234 295
13.84245 318
13.86257 315
13.88268 325
13.9028 321
13.92291 266
13.94302 254
13.96314 221
13.98325 237
14.00336 181
14.02348 276
14.04359 232
14.06371 229
14.08382 208
14.10393 233
14.12405 204
14.14416 231
14.16427 189
14.18439 216
14.2045 234
14.22461 229
14.24473 232
14.26484 179
14.28496 224
14.30507 203
14.32518 212
14.3453 198
14.36541 206
14.38552 204
14.40564 199
14.42575 221
14.44587 191
14.46598 200
14.48609 202
14.50621 187
14.52632 203
14.54643 173
14.56655 199
14.58666 203
14.60677 185
14.62689 223
14.647 187
14.66712 205
14.68723 193
14.70734 211
14.72746 232
14.74757 206
14.76768 186
14.7878 241
14.80791 184
14.82803 228
14.84814 243
14.86825 242
14.88837 241
14.90848 242
14.92859 257
14.94871 230
14.96882 250
14.98894 263
15.00905 231
15.02916 260
15.04928 284
15.06939 221
15.0895 261
15.10962 223
15.12973 227
15.14984 240
15.16996 232
15.19007 204
15.21019 217
15.2303 263
15.25041 253
15.27053 215
15.29064 218
15.31075 196
15.33087 217
15.35098 213
15.3711 210
15.39121 186
15.41132 218
15.43144 207
15.45155 186
15.47166 193
15.49178 197
15.51189 209
15.53201 203
15.55212 176
15.57223 198
15.59235 190
15.61246 172
15.63257 224
15.65269 182
15.6728 221
15.69291 193
15.71303 207
15.73314 209
15.75326 232
15.77337 212
15.79348 226
15.8136 205
15.83371 216
15.85382 226
15.87394 205
15.89405 204
15.91417 198
15.93428 201
15.95439 194
15.97451 182
15.99462 195
16.01473 178
16.03485 183
16.05496 221
16.07508 180
16.09519 187
16.1153 187
16.13542 180
16.15553 200
16.17564 192
16.19576 201
16.21587 188
16.23598 182
16.2561 203
16.27621 202
16.29633 197
16.31644 191
16.33655 204
16.35667 187
16.37678 181
16.39689 197
16.41701 171
16.43712 184
16.45724 181
16.47735 217
16.49746 197
16.51758 210
16.53769 200
16.5578 199
16.57792 182
16.59803 190
16.61814 189
16.63826 193
16.65837 160
16.67849 159
16.6986 204
16.71871 213
16.73883 186
16.75894 190
16.77905 166
16.79917 184
16.81928 194
16.8394 172
16.85951 177
16.87962 169
16.89974 179
16.91985 167
16.93996 166
16.96008 190
16.98019 191
17.00031 187
17.02042 202
17.04053 181
17.06065 180
17.08076 212
17.10087 218
17.12099 216
17.1411 180
17.16121 209
17.18133 194
17.20144 183
17.22156 193
17.24167 211
17.26178 183
17.2819 218
17.30201 161
17.32212 175
17.34224 195
17.36235 208
17.38247 177
17.40258 194
17.42269 168
17.44281 173
17.46292 196
17.48303 197
17.50315 196
17.52326 200
17.54338 187
17.56349 202
17.5836 179
17.60372 208
17.62383 208
17.64394 199
17.66406 210
17.68417 201
17.70428 208
17.7244 218
17.74451 212
17.76463 208
17.78474 211
17.80485 195
17.82497 179
17.84508 199
17.86519 204
17.88531 226
17.90542 192
17.92554 196
17.94565 226
17.96576 233
17.98588 238
18.00599 205
18.0261 203
18.04622 220
18.06633 176
18.08645 214
18.10656 205
18.12667 210
18.14679 217
18.1669 210
18.18701 199
18.20713 202
18.22724 207
18.24735 214
18.26747 205
18.28758 181
18.3077 203
18.32781 194
18.34792 204
18.36804 174
18.38815 184
18.40826 205
18.42838 203
18.44849 200
18.46861 193
18.48872 197
18.50883 183
18.52895 204
18.54906 175
18.56917 201
18.58929 192
18.6094 192
18.62951 201
18.64963 194
18.66974 197
18.68986 221
18.70997 214
18.73008 202
18.7502 193
18.77031 204
18.79042 187
18.81054 235
18.83065 204
18.85077 191
18.87088 225
18.89099 232
18.91111 194
18.93122 168
18.95133 210
18.97145 194
18.99156 236
19.01168 199
19.03179 215
19.0519 200
19.07202 218
19.09213 177
19.11224 206
19.13236 199
19.15247 215
19.17258 213
19.1927 214
19.21281 210
19.23293 219
19.25304 185
19.27315 232
19.29327 240
19.31338 188
19.33349 215
19.35361 171
19.37372 203
19.39384 196
19.41395 233
19.43406 195
19.45418 176
19.47429 211
19.4944 216
19.51452 205
19.53463 227
19.55475 218
19.57486 255
19.59497 234
19.61509 222
19.6352 241
19.65531 235
19.67543 252
19.69554 237
19.71565 235
19.73577 238
19.75588 239
19.776 229
19.79611 217
19.81622 215
19.83634 258
19.85645 226
19.87656 224
19.89668 219
19.91679 228
19.93691 227
19.95702 208
19.97713 239
19.99725 224
20.01736 220
20.03747 208
20.05759 262
20.0777 233
20.09782 227
20.11793 237
20.13804 277
20.15816 275
20.17827 230
20.19838 223
20.2185 216
20.23861 250
20.25872 247
20.27884 287
20.29895 239
20.31907 255
20.33918 251
20.35929 260
20.37941 286
20.39952 307
20.41963 289
20.43975 318
20.45986 330
20.47998 314
20.50009 332
20.5202 327
20.54032 348
20.56043 358
20.58054 394
20.60066 391
20.62077 441
20.64088 499
20.661 542
20.68111 737
20.70123 883
20.72134 1209
20.74145 1626
20.76157 2269
20.78168 3036
20.80179 3995
20.82191 4636
20.84202 5251
20.86214 5007
20.88225 4314
20.90236 3360
20.92248 2508
20.94259 1759
20.9627 1215
20.98282 971
21.00293 977
21.02305 908
21.04316 827
21.06327 678
21.08339 647
21.1035 550
21.12361 475
21.14373 456
21.16384 358
21.18395 343
21.20407 356
21.22418 331
21.2443 344
21.26441 329
21.28452 297
21.30464 310
21.32475 303
21.34486 301
21.36498 289
21.38509 288
21.40521 283
21.42532 270
21.44543 269
21.46555 253
21.48566 243
21.50577 247
21.52589 290
21.546 290
21.56612 261
21.58623 269
21.60634 279
21.62646 249
21.64657 264
21.66668 250
21.6868 254
21.70691 240
21.72702 249
21.74714 265
21.76725 283
21.78737 298
21.80748 288
21.82759 332
21.84771 373
21.86782 397
21.88793 448
21.90805 513
21.92816 587
21.94828 692
21.96839 820
21.9885 814
22.00862 869
22.02873 782
22.04884 701
22.06896 604
22.08907 491
22.10919 398
22.1293 382
22.14941 302
22.16953 334
22.18964 258
22.20975 305
22.22987 322
22.24998 287
22.27009 340
22.29021 343
22.31032 333
22.33044 314
22.35055 304
22.37066 308
22.39078 282
22.41089 268
22.431 284
22.45112 312
22.47123 300
22.49135 272
22.51146 287
22.53157 294
22.55169 306
22.5718 293
22.59191 291
22.61203 259
22.63214 270
22.65225 267
22.67237 298
22.69248 257
22.7126 270
22.73271 270
22.75282 275
22.77294 261
22.79305 271
22.81316 276
22.83328 282
22.85339 298
22.87351 333
22.89362 346
22.91373 360
22.93385 336
22.95396 335
22.97407 358
22.99419 386
23.0143 353
23.03442 375
23.05453 368
23.07464 334
23.09476 338
23.11487 341
23.13498 361
23.1551 347
23.17521 398
23.19532 421
23.21544 371
23.23555 365
23.25567 327
23.27578 340
23.29589 344
23.31601 305
23.33612 356
23.35623 347
23.37635 368
23.39646 326
23.41658 414
23.43669 377
23.4568 425
23.47692 465
23.49703 540
23.51714 545
23.53726 694
23.55737 635
23.57749 616
23.5976 596
23.61771 555
23.63783 545
23.65794 497
23.67805 460
23.69817 439
23.71828 435
23.73839 350
23.75851 350
23.77862 397
23.79874 402
23.81885 400
23.83896 431
23.85908 446
23.87919 442
23.8993 501
23.91942 502
23.93953 519
23.95965 575
23.97976 559
23.99987 550
24.01999 496
24.0401 502
24.06021 479
24.08033 420
24.10044 389
24.12056 422
24.14067 390
24.16078 415
24.1809 450
24.20101 493
24.22112 452
24.24124 527
24.26135 556
24.28146 580
24.30158 527
24.32169 550
24.34181 503
24.36192 509
24.38203 466
24.40215 400
24.42226 401
24.44237 334
24.46249 298
24.4826 325
24.50272 340
24.52283 292
24.54294 325
24.56306 281
24.58317 320
24.60328 312
24.6234 278
24.64351 287
24.66362 284
24.68374 306
24.70385 322
24.72397 283
24.74408 278
24.76419 255
24.78431 276
24.80442 304
24.82453 272
24.84465 283
24.86476 257
24.88488 268
24.90499 268
24.9251 304
24.94522 251
24.96533 251
24.98544 261
25.00556 277
25.02567 249
25.04579 252
25.0659 267
25.08601 270
25.10613 264
25.12624 257
25.14635 242
25.16647 239
25.18658 265
25.20669 278
25.22681 275
25.24692 251
25.26704 268
25.28715 276
25.30726 307
25.32738 311
25.34749 324
25.3676 332
25.38772 362
25.40783 369
25.42795 400
25.44806 477
25.46817 502
25.48829 595
25.5084 562
25.52851 594
25.54863 631
25.56874 615
25.58886 636
25.60897 656
25.62908 619
25.6492 587
25.66931 548
25.68942 583
25.70954 504
25.72965 483
25.74976 466
25.76988 443
25.78999 415
25.81011 458
25.83022 396
25.85033 424
25.87045 411
25.89056 406
25.91067 410
25.93079 417
25.9509 360
25.97102 491
25.99113 440
26.01124 458
26.03136 421
26.05147 454
26.07158 499
26.0917 499
26.11181 548
26.13193 547
26.15204 599
26.17215 625
26.19227 674
26.21238 742
26.23249 778
26.25261 892
26.27272 868
26.29283 971
26.31295 1088
26.33306 1178
26.35318 1330
26.37329 1585
26.3934 1814
26.41352 2194
26.43363 2653
26.45374 3364
26.47386 4164
26.49397 5659
26.51409 7647
26.5342 10651
26.55431 14316
26.57443 18037
26.59454 21235
26.61465 23124
26.63477 23039
26.65488 20019
26.67499 15739
26.69511 11844
26.71522 8468
26.73534 5471
26.75545 3239
26.77556 2045
26.79568 1644
26.81579 1418
26.8359 1231
26.85602 1156
26.87613 1121
26.89625 1123
26.91636 994
26.93647 980
26.95659 961
26.9767 964
26.99681 971
27.01693 1032
27.03704 983
27.05716 909
27.07727 974
27.09738 899
27.1175 822
27.13761 768
27.15772 721
27.17784 636
27.19795 642
27.21806 632
27.23818 622
27.25829 627
27.27841 666
27.29852 651
27.31863 800
27.33875 772
27.35886 930
27.37897 1077
27.39909 1185
27.4192 1268
27.43932 1381
27.45943 1305
27.47954 1296
27.49966 1177
27.51977 1086
27.53988 932
27.56 898
27.58011 788
27.60023 748
27.62034 775
27.64045 773
27.66057 864
27.68068 971
27.70079 1063
27.72091 1196
27.74102 1342
27.76113 1263
27.78125 1344
27.80136 1403
27.82148 1369
27.84159 1403
27.8617 1369
27.88182 1273
27.90193 1428
27.92204 1388
27.94216 1377
27.96227 1419
27.98239 1254
28.0025 1165
28.02261 993
28.04273 830
28.06284 764
28.08295 609
28.10307 596
28.12318 563
28.1433 500
28.16341 539
28.18352 487
28.20364 561
28.22375 530
28.24386 555
28.26398 554
28.28409 519
28.3042 530
28.32432 490
28.34443 478
28.36455 474
28.38466 431
28.40477 387
28.42489 403
28.445 399
28.46511 388
28.48523 357
28.50534 329
28.52546 318
28.54557 310
28.56568 305
28.5858 318
28.60591 277
28.62602 264
28.64614 285
28.66625 285
28.68636 272
28.70648 284
28.72659 280
28.74671 255
28.76682 251
28.78693 256
28.80705 269
28.82716 238
28.84727 253
28.86739 261
28.8875 243
28.90762 260
28.92773 282
28.94784 252
28.96796 288
28.98807 260
29.00818 270
29.0283 275
29.04841 283
29.06853 269
29.08864 247
29.10875 262
29.12887 264
29.14898 255
29.16909 278
29.18921 276
29.20932 234
29.22943 258
29.24955 291
29.26966 250
29.28978 279
29.30989 274
29.33 296
29.35012 281
29.37023 324
29.39034 363
29.41046 359
29.43057 349
29.45069 363
29.4708 361
29.49091 340
29.51103 369
29.53114 331
29.55125 322
29.57137 344
29.59148 350
29.6116 334
29.63171 336
29.65182 322
29.67194 397
29.69205 383
29.71216 427
29.73228 416
29.75239 447
29.7725 420
29.79262 429
29.81273 439
29.83285 454
29.85296 459
29.87307 393
29.89319 410
29.9133 423
29.93341 369
29.95353 395
29.97364 395
29.99376 387
30.01387 383
30.03398 431
30.0541 396
30.07421 399
30.09432 421
30.11444 448
30.13455 467
30.15467 435
30.17478 440
30.19489 471
30.21501 484
30.23512 462
30.25523 488
30.27535 473
30.29546 457
30.31557 488
30.33569 490
30.3558 479
30.37592 503
30.39603 492
30.41614 495
30.43626 517
30.45637 482
30.47648 448
30.4966 432
30.51671 406
30.53683 391
30.55694 376
30.57705 365
30.59717 335
30.61728 318
30.63739 356
30.65751 339
30.67762 429
30.69773 405
30.71785 384
30.73796 421
30.75808 445
30.77819 419
30.7983 435
30.81842 484
30.83853 438
30.85864 419
30.87876 381
30.89887 350
30.91899 324
30.9391 324
30.95921 269
30.97933 283
30.99944 247
31.01955 270
31.03967 301
31.05978 245
31.0799 241
31.10001 264
31.12012 256
31.14024 283
31.16035 281
31.18046 285
31.20058 274
31.22069 280
31.2408 294
31.26092 281
31.28103 288
31.30115 302
31.32126 299
31.34137 294
31.36149 299
31.3816 315
31.40171 331
31.42183 266
31.44194 260
31.46206 288
31.48217 301
31.50228 269
31.5224 236
31.54251 250
31.56262 262
31.58274 266
31.60285 246
31.62297 233
31.64308 226
31.66319 229
31.68331 231
31.70342 234
31.72353 258
31.74365 256
31.76376 240
31.78387 264
31.80399 247
31.8241 231
31.84422 229
31.86433 250
31.88444 229
31.90456 235
31.92467 233
31.94478 217
31.9649 214
31.98501 225
32.00513 250
32.02524 211
32.04535 233
32.06547 245
32.08558 295
32.10569 237
32.12581 266
32.14592 269
32.16604 287
32.18615 254
32.20626 270
32.22638 246
32.24649 264
32.2666 267
32.28672 281
32.30683 285
32.32694 303
32.34706 306
32.36717 299
32.38729 286
32.4074 317
32.42751 311
32.44763 287
32.46774 288
32.48785 289
32.50797 264
32.52808 258
32.5482 260
32.56831 266
32.58842 228
32.60854 253
32.62865 213
32.64876 233
32.66888 244
32.68899 216
32.7091 203
32.72922 225
32.74933 237
32.76945 220
32.78956 204
32.80967 216
32.82979 243
32.8499 259
32.87001 267
32.89013 269
32.91024 289
32.93036 280
32.95047 301
32.97058 255
32.9907 298
33.01081 273
33.03092 267
33.05104 257
33.07115 270
33.09127 253
33.11138 230
33.13149 238
33.15161 216
33.17172 225
33.19183 217
33.21195 241
33.23206 256
33.25217 211
33.27229 227
33.2924 240
33.31252 207
33.33263 222
33.35274 209
33.37286 201
33.39297 207
33.41308 239
33.4332 229
33.45331 216
33.47343 219
33.49354 216
33.51365 209
33.53377 210
33.55388 213
33.57399 209
33.59411 226
33.61422 189
33.63434 218
33.65445 230
33.67456 236
33.69468 249
33.71479 242
33.7349 257
33.75502 222
33.77513 228
33.79524 280
33.81536 231
33.83547 271
33.85559 271
33.8757 267
33.89581 253
33.91593 232
33.93604 265
33.95615 241
33.97627 242
33.99638 236
34.0165 234
34.03661 245
34.05672 205
34.07684 250
34.09695 265
34.11706 266
34.13718 285
34.15729 273
34.17741 287
34.19752 326
34.21763 291
34.23775 281
34.25786 264
34.27797 343
34.29809 279
34.3182 296
34.33831 312
34.35843 302
34.37854 302
34.39866 330
34.41877 351
34.43888 311
34.459 304
34.47911 300
34.49922 299
34.51934 274
34.53945 285
34.55957 287
34.57968 347
34.59979 274
34.61991 317
34.64002 302
34.66013 282
34.68025 297
34.70036 315
34.72047 325
34.74059 329
34.7607 324
34.78082 295
34.80093 304
34.82104 314
34.84116 345
34.86127 283
34.88138 358
34.9015 340
34.92161 345
34.94173 349
34.96184 349
34.98195 333
35.00207 367
35.02218 338
35.04229 346
35.06241 336
35.08252 343
35.10264 333
35.12275 350
35.14286 329
35.16298 372
35.18309 320
35.2032 349
35.22332 358
35.24343 389
35.26354 351
35.28366 381
35.30377 350
35.32389 334
35.344 356
35.36411 366
35.38423 361
35.40434 374
35.42445 358
35.44457 354
35.46468 337
35.4848 373
35.50491 357
35.52502 396
35.54514 351
35.56525 320
35.58536 329
35.60548 271
35.62559 257
35.64571 276
35.66582 292
35.68593 255
35.70605 257
35.72616 251
35.74627 235
35.76639 265
35.7865 274
35.80661 241
35.82673 239
35.84684 254
35.86696 255
35.88707 269
35.90718 259
35.9273 278
35.94741 274
35.96752 260
35.98764 273
36.00775 293
36.02787 295
36.04798 262
36.06809 259
36.08821 253
36.10832 272
36.12843 308
36.14855 290
36.16866 299
36.18878 264
36.20889 290
36.229 316
36.24912 321
36.26923 312
36.28934 338
36.30946 371
36.32957 413
36.34968 435
36.3698 544
36.38991 672
36.41003 813
36.43014 907
36.45025 1131
36.47037 1378
36.49048 1589
36.51059 1710
36.53071 1671
36.55082 1572
36.57094 1327
36.59105 1137
36.61116 1012
36.63128 896
36.65139 706
36.6715 522
36.69162 431
36.71173 371
36.73184 333
36.75196 329
36.77207 338
36.79219 329
36.8123 341
36.83241 307
36.85253 311
36.87264 327
36.89275 319
36.91287 327
36.93298 346
36.9531 317
36.97321 319
36.99332 330
37.01344 306
37.03355 283
37.05366 287
37.07378 286
37.09389 265
37.11401 256
37.13412 269
37.15423 264
37.17435 271
37.19446 276
37.21457 260
37.23469 228
37.2548 243
37.27491 230
37.29503 210
37.31514 240
37.33526 235
37.35537 259
37.37548 258
37.3956 258
37.41571 237
37.43582 259
37.45594 264
37.47605 238
37.49617 262
37.51628 279
37.53639 271
37.55651 255
37.57662 251
37.59673 249
37.61685 237
37.63696 289
37.65708 269
37.67719 267
37.6973 258
37.71742 227
37.73753 224
37.75764 246
37.77776 247
37.79787 236
37.81798 208
37.8381 206
37.85821 209
37.87833 199
37.89844 226
37.91855 217
37.93867 236
37.95878 211
37.97889 210
37.99901 209
38.01912 177
38.03924 198
38.05935 191
38.07946 216
38.09958 195
38.11969 191
38.1398 222
38.15992 217
38.18003 210
38.20015 213
38.22026 229
38.24037 198
38.26049 216
38.2806 232
38.30071 221
38.32083 247
38.34094 257
38.36105 220
38.38117 231
38.40128 235
38.4214 266
38.44151 268
38.46162 267
38.48174 266
38.50185 256
38.52196 251
38.54208 261
38.56219 252
38.58231 259
38.60242 247
38.62253 250
38.64265 259
38.66276 214
38.68287 254
38.70299 239
38.7231 229
38.74321 233
38.76333 229
38.78344 238
38.80356 235
38.82367 248
38.84378 216
38.8639 236
38.88401 226
38.90412 234
38.92424 231
38.94435 245
38.96447 248
38.98458 249
39.00469 256
39.02481 267
39.04492 266
39.06503 265
39.08515 305
39.10526 267
39.12538 276
39.14549 277
39.1656 321
39.18572 329
39.20583 370
39.22594 378
39.24606 401
39.26617 499
39.28628 522
39.3064 656
39.32651 723
39.34663 936
39.36674 1069
39.38685 1326
39.40697 1358
39.42708 1475
39.44719 1579
39.46731 1433
39.48742 1216
39.50754 988
39.52765 851
39.54776 855
39.56788 730
39.58799 547
39.6081 411
39.62822 337
39.64833 270
39.66845 279
39.68856 274
39.70867 269
39.72879 258
39.7489 239
39.76901 252
39.78913 235
39.80924 215
39.82935 228
39.84947 251
39.86958 230
39.8897 229
39.90981 256
39.92992 224
39.95004 228
39.97015 257
39.99026 278
40.01038 281
40.03049 259
40.05061 256
40.07072 277
40.09083 327
40.11095 355
40.13106 373
40.15117 467
40.17129 567
40.1914 633
40.21152 773
40.23163 819
40.25174 876
40.27186 811
40.29197 737
40.31208 648
40.3322 629
40.35231 545
40.37242 510
40.39254 459
40.41265 363
40.43277 327
40.45288 268
40.47299 245
40.49311 250
40.51322 232
40.53333 207
40.55345 231
40.57356 218
40.59368 245
40.61379 242
40.6339 217
40.65402 244
40.67413 215
40.69424 205
40.71436 239
40.73447 209
40.75458 220
40.7747 223
40.79481 212
40.81493 212
40.83504 203
40.85515 225
40.87527 216
40.89538 201
40.91549 214
40.93561 219
40.95572 251
40.97584 219
40.99595 217
41.01606 205
41.03618 206
41.05629 199
41.0764 230
41.09652 215
41.11663 209
41.13675 231
41.15686 222
41.17697 230
41.19709 243
41.2172 217
41.23731 213
41.25743 225
41.27754 213
41.29765 227
41.31777 250
41.33788 248
41.358 201
41.37811 207
41.39822 208
41.41834 216
41.43845 237
41.45856 241
41.47868 232
41.49879 231
41.51891 261
41.53902 270
41.55913 269
41.57925 266
41.59936 277
41.61947 333
41.63959 284
41.6597 343
41.67982 347
41.69993 379
41.72004 374
41.74016 385
41.76027 412
41.78038 375
41.8005 389
41.82061 362
41.84072 313
41.86084 305
41.88095 328
41.90107 299
41.92118 282
41.94129 244
41.96141 260
41.98152 236
42.00163 250
42.02175 267
42.04186 241
42.06198 226
42.08209 260
42.1022 264
42.12232 268
42.14243 287
42.16254 296
42.18266 314
42.20277 316
42.22289 356
42.243 395
42.26311 458
42.28323 509
42.30334 570
42.32345 741
42.34357 824
42.36368 955
42.38379 1104
42.40391 1163
42.42402 1167
42.44414 1068
42.46425 951
42.48436 822
42.50448 733
42.52459 682
42.5447 674
42.56482 537
42.58493 441
42.60505 376
42.62516 319
42.64527 298
42.66539 302
42.6855 286
42.70561 291
42.72573 269
42.74584 294
42.76595 303
42.78607 310
42.80618 284
42.8263 282
42.84641 277
42.86652 290
42.88664 255
42.90675 265
42.92686 268
42.94698 245
42.96709 257
42.98721 244
43.00732 215
43.02743 212
43.04755 225
43.06766 208
43.08777 224
43.10789 211
43.128 234
43.14812 217
43.16823 212
43.18834 233
43.20846 245
43.22857 219
43.24868 244
43.2688 211
43.28891 198
43.30902 190
43.32914 206
43.34925 202
43.36937 204
43.38948 183
43.40959 179
43.42971 192
43.44982 205
43.46993 196
43.49005 191
43.51016 202
43.53028 210
43.55039 205
43.5705 192
43.59062 186
43.61073 235
43.63084 206
43.65096 225
43.67107 222
43.69119 200
43.7113 184
43.73141 189
43.75153 196
43.77164 206
43.79175 195
43.81187 189
43.83198 194
43.85209 187
43.87221 189
43.89232 174
43.91244 196
43.93255 183
43.95266 172
43.97278 205
43.99289 169
44.013 191
44.03312 183
44.05323 206
44.07335 210
44.09346 201
44.11357 192
44.13369 200
44.1538 216
44.17391 209
44.19403 231
44.21414 182
44.23426 201
44.25437 200
44.27448 191
44.2946 205
44.31471 192
44.33482 184
44.35494 195
44.37505 193
44.39516 170
44.41528 225
44.43539 191
44.45551 210
44.47562 192
44.49573 185
44.51585 182
44.53596 209
44.55607 189
44.57619 180
44.5963 213
44.61642 202
44.63653 223
44.65664 236
44.67676 206
44.69687 200
44.71698 211
44.7371 201
44.75721 197
44.77732 182
44.79744 192
44.81755 210
44.83767 208
44.85778 216
44.87789 213
44.89801 220
44.91812 219
44.93823 215
44.95835 212
44.97846 236
44.99858 217
45.01869 230
45.0388 200
45.05892 216
45.07903 223
45.09914 216
45.11926 203
45.13937 222
45.15949 227
45.1796 227
45.19971 240
45.21983 211
45.23994 208
45.26005 245
45.28017 236
45.30028 213
45.32039 250
45.34051 234
45.36062 205
45.38074 228
45.40085 241
45.42096 253
45.44108 245
45.46119 262
45.4813 268
45.50142 284
45.52153 266
45.54165 273
45.56176 359
45.58187 374
45.60199 373
45.6221 453
45.64221 476
45.66233 546
45.68244 615
45.70256 694
45.72267 793
45.74278 795
45.7629 849
45.78301 794
45.80312 703
45.82324 593
45.84335 506
45.86346 569
45.88358 472
45.90369 456
45.92381 409
45.94392 346
45.96403 288
45.98415 236
46.00426 232
46.02437 254
46.04449 235
46.0646 269
46.08472 200
46.10483 220
46.12494 242
46.14506 203
46.16517 179
46.18528 193
46.2054 228
46.22551 203
46.24563 193
46.26574 212
46.28585 173
46.30597 181
46.32608 193
46.34619 174
46.36631 188
46.38642 172
46.40653 210
46.42665 184
46.44676 205
46.46688 188
46.48699 171
46.5071 189
46.52722 185
46.54733 162
46.56744 191
46.58756 166
46.60767 190
46.62779 167
46.6479 195
46.66801 201
46.68813 208
46.70824 186
46.72835 190
46.74847 193
46.76858 178
46.78869 216
46.80881 214
46.82892 200
46.84904 199
46.86915 195
46.88926 212
46.90938 202
46.92949 197
46.9496 205
46.96972 215
46.98983 218
47.00995 223
47.03006 222
47.05017 230
47.07029 233
47.0904 234
47.11051 251
47.13063 235
47.15074 237
47.17086 241
47.19097 235
47.21108 216
47.2312 219
47.25131 200
47.27142 228
47.29154 208
47.31165 237
47.33176 215
47.35188 226
47.37199 232
47.39211 209
47.41222 253
47.43233 235
47.45245 235
47.47256 226
47.49267 213
47.51279 215
47.5329 214
47.55302 214
47.57313 221
47.59324 210
47.61336 211
47.63347 172
47.65358 206
47.6737 176
47.69381 190
47.71393 188
47.73404 200
47.75415 169
47.77427 178
47.79438 209
47.81449 167
47.83461 183
47.85472 203
47.87483 187
47.89495 170
47.91506 205
47.93518 204
47.95529 194
47.9754 185
47.99552 178
48.01563 189
48.03574 200
48.05586 178
48.07597 212
48.09609 191
48.1162 229
48.13631 237
48.15643 228
48.17654 200
48.19665 213
48.21677 206
48.23688 197
48.257 218
48.27711 228
48.29722 209
48.31734 214
48.33745 215
48.35756 229
48.37768 189
48.39779 206
48.4179 212
48.43802 206
48.45813 184
48.47825 221
48.49836 169
48.51847 199
48.53859 223
48.5587 172
48.57881 189
48.59893 212
48.61904 213
48.63916 216
48.65927 211
48.67938 236
48.6995 232
48.71961 216
48.73972 208
48.75984 245
48.77995 224
48.80006 236
48.82018 214
48.84029 220
48.86041 224
48.88052 234
48.90063 229
48.92075 236
48.94086 246
48.96097 256
48.98109 227
49.0012 233
49.02132 260
49.04143 270
49.06154 247
49.08166 262
49.10177 251
49.12188 271
49.142 277
49.16211 272
49.18223 287
49.20234 272
49.22245 266
49.24257 277
49.26268 268
49.28279 233
49.30291 235
49.32302 251
49.34313 203
49.36325 213
49.38336 241
49.40348 214
49.42359 222
49.4437 191
49.46382 216
49.48393 212
49.50404 225
49.52416 231
49.54427 231
49.56439 223
49.5845 232
49.60461 274
49.62473 251
49.64484 273
49.66495 262
49.68507 328
49.70518 316
49.7253 339
49.74541 368
49.76552 391
49.78564 386
49.80575 400
49.82586 436
49.84598 482
49.86609 509
49.8862 544
49.90632 619
49.92643 708
49.94655 844
49.96666 952
49.98677 1196
50.00689 1366
50.027 1696
50.04711 1854
50.06723 2160
50.08734 2385
50.10746 2407
50.12757 2244
50.14768 1834
50.1678 1585
50.18791 1396
50.20802 1285
50.22814 1293
50.24825 1125
50.26837 994
50.28848 804
50.30859 586
50.32871 490
50.34882 363
50.36893 395
50.38905 328
50.40916 359
50.42927 357
50.44939 383
50.4695 402
50.48962 427
50.50973 420
50.52984 447
50.54996 446
50.57007 466
50.59018 405
50.6103 466
50.63041 409
50.65053 451
50.67064 386
50.69075 389
50.71087 349
50.73098 354
50.75109 308
50.77121 330
50.79132 268
50.81143 279
50.83155 260
50.85166 257
50.87178 269
50.89189 265
50.912 252
50.93212 242
50.95223 228
50.97234 231
50.99246 250
51.01257 218
51.03269 239
51.0528 253
51.07291 248
51.09303 230
51.11314 253
51.13325 249
51.15337 257
51.17348 238
51.1936 286
51.21371 242
51.23382 274
51.25394 230
51.27405 232
51.29416 274
51.31428 249
51.33439 271
51.3545 245
51.37462 251
51.39473 218
51.41485 243
51.43496 233
51.45507 233
51.47519 209
51.4953 211
51.51541 232
51.53553 181
51.55564 201
51.57576 222
51.59587 184
51.61598 179
51.6361 180
51.65621 185
51.67632 215
51.69644 178
51.71655 175
51.73667 162
51.75678 185
51.77689 189
51.79701 170
51.81712 169
51.83723 189
51.85735 207
51.87746 187
51.89757 196
51.91769 164
51.9378 165
51.95792 188
51.97803 183
51.99814 175
52.01826 172
52.03837 178
52.05848 203
52.0786 175
52.09871 183
52.11883 197
52.13894 187
52.15905 215
52.17917 182
52.19928 172
52.21939 209
52.23951 185
52.25962 185
52.27974 211
52.29985 197
52.31996 205
52.34008 213
52.36019 195
52.3803 206
52.40042 196
52.42053 198
52.44064 211
52.46076 196
52.48087 195
52.50099 240
52.5211 177
52.54121 207
52.56133 192
52.58144 208
52.60155 227
52.62167 188
52.64178 191
52.6619 207
52.68201 184
52.70212 183
52.72224 203
52.74235 212
52.76246 207
52.78258 211
52.80269 179
52.8228 188
52.84292 207
52.86303 202
52.88315 183
52.90326 190
52.92337 168
52.94349 215
52.9636 195
52.98371 208
53.00383 219
53.02394 202
53.04406 199
53.06417 229
53.08428 231
53.1044 234
53.12451 226
53.14462 224
53.16474 226
53.18485 231
53.20497 222
53.22508 209
53.24519 221
53.26531 213
53.28542 224
53.30553 195
53.32565 216
53.34576 214
53.36587 185
53.38599 188
53.4061 212
53.42622 178
53.44633 182
53.46644 207
53.48656 198
53.50667 176
53.52678 186
53.5469 197
53.56701 209
53.58713 198
53.60724 185
53.62735 200
53.64747 180
53.66758 185
53.68769 197
53.70781 201
53.72792 207
53.74804 191
53.76815 179
53.78826 214
53.80838 217
53.82849 185
53.8486 198
53.86872 184
53.88883 194
53.90894 213
53.92906 196
53.94917 199
53.96929 171
53.9894 176
54.00951 211
54.02963 179
54.04974 182
54.06985 204
54.08997 217
54.11008 186
54.1302 219
54.15031 204
54.17042 211
54.19054 189
54.21065 218
54.23076 203
54.25088 199
54.27099 224
54.29111 219
54.31122 222
54.33133 217
54.35145 196
54.37156 211
54.39167 221
54.41179 210
54.4319 252
54.45201 238
54.47213 210
54.49224 217
54.51236 223
54.53247 235
54.55258 235
54.5727 230
54.59281 249
54.61292 261
54.63304 325
54.65315 315
54.67327 326
54.69338 364
54.71349 451
54.73361 473
54.75372 581
54.77383 644
54.79395 756
54.81406 768
54.83417 789
54.85429 696
54.8744 698
54.89452 554
54.91463 517
54.93474 480
54.95486 497
54.97497 443
54.99508 491
55.0152 407
55.03531 359
55.05543 331
55.07554 259
55.09565 258
55.11577 278
55.13588 279
55.15599 288
55.17611 311
55.19622 356
55.21634 400
55.23645 366
55.25656 412
55.27668 464
55.29679 430
55.3169 465
55.33702 369
55.35713 346
55.37724 329
55.39736 296
55.41747 361
55.43759 345
55.4577 302
55.47781 270
55.49793 272
55.51804 268
55.53815 232
55.55827 215
55.57838 210
55.5985 208
55.61861 222
55.63872 187
55.65884 212
55.67895 196
55.69906 192
55.71918 210
55.73929 180
55.75941 183
55.77952 206
55.79963 179
55.81975 169
55.83986 191
55.85997 155
55.88009 157
55.9002 178
55.92031 192
55.94043 161
55.96054 182
55.98066 170
56.00077 172
56.02088 174
56.041 156
56.06111 185
56.08122 177
56.10134 184
56.12145 190
56.14157 161
56.16168 175
56.18179 175
56.20191 185
56.22202 169
56.24213 159
56.26225 177
56.28236 156
56.30248 164
56.32259 153
56.3427 166
56.36282 150
56.38293 133
56.40304 144
56.42316 151
56.44327 152
56.46338 137
56.4835 151
56.50361 145
56.52373 163
56.54384 171
56.56395 151
56.58407 173
56.60418 140
56.62429 168
56.64441 164
56.66452 188
56.68464 150
56.70475 160
56.72486 186
56.74498 139
56.76509 173
56.7852 153
56.80532 153
56.82543 160
56.84554 149
56.86566 150
56.88577 168
56.90589 170
56.926 153
56.94611 136
56.96623 156
56.98634 162
57.00645 170
57.02657 162
57.04668 171
57.0668 173
57.08691 135
57.10702 157
57.12714 172
57.14725 199
57.16736 212
57.18748 196
57.20759 199
57.22771 162
57.24782 176
57.26793 167
57.28805 177
57.30816 170
57.32827 186
57.34839 206
57.3685 167
57.38861 166
57.40873 182
57.42884 166
57.44896 190
57.46907 150
57.48918 164
57.5093 174
57.52941 170
57.54952 175
57.56964 187
57.58975 152
57.60987 176
57.62998 152
57.65009 174
57.67021 196
57.69032 174
57.71043 179
57.73055 166
57.75066 167
57.77078 132
57.79089 145
57.811 146
57.83112 156
57.85123 163
57.87134 194
57.89146 182
57.91157 156
57.93168 161
57.9518 173
57.97191 159
57.99203 163
58.01214 162
58.03225 189
58.05237 178
58.07248 173
58.09259 166
58.11271 158
58.13282 160
58.15294 179
58.17305 143
58.19316 161
58.21328 168
58.23339 158
58.2535 163
58.27362 148
58.29373 150
58.31385 167
58.33396 158
58.35407 139
58.37419 171
58.3943 160
58.41441 179
58.43453 163
58.45464 177
58.47475 197
58.49487 194
58.51498 160
58.5351 196
58.55521 178
58.57532 175
58.59544 169
58.61555 186
58.63566 197
58.65578 193
58.67589 187
58.69601 157
58.71612 194
58.73623 181
58.75635 166
58.77646 155
58.79657 165
58.81669 162
58.8368 154
58.85691 178
58.87703 158
58.89714 165
58.91726 155
58.93737 144
58.95748 174
58.9776 173
58.99771 166
59.01782 148
59.03794 158
59.05805 157
59.07817 159
59.09828 165
59.11839 153
59.13851 157
59.15862 168
59.17873 167
59.19885 161
59.21896 163
59.23908 173
59.25919 154
59.2793 177
59.29942 171
59.31953 192
59.33964 189
59.35976 181
59.37987 185
59.39998 173
59.4201 176
59.44021 170
59.46033 176
59.48044 203
59.50055 210
59.52067 198
59.54078 199
59.56089 216
59.58101 253
59.60112 251
59.62124 268
59.64135 272
59.66146 299
59.68158 299
59.70169 359
59.7218 397
59.74192 468
59.76203 508
59.78215 623
59.80226 758
59.82237 813
59.84249 1005
59.8626 1072
59.88271 1190
59.90283 1365
59.92294 1334
59.94305 1227
59.96317 1062
59.98328 900
60.0034 812
60.02351 735
60.04362 727
60.06374 750
60.08385 721
60.10396 607
60.12408 592
60.14419 424
60.16431 388
60.18442 273
60.20453 245
60.22465 235
60.24476 217
60.26487 232
60.28499 205
60.3051 208
60.32522 211
60.34533 181
60.36544 191
60.38556 183
60.40567 199
60.42578 187
60.4459 184
60.46601 178
60.48612 159
60.50624 175
60.52635 204
60.54647 166
60.56658 161
60.58669 171
60.60681 166
60.62692 177
60.64703 168
60.66715 153
60.68726 173
60.70738 187
60.72749 163
60.7476 185
60.76772 170
60.78783 157
60.80794 162
60.82806 173
60.84817 156
60.86828 188
60.8884 160
60.90851 151
60.92863 142
60.94874 174
60.96885 157
60.98897 147
61.00908 188
61.02919 184
61.04931 176
61.06942 170
61.08954 183
61.10965 180
61.12976 204
61.14988 183
61.16999 169
61.1901 177
61.21022 169
61.23033 177
61.25045 169
61.27056 186
61.29067 172
61.31079 186
61.3309 178
61.35101 175
61.37113 145
61.39124 202
61.41135 170
61.43147 176
61.45158 163
61.4717 165
61.49181 151
61.51192 170
61.53204 194
61.55215 170
61.57226 176
61.59238 183
61.61249 176
61.63261 179
61.65272 193
61.67283 172
61.69295 188
61.71306 168
61.73317 202
61.75329 168
61.7734 163
61.79352 183
61.81363 180
61.83374 170
61.85386 175
61.87397 184
61.89408 181
61.9142 171
61.93431 173
61.95442 161
61.97454 165
61.99465 173
62.01477 178
62.03488 167
62.05499 170
62.07511 166
62.09522 192
62.11533 161
62.13545 190
62.15556 162
62.17568 148
62.19579 185
62.2159 167
62.23602 163
62.25613 170
62.27624 172
62.29636 157
62.31647 156
62.33659 146
62.3567 152
62.37681 148
62.39693 167
62.41704 169
62.43715 157
62.45727 150
62.47738 164
62.49749 181
62.51761 158
62.53772 161
62.55784 155
62.57795 179
62.59806 182
62.61818 195
62.63829 183
62.6584 156
62.67852 161
62.69863 173
62.71875 160
62.73886 169
62.75897 155
62.77909 156
62.7992 156
62.81931 193
62.83943 174
62.85954 156
62.87965 163
62.89977 184
62.91988 170
62.94 163
62.96011 195
62.98022 177
63.00034 195
63.02045 178
63.04056 184
63.06068 175
63.08079 163
63.10091 166
63.12102 186
63.14113 176
63.16125 164
63.18136 174
63.20147 164
63.22159 166
63.2417 172
63.26182 183
63.28193 180
63.30204 169
63.32216 177
63.34227 174
63.36238 182
63.3825 185
63.40261 179
63.42272 168
63.44284 162
63.46295 174
63.48307 181
63.50318 197
63.52329 186
63.54341 198
63.56352 171
63.58363 195
63.60375 179
63.62386 192
63.64398 214
63.66409 202
63.6842 197
63.70432 218
63.72443 220
63.74454 241
63.76466 243
63.78477 250
63.80489 240
63.825 314
63.84511 272
63.86523 280
63.88534 312
63.90545 307
63.92557 348
63.94568 366
63.96579 418
63.98591 414
64.00602 351
64.02614 354
64.04625 306
64.06636 273
64.08648 247
64.10659 276
64.1267 245
64.14682 248
64.16693 258
64.18705 258
64.20716 279
64.22727 236
64.24739 174
64.2675 167
64.28761 171
64.30773 166
64.32784 171
64.34796 166
64.36807 164
64.38818 161
64.4083 149
64.42841 168
64.44852 153
64.46864 151
64.48875 166
64.50886 186
64.52898 169
64.54909 161
64.56921 161
64.58932 171
64.60943 176
64.62955 173
64.64966 174
64.66977 175
64.68989 162
64.71 196
64.73012 169
64.75023 144
64.77034 170
64.79046 171
64.81057 145
64.83068 156
64.8508 153
64.87091 163
64.89102 173
64.91114 186
64.93125 171
64.95137 153
64.97148 166
64.99159 166
65.01171 194
65.03182 193
65.05193 163
65.07205 187
65.09216 192
65.11228 178
65.13239 191
65.1525 194
65.17262 200
65.19273 188
65.21284 183
65.23296 184
65.25307 182
65.27319 159
65.2933 183
65.31341 180
65.33353 198
65.35364 187
65.37375 177
65.39387 191
65.41398 204
65.43409 174
65.45421 200
65.47432 172
65.49444 174
65.51455 185
65.53466 160
65.55478 173
65.57489 163
65.595 183
65.61512 171
65.63523 185
65.65535 187
65.67546 176
65.69557 197
65.71569 181
65.7358 198
65.75591 186
65.77603 212
65.79614 144
65.81626 182
65.83637 189
65.85648 182
65.8766 186
65.89671 160
65.91682 194
65.93694 172
65.95705 184
65.97716 188
65.99728 155
66.01739 159
66.03751 165
66.05762 160
66.07773 162
66.09785 159
66.11796 164
66.13807 162
66.15819 152
66.1783 163
66.19842 153
66.21853 179
66.23864 154
66.25876 176
66.27887 173
66.29898 161
66.3191 174
66.33921 169
66.35933 163
66.37944 158
66.39955 159
66.41967 173
66.43978 170
66.45989 168
66.48001 172
66.50012 174
66.52023 156
66.54035 164
66.56046 145
66.58058 171
66.60069 142
66.6208 145
66.64092 158
66.66103 147
66.68114 160
66.70126 158
66.72137 146
66.74149 165
66.7616 161
66.78171 149
66.80183 126
66.82194 178
66.84205 163
66.86217 158
66.88228 169
66.90239 173
66.92251 173
66.94262 171
66.96274 152
66.98285 158
67.00296 155
67.02308 167
67.04319 156
67.0633 155
67.08342 167
67.10353 178
67.12365 196
67.14376 191
67.16387 159
67.18399 195
67.2041 157
67.22421 174
67.24433 176
67.26444 179
67.28456 204
67.30467 187
67.32478 190
67.3449 193
67.36501 214
67.38512 223
67.40524 232
67.42535 244
67.44546 228
67.46558 266
67.48569 293
67.50581 300
67.52592 370
67.54603 392
67.56615 462
67.58626 496
67.60637 596
67.62649 611
67.6466 717
67.66672 767
67.68683 832
67.70694 785
67.72706 711
67.74717 695
67.76728 618
67.7874 581
67.80751 556
67.82763 565
67.84774 578
67.86785 663
67.88797 637
67.90808 636
67.92819 595
67.94831 614
67.96842 598
67.98853 684
68.00865 770
68.02876 808
68.04888 914
68.06899 1011
68.0891 1039
68.10922 1059
68.12933 1008
68.14944 936
68.16956 877
68.18967 882
68.20979 935
68.2299 926
68.25001 988
68.27013 1017
68.29024 929
68.31035 874
68.33047 731
68.35058 615
68.3707 523
68.39081 462
68.41092 460
68.43104 419
68.45115 429
68.47126 396
68.49138 365
68.51149 356
68.5316 274
68.55172 248
68.57183 240
68.59195 196
68.61206 204
68.63217 187
68.65229 184
68.6724 197
68.69251 196
68.71263 171
68.73274 162
68.75286 170
68.77297 187
68.79308 164
68.8132 161
68.83331 163
68.85342 164
68.87354 166
68.89365 178
68.91376 161
68.93388 155
68.95399 164
68.97411 173
68.99422 138
69.01433 174
69.03445 156
69.05456 147
69.07467 165
69.09479 161
69.1149 158
69.13502 181
69.15513 167
69.17524 176
69.19536 149
69.21547 156
69.23558 196
69.2557 182
69.27581 160
69.29593 190
69.31604 156
69.33615 173
69.35627 141
69.37638 156
69.39649 158
69.41661 162
69.43672 161
69.45683 144
69.47695 179
69.49706 143
69.51718 160
69.53729 158
69.5574 164
69.57752 151
69.59763 157
69.61774 155
69.63786 172
69.65797 161
69.67809 140
69.6982 175
69.71831 146
69.73843 154
69.75854 153
69.77865 179
69.79877 160
69.81888 159
69.839 153
69.85911 168
69.87922 151
69.89934 165
69.91945 166
69.93956 150
69.95968 148
69.97979 167
69.9999 150
70.02002 151
70.04013 153
70.06025 167
70.08036 148
70.10047 141
70.12059 153
70.1407 159
70.16081 137
70.18093 150
70.20104 148
70.22116 137
70.24127 146
70.26138 143
70.2815 143
70.30161 152
70.32172 125
70.34184 115
70.36195 124
70.38207 130
70.40218 132
70.42229 148
70.44241 138
70.46252 154
70.48263 116
70.50275 126
70.52286 136
70.54297 133
70.56309 163
70.5832 143
70.60332 141
70.62343 138
70.64354 147
70.66366 130
70.68377 117
70.70388 139
70.724 142
70.74411 149
70.76423 147
70.78434 141
70.80445 148
70.82457 156
70.84468 145
70.86479 142
70.88491 139
70.90502 154
70.92513 145
70.94525 156
70.96536 136
70.98548 131
71.00559 124
71.0257 129
71.04582 123
71.06593 150
71.08604 120
71.10616 151
71.12627 148
71.14639 126
71.1665 128
71.18661 158
71.20673 162
71.22684 152
71.24695 146
71.26707 141
71.28718 144
71.3073 163
71.32741 139
71.34752 152
71.36764 143
71.38775 145
71.40786 146
71.42798 159
71.44809 159
71.4682 145
71.48832 154
71.50843 175
71.52855 139
71.54866 139
71.56877 137
71.58889 155
71.609 134
71.62911 135
71.64923 142
71.66934 142
71.68946 144
71.70957 143
71.72968 155
71.7498 139
71.76991 146
71.79002 125
71.81014 143
71.83025 160
71.85037 142
71.87048 154
71.89059 163
71.91071 145
71.93082 151
71.95093 133
71.97105 144
71.99116 116
72.01127 144
72.03139 148
72.0515 162
72.07162 112
72.09173 149
72.11184 148
72.13196 144
72.15207 159
72.17218 151
72.1923 156
72.21241 129
72.23253 127
72.25264 134
72.27275 134
72.29287 127
72.31298 143
72.33309 150
72.35321 140
72.37332 152
72.39344 149
72.41355 127
72.43366 140
72.45378 140
72.47389 137
72.494 141
72.51412 143
72.53423 120
72.55434 159
72.57446 131
72.59457 139
72.61469 117
72.6348 121
72.65491 136
72.67503 134
72.69514 134
72.71525 141
72.73537 167
72.75548 130
72.7756 143
72.79571 144
72.81582 140
72.83594 144
72.85605 143
72.87616 144
72.89628 139
72.91639 142
72.9365 154
72.95662 161
72.97673 151
72.99685 159
73.01696 170
73.03707 163
73.05719 155
73.0773 165
73.09741 151
73.11753 139
73.13764 183
73.15776 181
73.17787 154
73.19798 184
73.2181 181
73.23821 218
73.25832 237
73.27844 229
73.29855 278
73.31867 258
73.33878 268
73.35889 289
73.37901 303
73.39912 346
73.41923 367
73.43935 347
73.45946 313
73.47957 289
73.49969 250
73.5198 207
73.53992 246
73.56003 226
73.58014 226
73.60026 258
73.62037 270
73.64048 253
73.6606 237
73.68071 214
73.70083 201
73.72094 197
73.74105 156
73.76117 164
73.78128 163
73.80139 156
73.82151 144
73.84162 149
73.86174 166
73.88185 153
73.90196 149
73.92208 155
73.94219 148
73.9623 157
73.98242 155
74.00253 144
74.02264 147
74.04276 149
74.06287 137
74.08299 121
74.1031 154
74.12321 139
74.14333 159
74.16344 136
74.18355 145
74.20367 136
74.22378 122
74.2439 112
74.26401 137
74.28412 127
74.30424 146
74.32435 136
74.34446 140
74.36458 146
74.38469 145
74.40481 154
74.42492 133
74.44503 144
74.46515 154
74.48526 157
74.50537 143
74.52549 162
74.5456 157
74.56571 157
74.58583 141
74.60594 136
74.62606 148
74.64617 144
74.66628 160
74.6864 153
74.70651 147
74.72662 146
74.74674 152
74.76685 150
74.78697 159
74.80708 147
74.82719 142
74.84731 164
74.86742 157
74.88753 155
74.90765 137
74.92776 122
74.94787 143
74.96799 129
74.9881 143
75.00822 149
