3.00117 20112
3.02128 19765
3.0414 18989
3.06151 18643
3.08162 18169
3.10174 17398
3.12185 17202
3.14197 16632
3.16208 16213
3.18219 15837
3.20231 15114
3.22242 14929
3.24253 14523
3.26265 14274
3.28276 13684
3.30288 13054
3.32299 12667
3.3431 12232
3.36322 11976
3.38333 11700
3.40344 10922
3.42356 10955
3.44367 10224
3.46379 10166
3.4839 9745
3.50401 9324
3.52413 9079
3.54424 8460
3.56435 8432
3.58447 8019
3.60458 7708
3.62469 7580
3.64481 7108
3.66492 7064
3.68504 6745
3.70515 6254
3.72526 6193
3.74538 5835
3.76549 5639
3.7856 5319
3.80572 4948
3.82583 5052
3.84595 4597
3.86606 4519
3.88617 4342
3.90629 3959
3.9264 3952
3.94651 3661
3.96663 3630
3.98674 3697
4.00686 3155
4.02697 3194
4.04708 2927
4.0672 2869
4.08731 2779
4.10742 2544
4.12754 2507
4.14765 2333
4.16776 2316
4.18788 2309
4.20799 1961
4.22811 1999
4.24822 1860
4.26833 1835
4.28845 1898
4.30856 1625
4.32867 1723
4.34879 1544
4.3689 1576
4.38902 1591
4.40913 1331
4.42924 1412
4.44936 1336
4.46947 1335
4.48958 1396
4.5097 1270
4.52981 1216
4.54992 1231
4.57004 1196
4.59015 1156
4.61027 1030
4.63038 1100
4.65049 1063
4.67061 1032
4.69072 1025
4.71083 914
4.73095 900
4.75106 958
4.77118 941
4.79129 884
4.8114 789
4.83152 861
4.85163 825
4.87174 794
4.89186 887
4.91197 769
4.93209 713
4.9522 736
4.97231 696
4.99243 733
5.01254 694
5.03265 609
5.05277 632
5.07288 620
5.09299 614
5.11311 600
5.13322 573
5.15334 590
5.17345 585
5.19356 567
5.21368 530
5.23379 486
5.2539 509
5.27402 549
5.29413 488
5.31425 485
5.33436 430
5.35447 468
5.37459 453
5.3947 395
5.41481 385
5.43493 407
5.45504 392
5.47516 388
5.49527 363
5.51538 361
5.5355 363
5.55561 353
5.57572 365
5.59584 327
5.61595 328
5.63606 302
5.65618 331
5.67629 300
5.69641 346
5.71652 328
5.73663 334
5.75675 282
5.77686 303
5.79697 274
5.81709 323
5.8372 274
5.85732 276
5.87743 244
5.89754 273
5.91766 249
5.93777 265
5.95788 264
5.978 269
5.99811 261
6.01823 281
6.03834 234
6.05845 264
6.07857 265
6.09868 246
6.11879 258
6.13891 233
6.15902 246
6.17913 260
6.19925 236
6.21936 225
6.23948 224
6.25959 243
6.2797 199
6.29982 200
6.31993 219
6.34004 229
6.36016 199
6.38027 208
6.40039 227
6.4205 218
6.44061 240
6.46073 194
6.48084 195
6.50095 188
6.52107 201
6.54118 219
6.56129 212
6.58141 173
6.60152 206
6.62164 204
6.64175 220
6.66186 187
6.68198 218
6.70209 193
6.7222 241
6.74232 219
6.76243 185
6.78255 194
6.80266 193
6.82277 197
6.84289 185
6.863 189
6.88311 177
6.90323 191
6.92334 190
6.94346 209
6.96357 189
6.98368 223
7.0038 179
7.02391 204
7.04402 211
7.06414 200
7.08425 203
7.10436 214
7.12448 175
7.14459 191
7.16471 181
7.18482 186
7.20493 226
7.22505 197
7.24516 212
7.26527 181
7.28539 181
7.3055 191
7.32562 198
7.34573 190
7.36584 219
7.38596 184
7.40607 189
7.42618 184
7.4463 211
7.46641 203
7.48653 206
7.50664 211
7.52675 195
7.54687 196
7.56698 179
7.58709 224
7.60721 193
7.62732 212
7.64743 188
7.66755 216
7.68766 196
7.70778 209
7.72789 182
7.748 191
7.76812 195
7.78823 178
7.80834 227
7.82846 203
7.84857 198
7.86869 189
7.8888 211
7.90891 195
7.92903 216
7.94914 166
7.96925 214
7.98937 173
8.00948 204
8.0296 209
8.04971 182
8.06982 193
8.08994 203
8.11005 215
8.13016 240
8.15028 189
8.17039 242
8.1905 217
8.21062 219
8.23073 229
8.25085 231
8.27096 200
8.29107 215
8.31119 199
8.3313 195
8.35141 207
8.37153 210
8.39164 212
8.41176 214
8.43187 212
8.45198 236
8.4721 217
8.49221 200
8.51232 216
8.53244 255
8.55255 214
8.57266 183
8.59278 229
8.61289 206
8.63301 236
8.65312 211
8.67323 196
8.69335 213
8.71346 227
8.73357 219
8.75369 221
8.7738 229
8.79392 219
8.81403 235
8.83414 199
8.85426 224
8.87437 222
8.89448 222
8.9146 228
8.93471 210
8.95483 205
8.97494 215
8.99505 228
9.01517 190
9.03528 194
9.05539 211
9.07551 225
9.09562 219
9.11573 199
9.13585 234
9.15596 245
9.17608 202
9.19619 212
9.2163 222
9.23642 229
9.25653 206
9.27664 224
9.29676 244
9.31687 217
9.33699 220
9.3571 196
9.37721 219
9.39733 192
9.41744 219
9.43755 212
9.45767 226
9.47778 212
9.4979 252
9.51801 232
9.53812 242
9.55824 206
9.57835 222
9.59846 200
9.61858 186
9.63869 242
9.6588 231
9.67892 185
9.69903 203
9.71915 233
9.73926 223
9.75937 229
9.77949 219
9.7996 240
9.81971 216
9.83983 247
9.85994 198
9.88006 251
9.90017 210
9.92028 201
9.9404 218
9.96051 222
9.98062 233
10.00074 198
10.02085 239
10.04097 241
10.06108 211
10.08119 246
10.10131 257
10.12142 189
10.14153 222
10.16165 212
10.18176 211
10.20187 212
10.22199 196
10.2421 246
10.26222 215
10.28233 230
10.30244 218
10.32256 206
10.34267 218
10.36278 211
10.3829 227
10.40301 230
10.42313 218
10.44324 233
10.46335 238
10.48347 231
10.50358 215
10.52369 208
10.54381 227
10.56392 249
10.58403 214
10.60415 223
10.62426 242
10.64438 226
10.66449 223
10.6846 234
10.70472 225
10.72483 220
10.74494 213
10.76506 215
10.78517 271
10.80529 230
10.8254 204
10.84551 216
10.86563 213
10.88574 201
10.90585 221
10.92597 219
10.94608 213
10.9662 236
10.98631 249
11.00642 257
11.02654 221
11.04665 210
11.06676 237
11.08688 256
11.10699 217
11.1271 227
11.14722 250
11.16733 232
11.18745 223
11.20756 204
11.22767 227
11.24779 218
11.2679 214
11.28801 211
11.30813 241
11.32824 257
11.34836 253
11.36847 244
11.38858 212
11.4087 232
11.42881 235
11.44892 223
11.46904 231
11.48915 201
11.50927 208
11.52938 211
11.54949 205
11.56961 229
11.58972 228
11.60983 218
11.62995 230
11.65006 236
11.67017 239
11.69029 214
11.7104 219
11.73052 221
11.75063 221
11.77074 221
11.79086 220
11.81097 231
11.83108 214
11.8512 214
11.87131 223
11.89143 248
11.91154 226
11.93165 199
11.95177 222
11.97188 212
11.99199 208
12.01211 240
12.03222 214
12.05234 254
12.07245 248
12.09256 214
12.11268 227
12.13279 239
12.1529 233
12.17302 207
12.19313 252
12.21324 245
12.23336 245
12.25347 252
12.27359 244
12.2937 236
12.31381 227
12.33393 196
12.35404 214
12.37415 208
12.39427 222
12.41438 220
12.4345 191
12.45461 229
12.47472 208
12.49484 200
12.51495 228
12.53506 227
12.55518 236
12.57529 192
12.5954 223
12.61552 201
12.63563 217
12.65575 192
12.67586 214
12.69597 224
12.71609 205
12.7362 220
12.75631 215
12.77643 212
12.79654 196
12.81666 217
12.83677 224
12.85688 223
12.877 231
12.89711 191
12.91722 248
12.93734 230
12.95745 205
12.97757 197
12.99768 194
13.01779 217
13.03791 190
13.05802 182
13.07813 231
13.09825 209
13.11836 188
13.13847 218
13.15859 186
13.1787 208
13.19882 240
13.21893 206
13.23904 192
13.25916 230
13.27927 213
13.29938 221
13.3195 193
13.33961 208
13.35973 210
13.37984 200
13.39995 222
13.42007 220
13.44018 209
13.46029 213
13.48041 183
13.50052 218
13.52064 210
13.54075 230
13.56086 206
13.58098 200
13.60109 214
13.6212 212
13.64132 232
13.66143 202
13.68154 179
13.70166 225
13.72177 213
13.74189 223
13.762 194
13.78211 196
13.80223 209
13.82234 214
13.84245 193
13.86257 189
13.88268 196
13.9028 214
13.92291 225
13.94302 182
13.96314 172
13.98325 171
14.00336 198
14.02348 221
14.04359 209
14.06371 209
14.08382 188
14.10393 213
14.12405 184
14.14416 202
14.16427 208
14.18439 177
14.2045 179
14.22461 173
14.24473 186
14.26484 181
14.28496 176
14.30507 167
14.32518 203
14.3453 201
14.36541 217
14.38552 178
14.40564 188
14.42575 174
14.44587 192
14.46598 180
14.48609 201
14.50621 213
14.52632 180
14.54643 184
14.56655 202
14.58666 184
14.60677 179
14.62689 182
14.647 173
14.66712 189
14.68723 197
14.70734 199
14.72746 190
14.74757 180
14.76768 211
14.7878 169
14.80791 193
14.82803 180
14.84814 175
14.86825 167
14.88837 191
14.90848 175
14.92859 198
14.94871 204
14.96882 177
14.98894 186
15.00905 205
15.02916 206
15.04928 201
15.06939 238
15.0895 181
15.10962 215
15.12973 163
15.14984 195
15.16996 183
15.19007 182
15.21019 160
15.2303 173
15.25041 179
15.27053 178
15.29064 181
15.31075 156
15.33087 161
15.35098 193
15.3711 155
15.39121 165
15.41132 178
15.43144 186
15.45155 156
15.47166 210
15.49178 185
15.51189 194
15.53201 182
15.55212 183
15.57223 161
15.59235 159
15.61246 176
15.63257 159
15.65269 186
15.6728 176
15.69291 178
15.71303 185
15.73314 157
15.75326 184
15.77337 161
15.79348 173
15.8136 192
15.83371 169
15.85382 186
15.87394 182
15.89405 188
15.91417 173
15.93428 166
15.95439 193
15.97451 148
15.99462 181
16.01473 180
16.03485 155
16.05496 174
16.07508 171
16.09519 196
16.1153 168
16.13542 194
16.15553 157
16.17564 170
16.19576 166
16.21587 183
16.23598 166
16.2561 159
16.27621 145
16.29633 155
16.31644 156
16.33655 188
16.35667 168
16.37678 167
16.39689 185
16.41701 152
16.43712 175
16.45724 175
16.47735 146
16.49746 189
16.51758 180
16.53769 155
16.5578 174
16.57792 186
16.59803 175
16.61814 159
16.63826 174
16.65837 160
16.67849 157
16.6986 168
16.71871 154
16.73883 190
16.75894 148
16.77905 161
16.79917 161
16.81928 158
16.8394 175
16.85951 155
16.87962 163
16.89974 150
16.91985 195
16.93996 162
16.96008 169
16.98019 196
17.00031 158
17.02042 152
17.04053 168
17.06065 167
17.08076 173
17.10087 184
17.12099 169
17.1411 178
17.16121 176
17.18133 163
17.20144 140
17.22156 175
17.24167 169
17.26178 151
17.2819 201
17.30201 174
17.32212 176
17.34224 156
17.36235 195
17.38247 196
17.40258 175
17.42269 177
17.44281 178
17.46292 174
17.48303 167
17.50315 165
17.52326 163
17.54338 197
17.56349 187
17.5836 185
17.60372 179
17.62383 175
17.64394 159
17.66406 178
17.68417 166
17.70428 152
17.7244 187
17.74451 168
17.76463 175
17.78474 161
17.80485 173
17.82497 156
17.84508 185
17.86519 168
17.88531 153
17.90542 161
17.92554 151
17.94565 194
17.96576 168
17.98588 192
18.00599 151
18.0261 161
18.04622 182
18.06633 169
18.08645 154
18.10656 153
18.12667 174
18.14679 174
18.1669 165
18.18701 188
18.20713 186
18.22724 165
18.24735 164
18.26747 169
18.28758 162
18.3077 186
18.32781 157
18.34792 164
18.36804 168
18.38815 177
18.40826 155
18.42838 174
18.44849 156
18.46861 168
18.48872 178
18.50883 176
18.52895 178
18.54906 199
18.56917 188
18.58929 153
18.6094 168
18.62951 176
18.64963 166
18.66974 165
18.68986 175
18.70997 184
18.73008 199
18.7502 191
18.77031 178
18.79042 171
18.81054 200
18.83065 194
18.85077 165
18.87088 178
18.89099 177
18.91111 165
18.93122 185
18.95133 154
18.97145 178
18.99156 192
19.01168 162
19.03179 188
19.0519 191
19.07202 188
19.09213 173
19.11224 186
19.13236 159
19.15247 183
19.17258 173
19.1927 168
19.21281 176
19.23293 177
19.25304 161
19.27315 182
19.29327 197
19.31338 194
19.33349 168
19.35361 184
19.37372 188
19.39384 184
19.41395 194
19.43406 185
19.45418 209
19.47429 176
19.4944 176
19.51452 173
19.53463 189
19.55475 181
19.57486 197
19.59497 220
19.61509 194
19.6352 202
19.65531 207
19.67543 214
19.69554 251
19.71565 231
19.73577 221
19.75588 228
19.776 225
19.79611 225
19.81622 235
19.83634 198
19.85645 234
19.87656 265
19.89668 242
19.91679 255
19.93691 260
19.95702 250
19.97713 266
19.99725 244
20.01736 242
20.03747 265
20.05759 262
20.0777 234
20.09782 269
20.11793 231
20.13804 266
20.15816 285
20.17827 269
20.19838 266
20.2185 256
20.23861 283
20.25872 285
20.27884 300
20.29895 307
20.31907 327
20.33918 321
20.35929 317
20.37941 312
20.39952 348
20.41963 348
20.43975 397
20.45986 449
20.47998 384
20.50009 434
20.5202 521
20.54032 563
20.56043 687
20.58054 903
20.60066 1116
20.62077 1391
20.64088 1844
20.661 2435
20.68111 3144
20.70123 3904
20.72134 4783
20.74145 5413
20.76157 6083
20.78168 6162
20.80179 5983
20.82191 5418
20.84202 4331
20.86214 3321
20.88225 2430
20.90236 1699
20.92248 1120
20.94259 812
20.9627 606
20.98282 514
21.00293 505
21.02305 422
21.04316 409
21.06327 374
21.08339 345
21.1035 314
21.12361 287
21.14373 278
21.16384 277
21.18395 258
21.20407 252
21.22418 259
21.2443 271
21.26441 267
21.28452 245
21.30464 254
21.32475 245
21.34486 249
21.36498 257
21.38509 252
21.40521 242
21.42532 247
21.44543 252
21.46555 228
21.48566 228
21.50577 242
21.52589 226
21.546 222
21.56612 246
21.58623 214
21.60634 221
21.62646 224
21.64657 212
21.66668 217
21.6868 230
21.70691 232
21.72702 254
21.74714 269
21.76725 224
21.78737 204
21.80748 235
21.82759 245
21.84771 288
21.86782 251
21.88793 229
21.90805 283
21.92816 275
21.94828 282
21.96839 247
21.9885 285
22.00862 251
22.02873 204
22.04884 205
22.06896 247
22.08907 208
22.10919 215
22.1293 200
22.14941 236
22.16953 213
22.18964 220
22.20975 220
22.22987 213
22.24998 218
22.27009 206
22.29021 232
22.31032 218
22.33044 211
22.35055 262
22.37066 185
22.39078 212
22.41089 253
22.431 232
22.45112 236
22.47123 245
22.49135 217
22.51146 235
22.53157 198
22.55169 221
22.5718 204
22.59191 201
22.61203 201
22.63214 231
22.65225 210
22.67237 216
22.69248 227
22.7126 193
22.73271 222
22.75282 188
22.77294 203
22.79305 208
22.81316 237
22.83328 223
22.85339 262
22.87351 223
22.89362 211
22.91373 198
22.93385 224
22.95396 217
22.97407 218
22.99419 215
23.0143 252
23.03442 228
23.05453 213
23.07464 213
23.09476 190
23.11487 242
23.13498 200
23.1551 191
23.17521 188
23.19532 186
23.21544 205
23.23555 245
23.25567 238
23.27578 233
23.29589 228
23.31601 260
23.33612 276
23.35623 276
23.37635 256
23.39646 259
23.41658 276
23.43669 259
23.4568 284
23.47692 300
23.49703 303
23.51714 293
23.53726 270
23.55737 295
23.57749 233
23.5976 258
23.61771 268
23.63783 226
23.65794 199
23.67805 239
23.69817 222
23.71828 247
23.73839 251
23.75851 263
23.77862 256
23.79874 280
23.81885 248
23.83896 254
23.85908 244
23.87919 238
23.8993 246
23.91942 273
23.93953 286
23.95965 260
23.97976 260
23.99987 283
24.01999 235
24.0401 213
24.06021 230
24.08033 218
24.10044 192
24.12056 248
24.14067 234
24.16078 250
24.1809 250
24.20101 225
24.22112 230
24.24124 245
24.26135 230
24.28146 227
24.30158 217
24.32169 225
24.34181 227
24.36192 229
24.38203 263
24.40215 239
24.42226 243
24.44237 205
24.46249 250
24.4826 237
24.50272 210
24.52283 221
24.54294 210
24.56306 221
24.58317 200
24.60328 221
24.6234 219
24.64351 208
24.66362 220
24.68374 236
24.70385 200
24.72397 232
24.74408 195
24.76419 209
24.78431 212
24.80442 215
24.82453 236
24.84465 225
24.86476 233
24.88488 226
24.90499 232
24.9251 227
24.94522 226
24.96533 209
24.98544 203
25.00556 232
25.02567 234
25.04579 259
25.0659 204
25.08601 216
25.10613 231
25.12624 239
25.14635 224
25.16647 227
25.18658 222
25.20669 243
25.22681 229
25.24692 230
25.26704 244
25.28715 267
25.30726 253
25.32738 289
25.34749 239
25.3676 281
25.38772 260
25.40783 278
25.42795 279
25.44806 296
25.46817 311
25.48829 352
25.5084 352
25.52851 392
25.54863 363
25.56874 403
25.58886 390
25.60897 373
25.62908 416
25.6492 429
25.66931 406
25.68942 423
25.70954 422
25.72965 432
25.74976 429
25.76988 398
25.78999 438
25.81011 460
25.83022 485
25.85033 431
25.87045 472
25.89056 460
25.91067 510
25.93079 491
25.9509 465
25.97102 547
25.99113 515
26.01124 536
26.03136 601
26.05147 648
26.07158 716
26.0917 721
26.11181 839
26.13193 875
26.15204 947
26.17215 1007
26.19227 1064
26.21238 1302
26.23249 1317
26.25261 1616
26.27272 1893
26.29283 2257
26.31295 2823
26.33306 3388
26.35318 4518
26.37329 5668
26.3934 7275
26.41352 9448
26.43363 12258
26.45374 15781
26.47386 19092
26.49397 22725
26.51409 25413
26.5342 27663
26.55431 28159
26.57443 27380
26.59454 24070
26.61465 20192
26.63477 15833
26.65488 11592
26.67499 7933
26.69511 5481
26.71522 3508
26.73534 2377
26.75545 1738
26.77556 1430
26.79568 1275
26.81579 1164
26.8359 1054
26.85602 1045
26.87613 936
26.89625 847
26.91636 809
26.93647 753
26.95659 738
26.9767 655
26.99681 673
27.01693 605
27.03704 564
27.05716 543
27.07727 551
27.09738 520
27.1175 443
27.13761 476
27.15772 451
27.17784 411
27.19795 403
27.21806 417
27.23818 435
27.25829 435
27.27841 486
27.29852 481
27.31863 507
27.33875 506
27.35886 513
27.37897 494
27.39909 504
27.4192 506
27.43932 498
27.45943 488
27.47954 457
27.49966 430
27.51977 403
27.53988 415
27.56 424
27.58011 357
27.60023 368
27.62034 370
27.64045 404
27.66057 386
27.68068 417
27.70079 424
27.72091 396
27.74102 417
27.76113 403
27.78125 414
27.80136 389
27.82148 429
27.84159 425
27.8617 423
27.88182 380
27.90193 454
27.92204 419
27.94216 402
27.96227 424
27.98239 337
28.0025 333
28.02261 293
28.04273 307
28.06284 305
28.08295 276
28.10307 276
28.12318 288
28.1433 302
28.16341 276
28.18352 257
28.20364 251
28.22375 290
28.24386 252
28.26398 304
28.28409 275
28.3042 261
28.32432 252
28.34443 268
28.36455 246
28.38466 219
28.40477 246
28.42489 235
28.445 236
28.46511 244
28.48523 232
28.50534 216
28.52546 245
28.54557 236
28.56568 226
28.5858 212
28.60591 253
28.62602 223
28.64614 210
28.66625 202
28.68636 207
28.70648 209
28.72659 221
28.74671 226
28.76682 240
28.78693 216
28.80705 219
28.82716 223
28.84727 244
28.86739 233
28.8875 232
28.90762 247
28.92773 224
28.94784 202
28.96796 233
28.98807 222
29.00818 222
29.0283 233
29.04841 226
29.06853 231
29.08864 217
29.10875 211
29.12887 235
29.14898 230
29.16909 215
29.18921 242
29.20932 238
29.22943 214
29.24955 278
29.26966 218
29.28978 239
29.30989 230
29.33 254
29.35012 229
29.37023 230
29.39034 232
29.41046 242
29.43057 205
29.45069 195
29.4708 216
29.49091 245
29.51103 266
29.53114 222
29.55125 224
29.57137 249
29.59148 247
29.6116 256
29.63171 242
29.65182 245
29.67194 236
29.69205 243
29.71216 259
29.73228 259
29.75239 260
29.7725 241
29.79262 234
29.81273 251
29.83285 246
29.85296 256
29.87307 250
29.89319 224
29.9133 253
29.93341 217
29.95353 218
29.97364 225
29.99376 220
30.01387 257
30.03398 222
30.0541 225
30.07421 223
30.09432 247
30.11444 209
30.13455 227
30.15467 218
30.17478 228
30.19489 231
30.21501 244
30.23512 228
30.25523 212
30.27535 250
30.29546 223
30.31557 214
30.33569 204
30.3558 248
30.37592 214
30.39603 185
30.41614 222
30.43626 226
30.45637 240
30.47648 209
30.4966 216
30.51671 235
30.53683 200
30.55694 218
30.57705 214
30.59717 232
30.61728 209
30.63739 240
30.65751 221
30.67762 226
30.69773 263
30.71785 259
30.73796 251
30.75808 223
30.77819 240
30.7983 220
30.81842 226
30.83853 211
30.85864 209
30.87876 201
30.89887 180
30.91899 179
30.9391 169
30.95921 188
30.97933 171
30.99944 184
31.01955 160
31.03967 185
31.05978 171
31.0799 217
31.10001 178
31.12012 199
31.14024 166
31.16035 171
31.18046 157
31.20058 180
31.22069 182
31.2408 180
31.26092 174
31.28103 171
31.30115 176
31.32126 190
31.34137 165
31.36149 173
31.3816 185
31.40171 161
31.42183 195
31.44194 180
31.46206 190
31.48217 172
31.50228 182
31.5224 173
31.54251 161
31.56262 151
31.58274 151
31.60285 167
31.62297 179
31.64308 180
31.66319 168
31.68331 165
31.70342 163
31.72353 164
31.74365 185
31.76376 151
31.78387 180
31.80399 153
31.8241 144
31.84422 180
31.86433 186
31.88444 183
31.90456 170
31.92467 170
31.94478 175
31.9649 189
31.98501 188
32.00513 188
32.02524 176
32.04535 154
32.06547 163
32.08558 177
32.10569 202
32.12581 196
32.14592 163
32.16604 203
32.18615 204
32.20626 186
32.22638 169
32.24649 206
32.2666 155
32.28672 167
32.30683 192
32.32694 184
32.34706 173
32.36717 180
32.38729 152
32.4074 160
32.42751 182
32.44763 191
32.46774 174
32.48785 158
32.50797 180
32.52808 163
32.5482 151
32.56831 172
32.58842 190
32.60854 159
32.62865 155
32.64876 181
32.66888 174
32.68899 150
32.7091 165
32.72922 142
32.74933 176
32.76945 159
32.78956 161
32.80967 164
32.82979 154
32.8499 161
32.87001 146
32.89013 138
32.91024 149
32.93036 164
32.95047 148
32.97058 191
32.9907 131
33.01081 140
33.03092 168
33.05104 169
33.07115 162
33.09127 153
33.11138 165
33.13149 163
33.15161 148
33.17172 167
33.19183 163
33.21195 166
33.23206 155
33.25217 163
33.27229 161
33.2924 174
33.31252 174
33.33263 160
33.35274 179
33.37286 165
33.39297 175
33.41308 170
33.4332 153
33.45331 161
33.47343 161
33.49354 149
33.51365 156
33.53377 131
33.55388 161
33.57399 156
33.59411 152
33.61422 160
33.63434 152
33.65445 171
33.67456 161
33.69468 144
33.71479 170
33.7349 168
33.75502 177
33.77513 156
33.79524 152
33.81536 155
33.83547 173
33.85559 186
33.8757 151
33.89581 181
33.91593 167
33.93604 158
33.95615 142
33.97627 146
33.99638 162
34.0165 159
34.03661 140
34.05672 171
34.07684 195
34.09695 181
34.11706 171
34.13718 179
34.15729 161
34.17741 185
34.19752 179
34.21763 185
34.23775 165
34.25786 175
34.27797 163
34.29809 174
34.3182 214
34.33831 170
34.35843 181
34.37854 202
34.39866 205
34.41877 183
34.43888 192
34.459 179
34.47911 177
34.49922 176
34.51934 168
34.53945 183
34.55957 186
34.57968 177
34.59979 197
34.61991 187
34.64002 196
34.66013 174
34.68025 194
34.70036 189
34.72047 215
34.74059 222
34.7607 228
34.78082 203
34.80093 190
34.82104 248
34.84116 211
34.86127 205
34.88138 195
34.9015 174
34.92161 195
34.94173 192
34.96184 230
34.98195 205
35.00207 186
35.02218 201
35.04229 201
35.06241 211
35.08252 175
35.10264 217
35.12275 198
35.14286 230
35.16298 190
35.18309 190
35.2032 193
35.22332 193
35.24343 215
35.26354 166
35.28366 193
35.30377 211
35.32389 203
35.344 226
35.36411 220
35.38423 223
35.40434 234
35.42445 213
35.44457 224
35.46468 252
35.4848 231
35.50491 212
35.52502 215
35.54514 211
35.56525 208
35.58536 206
35.60548 222
35.62559 172
35.64571 181
35.66582 181
35.68593 189
35.70605 205
35.72616 183
35.74627 208
35.76639 211
35.7865 190
35.80661 190
35.82673 197
35.84684 198
35.86696 202
35.88707 192
35.90718 198
35.9273 182
35.94741 232
35.96752 223
35.98764 222
36.00775 236
36.02787 240
36.04798 240
36.06809 233
36.08821 221
36.10832 272
36.12843 290
36.14855 292
36.16866 339
36.18878 397
36.20889 405
36.229 481
36.24912 536
36.26923 665
36.28934 822
36.30946 947
36.32957 1072
36.34968 1291
36.3698 1436
36.38991 1715
36.41003 1794
36.43014 1951
36.45025 2056
36.47037 1994
36.49048 1789
36.51059 1580
36.53071 1326
36.55082 1098
36.57094 884
36.59105 769
36.61116 536
36.63128 453
36.65139 328
36.6715 300
36.69162 239
36.71173 232
36.73184 210
36.75196 226
36.77207 212
36.79219 218
36.8123 198
36.83241 217
36.85253 224
36.87264 208
36.89275 213
36.91287 202
36.93298 210
36.9531 161
36.97321 175
36.99332 177
37.01344 194
37.03355 204
37.05366 194
37.07378 189
37.09389 167
37.11401 180
37.13412 180
37.15423 170
37.17435 170
37.19446 185
37.21457 191
37.23469 182
37.2548 178
37.27491 155
37.29503 193
37.31514 168
37.33526 167
37.35537 191
37.37548 169
37.3956 170
37.41571 173
37.43582 177
37.45594 151
37.47605 196
37.49617 178
37.51628 182
37.53639 160
37.55651 200
37.57662 160
37.59673 174
37.61685 173
37.63696 185
37.65708 166
37.67719 176
37.6973 156
37.71742 160
37.73753 165
37.75764 153
37.77776 182
37.79787 173
37.81798 171
37.8381 179
37.85821 178
37.87833 162
37.89844 175
37.91855 165
37.93867 174
37.95878 154
37.97889 177
37.99901 176
38.01912 182
38.03924 163
38.05935 179
38.07946 170
38.09958 190
38.11969 181
38.1398 198
38.15992 161
38.18003 188
38.20015 170
38.22026 169
38.24037 166
38.26049 173
38.2806 195
38.30071 175
38.32083 164
38.34094 183
38.36105 161
38.38117 189
38.40128 199
38.4214 175
38.44151 183
38.46162 201
38.48174 154
38.50185 195
38.52196 188
38.54208 196
38.56219 206
38.58231 190
38.60242 183
38.62253 181
38.64265 179
38.66276 197
38.68287 173
38.70299 165
38.7231 170
38.74321 178
38.76333 213
38.78344 195
38.80356 190
38.82367 218
38.84378 195
38.8639 188
38.88401 201
38.90412 194
38.92424 214
38.94435 212
38.96447 199
38.98458 221
39.00469 223
39.02481 265
39.04492 314
39.06503 299
39.08515 339
39.10526 369
39.12538 403
39.14549 449
39.1656 536
39.18572 620
39.20583 704
39.22594 885
39.24606 968
39.26617 1254
39.28628 1384
39.3064 1589
39.32651 1676
39.34663 1716
39.36674 1763
39.38685 1780
39.40697 1686
39.42708 1567
39.44719 1315
39.46731 1190
39.48742 921
39.50754 815
39.52765 656
39.54776 484
39.56788 377
39.58799 329
39.6081 240
39.62822 219
39.64833 226
39.66845 226
39.68856 209
39.70867 226
39.72879 207
39.7489 217
39.76901 208
39.78913 218
39.80924 215
39.82935 188
39.84947 220
39.86958 244
39.8897 247
39.90981 267
39.92992 274
39.95004 283
39.97015 303
39.99026 355
40.01038 453
40.03049 473
40.05061 539
40.07072 612
40.09083 700
40.11095 774
40.13106 853
40.15117 931
40.17129 968
40.1914 966
40.21152 936
40.23163 922
40.25174 804
40.27186 725
40.29197 609
40.31208 548
40.3322 475
40.35231 364
40.37242 329
40.39254 298
40.41265 231
40.43277 224
40.45288 191
40.47299 189
40.49311 197
40.51322 198
40.53333 189
40.55345 190
40.57356 188
40.59368 145
40.61379 173
40.6339 179
40.65402 162
40.67413 162
40.69424 159
40.71436 164
40.73447 167
40.75458 198
40.7747 171
40.79481 192
40.81493 161
40.83504 183
40.85515 178
40.87527 165
40.89538 191
40.91549 159
40.93561 186
40.95572 170
40.97584 171
40.99595 174
41.01606 153
41.03618 159
41.05629 208
41.0764 197
41.09652 196
41.11663 200
41.13675 182
41.15686 185
41.17697 183
41.19709 181
41.2172 174
41.23731 176
41.25743 164
41.27754 173
41.29765 156
41.31777 161
41.33788 163
41.358 176
41.37811 183
41.39822 192
41.41834 182
41.43845 172
41.45856 189
41.47868 169
41.49879 209
41.51891 162
41.53902 202
41.55913 200
41.57925 189
41.59936 189
41.61947 186
41.63959 189
41.6597 176
41.67982 205
41.69993 184
41.72004 193
41.74016 196
41.76027 216
41.78038 184
41.8005 197
41.82061 178
41.84072 183
41.86084 179
41.88095 171
41.90107 192
41.92118 221
41.94129 195
41.96141 208
41.98152 214
42.00163 236
42.02175 250
42.04186 250
42.06198 271
42.08209 312
42.1022 327
42.12232 360
42.14243 382
42.16254 493
42.18266 507
42.20277 617
42.22289 739
42.243 877
42.26311 950
42.28323 1093
42.30334 1253
42.32345 1275
42.34357 1248
42.36368 1347
42.38379 1241
42.40391 1112
42.42402 1067
42.44414 905
42.46425 731
42.48436 614
42.50448 549
42.52459 489
42.5447 379
42.56482 281
42.58493 236
42.60505 239
42.62516 198
42.64527 220
42.66539 198
42.6855 226
42.70561 185
42.72573 177
42.74584 177
42.76595 178
42.78607 190
42.80618 191
42.8263 188
42.84641 160
42.86652 160
42.88664 152
42.90675 151
42.92686 179
42.94698 167
42.96709 153
42.98721 187
43.00732 155
43.02743 176
43.04755 177
43.06766 156
43.08777 165
43.10789 175
43.128 151
43.14812 157
43.16823 137
43.18834 153
43.20846 150
43.22857 164
43.24868 168
43.2688 175
43.28891 149
43.30902 124
43.32914 170
43.34925 144
43.36937 150
43.38948 158
43.40959 167
43.42971 167
43.44982 183
43.46993 154
43.49005 143
43.51016 177
43.53028 152
43.55039 164
43.5705 146
43.59062 152
43.61073 166
43.63084 155
43.65096 180
43.67107 183
43.69119 160
43.7113 169
43.73141 163
43.75153 156
43.77164 157
43.79175 144
43.81187 152
43.83198 165
43.85209 132
43.87221 154
43.89232 135
43.91244 154
43.93255 164
43.95266 148
43.97278 152
43.99289 145
44.013 168
44.03312 161
44.05323 149
44.07335 142
44.09346 169
44.11357 157
44.13369 159
44.1538 166
44.17391 152
44.19403 142
44.21414 156
44.23426 143
44.25437 154
44.27448 147
44.2946 152
44.31471 138
44.33482 145
44.35494 153
44.37505 161
44.39516 161
44.41528 154
44.43539 139
44.45551 174
44.47562 171
44.49573 159
44.51585 181
44.53596 152
44.55607 169
44.57619 175
44.5963 164
44.61642 137
44.63653 137
44.65664 153
44.67676 175
44.69687 170
44.71698 169
44.7371 144
44.75721 157
44.77732 148
44.79744 153
44.81755 158
44.83767 170
44.85778 183
44.87789 171
44.89801 167
44.91812 153
44.93823 146
44.95835 151
44.97846 172
44.99858 162
45.01869 162
45.0388 165
45.05892 155
45.07903 159
45.09914 167
45.11926 163
45.13937 163
45.15949 158
45.1796 181
45.19971 177
45.21983 173
45.23994 213
45.26005 178
45.28017 179
45.30028 175
45.32039 202
45.34051 201
45.36062 213
45.38074 197
45.40085 224
45.42096 236
45.44108 277
45.46119 273
45.4813 333
45.50142 343
45.52153 465
45.54165 457
45.56176 530
45.58187 607
45.60199 680
45.6221 780
45.64221 872
45.66233 971
45.68244 962
45.70256 1009
45.72267 904
45.74278 822
45.7629 758
45.78301 682
45.80312 594
45.82324 539
45.84335 470
45.86346 401
45.88358 335
45.90369 280
45.92381 228
45.94392 233
45.96403 184
45.98415 182
46.00426 189
46.02437 171
46.04449 161
46.0646 164
46.08472 169
46.10483 152
46.12494 159
46.14506 164
46.16517 148
46.18528 135
46.2054 151
46.22551 144
46.24563 169
46.26574 158
46.28585 158
46.30597 130
46.32608 130
46.34619 137
46.36631 164
46.38642 151
46.40653 163
46.42665 157
46.44676 159
46.46688 147
46.48699 147
46.5071 159
46.52722 158
46.54733 145
46.56744 142
46.58756 137
46.60767 141
46.62779 129
46.6479 144
46.66801 148
46.68813 136
46.70824 174
46.72835 158
46.74847 143
46.76858 138
46.78869 144
46.80881 138
46.82892 139
46.84904 145
46.86915 130
46.88926 139
46.90938 147
46.92949 151
46.9496 152
46.96972 152
46.98983 142
47.00995 145
47.03006 174
47.05017 159
47.07029 159
47.0904 144
47.11051 125
47.13063 142
47.15074 163
47.17086 150
47.19097 158
47.21108 134
47.2312 163
47.25131 152
47.27142 148
47.29154 149
47.31165 144
47.33176 146
47.35188 176
47.37199 143
47.39211 165
47.41222 169
47.43233 132
47.45245 135
47.47256 128
47.49267 146
47.51279 153
47.5329 139
47.55302 142
47.57313 145
47.59324 140
47.61336 163
47.63347 130
47.65358 163
47.6737 155
47.69381 128
47.71393 126
47.73404 140
47.75415 162
47.77427 156
47.79438 146
47.81449 148
47.83461 144
47.85472 135
47.87483 135
47.89495 138
47.91506 138
47.93518 155
47.95529 135
47.9754 150
47.99552 163
48.01563 136
48.03574 145
48.05586 180
48.07597 138
48.09609 134
48.1162 136
48.13631 171
48.15643 152
48.17654 164
48.19665 145
48.21677 139
48.23688 150
48.257 165
48.27711 131
48.29722 142
48.31734 140
48.33745 162
48.35756 138
48.37768 144
48.39779 164
48.4179 138
48.43802 147
48.45813 133
48.47825 144
48.49836 149
48.51847 128
48.53859 148
48.5587 139
48.57881 164
48.59893 161
48.61904 151
48.63916 157
48.65927 156
48.67938 148
48.6995 157
48.71961 152
48.73972 148
48.75984 157
48.77995 153
48.80006 159
48.82018 154
48.84029 152
48.86041 156
48.88052 129
48.90063 169
48.92075 158
48.94086 154
48.96097 166
48.98109 179
49.0012 163
49.02132 156
49.04143 181
49.06154 181
49.08166 150
49.10177 164
49.12188 191
49.142 168
49.16211 154
49.18223 152
49.20234 175
49.22245 159
49.24257 162
49.26268 159
49.28279 159
49.30291 182
49.32302 167
49.34313 157
49.36325 170
49.38336 185
49.40348 185
49.42359 187
49.4437 198
49.46382 210
49.48393 203
49.50404 205
49.52416 243
49.54427 215
49.56439 227
49.5845 256
49.60461 284
49.62473 306
49.64484 313
49.66495 346
49.68507 365
49.70518 404
49.7253 471
49.74541 499
49.76552 579
49.78564 661
49.80575 779
49.82586 895
49.84598 1063
49.86609 1173
49.8862 1461
49.90632 1594
49.92643 1911
49.94655 2182
49.96666 2537
49.98677 2783
50.00689 2806
50.027 3035
50.04711 2952
50.06723 2785
50.08734 2608
50.10746 2261
50.12757 2041
50.14768 1778
50.1678 1438
50.18791 1334
50.20802 1190
50.22814 1001
50.24825 786
50.26837 588
50.28848 457
50.30859 367
50.32871 330
50.34882 297
50.36893 261
50.38905 287
50.40916 284
50.42927 286
50.44939 318
50.4695 292
50.48962 300
50.50973 303
50.52984 267
50.54996 307
50.57007 263
50.59018 264
50.6103 280
50.63041 240
50.65053 280
50.67064 253
50.69075 206
50.71087 213
50.73098 187
50.75109 177
50.77121 190
50.79132 212
50.81143 147
50.83155 194
50.85166 164
50.87178 161
50.89189 161
50.912 172
50.93212 151
50.95223 134
50.97234 164
50.99246 166
51.01257 140
51.03269 138
51.0528 141
51.07291 157
51.09303 150
51.11314 149
51.13325 145
51.15337 127
51.17348 162
51.1936 137
51.21371 140
51.23382 144
51.25394 138
51.27405 161
51.29416 141
51.31428 146
51.33439 130
51.3545 123
51.37462 149
51.39473 153
51.41485 140
51.43496 142
51.45507 158
51.47519 150
51.4953 132
51.51541 147
51.53553 144
51.55564 139
51.57576 135
51.59587 169
51.61598 147
51.6361 139
51.65621 137
51.67632 141
51.69644 131
51.71655 134
51.73667 141
51.75678 147
51.77689 137
51.79701 150
51.81712 132
51.83723 138
51.85735 146
51.87746 140
51.89757 125
51.91769 164
51.9378 150
51.95792 147
51.97803 126
51.99814 139
52.01826 141
52.03837 155
52.05848 143
52.0786 145
52.09871 138
52.11883 113
52.13894 133
52.15905 130
52.17917 144
52.19928 127
52.21939 139
52.23951 142
52.25962 132
52.27974 131
52.29985 130
52.31996 163
52.34008 159
52.36019 120
52.3803 137
52.40042 126
52.42053 139
52.44064 132
52.46076 129
52.48087 137
52.50099 142
52.5211 139
52.54121 148
52.56133 119
52.58144 144
52.60155 148
52.62167 129
52.64178 130
52.6619 125
52.68201 138
52.70212 135
52.72224 148
52.74235 160
52.76246 138
52.78258 137
52.80269 150
52.8228 142
52.84292 126
52.86303 148
52.88315 150
52.90326 135
52.92337 152
52.94349 136
52.9636 158
52.98371 150
53.00383 141
53.02394 139
53.04406 139
53.06417 151
53.08428 132
53.1044 168
53.12451 158
53.14462 144
53.16474 133
53.18485 155
53.20497 154
53.22508 134
53.24519 154
53.26531 153
53.28542 136
53.30553 158
53.32565 145
53.34576 179
53.36587 150
53.38599 157
53.4061 158
53.42622 151
53.44633 150
53.46644 169
53.48656 147
53.50667 150
53.52678 130
53.5469 140
53.56701 165
53.58713 152
53.60724 199
53.62735 146
53.64747 118
53.66758 136
53.68769 149
53.70781 163
53.72792 159
53.74804 149
53.76815 140
53.78826 168
53.80838 131
53.82849 158
53.8486 145
53.86872 152
53.88883 137
53.90894 158
53.92906 145
53.94917 168
53.96929 162
53.9894 145
54.00951 161
54.02963 165
54.04974 154
54.06985 186
54.08997 178
54.11008 161
54.1302 177
54.15031 171
54.17042 141
54.19054 167
54.21065 181
54.23076 155
54.25088 161
54.27099 191
54.29111 180
54.31122 171
54.33133 201
54.35145 185
54.37156 204
54.39167 203
54.41179 241
54.4319 240
54.45201 222
54.47213 261
54.49224 275
54.51236 296
54.53247 341
54.55258 358
54.5727 379
54.59281 454
54.61292 453
54.63304 533
54.65315 639
54.67327 749
54.69338 837
54.71349 922
54.73361 858
54.75372 888
54.77383 976
54.79395 904
54.81406 854
54.83417 809
54.85429 770
54.8744 607
54.89452 608
54.91463 577
54.93474 517
54.95486 496
54.97497 470
54.99508 445
55.0152 368
55.03531 326
55.05543 313
55.07554 330
55.09565 347
55.11577 406
55.13588 464
55.15599 441
55.17611 452
55.19622 507
55.21634 469
55.23645 472
55.25656 470
55.27668 470
55.29679 401
55.3169 360
55.33702 320
55.35713 297
55.37724 314
55.39736 313
55.41747 287
55.43759 239
55.4577 215
55.47781 213
55.49793 172
55.51804 151
55.53815 187
55.55827 150
55.57838 166
55.5985 163
55.61861 159
55.63872 162
55.65884 147
55.67895 141
55.69906 136
55.71918 148
55.73929 151
55.75941 136
55.77952 139
55.79963 150
55.81975 156
55.83986 150
55.85997 148
55.88009 144
55.9002 123
55.92031 132
55.94043 135
55.96054 150
55.98066 115
56.00077 157
56.02088 135
56.041 147
56.06111 131
56.08122 143
56.10134 137
56.12145 128
56.14157 137
56.16168 152
56.18179 133
56.20191 155
56.22202 117
56.24213 132
56.26225 135
56.28236 139
56.30248 138
56.32259 148
56.3427 130
56.36282 135
56.38293 140
56.40304 138
56.42316 131
56.44327 134
56.46338 120
56.4835 136
56.50361 132
56.52373 128
56.54384 145
56.56395 144
56.58407 150
56.60418 135
56.62429 107
56.64441 142
56.66452 150
56.68464 130
56.70475 151
56.72486 111
56.74498 128
56.76509 156
56.7852 116
56.80532 134
56.82543 163
56.84554 144
56.86566 146
56.88577 136
56.90589 144
56.926 154
56.94611 137
56.96623 158
56.98634 177
57.00645 159
57.02657 179
57.04668 153
57.0668 172
57.08691 184
57.10702 177
57.12714 187
57.14725 163
57.16736 171
57.18748 178
57.20759 167
57.22771 167
57.24782 161
57.26793 154
57.28805 154
57.30816 142
57.32827 151
57.34839 141
57.3685 159
57.38861 129
57.40873 144
57.42884 108
57.44896 106
57.46907 141
57.48918 135
57.5093 153
57.52941 140
57.54952 137
57.56964 151
57.58975 145
57.60987 148
57.62998 160
57.65009 128
57.67021 144
57.69032 146
57.71043 144
57.73055 161
57.75066 150
57.77078 129
57.79089 118
57.811 147
57.83112 126
57.85123 140
57.87134 150
57.89146 148
57.91157 150
57.93168 138
57.9518 128
57.97191 139
57.99203 143
58.01214 155
58.03225 156
58.05237 103
58.07248 132
58.09259 130
58.11271 136
58.13282 138
58.15294 125
58.17305 134
58.19316 129
58.21328 130
58.23339 140
58.2535 155
58.27362 139
58.29373 165
58.31385 129
58.33396 132
58.35407 134
58.37419 157
58.3943 137
58.41441 123
58.43453 159
58.45464 137
58.47475 161
58.49487 148
58.51498 153
58.5351 131
58.55521 133
58.57532 162
58.59544 141
58.61555 167
58.63566 168
58.65578 129
58.67589 123
58.69601 138
58.71612 126
58.73623 144
58.75635 146
58.77646 150
58.79657 148
58.81669 142
58.8368 162
58.85691 147
58.87703 143
58.89714 152
58.91726 153
58.93737 162
58.95748 156
58.9776 139
58.99771 120
59.01782 143
59.03794 141
59.05805 155
59.07817 139
59.09828 160
59.11839 160
59.13851 153
59.15862 152
59.17873 160
59.19885 168
59.21896 136
59.23908 167
59.25919 187
59.2793 178
59.29942 185
59.31953 185
59.33964 188
59.35976 214
59.37987 215
59.39998 229
59.4201 249
59.44021 250
59.46033 272
59.48044 273
59.50055 317
59.52067 347
59.54078 346
59.56089 409
59.58101 494
59.60112 523
59.62124 572
59.64135 710
59.66146 745
59.68158 889
59.70169 1014
59.7218 1207
59.74192 1412
59.76203 1547
59.78215 1722
59.80226 1864
59.82237 1918
59.84249 1941
59.8626 1937
59.88271 1835
59.90283 1615
59.92294 1488
59.94305 1302
59.96317 1189
59.98328 1118
60.0034 1057
60.02351 1000
60.04362 914
60.06374 752
60.08385 601
60.10396 481
60.12408 325
60.14419 282
60.16431 268
60.18442 252
60.20453 206
60.22465 212
60.24476 208
60.26487 204
60.28499 195
60.3051 185
60.32522 160
60.34533 160
60.36544 181
60.38556 155
60.40567 163
60.42578 167
60.4459 161
60.46601 164
60.48612 168
60.50624 156
60.52635 158
60.54647 176
60.56658 154
60.58669 151
60.60681 150
60.62692 157
60.64703 156
60.66715 162
60.68726 150
60.70738 142
60.72749 138
60.7476 150
60.76772 170
60.78783 129
60.80794 140
60.82806 146
60.84817 150
60.86828 149
60.8884 152
60.90851 153
60.92863 139
60.94874 169
60.96885 159
60.98897 156
61.00908 142
61.02919 142
61.04931 149
61.06942 137
61.08954 132
61.10965 141
61.12976 136
61.14988 128
61.16999 136
61.1901 147
61.21022 149
61.23033 160
61.25045 129
61.27056 128
61.29067 147
61.31079 158
61.3309 150
61.35101 126
61.37113 131
61.39124 144
61.41135 157
61.43147 141
61.45158 134
61.4717 143
61.49181 175
61.51192 139
61.53204 133
61.55215 150
61.57226 147
61.59238 151
61.61249 165
61.63261 149
61.65272 147
61.67283 164
61.69295 161
61.71306 145
61.73317 182
61.75329 131
61.7734 147
61.79352 156
61.81363 143
61.83374 136
61.85386 139
61.87397 150
61.89408 184
61.9142 163
61.93431 136
61.95442 150
61.97454 153
61.99465 141
62.01477 162
62.03488 159
62.05499 159
62.07511 154
62.09522 151
62.11533 152
62.13545 156
62.15556 179
62.17568 156
62.19579 146
62.2159 152
62.23602 147
62.25613 146
62.27624 147
62.29636 136
62.31647 156
62.33659 129
62.3567 162
62.37681 159
62.39693 123
62.41704 135
62.43715 151
62.45727 119
62.47738 139
62.49749 150
62.51761 132
62.53772 150
62.55784 149
62.57795 130
62.59806 108
62.61818 153
62.63829 156
62.6584 139
62.67852 144
62.69863 122
62.71875 151
62.73886 148
62.75897 146
62.77909 123
62.7992 132
62.81931 129
62.83943 133
62.85954 135
62.87965 131
62.89977 135
62.91988 134
62.94 150
62.96011 129
62.98022 145
63.00034 143
63.02045 137
63.04056 139
63.06068 147
63.08079 126
63.10091 158
63.12102 140
63.14113 142
63.16125 141
63.18136 162
63.20147 124
63.22159 145
63.2417 115
63.26182 169
63.28193 132
63.30204 137
63.32216 141
63.34227 168
63.36238 141
63.3825 158
63.40261 141
63.42272 134
63.44284 138
63.46295 161
63.48307 150
63.50318 149
63.52329 157
63.54341 162
63.56352 184
63.58363 179
63.60375 188
63.62386 177
63.64398 176
63.66409 175
63.6842 224
63.70432 223
63.72443 241
63.74454 261
63.76466 286
63.78477 333
63.80489 337
63.825 383
63.84511 398
63.86523 415
63.88534 449
63.90545 468
63.92557 473
63.94568 475
63.96579 466
63.98591 400
64.00602 340
64.02614 361
64.04625 295
64.06636 293
64.08648 293
64.10659 296
64.1267 288
64.14682 255
64.16693 219
64.18705 196
64.20716 190
64.22727 162
64.24739 170
64.2675 148
64.28761 153
64.30773 137
64.32784 167
64.34796 135
64.36807 159
64.38818 145
64.4083 135
64.42841 130
64.44852 162
64.46864 137
64.48875 149
64.50886 142
64.52898 150
64.54909 146
64.56921 123
64.58932 144
64.60943 127
64.62955 139
64.64966 143
64.66977 119
64.68989 126
64.71 144
64.73012 124
64.75023 144
64.77034 145
64.79046 116
64.81057 136
64.83068 144
64.8508 139
64.87091 148
64.89102 129
64.91114 132
64.93125 128
64.95137 141
64.97148 147
64.99159 137
65.01171 136
65.03182 134
65.05193 129
65.07205 130
65.09216 154
65.11228 146
65.13239 124
65.1525 135
65.17262 144
65.19273 142
65.21284 171
65.23296 130
65.25307 141
65.27319 133
65.2933 162
65.31341 156
65.33353 154
65.35364 148
65.37375 145
65.39387 164
65.41398 149
65.43409 176
65.45421 172
65.47432 124
65.49444 172
65.51455 202
65.53466 194
65.55478 182
65.57489 196
65.595 204
65.61512 212
65.63523 242
65.65535 208
65.67546 223
65.69557 225
65.71569 206
65.7358 218
65.75591 172
65.77603 185
65.79614 190
65.81626 187
65.83637 182
65.85648 184
65.8766 186
65.89671 163
65.91682 170
65.93694 154
65.95705 161
65.97716 142
65.99728 149
66.01739 147
66.03751 132
66.05762 140
66.07773 139
66.09785 132
66.11796 140
66.13807 136
66.15819 127
66.1783 135
66.19842 154
66.21853 145
66.23864 144
66.25876 176
66.27887 149
66.29898 154
66.3191 137
66.33921 156
66.35933 142
66.37944 146
66.39955 171
66.41967 126
66.43978 129
66.45989 140
66.48001 137
66.50012 137
66.52023 137
66.54035 141
66.56046 149
66.58058 166
66.60069 169
66.6208 128
66.64092 157
66.66103 143
66.68114 145
66.70126 160
66.72137 139
66.74149 161
66.7616 151
66.78171 169
66.80183 155
66.82194 154
66.84205 159
66.86217 162
66.88228 158
66.90239 188
66.92251 157
66.94262 160
66.96274 155
66.98285 180
67.00296 155
67.02308 173
67.04319 175
67.0633 172
67.08342 191
67.10353 185
67.12365 180
67.14376 220
67.16387 196
67.18399 191
67.2041 224
67.22421 238
67.24433 242
67.26444 244
67.28456 245
67.30467 284
67.32478 294
67.3449 329
67.36501 360
67.38512 400
67.40524 436
67.42535 471
67.44546 543
67.46558 614
67.48569 713
67.50581 827
67.52592 878
67.54603 975
67.56615 1099
67.58626 1168
67.60637 1281
67.62649 1274
67.6466 1267
67.66672 1195
67.68683 1129
67.70694 1002
67.72706 980
67.74717 983
67.76728 1021
67.7874 1029
67.80751 1102
67.82763 1072
67.84774 1139
67.86785 1239
67.88797 1153
67.90808 1255
67.92819 1271
67.94831 1381
67.96842 1541
67.98853 1681
68.00865 1776
68.02876 1837
68.04888 1855
68.06899 1860
68.0891 1682
68.10922 1618
68.12933 1562
68.14944 1602
68.16956 1544
68.18967 1588
68.20979 1595
68.2299 1428
68.25001 1374
68.27013 1192
68.29024 1009
68.31035 864
68.33047 757
68.35058 685
68.3707 654
68.39081 635
68.41092 526
68.43104 541
68.45115 462
68.47126 376
68.49138 312
68.51149 282
68.5316 246
68.55172 240
68.57183 209
68.59195 202
68.61206 187
68.63217 175
68.65229 137
68.6724 186
68.69251 163
68.71263 168
68.73274 201
68.75286 169
68.77297 173
68.79308 145
68.8132 162
68.83331 147
68.85342 148
68.87354 153
68.89365 148
68.91376 136
68.93388 154
68.95399 155
68.97411 153
68.99422 128
69.01433 144
69.03445 150
69.05456 140
69.07467 127
69.09479 148
69.1149 149
69.13502 158
69.15513 149
69.17524 155
69.19536 126
69.21547 152
69.23558 166
69.2557 125
69.27581 144
69.29593 142
69.31604 138
69.33615 140
69.35627 142
69.37638 144
69.39649 119
69.41661 136
69.43672 160
69.45683 144
69.47695 155
69.49706 139
69.51718 128
69.53729 139
69.5574 147
69.57752 134
69.59763 130
69.61774 144
69.63786 122
69.65797 139
69.67809 148
69.6982 135
69.71831 125
69.73843 148
69.75854 143
69.77865 106
69.79877 140
69.81888 140
69.839 141
69.85911 129
69.87922 125
69.89934 141
69.91945 147
69.93956 122
69.95968 132
69.97979 128
69.9999 143
70.02002 145
70.04013 119
70.06025 125
70.08036 127
70.10047 126
70.12059 138
70.1407 130
70.16081 160
70.18093 135
70.20104 124
70.22116 135
70.24127 124
70.26138 129
70.2815 129
70.30161 155
70.32172 134
70.34184 157
70.36195 128
70.38207 148
70.40218 139
70.42229 150
70.44241 129
70.46252 119
70.48263 139
70.50275 117
70.52286 132
70.54297 143
70.56309 142
70.5832 125
70.60332 121
70.62343 145
70.64354 133
70.66366 138
70.68377 131
70.70388 154
70.724 154
70.74411 148
70.76423 127
70.78434 126
70.80445 136
70.82457 131
70.84468 142
70.86479 129
70.88491 123
70.90502 146
70.92513 135
70.94525 135
70.96536 140
70.98548 119
71.00559 136
71.0257 149
71.04582 134
71.06593 118
71.08604 137
71.10616 126
71.12627 126
71.14639 147
71.1665 132
71.18661 113
71.20673 120
71.22684 145
71.24695 130
71.26707 142
71.28718 141
71.3073 124
71.32741 115
71.34752 134
71.36764 131
71.38775 128
71.40786 136
71.42798 144
71.44809 143
71.4682 121
71.48832 139
71.50843 124
71.52855 127
71.54866 127
71.56877 126
71.58889 135
71.609 117
71.62911 118
71.64923 133
71.66934 155
71.68946 121
71.70957 146
71.72968 130
71.7498 132
71.76991 143
71.79002 139
71.81014 122
71.83025 144
71.85037 126
71.87048 156
71.89059 123
71.91071 133
71.93082 137
71.95093 149
71.97105 151
71.99116 134
72.01127 112
72.03139 122
72.0515 141
72.07162 132
72.09173 129
72.11184 126
72.13196 117
72.15207 122
72.17218 125
72.1923 147
72.21241 146
72.23253 135
72.25264 118
72.27275 118
72.29287 129
72.31298 135
72.33309 123
72.35321 145
72.37332 144
72.39344 130
72.41355 120
72.43366 132
72.45378 117
72.47389 122
72.494 133
72.51412 129
72.53423 139
72.55434 113
72.57446 126
72.59457 133
72.61469 129
72.6348 131
72.65491 132
72.67503 121
72.69514 146
72.71525 144
72.73537 133
72.75548 124
72.7756 144
72.79571 135
72.81582 150
72.83594 159
72.85605 165
72.87616 161
72.89628 133
72.91639 142
72.9365 163
72.95662 164
72.97673 172
72.99685 192
73.01696 202
73.03707 176
73.05719 188
73.0773 195
73.09741 205
73.11753 237
73.13764 263
73.15776 282
73.17787 272
73.19798 294
73.2181 337
73.23821 367
73.25832 422
73.27844 496
73.29855 479
73.31867 545
73.33878 563
73.35889 518
73.37901 484
73.39912 468
73.41923 430
73.43935 359
73.45946 371
73.47957 324
73.49969 325
73.5198 334
73.53992 328
73.56003 324
73.58014 332
73.60026 268
73.62037 275
73.64048 240
73.6606 205
73.68071 178
73.70083 167
73.72094 158
73.74105 147
73.76117 130
73.78128 126
73.80139 140
73.82151 152
73.84162 135
73.86174 142
73.88185 144
73.90196 148
73.92208 152
73.94219 145
73.9623 135
73.98242 137
74.00253 109
74.02264 144
74.04276 144
74.06287 144
74.08299 152
74.1031 133
74.12321 132
74.14333 135
74.16344 145
74.18355 128
74.20367 137
74.22378 123
74.2439 137
74.26401 140
74.28412 139
74.30424 106
74.32435 125
74.34446 137
74.36458 144
74.38469 130
74.40481 124
74.42492 129
74.44503 132
74.46515 114
74.48526 147
74.50537 122
74.52549 135
74.5456 138
74.56571 159
74.58583 132
74.60594 135
74.62606 132
74.64617 145
74.66628 128
74.6864 131
74.70651 145
74.72662 142
74.74674 151
74.76685 122
74.78697 155
74.80708 133
74.82719 147
74.84731 152
74.86742 169
74.88753 116
74.90765 137
74.92776 164
74.94787 167
74.96799 159
74.9881 134
75.00822 157
