3.00117 22881.3773096434
3.02128 22944.6441245009
3.0414 21901
3.06151 21639.9017641213
3.08162 21111.1924494699
3.10174 20309.9187673951
3.12185 19936.3384367272
3.14197 19266.6437702296
3.16208 18986.5823572662
3.18219 18174.249697038
3.20231 17996.8132079274
3.22242 17338.4999339101
3.24253 17033.2505008192
3.26265 16335.7655875681
3.28276 16036.9933881878
3.30288 15347.467620434
3.32299 15017.3377526943
3.3431 14174
3.36322 14295.8459380849
3.38333 13580.7646097405
3.40344 13088.6942044629
3.42356 12980.7152658148
3.44367 12412.6513878326
3.46379 12206.1086865659
3.4839 11779
3.50401 11292.9181904378
3.52413 11127.9494674841
3.54424 10142.0573123321
3.56435 10308.6512856932
3.58447 9962.93488479456
3.60458 9379.42070774491
3.62469 9099.13547880704
3.64481 8822.92246731804
3.66492 8707.72423952377
3.68504 8257.14126503758
3.70515 8059.14476502092
3.72526 8051.83352273911
3.74538 7337.54365976837
3.76549 7191.98687449418
3.7856 7090
3.80572 6732.80065917059
3.82583 6627.57732467707
3.84595 6158.02894442471
3.86606 5984.16647437177
3.88617 5830.38546337667
3.90629 5547.096272279
3.9264 5373
3.94651 4948.87823967014
3.96663 4928.97974342631
3.98674 4754.43456029235
4.00686 4483.36748476745
4.02697 4326.38868933296
4.04708 4034.1193427065
4.0672 4118
4.08731 4064.87677637549
4.10742 3707.64712206038
4.12754 3470.77082898784
4.14765 3406.22145557843
4.16776 3308.03259062095
4.18788 3303.15451076816
4.20799 3007.13168766276
4.22811 2906.01144294219
4.24822 2923.92395532755
4.26833 2775.83916039157
4.28845 2700.59873043665
4.30856 2487.22310368138
4.32867 2493.01806791793
4.34879 2398.05277742163
4.3689 2397
4.38902 2499.81825748908
4.40913 2129.67118949351
4.42924 2187.25266956884
4.44936 2185.24278331763
4.46947 2066.00332835201
4.48958 2122.05865920839
4.5097 1975
4.52981 2038.97348452835
4.54992 1867.92635830635
4.57004 1953.18332538642
4.59015 1918.35783544959
4.61027 1758.15109950696
4.63038 1738.98881041691
4.65049 1719.03026578298
4.67061 1686.03647017302
4.69072 1748.85831719647
4.71083 1521.00084953857
4.73095 1720.13617216145
4.75106 1547.28087805293
4.77118 1567.94585020028
4.79129 1565.01131755997
4.8114 1540
4.83152 1477.95149691782
4.85163 1462.01274402151
4.87174 1461.9335596672
4.89186 1369.3037614869
4.91197 1257.95070778206
4.93209 1388.96055505313
4.9522 1345
4.97231 1293.99620154043
4.99243 1295.95920288086
5.01254 1249.9696476438
5.03265 1261.04100283418
5.05277 1209.06194229977
5.07288 1205.98273521556
5.09299 1201.02585116384
5.11311 1117.96351119905
5.13322 1120.10208090562
5.15334 1219.93828371558
5.17345 1065.64649709252
5.19356 1044.85107957629
5.21368 1101.05130240275
5.23379 988.019431896072
5.2539 1035
5.27402 981.982891235991
5.29413 1034.08455265129
5.31425 1031.85131545992
5.33436 968.030218827422
5.35447 982.042996819854
5.37459 931.988647579775
5.3947 996
5.41481 901.984926752846
5.43493 959.046278817295
5.45504 930.985552520681
5.47516 959.004185047846
5.49527 900.115360784681
5.51538 859.985803195713
5.5355 904
5.55561 905.99803217619
5.57572 877.906311684292
5.59584 762.903415488705
5.61595 798.872538697479
5.63606 803.072280295035
5.65618 764.010560832586
5.67629 787.98327694134
5.69641 803.998069935863
5.71652 795.002882275569
5.73663 820.060312526262
5.75675 833.881358686353
5.77686 757.075953925668
5.79697 769.986510628854
5.81709 740.024300402706
5.8372 717
5.85732 772.034910167247
5.87743 755.923794567284
5.89754 699.906491082863
5.91766 682.959769964529
5.93777 712.991969317428
5.95788 696.002511454596
5.978 715
5.99811 705.995066715237
6.01823 700.980699411705
6.03834 686.003177374121
6.05845 706.939458349092
6.07857 706.058286345232
6.09868 654.026724624518
6.11879 657.00033451323
6.13891 637.990830060224
6.15902 639.020373321393
6.17913 657.994855746516
6.19925 650.065306382546
6.21936 686.034971798623
6.23948 620.045825976151
6.25959 619.99816249766
6.2797 608
6.29982 617.006193153295
6.31993 628.059455213137
6.34004 660.933296077675
6.36016 596.002793610458
6.38027 665.918608553657
6.40039 655.019618417588
6.4205 636
6.44061 653.99156718496
6.46073 608.960317521786
6.48084 615.01310591214
6.50095 623.888206491048
6.52107 659.081549808247
6.54118 558.023630090744
6.56129 625.975050655181
6.58141 609.989670200344
6.60152 608.982115259615
6.62164 581.011199031317
6.64175 628.131716556631
6.66186 652.009396770931
6.68198 629.031253731872
6.70209 601.011239586032
6.7222 599
6.74232 643.021383601276
6.76243 621.926911259634
6.78255 588.023454385259
6.80266 616.013238221307
6.82277 579.014811368388
6.84289 597.005443327375
6.863 564
6.88311 599.992532132891
6.90323 550.013851696785
6.92334 628.124456439824
6.94346 606.181239296522
6.96357 525.010693636575
6.98368 586.93822450742
7.0038 611
7.02391 639.013131579276
7.04402 647.988531860263
7.06414 616.907629805198
7.08425 568.104921147234
7.10436 551.958879047099
7.12448 580.004793730762
7.14459 550.003597715806
7.16471 583.021226317459
7.18482 595.974575211383
7.20493 556.972276036563
7.22505 573.077406572198
7.24516 600.948755584939
7.26527 618.994792233659
7.28539 614.998800001091
7.3055 615
7.32562 566.954415868189
7.34573 544.997802531309
7.36584 544.971684430118
7.38596 540.908051679552
7.40607 598.017364847917
7.42618 539.005089433953
7.4463 583
7.46641 513.991666179842
7.48653 580.106742893254
7.50664 595.952806550667
7.52675 564.060741696895
7.54687 557.98852562969
7.56698 566.99744301715
7.58709 564.998473275162
7.60721 563.988119156435
7.62732 532.996442412694
7.64743 544.972078848584
7.66755 517.075420446568
7.68766 589.936119431771
7.70778 560.030035097072
7.72789 558.00365120501
7.748 543
7.76812 574.020983437306
7.78823 577.013382793881
7.80834 584.952353889508
7.82846 536.071071249141
7.84857 523.027913824861
7.86869 510.982298270527
7.8888 585
7.90891 597.988230330991
7.92903 562.949770283547
7.94914 549.022698498305
7.96925 564.022269270239
7.98937 544.981510704128
8.00948 576.004792689217
8.0296 530
8.04971 515.98824270368
8.06982 503.051175131795
8.08994 591.085782287762
8.11005 555.836577022663
8.13016 516.009911554154
8.15028 547.938208037216
8.17039 593.006245863165
8.1905 533
8.21062 521.023361320954
8.23073 542.98928253426
8.25085 513.960325888893
8.27096 529.936533868659
8.29107 554.983143633316
8.31119 554.00246075673
8.3313 548
8.35141 533.997464003192
8.37153 530.972935822288
8.39164 524.094808008274
8.41176 604.902883811667
8.43187 586.08589757618
8.45198 548.986494024513
8.4721 585
8.49221 552.999298954433
8.51232 588.014721215697
8.53244 565.962300581306
8.55255 569.98255021419
8.57266 569.994092635074
8.59278 569.021802902956
8.61289 538.005582058508
8.63301 558.016781445617
8.65312 585.017166966179
8.67323 576.931538069781
8.69335 537.055238022692
8.71346 600.942630972454
8.73357 573.044660311732
8.75369 582.981711062415
8.7738 604
8.79392 556.982308569337
8.81403 576.017301355422
8.83414 564.990557611034
8.85426 582.943976234193
8.87437 592.040261361109
8.89448 553.009950990779
8.9146 575
8.93471 556.979508207976
8.95483 539.061331125742
8.97494 589.952364118742
8.99505 508.094079565401
9.01517 540.957439620852
9.03528 537.986261712159
9.05539 564.007381595689
9.07551 516.991397297704
9.09562 544.024061444576
9.11573 532.952839749005
9.13585 516.045425295813
9.15596 545.010851058415
9.17608 517.9906475468
9.19619 567.981755515992
9.2163 547
9.23642 487.999650127895
9.25653 539.069833143708
9.27664 547.985990922657
9.29676 532.078385608465
9.31687 493.000236612041
9.33699 527.986238200382
9.3571 524
9.37721 519.007656202856
9.39733 542.014855292045
9.41744 543.033218566942
9.43755 566.012042739025
9.45767 527.067634236106
9.47778 508.984987306981
9.4979 519
9.51801 465.004893869494
9.53812 525.017936650134
9.55824 485.96176647442
9.57835 521.117867939869
9.59846 551.945777472577
9.61858 573.997907777639
9.63869 560.00574577328
9.6588 545
9.67892 493.985347917496
9.69903 536.112163639147
9.71915 585.975195746693
9.73926 533.087663915874
9.75937 528.976790261564
9.77949 533.009079407221
9.7996 507
9.81971 524.012538591873
9.83983 542.018883171595
9.85994 541.956425008899
9.88006 518.987937900482
9.90017 547.976373427526
9.92028 527.044966987945
9.9404 501
9.96051 558.020866864149
9.98062 552.964211749374
10.00074 526.011837602257
10.02085 543.044093238704
10.04097 501.014805262766
10.06108 530.978972480149
10.08119 524.0027508952
10.10131 526.994508411023
10.12142 509.004622286775
10.14153 535.024755226055
10.16165 530.987235084328
10.18176 519.087041497929
10.20187 478.96374482119
10.22199 552.976123601888
10.2421 526
10.26222 463.986176879249
10.28233 498.070309874945
10.30244 521.998732084435
10.32256 513.993253345545
10.34267 523.014748023856
10.36278 510.972881942185
10.3829 556
10.40301 513.991677045577
10.42313 549.069323131923
10.44324 571.003553201029
10.46335 562.036179132179
10.48347 534.081262986253
10.50358 484.001518640395
10.52369 516.99538188418
10.54381 490.992784290725
10.56392 502.003829709087
10.58403 493.007522235816
10.60415 529.142347914793
10.62426 563.048039242671
10.64438 501.044714289669
10.66449 507.980704914248
10.6846 542
10.70472 539.003380370941
10.72483 544.974239464307
10.74494 505.93321736923
10.76506 502.949235999066
10.78517 520.039298192964
10.80529 462.021296338877
10.8254 474
10.84551 530.004251756537
10.86563 508.012274314559
10.88574 542.995730148794
10.90585 505.021085426142
10.92597 515.071422986151
10.94608 444.979845926348
10.9662 546
10.98631 517.980928762035
11.00642 519.013157040802
11.02654 526.018781572267
11.04665 542.9482804246
11.06676 555.011504803679
11.08688 540.006447328092
11.10699 539.008126161113
11.1271 522
11.14722 565.022734043592
11.16733 549.961962360612
11.18745 541.017831239186
11.20756 554.976656244499
11.22767 556.013746423472
11.24779 543.005379841544
11.2679 548
11.28801 570.990507935892
11.30813 537.022186559674
11.32824 592.045858069257
11.34836 548.146353779171
11.36847 519.917356314993
11.38858 602.98360464091
11.4087 536
11.42881 527.023380970987
11.44892 581.019761464192
11.46904 555.921032788248
11.48915 539.960264483236
11.50927 582.915142024966
11.52938 610.033240444655
11.54949 546.016871632522
11.56961 570.024358559223
11.58972 614.041800179967
11.60983 632.958054595923
11.62995 576.898323678422
11.65006 575.958629318827
11.67017 591.995673258562
11.69029 584.004113725433
11.7104 582
11.73052 586.013463680103
11.75063 607.030951825234
11.77074 614.980977705105
11.79086 608.953435730645
11.81097 658.928520718905
11.83108 669.034664023906
11.8512 618
11.87131 628.018433847378
11.89143 665.035922529181
11.91154 671.997072089008
11.93165 682.911630350726
11.95177 717.008739970032
11.97188 675.035595817174
11.99199 675.987130281009
12.01211 698.000601145372
12.03222 706.059017273963
12.05234 785.045057864325
12.07245 737.863934846142
12.09256 738.88452130445
12.11268 792.015260186714
12.13279 745.987740854592
12.1529 809
12.17302 704.982356571974
12.19313 794.088187680677
12.21324 771.963810820694
12.23336 788.008793400817
12.25347 739.094035132688
12.27359 717.976896859958
12.2937 781
12.31381 741.00517857132
12.33393 811.067826355233
12.35404 774.81927432393
12.37415 708.969587007833
12.39427 772.945752161406
12.41438 757.013287319249
12.4345 748
12.45461 665.986250772433
12.47472 699.0216172586
12.49484 664.875557313143
12.51495 627.961017422203
12.53506 665.993661652538
12.55518 605.096385956687
12.57529 549.981875425459
12.5954 634
12.61552 603.97421083144
12.63563 617.022461526762
12.65575 621.041490632545
12.67586 640.025452846741
12.69597 598.051614029641
12.71609 579.015918322893
12.7362 536
12.75631 554.025224658195
12.77643 582.942524200793
12.79654 512.96006382065
12.81666 554.93128289691
12.83677 549.015279091969
12.85688 552.999601682575
12.877 548
12.89711 545.978054604044
12.91722 492.002724405468
12.93734 533.994736743976
12.95745 481.061925190478
12.97757 523.892177797819
12.99768 554.044945932684
13.01779 474.020482354964
13.03791 489.007315712735
13.05802 480.000223308821
13.07813 505.048541008061
13.09825 524.004021731553
13.11836 495.136480344867
13.13847 429.017798775349
13.15859 488.951369973521
13.1787 553
13.19882 490.93751885204
13.21893 472.02335629489
13.23904 481.946802855257
13.25916 442.991049853007
13.27927 494.928394565296
13.29938 496.03705049371
13.3195 458
13.33961 476.008247583763
13.35973 486.041077976791
13.37984 514.980914941595
13.39995 470.091521990472
13.42007 472.953744217108
13.44018 494.015260110691
13.46029 472.984813187054
13.48041 518.984077275755
13.50052 442.004283131917
13.52064 530.095924527612
13.54075 502.962797341835
13.56086 525.006696782995
13.58098 490.010432308107
13.60109 534.96261009916
13.6212 582
13.64132 532.97592926588
13.66143 559.06312451476
13.68154 567.92013369218
13.70166 507.074048414114
13.72177 514.95440846372
13.74189 533.003528316618
13.762 506
13.78211 495.004744865587
13.80223 502.97302306682
13.82234 472.993234929144
13.84245 505.899618690846
13.86257 513.056990815381
13.88268 455.040077983084
13.9028 448
13.92291 463.02368108901
13.94302 515.006422291239
13.96314 470.901111953753
13.98325 450.005911560325
14.00336 458.95321324596
14.02348 490.96897152604
14.04359 490.02746365253
14.06371 413.979517891202
14.08382 426.027935214685
14.10393 459.095396134661
14.12405 515.965790926064
14.14416 440.130392854727
14.16427 430.968080273932
14.18439 459.980208761992
14.2045 482
14.22461 430.991754946847
14.24473 449.996866039791
14.26484 426.019366901714
14.28496 467.966445806553
14.30507 448.017102834478
14.32518 456.007099063622
14.3453 449
14.36541 502.987881794911
14.38552 428.994196369048
14.40564 494.041848420269
14.42575 454.008229141705
14.44587 493.016372678335
14.46598 424.04219680777
14.48609 436.993831403273
14.50621 429.003900518466
14.52632 453.004295909043
14.54643 434.989195510468
14.56655 442.986918344614
14.58666 422.021148211976
14.60677 430.98225662007
14.62689 443.98553750386
14.647 466
14.66712 418.988895996592
14.68723 442.998654251805
14.70734 417.016998625633
14.72746 458.971266362255
14.74757 441.98745422465
14.76768 475.000285153351
14.7878 431
14.80791 425.005200832847
14.82803 441.042134978518
14.84814 468.011252329292
14.86825 455.021930960296
14.88837 460.98716037815
14.90848 459.013523526195
14.92859 433.018988827654
14.94871 407.005138164132
14.96882 450.047721633698
14.98894 476.009413381745
15.00905 482.072249602713
15.02916 508.049587684872
15.04928 447.034272759996
15.06939 458.992261279231
15.0895 462
15.10962 497.029432022947
15.12973 504.990065482376
15.14984 505.041873235722
15.16996 532.987526348561
15.19007 515.024404810734
15.21019 508.007917611332
15.2303 502
15.25041 553.994912140715
15.27053 472.869704559215
15.29064 433.999513166556
15.31075 447.966964856688
15.33087 451.002910008669
15.35098 454.984539130435
15.3711 474
15.39121 468.995788665602
15.41132 452.962296960725
15.43144 422.037960601858
15.45155 465.006276333256
15.47166 411.083619298855
15.49178 420.961912450203
15.51189 456.986693466919
15.53201 481.017302074093
15.55212 504.978229995173
15.57223 445.921646930538
15.59235 424.980273670636
15.61246 422.969676440195
15.63257 448.971719163864
15.65269 449.006435340736
15.6728 432
15.69291 415.993317510348
15.71303 424.071607693603
15.73314 466.949475407175
15.75326 403.018048532042
15.77337 454.961067556001
15.79348 436.993017994901
15.8136 475
15.83371 438.988236888107
15.85382 452.019943580223
15.87394 451.964943098173
15.89405 434.008585929985
15.91417 445.979801689775
15.93428 441.029500785682
15.95439 417.989472249342
15.97451 455.994933849295
15.99462 418.019350457914
16.01473 485.029392587955
16.03485 442.941093566718
16.05496 471.92845871219
16.07508 471.035977052528
16.09519 429.010018154399
16.1153 432
16.13542 424.006565188476
16.15553 437.988119735748
16.17564 425.056010657253
16.19576 476.97613195327
16.21587 443.03360484778
16.23598 455.985181454224
16.2561 440
16.27621 392.990196477189
16.29633 417.083571571194
16.31644 465.023389920332
16.33655 452.987891180788
16.35667 465.046744272959
16.37678 400.038071872238
16.39689 418.977033700312
16.41701 460.01668023417
16.43712 478.999688244156
16.45724 456.917595346038
16.47735 435.0846184554
16.49746 491.979802900878
16.51758 444.047704641833
16.53769 435.993223276878
16.5578 452
16.57792 461.994804990053
16.59803 444.973752906742
16.61814 438.007213273934
16.63826 443.999854265065
16.65837 447.961199150555
16.67849 484.990670327885
16.6986 473
16.71871 461.0065568651
16.73883 495.058675295848
16.75894 505.929153434597
16.77905 446.107881938646
16.79917 443.964865154986
16.81928 462.002942332778
16.8394 448
16.85951 462.000647747336
16.87962 455.015272903193
16.89974 473.946873164307
16.91985 418.047800115416
16.93996 452.918846144008
16.96008 453.03858967854
16.98019 415.998237411284
17.00031 457.018142892263
17.02042 461.988512328648
17.04053 447.974145609049
17.06065 437.014617597805
17.08076 455.964785619729
17.10087 451.051895956658
17.12099 416.997711711391
17.1411 459
17.16121 465.99067229514
17.18133 450.011566495343
17.20144 476.035700303225
17.22156 471.032773167319
17.24167 452.035892218563
17.26178 441.974479659292
17.2819 473
17.30201 414.97829535345
17.32212 436.079063841352
17.34224 514.045406090054
17.36235 478.110857416048
17.38247 466.978313286623
17.40258 488.98084662672
17.42269 495.00372864977
17.44281 470.978486853023
17.46292 424.970605851313
17.48303 423.026199782891
17.50315 447.063235588326
17.52326 460.016658516938
17.54338 448.986170824982
17.56349 486.983261171861
17.5836 480
17.60372 438.041179312454
17.62383 532.06912371426
17.64394 502.935862577939
17.66406 489.091622550242
17.68417 422.039063465939
17.70428 454.951930457112
17.7244 480
17.74451 486.008536645743
17.76463 508.012643577684
17.78474 485.897955701354
17.80485 446.965532406761
17.82497 492.974551895905
17.84508 460.042567892763
17.86519 452.983053222033
17.88531 503.017603781606
17.90542 502.974401821345
17.92554 494.080792497331
17.94565 539.936824727022
17.96576 468.033476799593
17.98588 519.967135120499
18.00599 495.017015149468
18.0261 491
18.04622 510.011905235093
18.06633 502.957074447741
18.08645 470.965200989998
18.10656 471.0219975265
18.12667 456.975650898787
18.14679 493.992774776627
18.1669 478
18.18701 481.997497485967
18.20713 462.979790998199
18.22724 464.010567044112
18.24735 467.981988216419
18.26747 475.002027567155
18.28758 461.022610048009
18.3077 446
18.32781 482.032120405235
18.34792 525.976513305753
18.36804 460.933571923693
18.38815 482.930095733609
18.40826 479.049577228639
18.42838 464.982405964505
18.44849 499.991531493019
18.46861 481.982729209169
18.48872 457.995914364396
18.50883 469.01826257956
18.52895 477.030216173835
18.54906 490.989949349135
18.56917 478.04394798751
18.58929 454.997595203681
18.6094 490
18.62951 506.983565698349
18.64963 457.985217574621
18.66974 478.978082577935
18.68986 440.993702057621
18.70997 491.944002193496
18.73008 488.011974455045
18.7502 481
18.77031 449.993788205039
18.79042 472.045190477853
18.81054 502.979615337658
18.83065 458.114538211423
18.85077 448.951155815195
18.87088 498.962362889046
18.89099 512.99598840491
18.91111 528.008426689563
18.93122 514.930438668821
18.95133 438.993412779906
18.97145 501.114738125665
18.99156 505.959337039146
19.01168 539.014211785274
19.03179 490.005509375975
19.0519 525
19.07202 495.963372185286
19.09213 500.083569160255
19.11224 545.926251207346
19.13236 464.030367850797
19.15247 537.888641474194
19.17258 535.06960489943
19.1927 462
19.21281 503.031726261051
19.23293 543.015335153915
19.25304 517.880281802115
19.27315 470.963610270329
19.29327 534.921140423044
19.31338 531.045562584584
19.33349 499.987318042657
19.35361 556.009256938011
19.37372 524.975011347122
19.39384 537.049786016979
19.41395 547.984992384038
19.43406 553.900985056064
19.45418 614.99227194575
19.47429 574.010222879769
19.4944 594
19.51452 587.014037039582
19.53463 640.105136490393
19.55475 678.950120752416
19.57486 636.004452057586
19.59497 668.005562582157
19.61509 651.967421829762
19.6352 765
19.65531 703.980133363914
19.67543 733.046707866491
19.69554 740.044873909082
19.71565 789.878339927838
19.73577 834.901099967078
19.75588 913.942398170406
19.776 941
19.79611 976.02331402996
19.81622 1024.04102642179
19.83634 1036.94238517869
19.85645 993.045065516871
19.87656 1035.80391791516
19.89668 1109.02825599124
19.91679 1008.03403213039
19.93691 1009.00093758937
19.95702 994.018654080609
19.97713 1044.04226338466
19.99725 1027.92454017888
20.01736 1012.00556424033
20.03747 1010.01822076523
20.05759 986.013070939531
20.0777 966
20.09782 959.004000838558
20.11793 954.948626071842
20.13804 921.038951098762
20.15816 976.956731927344
20.17827 948.03871152238
20.19838 940.028922633763
20.2185 907
20.23861 944.983386317153
20.25872 864.988133910813
20.27884 933.090533366496
20.29895 903.138928527755
20.31907 877.980719118447
20.33918 914.960331692443
20.35929 928.011123153645
20.37941 894.994874088209
20.39952 900.982726825929
20.41963 857.953121647893
20.43975 868.110170975275
20.45986 905.009828341134
20.47998 865.03366870753
20.50009 863.991418880925
20.5202 868
20.54032 841.018586998506
20.56043 883.999538122315
20.58054 831.910686426688
20.60066 839.905095647088
20.62077 888.9624946649
20.64088 862.081498181214
20.661 800
20.68111 928.068027451208
20.70123 1000.02544157899
20.72134 984.931867101584
20.74145 976.873860219343
20.76157 1059.91614000322
20.78168 1111.87097072319
20.80179 1294.93547840033
20.82191 1344.02376621529
20.84202 1404.00631581204
20.86214 1360.9553905237
20.88225 1330.66271761671
20.90236 1126.27544774177
20.92248 1085.04647558556
20.94259 1004.02028750215
20.9627 1014
20.98282 975.970123625744
21.00293 998.11296590357
21.02305 1070.02327175754
21.04316 1020.09355828936
21.06327 1007.01494349712
21.08339 987.005927017687
21.1035 978
21.12361 964.030023037104
21.14373 1059.04624282103
21.16384 998.840641354952
21.18395 972.921706484544
21.20407 1030.92473005719
21.22418 1052.99313184985
21.2443 1053
21.26441 1035.99502212258
21.28452 1030.98607814037
21.30464 1016.01188992885
21.32475 1039.95791021567
21.34486 1026.08698732564
21.36498 971.04854871272
21.38509 952.99014055687
21.40521 988.010142559522
21.42532 974.964690832798
21.44543 932.935065094633
21.46555 914.066383175412
21.48566 952.012477024268
21.50577 930.926779145264
21.52589 1018.99482260264
21.546 949
21.56612 974.00069492267
21.58623 931.973783479408
21.60634 944.965805986341
21.62646 907.971207645581
21.64657 960.988793097864
21.66668 910.037866899179
21.6868 924
21.70691 922.971461211396
21.72702 839.944080704731
21.74714 824.97684784425
21.76725 793.094115326311
21.78737 782.944421510406
21.80748 830.000429219124
21.82759 787.011560233495
21.84771 799.00014298629
21.86782 776.992018926199
21.88793 777.953519313616
21.90805 752.14329281625
21.92816 829.0919395105
21.94828 708.00503997572
21.96839 815.986615217582
21.9885 730
22.00862 799.067014541325
22.02873 793.938022985024
22.04884 756.945605712217
22.06896 749.962304691167
22.08907 761.054127258545
22.10919 690.026597114197
22.1293 686
22.14941 708.003495124647
22.16953 692.951836591243
22.18964 666.998113453019
22.20975 693.903527230031
22.22987 712.028945782764
22.24998 680.999947664519
22.27009 721.975630331662
22.29021 743.996505494211
22.31032 718.970220382419
22.33044 684.899897334125
22.35055 642.000279582337
22.37066 668.002074532326
22.39078 654.957233619645
22.41089 725.000064706851
22.431 659
22.45112 695.030984579774
22.47123 689.99769385487
22.49135 699.975360733692
22.51146 689.918563261112
22.53157 749.010210046762
22.55169 673.031797513081
22.5718 667
22.59191 683.013808174631
22.61203 695.939345437494
22.63214 631.963160720154
22.65225 678.842611739445
22.67237 690.090660856433
22.69248 611.023681589917
22.7126 657
22.73271 697.027575588331
22.75282 732.949917674105
22.77294 649.003434227131
22.79305 744.804035642171
22.81316 738.099942224245
22.83328 703.003597710216
22.85339 733.973884503543
22.87351 757.979369178647
22.89362 700.011269592905
22.91373 761.008194584235
22.93385 707.975793739491
22.95396 746.022613033733
22.97407 688.007188126927
22.99419 738.99548584227
23.0143 683
23.03442 683.00863792182
23.05453 672.972524579379
23.07464 662.00392483753
23.09476 686.89623178318
23.11487 732.996795681889
23.13498 689.05406115424
23.1551 666
23.17521 702.018157413863
23.19532 698.939001635469
23.21544 626.967447615153
23.23555 682.805335590318
23.25567 725.00453388361
23.27578 676.086253509968
23.29589 609.997554830952
23.31601 670.024266324119
23.33612 670.982866637405
23.35623 674.048006172637
23.37635 704.97662521428
23.39646 674.983405065469
23.41658 710.00884089497
23.43669 652.020684909877
23.4568 678
23.47692 753.027737324217
23.49703 751.041984799457
23.51714 823.139217201621
23.53726 849.028416847722
23.55737 826.006390117139
23.57749 846.987457987134
23.5976 856
23.61771 845.999092705995
23.63783 850.998354562807
23.65794 862.108015105262
23.67805 927.963962516693
23.69817 877.100808142747
23.71828 845.990323369908
23.73839 888.967955534108
23.75851 908.960944146502
23.77862 774.907889618204
23.79874 774.088074352295
23.81885 778.819358984456
23.83896 678.081896007749
23.85908 717.945217830923
23.87919 731.010024366975
23.8993 706
23.91942 716.01651633323
23.93953 726.005864039442
23.95965 733.046506507674
23.97976 744.049068386498
23.99987 694.055326598927
24.01999 684.003600272376
24.0401 668
24.06021 670.006629879328
24.08033 696.063824649003
24.10044 723.955385980826
24.12056 662.108455169442
24.14067 663.909086607506
24.16078 725.997516674931
24.1809 684
24.20101 722.013743110049
24.22112 709.97800557203
24.24124 709.043553342203
24.26135 731.006345156352
24.28146 701.071142666826
24.30158 700.944807999832
24.32169 765.99571802199
24.34181 701.956859151984
24.36192 666.038266556709
24.38203 741.074860320567
24.40215 732.90421308566
24.42226 710.972249054056
24.44237 742.980646413083
24.46249 720.019198569775
24.4826 708
24.50272 780.07233514885
24.52283 812.981398439842
24.54294 791.019826194351
24.56306 827.96550115567
24.58317 797.091782256098
24.60328 761.969409138706
24.6234 820
24.64351 773.988419094295
24.66362 807.04692442055
24.68374 830.00506680932
24.70385 823.023205776715
24.72397 813.024129406249
24.74408 798.000968629468
24.76419 829.96470222217
24.78431 896.005478033456
24.80442 847.939113848765
24.82453 805.945996743512
24.84465 781.012506459773
24.86476 808.950361775797
24.88488 816.997031638003
24.90499 834.979533202093
24.9251 868
24.94522 810.945586340138
24.96533 791.003806641667
24.98544 811.088866282828
25.00556 834.103779076755
25.02567 747.042065309581
25.04579 795.974992370049
25.0659 790
25.08601 771.025202414826
25.10613 844.004949887259
25.12624 786.96706932109
25.14635 828.95598389437
25.16647 795.044974602023
25.18658 795.996244505093
25.20669 790.998489224419
25.22681 806.006989137861
25.24692 803.979811345347
25.26704 777.966306872708
25.28715 790.115122730013
25.30726 813.125356213789
25.32738 714.022193071479
25.34749 768.990138185671
25.3676 714
25.38772 712.036609537026
25.40783 750.026473665362
25.42795 726.843121630351
25.44806 668.021964932251
25.46817 698.964467274993
25.48829 698.995550049881
25.5084 721
25.52851 712.002183605583
25.54863 747.080779439172
25.56874 768.90043069788
25.58886 698.001141033782
25.60897 768.921131143304
25.62908 768.000523328501
25.6492 791
25.66931 806.026711818233
25.68942 848.944279021081
25.70954 757.046029909377
25.72965 880.853700143774
25.74976 808.210319701249
25.76988 773.957319249893
25.78999 826.006110254229
25.81011 766.992781942372
25.83022 804.004514639764
25.85033 735.855202994512
25.87045 653.834651611106
25.89056 621.95755506046
25.91067 666.96930510395
25.93079 657.997675873288
25.9509 680
25.97102 665.017318148313
25.99113 704.004199021647
26.01124 652.870472735507
26.03136 633.905306745271
26.05147 695.993994414952
26.07158 640.044928298454
26.0917 642
26.11181 640.995143783136
26.13193 625.965021963678
26.15204 623.098706303456
26.17215 682.018050195229
26.19227 640.950529515769
26.21238 726.990900840298
26.23249 642.032954644487
26.25261 650.012305596082
26.27272 669.04797930289
26.29283 720.993208423139
26.31295 685.044014829524
26.33306 728.089459799665
26.35318 644.958074132902
26.37329 794.961796307337
26.3934 763
26.41352 846.056222971274
26.43363 841.003958271427
26.45374 900.189546661056
26.47386 1004.78712385647
26.49397 1122.78463492133
26.51409 1315.87632835076
26.5342 1623
26.55431 2055.26052247275
26.57443 2558.52089083517
26.59454 2780.50564774593
26.61465 3049.73229312855
26.63477 2938.31723160285
26.65488 2694.32296097088
26.67499 2298.20332530554
26.69511 1911.80763040803
26.71522 1526.64409700141
26.73534 1228.53977611767
26.75545 1026.46075536152
26.77556 832.179596840596
26.79568 844.966142480691
26.81579 830.025856989451
26.8359 765
26.85602 748.069865205443
26.87613 839.011024095546
26.89625 769.914445506394
26.91636 809.914096121161
26.93647 796.089929883724
26.95659 741.004403406251
26.9767 781
26.99681 787.973942796016
27.01693 716.950678766416
27.03704 724.991943845246
27.05716 708.949779549864
27.07727 769.943201564854
27.09738 763.015108475543
27.1175 760
27.13761 741.990748060633
27.15772 730.994745376099
27.17784 724.977553140601
27.19795 713.008685788262
27.21806 724.949660627514
27.23818 744.004758314553
27.25829 710.025384344453
27.27841 701.039796317433
27.29852 813.039958546129
27.31863 801.088111805955
27.33875 916.082437471487
27.35886 863.011863171405
27.37897 970.767997259981
27.39909 1113.93186667741
27.4192 1221
27.43932 1228.01784976594
27.45943 1274.06065286929
27.47954 1260.83716421892
27.49966 1170.04889953241
27.51977 1194.02972664816
27.53988 1107.08387858872
27.56 1052
27.58011 974.98217584005
27.60023 988.030463984753
27.62034 988.992127931918
27.64045 973.122480261643
27.66057 939.919111056867
27.68068 1042.95839270049
27.70079 1016.99506542327
27.72091 1098.04147775823
27.74102 1106.92667549382
27.76113 1035.03325097454
27.78125 1101.92539585207
27.80136 970.192231698907
27.82148 957.017582697539
27.84159 887.040650173037
27.8617 827
27.88182 782.951791839385
27.90193 745.994484916581
27.92204 768.036780909039
27.94216 742.162647438806
27.96227 651.062983799578
27.98239 662.993508508346
28.0025 654
28.02261 666.000076832654
28.04273 644.96025770318
28.06284 618.931065096947
28.08295 595.954441914006
28.10307 622.044007670624
28.12318 545.052672288636
28.1433 556
28.16341 582.99737230075
28.18352 560.993086772865
28.20364 576.024238749781
28.22375 567.947864246569
28.24386 553.988625769203
28.26398 578.968954201083
28.28409 592.008227009981
28.3042 563
28.32432 564.987446196908
28.34443 532.960153980989
28.36455 536.081123398845
28.38466 569.985981335935
28.40477 538.082160206127
28.42489 511.980474403668
28.445 578
28.46511 533.977737294509
28.48523 526.007800795083
28.50534 525.999642229727
28.52546 542.908144773359
28.54557 571.074045145933
28.56568 485.021038866078
28.5858 543
28.60591 545.001035663746
28.62602 550.966124211332
28.64614 495.974123779391
28.66625 529.9429099211
28.68636 522.995721494922
28.70648 532.025559181373
28.72659 488.002111033097
28.74671 528.015178850389
28.76682 541.040899670084
28.78693 585.968855780494
28.80705 515.9177441254
28.82716 550.90427131712
28.84727 550.085588591325
28.86739 488.003641395698
28.8875 531
28.90762 521.99138605793
28.92773 528.998876996277
28.94784 516.993186703634
28.96796 524.99520200001
28.98807 502.076372364944
29.00818 462.983682705153
29.0283 517
29.04841 509.000308985748
29.06853 517.955628400822
29.08864 475.031984745452
29.10875 537.937638307333
29.12887 498.070886736986
29.14898 497.955352694928
29.16909 553.982191837073
29.18921 534.961682464014
29.20932 466.008286625525
29.22943 545.110653810446
29.24955 552.889779131433
29.26966 494.098311485534
29.28978 479.976558909521
29.30989 520.982110617945
29.33 533
29.35012 513.976669827203
29.37023 503.018236707955
29.39034 523.003359685916
29.41046 506.019632702371
29.43057 517.965909381013
29.45069 530.004749177246
29.4708 498
29.49091 476.012920456135
29.51103 539.095232036979
29.53114 552.899455986393
29.55125 499.946731942137
29.57137 572.962729396652
29.59148 534.018801905244
29.6116 546
29.63171 480.991135821542
29.65182 535.068720577653
29.67194 570.016757664639
29.69205 570.005203330513
29.71216 566.05695122982
29.73228 541.97164228178
29.75239 600.990367831178
29.7725 585
29.79262 637.998857284328
29.81273 579.949291517302
29.83285 622.222840288408
29.85296 669.114372858951
29.87307 566.042002918907
29.89319 632.969524257437
29.9133 636
29.93341 635.987870760243
29.95353 610.039596669651
29.97364 657.969300392781
29.99376 580.107788621046
30.01387 593.939338599151
30.03398 610.018402237933
30.0541 580
30.07421 591.999196184478
30.09432 574.999884655697
30.11444 599.046168882994
30.13455 606.9921493676
30.15467 611.000012385192
30.17478 595.038859570544
30.19489 557.002823142576
30.21501 581.009769304039
30.23512 568.963187261667
30.25523 535.990046960695
30.27535 548.002091625799
30.29546 537.981640224918
30.31557 562.989204043286
30.33569 543.011423362368
30.3558 544
30.37592 582.029197510747
30.39603 578.940013140287
30.41614 536.992635729712
30.43626 565.96845886038
30.45637 556.004265522873
30.47648 567.001494446337
30.4966 552
30.51671 561.999343943504
30.53683 546.989982741155
30.55694 560.044428036952
30.57705 571.026446777554
30.59717 559.969999890918
30.61728 594.000975278436
30.63739 562.004963377644
30.65751 579.999396461389
30.67762 554.99375166236
30.69773 582.048520090656
30.71785 589.952988716014
30.73796 579.926589781756
30.75808 640.975855621228
30.77819 621.005353443663
30.7983 634
30.81842 615.001782595305
30.83853 641.024255991549
30.85864 615.872491610287
30.87876 561.993111181362
30.89887 606.96452069247
30.91899 582.019036231607
30.9391 550
30.95921 509.99444474644
30.97933 533.052836087687
30.99944 549.979034124586
31.01955 531.990647099241
31.03967 550.006676067429
31.05978 519.024556988072
31.0799 519
31.10001 530.00853126209
31.12012 537.97836488123
31.14024 498.953687072838
31.16035 507.938321193618
31.18046 518.037524074555
31.20058 482.026927375038
31.22069 491.975606995444
31.2408 543
31.26092 508.946921252362
31.28103 482.024892368386
31.30115 511.989557638496
31.32126 474.047280157517
31.34137 482.981421406007
31.36149 474.012932902845
31.3816 463
31.40171 506.999285785864
31.42183 472.001638685511
31.44194 508.000818790959
31.46206 462.064404898393
31.48217 471.968168562857
31.50228 479.001959795989
31.5224 481
31.54251 493.996304933488
31.56262 480.01302842303
31.58274 509.000254981684
31.60285 476.0631674971
31.62297 488.938024714912
31.64308 519.011801145809
31.66319 480.010375527454
31.68331 491.005576886275
31.70342 477.970062499352
31.72353 453.997225315567
31.74365 473.056486051154
31.76376 494.933045475202
31.78387 512.060554044058
31.80399 453.996960931533
31.8241 511
31.84422 474.001957684704
31.86433 521.014126210823
31.88444 483.979670873209
31.90456 508.015219892668
31.92467 466.019699449379
31.94478 499.964050219201
31.9649 502
31.98501 482.001531932025
32.00513 502.016421956288
32.02524 491.965644481192
32.04535 474.063871746306
32.06547 462.950427899131
32.08558 510.996495168547
32.10569 473.008478332207
32.12581 494.00674351804
32.14592 483.995733039054
32.16604 504.067099619063
32.18615 530.018418923812
32.20626 518.042383873162
32.22638 514.967326023044
32.24649 554.999613461709
32.2666 523
32.28672 556.049319138721
32.30683 559.887088635015
32.32694 468.983497068447
32.34706 544.874076661211
32.36717 551.994528397229
32.38729 574.994029286526
32.4074 573
32.42751 593.999821927674
32.44763 542.850625738014
32.46774 473.075104511629
32.48785 563.970717747256
32.50797 487.064177192722
32.52808 520.969258790338
32.5482 512
32.56831 532.011997563598
32.58842 528.960141936563
32.60854 489.014140852681
32.62865 537.904738897142
32.64876 552.937566910611
32.66888 580.037761876037
32.68899 512.001125279829
32.7091 576
32.72922 536.938311533131
32.74933 509.018456761453
32.76945 523.934395462135
32.78956 484.958028990304
32.80967 553.951989479725
32.82979 527.011606462975
32.8499 536
32.87001 523.992791034093
32.89013 520.0041711425
32.91024 516.964756292757
32.93036 506.942310160761
32.95047 547.012228556734
32.97058 510.983926102583
32.9907 569
33.01081 521.990013255167
33.03092 553.023119860177
33.05104 553.039894630157
33.07115 582.041008462485
33.09127 541.980760343363
33.11138 610.948767039658
33.13149 600.022226487439
33.15161 564.994692383969
33.17172 574.00936289282
33.19183 576.008950571856
33.21195 591.043946779471
33.23206 600.009463238287
33.25217 589.0071053539
33.27229 592.998642480218
33.2924 595
33.31252 612.006854989564
33.33263 597.954452999272
33.35274 570.984374963622
33.37286 582.966468192714
33.39297 590.003899809678
33.41308 573.036117339405
33.4332 534
33.45331 557.03417171854
33.47343 605.942101938699
33.49354 519.950076852445
33.51365 566.945245497928
33.53377 530.048983462582
33.55388 526.013717854044
33.57399 507.989047291464
33.59411 561.015208672466
33.61422 548.978645020537
33.63434 538.978723343279
33.65445 525.98804934207
33.67456 540.928936619064
33.69468 560.036001314633
33.71479 495.014280922847
33.7349 512
33.75502 501.019070594639
33.77513 540.000912657749
33.79524 505.986202468621
33.81536 530.999936180856
33.83547 492.052562819858
33.85559 485.997152440223
33.8757 497
33.89581 514.986159105673
33.91593 472.013477305072
33.93604 525.044099228495
33.95615 492.093109034456
33.97627 487.975223202154
33.99638 506.984203855938
34.0165 519
34.03661 526.996235774752
34.05672 518.014267068682
34.07684 546.014490140415
34.09695 531.011104148939
34.11706 544.985003266124
34.13718 531.025408648048
34.15729 517.993206256467
34.17741 544.004881679509
34.19752 526.974124853211
34.21763 501.952532908622
34.23775 490.105368486721
34.25786 559.928484702889
34.27797 550.010029453325
34.29809 552.016488790124
34.3182 508
34.33831 566.01077069673
34.35843 536.98048442216
34.37854 563.043764905603
34.39866 558.023604799227
34.41877 566.944266308408
34.43888 595.026513690023
34.459 552
34.47911 629.015085211122
34.49922 590.971067423303
34.51934 616.094006793674
34.53945 635.069501631073
34.55957 597.984495079278
34.57968 652.960196261151
34.59979 654.00113126465
34.61991 658.993572587619
34.64002 641.014844664618
34.66013 687.05586856666
34.68025 688.948037539359
34.70036 670.009490123764
34.72047 689.935656123434
34.74059 745.970075416142
34.7607 772
34.78082 714.997901123332
34.80093 774.07845793785
34.82104 787.015097456133
34.84116 795.039690911119
34.86127 770.963958432713
34.88138 817.010944845092
34.9015 758
34.92161 796.011505665204
34.94173 779.988304032134
34.96184 806.076593488054
34.98195 830.983520284807
35.00207 819.039176249078
35.02218 796.006513118167
35.04229 807.990383364809
35.06241 821.002089781096
35.08252 799.940094961572
35.10264 737.975325682614
35.12275 775.088102028338
35.14286 770.06611735096
35.16298 748.980694426961
35.18309 796.981890615671
35.2032 792
35.22332 756.987599100642
35.24343 759.984972577707
35.26354 722.901565459422
35.28366 707.89673152349
35.30377 768.034200596791
35.32389 689.008200093458
35.344 752
35.36411 727.985297168489
35.38423 725.999310565366
35.40434 719.008635409006
35.42445 745.893702943304
35.44457 783.971052386873
35.46468 774.03593708001
35.4848 718
35.50491 680.022565730594
35.52502 770.047256669506
35.54514 747.936957396092
35.56525 738.041098879403
35.58536 702.079275879205
35.60548 684.983268658419
35.62559 715.992836982656
35.64571 713.004808541261
35.66582 727.983065899506
35.68593 685.96604502586
35.70605 698.045453200481
35.72616 714.927734566284
35.74627 769.922263117152
35.76639 795.002271616487
35.7865 750
35.80661 658.985831130358
35.82673 692.050434532259
35.84684 691.98418835126
35.86696 698.962521183557
35.88707 730.926140743115
35.90718 765.018740485195
35.9273 705
35.94741 711.031961252046
35.96752 767.983912699979
35.98764 703.958550626307
36.00775 753.857866194081
36.02787 758.068435958909
36.04798 711.999406530548
36.06809 745.996414055635
36.08821 715.991384942338
36.10832 726.002171340817
36.12843 708.981328126132
36.14855 711.007343935802
36.16866 708.004556124215
36.18878 711.990852842318
36.20889 709.01566707826
36.229 667
36.24912 673.999055075839
36.26923 665.023680819511
36.28934 704.055119255949
36.30946 699.048992335885
36.32957 680.001887072525
36.34968 696.976601380118
36.3698 709
36.38991 711.020802818101
36.41003 757.978387446326
36.43014 703.989358825798
36.45025 779.748677228805
36.47037 838.991627093772
36.49048 825.98515603608
36.51059 878.97286791003
36.53071 885.973581681137
36.55082 812.960025550899
36.57094 820.031928444595
36.59105 820.9997108979
36.61116 816.054566812764
36.63128 792.974201318021
36.65139 831.015675748872
36.6715 732
36.69162 726.047125519789
36.71173 774.028768912513
36.73184 770.014553980109
36.75196 794.971687064641
36.77207 787.020005740034
36.79219 790.986376585397
36.8123 804
36.83241 742.003230941017
36.85253 818.091620534698
36.87264 800.849501685932
36.89275 721.122186909737
36.91287 714.977772366137
36.93298 734.968779325211
36.9531 767
36.97321 764.998251685687
36.99332 744.93281149971
37.01344 667.965297593985
37.03355 707.934835795692
37.05366 697.994801571922
37.07378 720.997871872516
37.09389 693.012964797532
37.11401 688.00153727984
37.13412 677.968799550506
37.15423 645.994479232588
37.17435 674.085613341506
37.19446 697.956904215467
37.21457 705.042353166476
37.23469 661.009382296814
37.2548 683
37.27491 694.984947249388
37.29503 643.949591591221
37.31514 643.019158153151
37.33526 657.926341082445
37.35537 693.011817258855
37.37548 633.079533881725
37.3956 586
37.41571 622.009952902179
37.43582 624.027068533811
37.45594 661.982514612865
37.47605 610.083891170959
37.49617 625.946461224866
37.51628 649.989932450555
37.53639 647.006597421195
37.55651 642.009440664265
37.57662 658.973488309188
37.59673 606.973764839933
37.61685 630.025539721881
37.63696 614.005063861996
37.65708 643.958371717401
37.67719 680.982026456502
37.6973 688
37.71742 617.992413439753
37.73753 665.024214242794
37.75764 625.932952459761
37.77776 635.937476527194
37.79787 652.020790890973
37.81798 621.020366972506
37.8381 637
37.85821 684.003240191254
37.87833 634.876204599337
37.89844 569.966772490567
37.91855 598.89660465727
37.93867 619.004032607368
37.95878 616.976730436329
37.97889 650.997498195397
37.99901 615.976912781996
38.01912 598.021603477894
38.03924 623.9673509508
38.05935 585.01126694891
38.07946 627.979658516445
38.09958 589.033367758404
38.11969 595.986127812922
38.1398 616
38.15992 593.954561613192
38.18003 560.017540845021
38.20015 618.176763289445
38.22026 665.957460036944
38.24037 659.051045416022
38.26049 620.011133758108
38.2806 627
38.30071 629.970942457739
38.32083 573.065741569151
38.34094 683.083507492902
38.36105 620.17533537601
38.38117 607.977499749925
38.40128 611.016901117221
38.4214 599
38.44151 637.99702669611
38.46162 601.003808906809
38.48174 648.0415358237
38.50185 633.971371905126
38.52196 678.948596591215
38.54208 662.030335008224
38.56219 636.016315501168
38.58231 610.002841676503
38.60242 631.998014701111
38.62253 605.985262299467
38.64265 629.081417853172
38.66276 634.073615430304
38.68287 588.011688060861
38.70299 617.990076549498
38.7231 605
38.74321 602.007938420785
38.76333 623.016632530739
38.78344 606.908989496082
38.80356 567.98593892837
38.82367 612.946542088247
38.84378 612.018077772717
38.8639 613
38.88401 640.978795467577
38.90412 554.959626361909
38.92424 589.098115801783
38.94435 596.083687836153
38.96447 568.962503519016
38.98458 629.965420017239
39.00469 607.024840957523
39.02481 582.010488643363
39.04492 620.00462719935
39.06503 580.935927058562
39.08515 560.975594854055
39.10526 553.003362223293
39.12538 563.974494573964
39.14549 590.993490149922
39.1656 587
39.18572 582.998659130603
39.20583 588.025894966681
39.22594 593.930185527399
39.24606 547.993508609473
39.26617 580.029178931526
39.28628 530.975787568379
39.3064 625
39.32651 613.998849299285
39.34663 641.000876073792
39.36674 617.017307589807
39.38685 670.865476868321
39.40697 682.045304359007
39.42708 637.034179021714
39.44719 635.985245710933
39.46731 671.008763171579
39.48742 662.980893057486
39.50754 638.926661551021
39.52765 600.951604841272
39.54776 606.962725089776
39.56788 603.049148779081
39.58799 538.013893494869
39.6081 545
39.62822 509.996034685446
39.64833 538.012208986975
39.66845 513.957802600161
39.68856 533.905546445397
39.70867 565.029846227862
39.72879 516.010468511091
39.7489 532
39.76901 512.995786322014
39.78913 523.002676158376
39.80924 515.014312193178
39.82935 524.068262809602
39.84947 478.012312494718
39.86958 515.964067032242
39.8897 527
39.90981 537.993275565193
39.92992 508.9892149106
39.95004 523.023873273481
39.97015 527.95110736985
39.99026 564.930121255147
40.01038 574.021888626586
40.03049 555.987053948495
40.05061 592.987419398037
40.07072 526.98802280498
40.09083 571.011592631785
40.11095 529.97418856183
40.13106 576.897536528591
40.15117 600.974446361647
40.17129 610.010414021514
40.1914 573
40.21152 599.056930481986
40.23163 655.05143669798
40.25174 654.945600728055
40.27186 615.088862920254
40.29197 587.991902400297
40.31208 610.989347337077
40.3322 589
40.35231 559.006955275675
40.37242 595.007261087324
40.39254 563.943557224311
40.41265 567.937514050827
40.43277 579.040364830869
40.45288 523.051376032563
40.47299 511.983832908186
40.49311 555.008701025668
40.51322 537.975544047256
40.53333 522.977396308109
40.55345 523.100194677887
40.57356 562.057658769395
40.59368 496.005531911585
40.61379 557.980643427982
40.6339 535
40.65402 529.006109221646
40.67413 535.01259065668
40.69424 539.986276675177
40.71436 525.021322854657
40.73447 527.979289120607
40.75458 531.026689472981
40.7747 504
40.79481 555.006183020203
40.81493 519.965050965107
40.83504 538.060836536325
40.85515 540.096288275113
40.87527 497.993555263795
40.89538 541.973067504137
40.91549 531.006693461483
40.93561 537.00584656034
40.95572 552.029294238154
40.97584 575.975023594887
40.99595 539.961220470774
41.01606 569.887301356713
41.03618 599.033976972878
41.05629 547.992905270131
41.0764 599
41.09652 503.946446174098
41.11663 543.105888609818
41.13675 575.964878151569
41.15686 537.06425150754
41.17697 532.978240545806
41.19709 543.004050743073
41.2172 532
41.23731 566.008445801789
41.25743 561.00598664076
41.27754 574.988244095638
41.29765 549.040253150422
41.31777 553.988433400786
41.33788 552.005794586681
41.358 551
41.37811 555.995806155416
41.39822 542.00014150059
41.41834 557.021765377228
41.43845 556.997407167754
41.45856 558.02420749342
41.47868 542.994280796019
41.49879 563.996482379856
41.51891 537.975624751668
41.53902 511.029844415394
41.55913 579.07802245697
41.57925 577.904304648739
41.59936 547.982680568683
41.61947 581.976212611435
41.63959 561.016531809734
41.6597 535
41.67982 526.023972970368
41.69993 568.039872679967
41.72004 582.073485940196
41.74016 619.0430595831
41.76027 546.087436201806
41.78038 536.990316073465
41.8005 550
41.82061 576.99199746849
41.84072 540.002683328734
41.86084 561.921141267024
41.88095 481.05151905702
41.90107 523.986883449529
41.92118 477.026020509357
41.94129 497.991218700051
41.96141 486.992820835951
41.98152 489.013080489666
42.00163 505.023695456203
42.02175 510.973331624151
42.04186 493.017705365678
42.06198 485.031353076461
42.08209 449.99699783643
42.1022 493
42.12232 492.997960816668
42.14243 494.974616232662
42.16254 474.025865168615
42.18266 512.962743974866
42.20277 503.001777698214
42.22289 512.008493036575
42.243 487
42.26311 545.014893570248
42.28323 519.93667407458
42.30334 506.045654068518
42.32345 541.959148920455
42.34357 544.958078524947
42.36368 587.990985482466
42.38379 560.009511599178
42.40391 563.997695036779
42.42402 566.055365844891
42.44414 640.020203785253
42.46425 580.870387547713
42.48436 571.016691692728
42.50448 549.009863102012
42.52459 553.002994188897
42.5447 518
42.56482 480.022958202773
42.58493 552.103003177629
42.60505 556.829468532577
42.62516 473.062247104089
42.64527 490.009703608532
42.66539 470.97435873626
42.6855 554
42.70561 458.972008770617
42.72573 489.056851056312
42.74584 490.999260366475
42.76595 515.890591748492
42.78607 535.065342804381
42.80618 464.024292154114
42.8263 493
42.84641 471.993979733187
42.86652 480.997373807504
42.88664 461.985247705791
42.90675 490.846118169569
42.92686 543.988771376382
42.94698 502.050595551911
42.96709 463.022479390071
42.98721 432.010769453847
43.00732 482.015615894537
43.02743 459.999040816399
43.04755 493.050029694499
43.06766 481.033523707952
43.08777 476.005598072191
43.10789 470.999078475503
43.128 473
43.14812 459.012827642456
43.16823 488.00930463095
43.18834 469.989968329238
43.20846 488.966645053974
43.22857 486.021040863967
43.24868 463.038088097877
43.2688 441
43.28891 482.984585211305
43.30902 411.001503095806
43.32914 491.098176136062
43.34925 475.017517811578
43.36937 491.032045931118
43.38948 439.014727284497
43.40959 477.97938935142
43.42971 474.978640066977
43.44982 444.028225184189
43.46993 503.020439096077
43.49005 472.001263442054
43.51016 512.971734459422
43.53028 489.006426108801
43.55039 509.998728201592
43.5705 479
43.59062 462.991363255805
43.61073 455.999158271109
43.63084 464.027872858473
43.65096 475.99121616216
43.67107 461.060815449138
43.69119 425.995647341036
43.7113 466
43.73141 458.002334384669
43.75153 492.057720696126
43.77164 507.981031028472
43.79175 483.067945078037
43.81187 461.032748657128
43.83198 449.984037663706
43.85209 479.992720891459
43.87221 475.000246244988
43.89232 481.989483459523
43.91244 454.96357899961
43.93255 457.02235445925
43.95266 460.999331064856
43.97278 455.016303592279
43.99289 441.995897058684
44.013 462
44.03312 463.037286897316
44.05323 509.984912428594
44.07335 450.916786924742
44.09346 469.952183485579
44.11357 464.035165219594
44.13369 465.971001585454
44.1538 539
44.17391 488.974980227222
44.19403 482.022448784381
44.21414 485.962377592293
44.23426 460.010410537077
44.25437 477.976052905431
44.27448 477.007845123711
44.2946 482
44.31471 509.998392141265
44.33482 474.964489421163
44.35494 459.992192473044
44.37505 461.969280339585
44.39516 476.989116507186
44.41528 476.989170122497
44.43539 487.009473493541
44.45551 458.004184942259
44.47562 485.982569009385
44.49573 427.957330547767
44.51585 447.037853521386
44.53596 448.939450793234
44.55607 493.994255900933
44.57619 457.010655044682
44.5963 473
44.61642 475.000114877004
44.63653 487.034007144338
44.65664 499.967600337487
44.67676 466.040547683014
44.69687 474.965583053434
44.71698 477.038689857446
44.7371 433
44.75721 478.007474892825
44.77732 458.00803936331
44.79744 507.079309584417
44.81755 489.184513211089
44.83767 433.94325904143
44.85778 523.973706426904
44.87789 453.042928493451
44.89801 442.036224593209
44.91812 517.990066708242
44.93823 450.990651418703
44.95835 514.058604367332
44.97846 473.043847461264
44.99858 505.959649292287
45.01869 510.014530505936
45.0388 482
45.05892 504.996679325768
45.07903 474.981771286925
45.09914 486.996791988607
45.11926 462.039985807911
45.13937 459.998250081203
45.15949 465.986373800782
45.1796 499
45.19971 482.999382520346
45.21983 495.984719758614
45.23994 472.017939969042
45.26005 499.041827307369
45.28017 460.962234874736
45.30028 545.94417913989
45.32039 535.013668029991
45.34051 518.986479247038
45.36062 496.019079653004
45.38074 534.997171185989
45.40085 486.89786691487
45.42096 481.986366409134
45.44108 474.024940673644
45.46119 459.986329981141
45.4813 520
45.50142 531.976437054556
45.52153 496.959115863042
45.54165 488.003442717907
45.56176 489.998241942936
45.58187 494.976059802354
45.60199 512.998074616845
45.6221 498
45.64221 495.015978720727
45.66233 546.056794100827
45.68244 550.966991643601
45.70256 530.038813813919
45.72267 517.01064855477
45.74278 512.005969483292
45.7629 524
45.78301 584.006662402397
45.80312 545.960338608327
45.82324 524.938527422241
45.84335 487.032892482564
45.86346 502.964099460676
45.88358 514.97503434314
45.90369 537.008180900544
45.92381 498.99643788263
45.94392 519.994232770704
45.96403 478.955442375554
45.98415 493.110731437117
46.00426 524.026557089319
46.02437 481.040926618832
46.04449 482.001576034316
46.0646 479
46.08472 538.034642330472
46.10483 517.915440276532
46.12494 478.023471755221
46.14506 519.969654425245
46.16517 502.997161039927
46.18528 533.981151136842
46.2054 517
46.22551 489.995718142217
46.24563 496.010493947113
46.26574 488.955001117652
46.28585 472.964053093327
46.30597 501.994266707247
46.32608 474.026465099416
46.34619 472.992286643639
46.36631 495.013699033629
46.38642 506.976423741453
46.40653 460.947892974513
46.42665 462.071139276623
46.44676 486.009098737238
46.46688 456.028349619371
46.48699 447.997748191364
46.5071 456
46.52722 473.028946445665
46.54733 495.989964255622
46.56744 476.01320708013
46.58756 506.97421932241
46.60767 485.047207225928
46.62779 473.992750407677
46.6479 485
46.66801 444.001209575874
46.68813 503.106223731845
46.70824 524.911605203192
46.72835 461.047540391781
46.74847 490.971320869009
46.76858 480.997662722691
46.78869 510.984431627771
46.80881 525.002227182463
46.82892 515.965943547776
46.84904 478.988880895619
46.86915 506.067110063306
46.88926 501.072085585738
46.90938 459.022931013251
46.92949 464.989904196433
46.9496 487
46.96972 501.98739548612
46.98983 477.99663032819
47.00995 499.032046111715
47.03006 492.01456822659
47.05017 485.038201904364
47.07029 449.009519528552
47.0904 452
47.11051 461.021264013557
47.13063 508.995372133157
47.15074 461.944709834039
47.17086 474.975702219466
47.19097 468.004477484073
47.21108 479.985351964795
47.2312 483
47.25131 464.991962647564
47.27142 456.997544785349
47.29154 458.01005197955
47.31165 464.984616121623
47.33176 462.035472690352
47.35188 443.997763685818
47.37199 465.989689024204
47.39211 483.015857073578
47.41222 510.986849401946
47.43233 467.963877174129
47.45245 487.095366527135
47.47256 511.000713949763
47.49267 493.028644306808
47.51279 493.987021230377
47.5329 518
47.55302 490.002922519167
47.57313 520.00700308263
47.59324 489.956242425125
47.61336 491.007273308352
47.63347 476.007845598015
47.65358 473.029237763835
47.6737 444
47.69381 509.014687868683
47.71393 477.935494327833
47.73404 474.076824813347
47.75415 518.971384997125
47.77427 493.041617453073
47.79438 489.987060051497
47.81449 501.000101268424
47.83461 483.98499416555
47.85472 473.036734098472
47.87483 528.021855596495
47.89495 493.918217621842
47.91506 497.946485419117
47.93518 505.041363740782
47.95529 453.996209751463
47.9754 508
47.99552 470.963869781168
48.01563 480.062063534732
48.03574 510.980128743391
48.05586 482.985240781025
48.07597 511.029099887224
48.09609 449.01540609141
48.1162 472
48.13631 469.994334610459
48.15643 463.992892234638
48.17654 471.066677299387
48.19665 498.067884912997
48.21677 442.016920749939
48.23688 479.981817099588
48.257 447
48.27711 434.015008091321
48.29722 476.012887311687
48.31734 462.003764577706
48.33745 497.106553095048
48.35756 512.046420043287
48.37768 471.027557959286
48.39779 473.990035940244
48.4179 494
48.43802 495.979905825869
48.45813 474.006278883699
48.47825 495.001286811077
48.49836 481.965046186863
48.51847 516.011636798491
48.53859 466.016898074458
48.5587 475
48.57881 479.996660949819
48.59893 484.049615784263
48.61904 518.981776783145
48.63916 469.081955269572
48.65927 467.968249735308
48.67938 483.002012366739
48.6995 470
48.71961 471.998685099994
48.73972 456.978720318308
48.75984 448.032342411515
48.77995 482.915370765162
48.80006 500.987393324993
48.82018 491.035041987308
48.84029 457.997190394698
48.86041 489.003221678081
48.88052 470.004315304556
48.90063 497.000467628757
48.92075 452.858395184205
48.94086 433.923390693257
48.96097 495.95199352855
48.98109 491.996437012141
49.0012 514
49.02132 476.975198517047
49.04143 479.002506687864
49.06154 475.024224105905
49.08166 491.028672460573
49.10177 463.981564008231
49.12188 500.008264896524
49.142 457
49.16211 506.012754876395
49.18223 474.927027935426
49.20234 454.028036776239
49.22245 481.96670609655
49.24257 480.980311614382
49.26268 503.003222772645
49.28279 476.007506012103
49.30291 480.998773237408
49.32302 470.006866731611
49.34313 492.011874483872
49.36325 467.888153646634
49.38336 441.956190724576
49.40348 494.96209003731
49.42359 493.010608780054
49.4437 474
49.46382 476.033190681204
49.48393 514.003561697426
49.50404 497.039553793047
49.52416 531.06158382981
49.54427 457.024212269898
49.56439 504.991425145432
49.5845 460
49.60461 467.021723438526
49.62473 505.005973501741
49.64484 471.910434356586
49.66495 454.935125092865
49.68507 494.985388416502
49.70518 471.016901745476
49.7253 482
49.74541 481.986874350501
49.76552 458.014389197506
49.78564 508.093002410779
49.80575 513.916040656917
49.82586 478.997268718409
49.84598 506.992503068694
49.86609 496.988770505619
49.8862 537
49.90632 487.982246577609
49.92643 522.05167277222
49.94655 521.953116448649
49.96666 517.94300995667
49.98677 559.972701331881
50.00689 565.978894185648
50.027 639
50.04711 635.985956993864
50.06723 638.091192514498
50.08734 724.095830394667
50.10746 695.163972621996
50.12757 630.000621417445
50.14768 659.024290357779
50.1678 571
50.18791 555.013335154735
50.20802 587.0192657695
50.22814 585.977388451052
50.24825 576.016934594825
50.26837 561.054077545711
50.28848 510.04586665393
50.30859 483.00668387111
50.32871 477.000396457678
50.34882 473.983315166858
50.36893 465.045209398435
50.38905 503.96447639613
50.40916 453.018135700148
50.42927 492.973152538373
50.44939 474.998288484302
50.4695 506
50.48962 479.982722173069
50.50973 492.030455082098
50.52984 507.033308183431
50.54996 521.995072011028
50.57007 511.022071352548
50.59018 511.97348216505
50.6103 545
50.63041 524.986158382568
50.65053 514.012405774595
50.67064 525.995316906215
50.69075 521.937937629551
50.71087 551.033706176837
50.73098 488.036037116317
50.75109 509.977987370119
50.77121 542.010529708459
50.79132 541.967203358941
50.81143 506.003902869046
50.83155 550.11653143998
50.85166 567.014469971805
50.87178 552.012000768465
50.89189 560.98135382845
50.912 593
50.93212 544.974466119317
50.95223 561.032611428238
50.97234 560.972437446529
50.99246 535.08771420837
51.01257 507.953054232423
51.03269 563.997623784039
51.0528 515
51.07291 535.012979556166
51.09303 528.950735579839
51.11314 498.995812056286
51.13325 507.060656986452
51.15337 460.025559609258
51.17348 494.943694569932
51.1936 529
51.21371 497.98093116067
51.23382 466.969797101358
51.25394 448.019539646077
51.27405 469.007351570367
51.29416 447.002083405224
51.31428 478.963356154166
51.33439 488.011577953562
51.3545 462
51.37462 488.001788363342
51.39473 462.985471586977
51.41485 473.988264946171
51.43496 451.014577217109
51.45507 462.998291759032
51.47519 450.998570947787
51.4953 462
51.51541 429.998395863946
51.53553 464.051714643109
51.55564 478.016857557625
51.57576 484.017101855652
51.59587 461.037465861228
51.61598 445.007972551844
51.6361 440
51.65621 447.01870296409
51.67632 481.981603354286
51.69644 425.946589051439
51.71655 432.059288195729
51.73667 387.987242681583
51.75678 439.986819392003
51.77689 406.003626464253
51.79701 445.015323006014
51.81712 434.971064992745
51.83723 417.002299455254
51.85735 432.034945818874
51.87746 433.019435150316
51.89757 435.944915952287
51.91769 474.007521515806
51.9378 424
51.95792 456.010241661739
51.97803 432.99685693862
51.99814 467.062504556557
52.01826 466.048747750225
52.03837 431.061859229477
52.05848 405.989783114358
52.0786 435
52.09871 418.990070132802
52.11883 421.038436609319
52.13894 451.025940583781
52.15905 450.970299101184
52.17917 467.019344294309
52.19928 426.034685260296
52.21939 424.986906800905
52.23951 455.00820525722
52.25962 444.967784014178
52.27974 419.010026630461
52.29985 448.053607805571
52.31996 445.026438598459
52.34008 447.968669588171
52.36019 486.993434654419
52.3803 473
52.40042 473.984648498565
52.42053 441.966852709482
52.44064 443.022747896164
52.46076 442.046545086018
52.48087 421.971463703263
52.50099 460.99822212015
52.5211 430
52.54121 455.007873091753
52.56133 436.950665800678
52.58144 424.046749734279
52.60155 463.950757658561
52.62167 458.001397588302
52.64178 476.977225550867
52.6619 489
52.68201 476.983880267551
52.70212 449.007201907876
52.72224 480.02503102259
52.74235 466.016316731776
52.76246 466.056382100901
52.78258 424.005768250354
52.80269 462.978943915394
52.8228 479
52.84292 476.993737203795
52.86303 465.977095491546
52.88315 448.959345649741
52.90326 456.893579767261
52.92337 513.008482769532
52.94349 456.016503290805
52.9636 472
52.98371 471.008309883233
53.00383 483.930984276307
53.02394 425.059662524869
53.04406 519.932988059187
53.06417 461.085516267663
53.08428 468.957905575279
53.1044 505
53.12451 508.999013063577
53.14462 514.014961658325
53.16474 516.9318769403
53.18485 472.009558561948
53.20497 519.912339282157
53.22508 545.012037331149
53.24519 519.006545138878
53.26531 531.011283671156
53.28542 541.991423351554
53.30553 531.017549161746
53.32565 552.986778589003
53.34576 544.898245056632
53.36587 616.015434516132
53.38599 536.017908075778
53.4061 576
53.42622 559.970960515568
53.44633 543.979910882363
53.46644 541.051927379512
53.48656 574.996313323885
53.50667 541.050380384562
53.52678 536.981018320409
53.5469 566
53.56701 585.999291950243
53.58713 577.009492930777
53.60724 591.988248196423
53.62735 556.112747885331
53.64747 525.020070026618
53.66758 529.979157171001
53.68769 546.003684240229
53.70781 541.020790766174
53.72792 588.969439894609
53.74804 499.915937603621
53.76815 537.110846700033
53.78826 548.978618603448
53.80838 552.042667576114
53.82849 494.001993709248
53.8486 544
53.86872 529.97310707347
53.88883 539.08737972273
53.90894 594.976084546711
53.92906 535.044039447942
53.94917 564.983683121983
53.96929 536.009122295611
53.9894 544
54.00951 520.987870554501
54.02963 521.043561955869
54.04974 556.025365682514
54.06985 556.931458738431
54.08997 604.964618538286
54.11008 589.026014414344
54.1302 563
54.15031 525.007253792474
54.17042 577.028749123954
54.19054 561.961462057886
54.21065 564.968772492498
54.23076 572.001566585609
54.25088 554.042074765128
54.27099 515.000479265857
54.29111 557.027371351288
54.31122 593.014731001886
54.33133 599.017453490937
54.35145 609.973661060306
54.37156 562.158716682178
54.39167 511.946144482338
54.41179 595.981744093914
54.4319 556
54.45201 538.997777714062
54.47213 539.02639712055
54.49224 570.053450984334
54.51236 577.022312881152
54.53247 559.022577289493
54.55258 549.012251810106
54.5727 530
54.59281 523.012313398749
54.61292 558.007593810744
54.63304 533.955338589079
54.65315 544.893190795289
54.67327 592.958931911928
54.69338 592.011748817
54.71349 588.996144345784
54.73361 594.994905844144
54.75372 568.973287325641
54.77383 572.072771007747
54.79395 631.044706641081
54.81406 605.04323818554
54.83417 611.982138854947
54.85429 601.018963831161
54.8744 574
54.89452 619.988686326886
54.91463 556.95152788233
54.93474 582.055144268861
54.95486 589.959320314725
54.97497 611.033880681475
54.99508 566.001307126952
55.0152 602
55.03531 552.979920172682
55.05543 561.056630332931
55.07554 577.927407549763
55.09565 528.969837804165
55.11577 576.026695212561
55.13588 502.020988575876
55.15599 562.968706391155
55.17611 582.004726231385
55.19622 586.971270095403
55.21634 528.894194500773
55.23645 521.109285635074
55.25656 579.940160668375
55.27668 554.065376361894
55.29679 507.991578141719
55.3169 576
55.33702 571.920120286811
55.35713 477.945025502723
55.37724 523.16173151226
55.39736 566.048822075645
55.41747 509.03828512169
55.43759 537.97871964335
55.4577 540
55.47781 481.999714073622
55.49793 531.041690926371
55.51804 511.957094607662
55.53815 512.989254523878
55.55827 513.984484303985
55.57838 525.009902302973
55.5985 503
55.61861 515.998396867515
55.63872 503.0162307204
55.65884 532.978174469645
55.67895 491.020591752653
55.69906 517.007534730733
55.71918 474.027009133413
55.73929 487.98742437021
55.75941 501.003483900222
55.77952 501.988759930823
55.79963 484.985281384525
55.81975 489.029470468879
55.83986 497.00313858166
55.85997 484.030749301003
55.88009 473.992528025036
55.9002 503
55.92031 498.995098705402
55.94043 494.996967761466
55.96054 491.993976621767
55.98066 490.995731551221
56.00077 504.950133089332
56.02088 524.036677784802
56.041 464
56.06111 504.005661934132
56.08122 460.954163541561
56.10134 465.111698439995
56.12145 523.974796717559
56.14157 482.068648685988
56.16168 472.979293775733
56.18179 510.975325137163
56.20191 541.993898486476
56.22202 501.972511262599
56.24213 508.031250576834
56.26225 523.017110962164
56.28236 517.04255569094
56.30248 493.011196562234
56.32259 487.011771949349
56.3427 453
56.36282 473.037687880126
56.38293 501.009702077699
56.40304 487.962072578151
56.42316 475.016134109183
56.44327 472.99004693147
56.46338 481.997637400037
56.4835 486
56.50361 508.993576755729
56.52373 465.953284320291
56.54384 471.048549669902
56.56395 490.978732382381
56.58407 494.980344086834
56.60418 507.013203648643
56.62429 470.017384149215
56.64441 464.011963944921
56.66452 498.022654660385
56.68464 501.997580066625
56.70475 495.940430892662
56.72486 470.991800132979
56.74498 506.959595562952
56.76509 513.020171389971
56.7852 461
56.80532 478.000662839886
56.82543 451.979760920021
56.84554 478.107160015131
56.86566 510.055698926102
56.88577 455.016741780633
56.90589 504.97144802475
56.926 515
56.94611 474.00167080614
56.96623 512.023956939549
56.98634 482.918521719907
57.00645 464.982915203067
57.02657 472.028765692976
57.04668 432.028428298129
57.0668 445
57.08691 496.005297187003
57.10702 462.959025028568
57.12714 452.044204833819
57.14725 488.925414215998
57.16736 495.026774552625
57.18748 479.005968944651
57.20759 484.996321309556
57.22771 487.000208496601
57.24782 484.990972025669
57.26793 480.022210495144
57.28805 506.031482566255
57.30816 491.064481242921
57.32827 456.049116168872
57.34839 449.979615028589
57.3685 504
57.38861 471.986838130995
57.40873 479.026935400117
57.42884 490.016381214536
57.44896 499.97639412376
57.46907 515.966930390488
57.48918 526.022377126078
57.5093 469
57.52941 432.0162199746
57.54952 496.023569729709
57.56964 467.960974407699
57.58975 475.020191212001
57.60987 445.024896679283
57.62998 462.961507415082
57.65009 486.007526680564
57.67021 457.001981586062
57.69032 491.01424530974
57.71043 467.957543743402
57.73055 466.061246473345
57.75066 489.014115934805
57.77078 458.020293564555
57.79089 464.991734392314
57.811 479
57.83112 505.035579080176
57.85123 512.913354287175
57.87134 435.978394302637
57.89146 483.97152130242
57.91157 448.015784488035
57.93168 473.005240105118
57.9518 435
57.97191 472.015345491168
57.99203 461.94719857267
58.01214 436.005316853139
58.03225 465.909434543629
58.05237 484.006778449803
58.07248 471.003058928716
58.09259 479.997623897974
58.11271 471.993524558
58.13282 452.966446716699
58.15294 424.007819387466
58.17305 461.105497219969
58.19316 475.041165351702
58.21328 438.028698526762
58.23339 447.972647079459
58.2535 493
58.27362 429.99600781316
58.29373 486.032360060254
58.31385 450.949972542103
58.33396 475.942880498893
58.35407 477.024974832026
58.37419 462.001820355031
58.3943 458
58.41441 431.006633750786
58.43453 485.079741037207
58.45464 491.911722376319
58.47475 441.01912891358
58.49487 469.985942540818
58.51498 461.967026013738
58.5351 519
58.55521 462.975537256156
58.57532 461.017989145533
58.59544 463.959802507223
58.61555 446.94852760718
58.63566 482.016981481574
58.65578 437.015944313485
58.67589 461.993786743862
58.69601 447.999568711904
58.71612 477.035921336769
58.73623 486.960234133725
58.75635 467.100642168286
58.77646 529.018491337094
58.79657 449.085992527501
58.81669 453.992831079365
58.8368 449
58.85691 474.022912666223
58.87703 506.984799080152
58.89714 470.97093031479
58.91726 491.953317209445
58.93737 484.060090515688
58.95748 448.991282163823
58.9776 488
58.99771 463.984289652418
59.01782 456.013377901579
59.03794 482.063455586862
59.05805 498.037554979908
59.07817 464.038151943173
59.09828 479.937121608508
59.11839 536.00567661499
59.13851 468.974971514872
59.15862 481.047650365355
59.17873 523.031014889093
59.19885 520.972125063011
59.21896 514.99982900512
59.23908 513.012973599018
59.25919 487.015854064162
59.2793 466
59.29942 488.036599475914
59.31953 503.951136576233
59.33964 461.025800383135
59.35976 524.91371223789
59.37987 515.037125920568
59.39998 502.012745106095
59.4201 487
59.44021 489.002655346903
59.46033 486.979852258762
59.48044 471.995257758702
59.50055 486.943114733859
59.52067 495.030132934128
59.54078 470.989981257464
59.56089 504.995161517333
59.58101 471.977169516109
59.60112 443.990966376902
59.62124 448.020479707058
59.64135 467.092034132287
59.66146 490.064276800659
59.68158 439.988983279957
59.70169 503.985220391529
59.7218 485
59.74192 526.015379544746
59.76203 500.971199791303
59.78215 509.027108401019
59.80226 513.971039829098
59.82237 548.924367452029
59.84249 584.003646211257
59.8626 558
59.88271 597.011582258138
59.90283 600.040431687268
59.92294 646.031004400566
59.94305 618.087559707995
59.96317 600.018894602368
59.98328 583.019101126121
60.0034 564
60.02351 549.99720378057
60.04362 536.96020281049
60.06374 491.983245872132
60.08385 527.884624940458
60.10396 547.024474558488
60.12408 522.014806090372
60.14419 508.022492581967
60.16431 457.000431906535
60.18442 495.002865715475
60.20453 441.913893925079
60.22465 430.082500249431
60.24476 469.982364249899
60.26487 454.991031620502
60.28499 479.003042444071
60.3051 452
60.32522 486.992044569481
60.34533 439.979381256912
60.36544 473.043048966534
60.38556 449.090373163824
60.40567 421.989321933138
60.42578 448.983550118238
60.4459 444
60.46601 450.007608063493
60.48612 467.014956765064
60.50624 477.011053113868
60.52635 475.032832772473
60.54647 461.996579959384
60.56658 479.981191801181
60.58669 492.992485372498
60.60681 502.994853816788
60.62692 469.957411173545
60.64703 445.011367169678
60.66715 474.061064032044
60.68726 467.079035613861
60.70738 437.973786868856
60.72749 493.992505846413
60.7476 458
60.76772 474.030725374032
60.78783 484.975906210959
60.80794 450.929362714273
60.82806 444.924199096033
60.84817 486.017549625495
60.86828 433.026486330529
60.8884 451
60.90851 451.014166510999
60.92863 500.030003658015
60.94874 476.937785150558
60.96885 458.051656148853
60.98897 444.972152341893
61.00908 490.955351938763
61.02919 493.026902522877
61.04931 431.997338885198
61.06942 486.054409189818
61.08954 494.951064108559
61.10965 476.033830988459
61.12976 501.023405571865
61.14988 452.038392679752
61.16999 446.997987548419
61.1901 449
61.21022 481.044237379113
61.23033 504.965228144759
61.25045 467.016299102186
61.27056 508.981955394355
61.29067 461.090948061479
61.31079 442.981763424003
61.3309 493
61.35101 464.994432322816
61.37113 495.060810201174
61.39124 511.97825728357
61.41135 486.059268011731
61.43147 473.015723243846
61.45158 481.946386485097
61.4717 542
61.49181 495.990622374444
61.51192 518.001772289984
61.53204 493.005203518991
61.55215 526.963704329351
61.57226 513.002154326314
61.59238 544.956726542128
61.61249 558.018860540649
61.63261 517.012123099271
61.65272 587.027474514373
61.67283 552.959471109297
61.69295 554.963107524009
61.71306 534.935604837387
61.73317 599.969561685418
61.75329 572.001230324589
61.7734 602
61.79352 564.999600852339
61.81363 600.000576086273
61.83374 559.967189354702
61.85386 584.959410417546
61.87397 578.016677697746
61.89408 577.996724913157
61.9142 581
61.93431 596.011305739551
61.95442 617.010048414481
61.97454 615.993667954002
61.99465 608.060158393438
62.01477 577.025173477798
62.03488 591.956733513516
62.05499 627.003572124032
62.07511 607.01513407616
62.09522 655.972731760716
62.11533 575.97887914995
62.13545 657.218240724686
62.15556 681.044202099089
62.17568 642.044146811977
62.19579 621.988714683096
62.2159 659
62.23602 629.983402356347
62.25613 656.079799073918
62.27624 689.965740919786
62.29636 632.111559171283
62.31647 618.956784414136
62.33659 660.986602095217
62.3567 644
62.37681 589.001862074868
62.39693 627.998098402228
62.41704 574.918147918681
62.43715 584.908719636824
62.45727 612.987482088415
62.47738 605.010027781611
62.49749 599.00501099858
62.51761 574.980283540213
62.53772 535.979701880046
62.55784 546.068460623022
62.57795 564.924800658847
62.59806 513.024441927214
62.61818 540.992331745571
62.63829 522.994261116688
62.6584 551
62.67852 485.973414418343
62.69863 525.079434261745
62.71875 546.991743874669
62.73886 531.043503091545
62.75897 512.02098921447
62.77909 494.016377715269
62.7992 476
62.81931 542.012813630486
62.83943 506.928408299306
62.85954 491.026500690457
62.87965 511.976134338211
62.89977 511.983357325813
62.91988 519.03307025933
62.94 466
62.96011 498.016963521972
62.98022 497.975585234434
63.00034 470.966197368225
63.02045 473.949128120641
63.04056 493.991697840826
63.06068 486.997965362619
63.08079 501.99422657499
63.10091 498.993803422188
63.12102 492.008200985724
63.14113 512.02770533362
63.16125 512.951211212158
63.18136 492.994115312005
63.20147 504.028375821922
63.22159 474.990371994634
63.2417 529
63.26182 486.950915433467
63.28193 470.005994530819
63.30204 472.982728976002
63.32216 457.016241025067
63.34227 480.902428394154
63.36238 541.001554121571
63.3825 477
63.40261 447.001303372796
63.42272 458.003261746031
63.44284 463.064259262989
63.46295 512.920192350441
63.48307 498.083498820337
63.50318 440.026894438059
63.52329 462.970723156982
63.54341 510.000744651142
63.56352 485.001071146482
63.58363 499.946714499141
63.60375 447.068562190474
63.62386 534.939892829378
63.64398 481.046587389894
63.66409 483.997981293174
63.6842 471
63.70432 479.981647529963
63.72443 451.019521997187
63.74454 508.100523713142
63.76466 512.064018416972
63.78477 482.995556352628
63.80489 508.99454016055
63.825 486
63.84511 467.007221312081
63.86523 499.028105807263
63.88534 498.005930113464
63.90545 508.009442526895
63.92557 495.990724012994
63.94568 512.009138962303
63.96579 495.984752851366
63.98591 551.001688978788
64.00602 492.946806587131
64.02614 492.067050285916
64.04625 522.014380396358
64.06636 499.07098336107
64.08648 500.926357068678
64.10659 579.010301281239
64.1267 484
64.14682 518.005223170486
64.16693 470.972432856929
64.18705 509.104550063162
64.20716 521.993901670371
64.22727 515.054559021549
64.24739 473.001797259337
64.2675 507
64.28761 496.984035293813
64.30773 479.026137591403
64.32784 507.990484717234
64.34796 475.020282890312
64.36807 496.98098403635
64.38818 487.004624262083
64.4083 505
64.42841 514.98478495867
64.44852 471.993532633735
64.46864 495.999468906304
64.48875 466.025641360882
64.50886 479.018743263232
64.52898 454.984815163556
64.54909 493.004875918114
64.56921 444.997087214749
64.58932 491.027296720088
64.60943 471.965501671041
64.62955 474.035222842011
64.64966 477.036723450575
64.66977 451.013968316809
64.68989 458.000634792168
64.71 449
64.73012 466.994396167882
64.75023 436.967007142847
64.77034 437.008374763887
64.79046 433.013244413891
64.81057 441.944216161762
64.83068 481.9960424816
64.8508 462
64.87091 482.985688873838
64.89102 427.00301342493
64.91114 486.051601769718
64.93125 455.056437564782
64.95137 466.988446109894
64.97148 457.002223236867
64.99159 472.990480482219
65.01171 468.980928100006
65.03182 439.032074194007
65.05193 502.012876268018
65.07205 450.92235746149
65.09216 475.923993697083
65.11228 473.055257938912
65.13239 417.994928889992
65.1525 474
65.17262 442.994597382161
65.19273 473.002102613433
65.21284 445.01101201016
65.23296 481.993528774961
65.25307 440.050295692848
65.27319 444.989864870739
65.2933 458
65.31341 462.003032300354
65.33353 458.958863012679
65.35364 415.932305753358
65.37375 423.854720882797
65.39387 488.971329547464
65.41398 461.023735240651
65.43409 468.991970013759
65.45421 467.990178342258
65.47432 443.987881439307
65.49444 454.052896553643
65.51455 472.982240839784
65.53466 447.037615584229
65.55478 453.974216119567
65.57489 485.984009648639
65.595 501
65.61512 467.967946091077
65.63523 457.015594566341
65.65535 473.013693380216
65.67546 457.064291499419
65.69557 424.034483343617
65.71569 424.985767991231
65.7358 459
65.75591 456.005002963868
65.77603 466.955451182044
65.79614 415.978239592142
65.81626 452.937649054761
65.83637 451.014315772836
65.85648 446.013864216301
65.8766 424
65.89671 428.011150097048
65.91682 460.033824545974
65.93694 484.019029743818
65.95705 469.111925168695
65.97716 427.000764962758
65.99728 461.9750894999
66.01739 454.009304369165
66.03751 442.996419869037
66.05762 432.984549175191
66.07773 428.036339149819
66.09785 461.005581409447
66.11796 425.083808330851
66.13807 414.957568709547
66.15819 459.983532916357
66.1783 460
66.19842 431.986264661571
66.21853 445.05399638181
66.23864 459.906540344944
66.25876 395.989960264389
66.27887 464.936944971551
66.29898 447.020589822978
66.3191 457
66.33921 452.986417505316
66.35933 417.963750997294
66.37944 421.057026889348
66.39955 444.030854359736
66.41967 411.013606606436
66.43978 430.99037632667
66.45989 415.008699543292
66.48001 426.022535747741
66.50012 468.998289167502
66.52023 436.991609224754
66.54035 451.933724732624
66.56046 395.027029225872
66.58058 434.969863866639
66.60069 428.004240604862
66.6208 434
66.64092 433.020201196789
66.66103 459.994109438256
66.68114 436.008502018197
66.70126 459.032172131735
66.72137 411.021873353169
66.74149 439.991331145025
66.7616 430
66.78171 451.003887211195
66.80183 436.981717848367
66.82194 429.956700719162
66.84205 412.932188526335
66.86217 459.000519095778
66.88228 416.016424244462
66.90239 450.979016125732
66.92251 458.988438109606
66.94262 427.981865928513
66.96274 434.042326357774
66.98285 438.915620017039
67.00296 408.921787601767
67.02308 475.015128584375
67.04319 399.004028283677
67.0633 469
67.08342 425.971686714155
67.10353 449.036958527386
67.12365 444.965781176488
67.14376 435.023086760859
67.16387 434.954806181673
67.18399 471.000873974381
67.2041 435
67.22421 442.003702165966
67.24433 436.999063611596
67.26444 449.032181437396
67.28456 458.002281648618
67.30467 452.999567426456
67.32478 459.994093912478
67.3449 458
67.36501 451.001570694944
67.38512 461.005383859475
67.40524 464.028247447517
67.42535 477.035303371331
67.44546 450.992932315495
67.46558 478.994406463767
67.48569 450.014388463908
67.50581 450.011477616988
67.52592 479.023523582146
67.54603 475.940653639523
67.56615 447.098069003955
67.58626 519.972466281831
67.60637 478.998949283749
67.62649 526.998064328792
67.6466 483
67.66672 541.054650008684
67.68683 544.955544046325
67.70694 527.044155470598
67.72706 547.105077068969
67.74717 449.067081042868
67.76728 485.951226949615
67.7874 489
67.80751 461.000271234925
67.82763 489.043295720328
67.84774 504.024506915646
67.86785 500.112080547893
67.88797 457.955069377122
67.90808 536.965076221691
67.92819 501.020494629755
67.94831 488.992874138759
67.96842 476.023343155693
67.98853 528.056217613363
68.00865 528.961734297338
68.02876 532.923101069245
68.04888 576.995322029073
68.06899 549.004600529394
68.0891 580
68.10922 595.985326260218
68.12933 569.981598638441
68.14944 565.948563917238
68.16956 526.031661945929
68.18967 546.951023965692
68.20979 571.988751922179
68.2299 577
68.25001 531.995209062609
68.27013 564.049042603735
68.29024 574.008001313978
68.31035 589.928457319442
68.33047 595.083877735498
68.35058 508.049270829623
68.3707 508
68.39081 479.996751309999
68.41092 507.030075853326
68.43104 516.993106184831
68.45115 517.033853985721
68.47126 524.059383416172
68.49138 469.037963236445
68.51149 466.994350167678
68.5316 466
68.55172 452.008893016078
68.57183 479.029381720219
68.59195 470.92319269277
68.61206 442.013869338031
68.63217 445.0282147808
68.65229 422.987177065204
68.6724 476
68.69251 438.993760068469
68.71263 464.008286314904
68.73274 435.962247826943
68.75286 456.902436607435
68.77297 489.027261541904
68.79308 429.059243710363
68.8132 406
68.83331 428.013419745129
68.85342 440.989734480863
68.87354 419.980552148799
68.89365 434.922311521265
68.91376 463.966770554599
68.93388 463.013786062101
68.95399 460.985187456362
68.97411 495.996827632174
68.99422 448.959786587809
69.01433 440.000276081514
69.03445 438.016663242142
69.05456 455.958524825471
69.07467 466.0093048217
69.09479 452.003867751047
69.1149 437
69.13502 388.014524540311
69.15513 456.07261691885
69.17524 453.976973424588
69.19536 455.010701974523
69.21547 444.99082112152
69.23558 450.034144008719
69.2557 411
69.27581 484.009386199797
69.29593 434.950774864594
69.31604 445.998891798844
69.33615 421.016473554595
69.35627 440.982021420392
69.37638 431.011419991334
69.39649 434.992116329594
69.41661 454.008484337929
69.43672 445.949115317984
69.45683 400.038002087799
69.47695 471.061469140229
69.49706 441.003099224983
69.51718 475.006559756435
69.53729 414.026300736857
69.5574 413
69.57752 446.020596675261
69.59763 444.97172037198
69.61774 419.954229005027
69.63786 413.964211281463
69.65797 434.010201497399
69.67809 408.004178775722
69.6982 436
69.71831 464.996873644656
69.73843 439.986115430093
69.75854 460.057199711085
69.77865 468.053863141852
69.79877 438.012179231892
69.81888 444.017771415382
69.839 416
69.85911 451.993424183676
69.87922 397.985052581596
69.89934 444.098728086693
69.91945 443.885984026071
69.93956 395.025884683585
69.95968 424.958920084136
69.97979 446.998105924755
69.9999 445
70.02002 454.003006619538
70.04013 439.954148109835
70.06025 417.022102584737
70.08036 440.009495808079
70.10047 414.993898952507
70.12059 446.995459130876
70.1407 414
70.16081 402.015026523425
70.18093 454.063878857362
70.20104 467.992787261123
70.22116 457.038205930493
70.24127 443.987251938031
70.26138 455.020997348643
70.2815 423
70.30161 469.005374842266
70.32172 431.970711391607
70.34184 425.956270175848
70.36195 398.954243470795
70.38207 456.938322740795
70.40218 452.024376819169
70.42229 431.010570600243
70.44241 424.012692696472
70.46252 453.988271740426
70.48263 418.005170638773
70.50275 457.017936895125
70.52286 415.081831269763
70.54297 403.006687504216
70.56309 402.988554626565
70.5832 433
70.60332 404.973547231848
70.62343 404.025507058954
70.64354 415.982586472844
70.66366 390.047436650517
70.68377 388.965208633879
70.70388 421.973709499216
70.724 430
70.74411 417.992728537142
70.76423 414.024559765699
70.78434 443.047623820803
70.80445 438.099564618876
70.82457 403.971264889279
70.84468 451.995391565625
70.86479 402.02164304748
70.88491 409.020083182272
70.90502 439.995992250717
70.92513 416.999412819101
70.94525 428.932084800175
70.96536 378.014358652141
70.98548 420.96772453308
71.00559 422.993778218762
71.0257 439
71.04582 386.993580175768
71.06593 432.05021436463
71.08604 417.929470581714
71.10616 396.993493654809
71.12627 419.957318014741
71.14639 433.004805410194
71.1665 410
71.18661 405.00260432827
71.20673 415.020845601735
71.22684 427.009744047288
71.24695 420.045901114602
71.26707 403.999995076197
71.28718 418.984771903443
71.3073 420
71.32741 403.99629304656
71.34752 414.024938582991
71.36764 429.970455356882
71.38775 407.959459087998
71.40786 448.986765181571
71.42798 411.033250230127
71.44809 419.980110474549
71.4682 449
71.48832 412.989489637686
71.50843 432.006038512598
71.52855 415.000589082331
71.54866 443.938683269595
71.56877 448.036801860491
71.58889 416.007945295723
71.609 423
71.62911 422.991503021353
71.64923 408.01468760352
71.66934 443.07552389921
71.68946 454.04718384916
71.70957 416.036193104648
71.72968 419.981551239103
71.7498 428
71.76991 411.00517879077
71.79002 441.011344985447
71.81014 420.947910153514
71.83025 422.902599380485
71.85037 465.993351059853
71.87048 422.05932569583
71.89059 401.979081935246
71.91071 471.019010860812
71.93082 452.958106881595
71.95093 431.01530231786
71.97105 454.010546996911
71.99116 429.065769268371
72.01127 421.952108953628
72.03139 466.990847652232
72.0515 451
72.07162 452.011055554298
72.09173 444.934469569259
72.11184 393.980812354453
72.13196 433.902241217439
72.15207 460.979360030931
72.17218 468.999346202244
72.1923 468
72.21241 468.990544666843
72.23253 442.99468791491
72.25264 450.958996654575
72.27275 419.957597387657
72.29287 470.981516275267
72.31298 433.027118246959
72.33309 439.998242849447
72.35321 435.009534839396
72.37332 476.027754954642
72.39344 469.948429310985
72.41355 440.927052628794
72.43366 430.947745950799
72.45378 466.99764416186
72.47389 432.016193029896
72.494 424
72.51412 418.998278042356
72.53423 418.989736401353
72.55434 411.010367732212
72.57446 432.94471777305
72.59457 455.972504493118
72.61469 450.025074196064
72.6348 396
72.65491 450.018483518953
72.67503 438.965598929797
72.69514 438.038170393733
72.71525 455.014252199332
72.73537 438.990072598064
72.75548 463.994074378802
72.7756 433
72.79571 412.01565289789
72.81582 464.015465511031
72.83594 440.986416428276
72.85605 460.993202334304
72.87616 430.073633820728
72.89628 420.974914487428
72.91639 451.999012618173
72.9365 430
72.95662 443.998255897732
72.97673 419.974512151592
72.99685 429.062785623601
73.01696 455.952602912035
73.03707 471.987848376194
73.05719 470.007121096068
73.0773 453
73.09741 451.995870131886
73.11753 433.976163072532
73.13764 437.054356167015
73.15776 465.000953348917
73.17787 437.038257647292
73.19798 430.999067850766
73.2181 435
73.23821 460.011254591512
73.25832 471.001610258257
73.27844 459.94193603702
73.29855 439.944964575454
73.31867 487.963183469614
73.33878 479.003571980766
73.35889 490.002166073366
73.37901 466.992571269196
73.39912 469.001148189026
73.41923 473.04227980692
73.43935 518.081313103049
73.45946 515.0659147618
73.47957 463.097272517085
73.49969 420.994097412327
73.5198 481
73.53992 509.968937087866
73.56003 451.949428003211
73.58014 455.004066773295
73.60026 453.93714463767
73.62037 508.950072741719
73.64048 489.059802603962
73.6606 439
73.68071 476.016148089597
73.70083 477.984955063489
73.72094 463.943935753587
73.74105 449.903760537021
73.76117 509.983128263763
73.78128 460.053209844868
73.80139 443.997731815919
73.82151 454.008548652287
73.84162 462.983764717544
73.86174 434.982124340924
73.88185 447.011217367299
73.90196 440.982338742266
73.92208 460.001072779087
73.94219 436.009680581576
73.9623 442
73.98242 464.00380419293
74.00253 452.989120961219
74.02264 460.026724414785
74.04276 466.014823958636
74.06287 451.015957202483
74.08299 446.004893533432
74.1031 435
74.12321 439.991867621323
74.14333 420.02742001709
74.16344 469.060060855826
74.18355 464.017859062689
74.20367 469.997975713544
74.22378 454.028041219603
74.2439 429
74.26401 427.998237138891
74.28412 424.010687569921
74.30424 446.02913219501
74.32435 450.971330822563
74.34446 466.001805975084
74.36458 447.01958901141
74.38469 439.999175617434
74.40481 431.984086593792
74.42492 404.018205275129
74.44503 465.086658442527
74.46515 480.950707742112
74.48526 453.029193605954
74.50537 450.021215026059
74.52549 432.994213312588
74.5456 462
74.56571 442.00044246673
74.58583 469.0207076216
74.60594 445.911089248124
74.62606 412.01163168518
74.64617 439.924777958423
74.66628 466.033642944779
74.6864 410
74.70651 454.008467432457
74.72662 417.960750853067
74.74674 422.089493448368
74.76685 465.991870139857
74.78697 442.99305338055
74.80708 472.00406302672
74.82719 431.011998735814
74.84731 445.009696121554
74.86742 444.988126656273
74.88753 427.965971868027
74.90765 411.00288701459
74.92776 437.904747002483
74.94787 473.010279017573
74.96799 434.015894488045
74.9881 432
75.00822 442.009108035972
