3.00117 20362
3.02128 19404
3.0414 18960
3.06151 18542
3.08162 17772
3.10174 17579
3.12185 16603
3.14197 16528
3.16208 15865
3.18219 15366
3.20231 15201
3.22242 14652
3.24253 14239
3.26265 13918
3.28276 13186
3.30288 12993
3.32299 12467
3.3431 12095
3.36322 12023
3.38333 11341
3.40344 10911
3.42356 10338
3.44367 10236
3.46379 10074
3.4839 9367
3.50401 9331
3.52413 8807
3.54424 8578
3.56435 8323
3.58447 7947
3.60458 7726
3.62469 7235
3.64481 7116
3.66492 6850
3.68504 6492
3.70515 6299
3.72526 5861
3.74538 5727
3.76549 5527
3.7856 5235
3.80572 5196
3.82583 4825
3.84595 4839
3.86606 4507
3.88617 4293
3.90629 4143
3.9264 3912
3.94651 3793
3.96663 3659
3.98674 3368
4.00686 3395
4.02697 3094
4.04708 2979
4.0672 2871
4.08731 2593
4.10742 2675
4.12754 2439
4.14765 2332
4.16776 2312
4.18788 2188
4.20799 2219
4.22811 2015
4.24822 1944
4.26833 1932
4.28845 1796
4.30856 1771
4.32867 1560
4.34879 1633
4.3689 1610
4.38902 1615
4.40913 1619
4.42924 1479
4.44936 1480
4.46947 1467
4.48958 1434
4.5097 1311
4.52981 1250
4.54992 1249
4.57004 1221
4.59015 1197
4.61027 1230
4.63038 1059
4.65049 1026
4.67061 1094
4.69072 1095
4.71083 1036
4.73095 1015
4.75106 966
4.77118 899
4.79129 916
4.8114 916
4.83152 905
4.85163 890
4.87174 900
4.89186 845
4.91197 831
4.93209 773
4.9522 755
4.97231 809
4.99243 715
5.01254 728
5.03265 691
5.05277 681
5.07288 655
5.09299 666
5.11311 615
5.13322 583
5.15334 646
5.17345 610
5.19356 600
5.21368 531
5.23379 535
5.2539 580
5.27402 520
5.29413 527
5.31425 489
5.33436 509
5.35447 489
5.37459 440
5.3947 468
5.41481 470
5.43493 398
5.45504 446
5.47516 424
5.49527 453
5.51538 424
5.5355 349
5.55561 380
5.57572 370
5.59584 412
5.61595 379
5.63606 376
5.65618 376
5.67629 336
5.69641 370
5.71652 333
5.73663 334
5.75675 333
5.77686 312
5.79697 347
5.81709 285
5.8372 290
5.85732 330
5.87743 291
5.89754 293
5.91766 287
5.93777 292
5.95788 264
5.978 278
5.99811 250
6.01823 301
6.03834 272
6.05845 299
6.07857 289
6.09868 236
6.11879 255
6.13891 286
6.15902 256
6.17913 266
6.19925 247
6.21936 264
6.23948 259
6.25959 237
6.2797 240
6.29982 241
6.31993 280
6.34004 229
6.36016 231
6.38027 245
6.40039 232
6.4205 261
6.44061 212
6.46073 230
6.48084 258
6.50095 208
6.52107 222
6.54118 228
6.56129 218
6.58141 212
6.60152 240
6.62164 228
6.64175 206
6.66186 217
6.68198 206
6.70209 209
6.7222 238
6.74232 245
6.76243 240
6.78255 188
6.80266 195
6.82277 220
6.84289 226
6.863 203
6.88311 210
6.90323 202
6.92334 208
6.94346 210
6.96357 202
6.98368 199
7.0038 236
7.02391 219
7.04402 233
7.06414 200
7.08425 216
7.10436 259
7.12448 218
7.14459 224
7.16471 220
7.18482 200
7.20493 251
7.22505 204
7.24516 208
7.26527 224
7.28539 187
7.3055 220
7.32562 228
7.34573 201
7.36584 204
7.38596 203
7.40607 181
7.42618 215
7.4463 222
7.46641 227
7.48653 205
7.50664 203
7.52675 208
7.54687 222
7.56698 194
7.58709 239
7.60721 239
7.62732 226
7.64743 206
7.66755 201
7.68766 211
7.70778 214
7.72789 224
7.748 209
7.76812 218
7.78823 215
7.80834 178
7.82846 210
7.84857 229
7.86869 223
7.8888 210
7.90891 221
7.92903 205
7.94914 187
7.96925 206
7.98937 204
8.00948 205
8.0296 185
8.04971 187
8.06982 205
8.08994 217
8.11005 217
8.13016 240
8.15028 232
8.17039 230
8.1905 194
8.21062 203
8.23073 222
8.25085 230
8.27096 215
8.29107 221
8.31119 219
8.3313 232
8.35141 208
8.37153 229
8.39164 239
8.41176 231
8.43187 219
8.45198 222
8.4721 243
8.49221 226
8.51232 232
8.53244 228
8.55255 239
8.57266 191
8.59278 248
8.61289 237
8.63301 231
8.65312 203
8.67323 238
8.69335 237
8.71346 211
8.73357 233
8.75369 241
8.7738 227
8.79392 220
8.81403 232
8.83414 248
8.85426 219
8.87437 225
8.89448 236
8.9146 268
8.93471 233
8.95483 242
8.97494 265
8.99505 202
9.01517 196
9.03528 214
9.05539 208
9.07551 209
9.09562 219
9.11573 226
9.13585 223
9.15596 229
9.17608 243
9.19619 248
9.2163 212
9.23642 212
9.25653 226
9.27664 216
9.29676 189
9.31687 220
9.33699 250
9.3571 204
9.37721 230
9.39733 227
9.41744 215
9.43755 220
9.45767 227
9.47778 237
9.4979 210
9.51801 241
9.53812 230
9.55824 243
9.57835 214
9.59846 229
9.61858 236
9.63869 226
9.6588 238
9.67892 236
9.69903 224
9.71915 235
9.73926 231
9.75937 204
9.77949 224
9.7996 207
9.81971 242
9.83983 250
9.85994 205
9.88006 241
9.90017 199
9.92028 251
9.9404 205
9.96051 266
9.98062 217
10.00074 238
10.02085 250
10.04097 245
10.06108 221
10.08119 240
10.10131 249
10.12142 213
10.14153 235
10.16165 255
10.18176 235
10.20187 222
10.22199 236
10.2421 225
10.26222 202
10.28233 260
10.30244 207
10.32256 215
10.34267 252
10.36278 186
10.3829 233
10.40301 232
10.42313 226
10.44324 215
10.46335 231
10.48347 223
10.50358 215
10.52369 219
10.54381 221
10.56392 229
10.58403 251
10.60415 218
10.62426 289
10.64438 235
10.66449 227
10.6846 221
10.70472 228
10.72483 204
10.74494 235
10.76506 261
10.78517 243
10.80529 251
10.8254 249
10.84551 233
10.86563 242
10.88574 229
10.90585 252
10.92597 239
10.94608 248
10.9662 235
10.98631 254
11.00642 231
11.02654 214
11.04665 244
11.06676 230
11.08688 219
11.10699 241
11.1271 249
11.14722 213
11.16733 212
11.18745 231
11.20756 259
11.22767 244
11.24779 241
11.2679 271
11.28801 264
11.30813 234
11.32824 231
11.34836 234
11.36847 237
11.38858 205
11.4087 234
11.42881 224
11.44892 229
11.46904 248
11.48915 241
11.50927 223
11.52938 230
11.54949 229
11.56961 261
11.58972 269
11.60983 241
11.62995 263
11.65006 249
11.67017 231
11.69029 247
11.7104 265
11.73052 265
11.75063 275
11.77074 279
11.79086 263
11.81097 269
11.83108 263
11.8512 271
11.87131 235
11.89143 286
11.91154 238
11.93165 254
11.95177 259
11.97188 277
11.99199 300
12.01211 304
12.03222 317
12.05234 337
12.07245 314
12.09256 305
12.11268 300
12.13279 313
12.1529 310
12.17302 348
12.19313 377
12.21324 347
12.23336 375
12.25347 356
12.27359 388
12.2937 353
12.31381 357
12.33393 349
12.35404 322
12.37415 292
12.39427 374
12.41438 298
12.4345 283
12.45461 338
12.47472 279
12.49484 282
12.51495 276
12.53506 239
12.55518 267
12.57529 285
12.5954 250
12.61552 271
12.63563 259
12.65575 265
12.67586 243
12.69597 261
12.71609 237
12.7362 255
12.75631 252
12.77643 224
12.79654 223
12.81666 242
12.83677 228
12.85688 237
12.877 202
12.89711 200
12.91722 205
12.93734 232
12.95745 253
12.97757 225
12.99768 257
13.01779 232
13.03791 247
13.05802 245
13.07813 294
13.09825 271
13.11836 261
13.13847 257
13.15859 253
13.1787 253
13.19882 258
13.21893 223
13.23904 229
13.25916 223
13.27927 225
13.29938 260
13.3195 245
13.33961 248
13.35973 245
13.37984 240
13.39995 226
13.42007 237
13.44018 249
13.46029 244
13.48041 250
13.50052 250
13.52064 240
13.54075 265
13.56086 295
13.58098 308
13.60109 358
13.6212 304
13.64132 311
13.66143 293
13.68154 249
13.70166 271
13.72177 213
13.74189 208
13.762 239
13.78211 221
13.80223 225
13.82234 197
13.84245 220
13.86257 230
13.88268 212
13.9028 184
13.92291 218
13.94302 237
13.96314 218
13.98325 181
14.00336 206
14.02348 206
14.04359 180
14.06371 181
14.08382 188
14.10393 194
14.12405 172
14.14416 167
14.16427 196
14.18439 197
14.2045 186
14.22461 196
14.24473 217
14.26484 209
14.28496 202
14.30507 191
14.32518 230
14.3453 203
14.36541 215
14.38552 222
14.40564 194
14.42575 217
14.44587 189
14.46598 207
14.48609 185
14.50621 209
14.52632 202
14.54643 178
14.56655 201
14.58666 197
14.60677 198
14.62689 183
14.647 198
14.66712 218
14.68723 233
14.70734 206
14.72746 199
14.74757 191
14.76768 216
14.7878 213
14.80791 220
14.82803 234
14.84814 261
14.86825 245
14.88837 245
14.90848 255
14.92859 229
14.94871 249
14.96882 234
14.98894 252
15.00905 234
15.02916 209
15.04928 227
15.06939 243
15.0895 231
15.10962 229
15.12973 246
15.14984 229
15.16996 214
15.19007 235
15.21019 224
15.2303 204
15.25041 196
15.27053 190
15.29064 212
15.31075 217
15.33087 241
15.35098 185
15.3711 190
15.39121 183
15.41132 217
15.43144 180
15.45155 175
15.47166 207
15.49178 177
15.51189 183
15.53201 200
15.55212 174
15.57223 188
15.59235 204
15.61246 175
15.63257 200
15.65269 211
15.6728 185
15.69291 189
15.71303 192
15.73314 207
15.75326 189
15.77337 216
15.79348 207
15.8136 200
15.83371 173
15.85382 177
15.87394 175
15.89405 189
15.91417 222
15.93428 189
15.95439 181
15.97451 179
15.99462 191
16.01473 189
16.03485 207
16.05496 173
16.07508 170
16.09519 182
16.1153 221
16.13542 170
16.15553 196
16.17564 197
16.19576 193
16.21587 198
16.23598 198
16.2561 183
16.27621 170
16.29633 192
16.31644 160
16.33655 173
16.35667 195
16.37678 176
16.39689 158
16.41701 180
16.43712 176
16.45724 169
16.47735 187
16.49746 206
16.51758 175
16.53769 173
16.5578 164
16.57792 166
16.59803 177
16.61814 191
16.63826 161
16.65837 169
16.67849 162
16.6986 194
16.71871 193
16.73883 174
16.75894 178
16.77905 207
16.79917 187
16.81928 185
16.8394 152
16.85951 202
16.87962 184
16.89974 178
16.91985 203
16.93996 167
16.96008 184
16.98019 187
17.00031 185
17.02042 166
17.04053 172
17.06065 179
17.08076 175
17.10087 171
17.12099 189
17.1411 184
17.16121 183
17.18133 157
17.20144 190
17.22156 185
17.24167 161
17.26178 189
17.2819 188
17.30201 171
17.32212 156
17.34224 179
17.36235 183
17.38247 167
17.40258 173
17.42269 187
17.44281 182
17.46292 158
17.48303 154
17.50315 179
17.52326 182
17.54338 180
17.56349 179
17.5836 203
17.60372 192
17.62383 174
17.64394 177
17.66406 181
17.68417 174
17.70428 181
17.7244 191
17.74451 200
17.76463 176
17.78474 175
17.80485 168
17.82497 195
17.84508 179
17.86519 173
17.88531 189
17.90542 182
17.92554 164
17.94565 183
17.96576 173
17.98588 189
18.00599 196
18.0261 206
18.04622 181
18.06633 190
18.08645 171
18.10656 152
18.12667 190
18.14679 162
18.1669 188
18.18701 175
18.20713 149
18.22724 173
18.24735 179
18.26747 169
18.28758 196
18.3077 196
18.32781 177
18.34792 196
18.36804 161
18.38815 154
18.40826 179
18.42838 210
18.44849 193
18.46861 201
18.48872 183
18.50883 176
18.52895 178
18.54906 177
18.56917 188
18.58929 193
18.6094 175
18.62951 184
18.64963 203
18.66974 191
18.68986 192
18.70997 180
18.73008 220
18.7502 190
18.77031 185
18.79042 174
18.81054 209
18.83065 172
18.85077 194
18.87088 182
18.89099 168
18.91111 198
18.93122 157
18.95133 225
18.97145 197
18.99156 189
19.01168 176
19.03179 183
19.0519 168
19.07202 167
19.09213 159
19.11224 190
19.13236 224
19.15247 205
19.17258 197
19.1927 223
19.21281 217
19.23293 188
19.25304 212
19.27315 248
19.29327 228
19.31338 216
19.33349 219
19.35361 214
19.37372 197
19.39384 208
19.41395 205
19.43406 210
19.45418 179
19.47429 215
19.4944 189
19.51452 206
19.53463 211
19.55475 202
19.57486 229
19.59497 238
19.61509 229
19.6352 214
19.65531 248
19.67543 282
19.69554 259
19.71565 302
19.73577 312
19.75588 286
19.776 334
19.79611 330
19.81622 337
19.83634 383
19.85645 349
19.87656 363
19.89668 343
19.91679 358
19.93691 399
19.95702 342
19.97713 354
19.99725 343
20.01736 315
20.03747 349
20.05759 353
20.0777 318
20.09782 335
20.11793 319
20.13804 362
20.15816 339
20.17827 364
20.19838 350
20.2185 349
20.23861 334
20.25872 349
20.27884 355
20.29895 403
20.31907 335
20.33918 354
20.35929 344
20.37941 405
20.39952 374
20.41963 396
20.43975 396
20.45986 404
20.47998 381
20.50009 429
20.5202 467
20.54032 486
20.56043 520
20.58054 515
20.60066 552
20.62077 671
20.64088 772
20.661 1016
20.68111 1292
20.70123 1811
20.72134 2376
20.74145 2888
20.76157 3744
20.78168 4192
20.80179 4592
20.82191 4590
20.84202 4428
20.86214 3560
20.88225 2851
20.90236 2272
20.92248 1784
20.94259 1412
20.9627 1353
20.98282 1292
21.00293 1204
21.02305 950
21.04316 878
21.06327 714
21.08339 665
21.1035 529
21.12361 471
21.14373 416
21.16384 420
21.18395 378
21.20407 394
21.22418 352
21.2443 374
21.26441 332
21.28452 344
21.30464 341
21.32475 346
21.34486 299
21.36498 325
21.38509 340
21.40521 363
21.42532 299
21.44543 305
21.46555 300
21.48566 309
21.50577 300
21.52589 300
21.546 264
21.56612 272
21.58623 291
21.60634 291
21.62646 277
21.64657 276
21.66668 282
21.6868 238
21.70691 261
21.72702 290
21.74714 275
21.76725 290
21.78737 292
21.80748 280
21.82759 266
21.84771 272
21.86782 296
21.88793 261
21.90805 309
21.92816 310
21.94828 306
21.96839 287
21.9885 278
22.00862 301
22.02873 286
22.04884 272
22.06896 259
22.08907 303
22.10919 280
22.1293 300
22.14941 328
22.16953 347
22.18964 351
22.20975 370
22.22987 386
22.24998 382
22.27009 389
22.29021 382
22.31032 397
22.33044 353
22.35055 341
22.37066 379
22.39078 375
22.41089 360
22.431 330
22.45112 346
22.47123 336
22.49135 309
22.51146 311
22.53157 318
22.55169 328
22.5718 323
22.59191 319
22.61203 330
22.63214 285
22.65225 300
22.67237 289
22.69248 267
22.7126 276
22.73271 261
22.75282 273
22.77294 293
22.79305 259
22.81316 297
22.83328 272
22.85339 284
22.87351 293
22.89362 293
22.91373 291
22.93385 320
22.95396 329
22.97407 378
22.99419 357
23.0143 348
23.03442 387
23.05453 442
23.07464 467
23.09476 445
23.11487 502
23.13498 483
23.1551 520
23.17521 535
23.19532 492
23.21544 444
23.23555 463
23.25567 412
23.27578 406
23.29589 408
23.31601 389
23.33612 375
23.35623 373
23.37635 378
23.39646 386
23.41658 406
23.43669 389
23.4568 412
23.47692 396
23.49703 390
23.51714 431
23.53726 397
23.55737 398
23.57749 395
23.5976 367
23.61771 385
23.63783 397
23.65794 364
23.67805 433
23.69817 400
23.71828 395
23.73839 377
23.75851 435
23.77862 406
23.79874 428
23.81885 451
23.83896 473
23.85908 529
23.87919 480
23.8993 515
23.91942 505
23.93953 523
23.95965 500
23.97976 463
23.99987 503
24.01999 442
24.0401 367
24.06021 371
24.08033 335
24.10044 330
24.12056 342
24.14067 333
24.16078 325
24.1809 358
24.20101 387
24.22112 364
24.24124 325
24.26135 404
24.28146 364
24.30158 397
24.32169 349
24.34181 345
24.36192 372
24.38203 377
24.40215 358
24.42226 322
24.44237 367
24.46249 370
24.4826 354
24.50272 370
24.52283 350
24.54294 353
24.56306 371
24.58317 388
24.60328 401
24.6234 394
24.64351 408
24.66362 420
24.68374 420
24.70385 420
24.72397 432
24.74408 389
24.76419 398
24.78431 434
24.80442 410
24.82453 383
24.84465 441
24.86476 381
24.88488 381
24.90499 393
24.9251 381
24.94522 391
24.96533 392
24.98544 350
25.00556 391
25.02567 354
25.04579 343
25.0659 349
25.08601 355
25.10613 333
25.12624 344
25.14635 338
25.16647 378
25.18658 398
25.20669 359
25.22681 370
25.24692 387
25.26704 364
25.28715 373
25.30726 389
25.32738 424
25.34749 472
25.3676 417
25.38772 535
25.40783 540
25.42795 633
25.44806 693
25.46817 707
25.48829 780
25.5084 852
25.52851 841
25.54863 790
25.56874 890
25.58886 841
25.60897 801
25.62908 737
25.6492 651
25.66931 609
25.68942 524
25.70954 481
25.72965 515
25.74976 432
25.76988 446
25.78999 408
25.81011 425
25.83022 415
25.85033 425
25.87045 454
25.89056 405
25.91067 442
25.93079 430
25.9509 451
25.97102 497
25.99113 460
26.01124 466
26.03136 488
26.05147 523
26.07158 562
26.0917 646
26.11181 647
26.13193 666
26.15204 697
26.17215 719
26.19227 843
26.21238 871
26.23249 910
26.25261 1068
26.27272 1052
26.29283 1352
26.31295 1414
26.33306 1600
26.35318 1965
26.37329 2161
26.3934 2789
26.41352 3476
26.43363 4434
26.45374 5928
26.47386 7784
26.49397 10193
26.51409 12959
26.5342 15998
26.55431 18061
26.57443 19815
26.59454 20066
26.61465 18516
26.63477 15202
26.65488 11900
26.67499 8632
26.69511 6219
26.71522 4130
26.73534 2568
26.75545 1836
26.77556 1484
26.79568 1289
26.81579 1283
26.8359 1183
26.85602 1249
26.87613 1214
26.89625 1186
26.91636 1183
26.93647 1254
26.95659 1301
26.9767 1300
26.99681 1317
27.01693 1340
27.03704 1268
27.05716 1181
27.07727 1065
27.09738 1059
27.1175 844
27.13761 831
27.15772 777
27.17784 733
27.19795 781
27.21806 867
27.23818 840
27.25829 917
27.27841 1016
27.29852 1142
27.31863 1375
27.33875 1500
27.35886 1617
27.37897 1686
27.39909 1856
27.4192 1790
27.43932 1774
27.45943 1524
27.47954 1390
27.49966 1135
27.51977 994
27.53988 837
27.56 686
27.58011 569
27.60023 497
27.62034 461
27.64045 441
27.66057 404
27.68068 406
27.70079 416
27.72091 386
27.74102 357
27.76113 367
27.78125 379
27.80136 395
27.82148 405
27.84159 373
27.8617 340
27.88182 322
27.90193 345
27.92204 326
27.94216 353
27.96227 353
27.98239 296
28.0025 316
28.02261 278
28.04273 289
28.06284 277
28.08295 280
28.10307 282
28.12318 284
28.1433 242
28.16341 298
28.18352 274
28.20364 278
28.22375 260
28.24386 258
28.26398 278
28.28409 253
28.3042 262
28.32432 248
28.34443 266
28.36455 275
28.38466 277
28.40477 247
28.42489 247
28.445 262
28.46511 239
28.48523 278
28.50534 271
28.52546 275
28.54557 258
28.56568 245
28.5858 226
28.60591 246
28.62602 255
28.64614 240
28.66625 236
28.68636 216
28.70648 222
28.72659 249
28.74671 234
28.76682 246
28.78693 237
28.80705 247
28.82716 254
28.84727 235
28.86739 235
28.8875 249
28.90762 244
28.92773 277
28.94784 232
28.96796 218
28.98807 251
29.00818 225
29.0283 256
29.04841 252
29.06853 246
29.08864 268
29.10875 246
29.12887 273
29.14898 256
29.16909 238
29.18921 242
29.20932 239
29.22943 254
29.24955 305
29.26966 294
29.28978 302
29.30989 320
29.33 343
29.35012 375
29.37023 364
29.39034 393
29.41046 395
29.43057 421
29.45069 446
29.4708 407
29.49091 344
29.51103 349
29.53114 373
29.55125 354
29.57137 297
29.59148 340
29.6116 361
29.63171 327
29.65182 331
29.67194 300
29.69205 313
29.71216 360
29.73228 325
29.75239 334
29.7725 320
29.79262 297
29.81273 331
29.83285 322
29.85296 349
29.87307 386
29.89319 356
29.9133 335
29.93341 383
29.95353 402
29.97364 361
29.99376 417
30.01387 387
30.03398 433
30.0541 402
30.07421 430
30.09432 439
30.11444 426
30.13455 460
30.15467 427
30.17478 444
30.19489 430
30.21501 380
30.23512 368
30.25523 307
30.27535 335
30.29546 331
30.31557 325
30.33569 274
30.3558 290
30.37592 267
30.39603 282
30.41614 282
30.43626 278
30.45637 272
30.47648 272
30.4966 304
30.51671 272
30.53683 327
30.55694 338
30.57705 338
30.59717 419
30.61728 418
30.63739 435
30.65751 448
30.67762 505
30.69773 518
30.71785 555
30.73796 575
30.75808 534
30.77819 534
30.7983 520
30.81842 472
30.83853 452
30.85864 382
30.87876 324
30.89887 341
30.91899 295
30.9391 273
30.95921 252
30.97933 225
30.99944 226
31.01955 231
31.03967 202
31.05978 208
31.0799 226
31.10001 198
31.12012 194
31.14024 185
31.16035 205
31.18046 202
31.20058 218
31.22069 214
31.2408 226
31.26092 202
31.28103 193
31.30115 201
31.32126 199
31.34137 211
31.36149 208
31.3816 197
31.40171 202
31.42183 192
31.44194 203
31.46206 219
31.48217 209
31.50228 211
31.5224 229
31.54251 206
31.56262 233
31.58274 177
31.60285 187
31.62297 192
31.64308 204
31.66319 173
31.68331 197
31.70342 197
31.72353 202
31.74365 182
31.76376 218
31.78387 192
31.80399 197
31.8241 195
31.84422 235
31.86433 193
31.88444 193
31.90456 235
31.92467 232
31.94478 229
31.9649 221
31.98501 268
32.00513 245
32.02524 238
32.04535 232
32.06547 233
32.08558 309
32.10569 296
32.12581 285
32.14592 299
32.16604 283
32.18615 295
32.20626 301
32.22638 290
32.24649 302
32.2666 338
32.28672 311
32.30683 327
32.32694 314
32.34706 332
32.36717 329
32.38729 300
32.4074 327
32.42751 292
32.44763 280
32.46774 276
32.48785 277
32.50797 268
32.52808 246
32.5482 276
32.56831 215
32.58842 230
32.60854 215
32.62865 207
32.64876 182
32.66888 167
32.68899 190
32.7091 164
32.72922 205
32.74933 182
32.76945 207
32.78956 205
32.80967 189
32.82979 208
32.8499 203
32.87001 210
32.89013 206
32.91024 163
32.93036 182
32.95047 184
32.97058 189
32.9907 202
33.01081 178
33.03092 191
33.05104 214
33.07115 182
33.09127 190
33.11138 189
33.13149 199
33.15161 191
33.17172 178
33.19183 182
33.21195 202
33.23206 167
33.25217 181
33.27229 168
33.2924 202
33.31252 203
33.33263 175
33.35274 201
33.37286 172
33.39297 198
33.41308 163
33.4332 164
33.45331 211
33.47343 209
33.49354 209
33.51365 196
33.53377 181
33.55388 222
33.57399 189
33.59411 199
33.61422 171
33.63434 216
33.65445 220
33.67456 215
33.69468 203
33.71479 187
33.7349 198
33.75502 216
33.77513 227
33.79524 212
33.81536 222
33.83547 178
33.85559 197
33.8757 216
33.89581 213
33.91593 231
33.93604 234
33.95615 246
33.97627 223
33.99638 261
34.0165 267
34.03661 302
34.05672 278
34.07684 348
34.09695 321
34.11706 299
34.13718 334
34.15729 330
34.17741 319
34.19752 340
34.21763 337
34.23775 311
34.25786 332
34.27797 289
34.29809 301
34.3182 304
34.33831 269
34.35843 274
34.37854 316
34.39866 285
34.41877 262
34.43888 297
34.459 325
34.47911 360
34.49922 308
34.51934 318
34.53945 284
34.55957 314
34.57968 365
34.59979 342
34.61991 327
34.64002 351
34.66013 324
34.68025 332
34.70036 310
34.72047 338
34.74059 304
34.7607 307
34.78082 319
34.80093 328
34.82104 388
34.84116 346
34.86127 338
34.88138 344
34.9015 363
34.92161 358
34.94173 368
34.96184 341
34.98195 360
35.00207 366
35.02218 334
35.04229 378
35.06241 320
35.08252 372
35.10264 332
35.12275 364
35.14286 328
35.16298 341
35.18309 356
35.2032 335
35.22332 352
35.24343 334
35.26354 305
35.28366 345
35.30377 358
35.32389 326
35.344 379
35.36411 424
35.38423 395
35.40434 384
35.42445 346
35.44457 385
35.46468 388
35.4848 396
35.50491 371
35.52502 358
35.54514 406
35.56525 338
35.58536 351
35.60548 328
35.62559 335
35.64571 336
35.66582 324
35.68593 326
35.70605 319
35.72616 303
35.74627 300
35.76639 306
35.7865 281
35.80661 315
35.82673 297
35.84684 281
35.86696 258
35.88707 289
35.90718 301
35.9273 268
35.94741 265
35.96752 292
35.98764 250
36.00775 238
36.02787 269
36.04798 278
36.06809 271
36.08821 289
36.10832 265
36.12843 313
36.14855 268
36.16866 294
36.18878 306
36.20889 284
36.229 310
36.24912 368
36.26923 398
36.28934 424
36.30946 479
36.32957 592
36.34968 645
36.3698 777
36.38991 935
36.41003 1073
36.43014 1237
36.45025 1322
36.47037 1480
36.49048 1474
36.51059 1399
36.53071 1271
36.55082 1111
36.57094 925
36.59105 783
36.61116 728
36.63128 535
36.65139 433
36.6715 355
36.69162 340
36.71173 299
36.73184 301
36.75196 265
36.77207 313
36.79219 344
36.8123 294
36.83241 300
36.85253 325
36.87264 316
36.89275 323
36.91287 311
36.93298 324
36.9531 307
36.97321 305
36.99332 308
37.01344 273
37.03355 284
37.05366 325
37.07378 276
37.09389 313
37.11401 291
37.13412 262
37.15423 258
37.17435 246
37.19446 288
37.21457 256
37.23469 285
37.2548 229
37.27491 255
37.29503 261
37.31514 250
37.33526 230
37.35537 248
37.37548 210
37.3956 239
37.41571 260
37.43582 242
37.45594 260
37.47605 248
37.49617 252
37.51628 236
37.53639 265
37.55651 234
37.57662 252
37.59673 235
37.61685 243
37.63696 249
37.65708 211
37.67719 225
37.6973 254
37.71742 235
37.73753 224
37.75764 243
37.77776 217
37.79787 255
37.81798 230
37.8381 195
37.85821 241
37.87833 222
37.89844 247
37.91855 232
37.93867 198
37.95878 212
37.97889 210
37.99901 217
38.01912 236
38.03924 224
38.05935 210
38.07946 222
38.09958 244
38.11969 255
38.1398 234
38.15992 235
38.18003 254
38.20015 229
38.22026 258
38.24037 216
38.26049 269
38.2806 271
38.30071 240
38.32083 239
38.34094 277
38.36105 237
38.38117 287
38.40128 283
38.4214 281
38.44151 325
38.46162 259
38.48174 297
38.50185 333
38.52196 321
38.54208 283
38.56219 303
38.58231 277
38.60242 270
38.62253 264
38.64265 234
38.66276 264
38.68287 236
38.70299 262
38.7231 272
38.74321 232
38.76333 215
38.78344 206
38.80356 212
38.82367 215
38.84378 234
38.8639 228
38.88401 225
38.90412 229
38.92424 216
38.94435 220
38.96447 246
38.98458 263
39.00469 243
39.02481 252
39.04492 264
39.06503 289
39.08515 264
39.10526 271
39.12538 285
39.14549 281
39.1656 316
39.18572 370
39.20583 397
39.22594 426
39.24606 477
39.26617 571
39.28628 713
39.3064 903
39.32651 1027
39.34663 1191
39.36674 1343
39.38685 1331
39.40697 1377
39.42708 1272
39.44719 1205
39.46731 1014
39.48742 952
39.50754 834
39.52765 695
39.54776 510
39.56788 476
39.58799 372
39.6081 285
39.62822 264
39.64833 267
39.66845 235
39.68856 215
39.70867 245
39.72879 220
39.7489 254
39.76901 225
39.78913 221
39.80924 232
39.82935 250
39.84947 234
39.86958 226
39.8897 220
39.90981 223
39.92992 221
39.95004 231
39.97015 259
39.99026 256
40.01038 295
40.03049 289
40.05061 349
40.07072 353
40.09083 380
40.11095 431
40.13106 502
40.15117 556
40.17129 656
40.1914 749
40.21152 748
40.23163 739
40.25174 721
40.27186 682
40.29197 600
40.31208 535
40.3322 522
40.35231 475
40.37242 419
40.39254 328
40.41265 302
40.43277 268
40.45288 240
40.47299 235
40.49311 229
40.51322 228
40.53333 237
40.55345 198
40.57356 219
40.59368 223
40.61379 230
40.6339 228
40.65402 207
40.67413 219
40.69424 204
40.71436 197
40.73447 223
40.75458 207
40.7747 193
40.79481 212
40.81493 199
40.83504 201
40.85515 211
40.87527 200
40.89538 181
40.91549 200
40.93561 182
40.95572 203
40.97584 181
40.99595 178
41.01606 201
41.03618 191
41.05629 213
41.0764 183
41.09652 209
41.11663 223
41.13675 197
41.15686 203
41.17697 190
41.19709 216
41.2172 188
41.23731 203
41.25743 229
41.27754 194
41.29765 196
41.31777 197
41.33788 212
41.358 217
41.37811 222
41.39822 244
41.41834 250
41.43845 236
41.45856 230
41.47868 205
41.49879 246
41.51891 253
41.53902 273
41.55913 267
41.57925 293
41.59936 321
41.61947 384
41.63959 367
41.6597 416
41.67982 433
41.69993 426
41.72004 504
41.74016 496
41.76027 443
41.78038 436
41.8005 408
41.82061 384
41.84072 354
41.86084 321
41.88095 297
41.90107 304
41.92118 268
41.94129 257
41.96141 251
41.98152 237
42.00163 225
42.02175 255
42.04186 246
42.06198 242
42.08209 242
42.1022 246
42.12232 290
42.14243 281
42.16254 305
42.18266 324
42.20277 356
42.22289 423
42.243 464
42.26311 519
42.28323 609
42.30334 802
42.32345 820
42.34357 966
42.36368 968
42.38379 965
42.40391 990
42.42402 928
42.44414 825
42.46425 690
42.48436 623
42.50448 559
42.52459 502
42.5447 457
42.56482 401
42.58493 321
42.60505 291
42.62516 265
42.64527 274
42.66539 264
42.6855 234
42.70561 252
42.72573 285
42.74584 256
42.76595 233
42.78607 217
42.80618 253
42.8263 212
42.84641 236
42.86652 212
42.88664 174
42.90675 179
42.92686 193
42.94698 199
42.96709 214
42.98721 194
43.00732 198
43.02743 208
43.04755 178
43.06766 165
43.08777 188
43.10789 224
43.128 224
43.14812 205
43.16823 186
43.18834 185
43.20846 165
43.22857 195
43.24868 181
43.2688 192
43.28891 220
43.30902 185
43.32914 189
43.34925 188
43.36937 189
43.38948 206
43.40959 201
43.42971 194
43.44982 193
43.46993 187
43.49005 205
43.51016 201
43.53028 182
43.55039 199
43.5705 207
43.59062 213
43.61073 179
43.63084 208
43.65096 192
43.67107 215
43.69119 189
43.7113 218
43.73141 186
43.75153 211
43.77164 185
43.79175 217
43.81187 192
43.83198 199
43.85209 186
43.87221 184
43.89232 186
43.91244 200
43.93255 183
43.95266 204
43.97278 186
43.99289 199
44.013 213
44.03312 216
44.05323 195
44.07335 252
44.09346 218
44.11357 205
44.13369 212
44.1538 239
44.17391 220
44.19403 203
44.21414 205
44.23426 224
44.25437 198
44.27448 175
44.2946 201
44.31471 193
44.33482 170
44.35494 158
44.37505 173
44.39516 169
44.41528 191
44.43539 164
44.45551 198
44.47562 165
44.49573 192
44.51585 175
44.53596 199
44.55607 177
44.57619 193
44.5963 183
44.61642 213
44.63653 194
44.65664 175
44.67676 175
44.69687 178
44.71698 190
44.7371 188
44.75721 203
44.77732 177
44.79744 165
44.81755 192
44.83767 199
44.85778 197
44.87789 173
44.89801 188
44.91812 175
44.93823 197
44.95835 213
44.97846 183
44.99858 176
45.01869 213
45.0388 186
45.05892 180
45.07903 190
45.09914 203
45.11926 177
45.13937 201
45.15949 190
45.1796 179
45.19971 198
45.21983 227
45.23994 218
45.26005 204
45.28017 224
45.30028 261
45.32039 227
45.34051 261
45.36062 235
45.38074 257
45.40085 265
45.42096 301
45.44108 281
45.46119 323
45.4813 312
45.50142 373
45.52153 373
45.54165 384
45.56176 415
45.58187 457
45.60199 483
45.6221 527
45.64221 667
45.66233 679
45.68244 734
45.70256 736
45.72267 799
45.74278 707
45.7629 673
45.78301 611
45.80312 537
45.82324 520
45.84335 457
45.86346 409
45.88358 374
45.90369 348
45.92381 277
45.94392 247
45.96403 211
45.98415 233
46.00426 239
46.02437 237
46.04449 250
46.0646 202
46.08472 211
46.10483 233
46.12494 232
46.14506 208
46.16517 214
46.18528 223
46.2054 211
46.22551 214
46.24563 215
46.26574 184
46.28585 176
46.30597 212
46.32608 218
46.34619 175
46.36631 179
46.38642 179
46.40653 183
46.42665 176
46.44676 172
46.46688 190
46.48699 198
46.5071 194
46.52722 184
46.54733 194
46.56744 169
46.58756 186
46.60767 187
46.62779 175
46.6479 172
46.66801 166
46.68813 152
46.70824 171
46.72835 180
46.74847 181
46.76858 188
46.78869 190
46.80881 175
46.82892 204
46.84904 213
46.86915 208
46.88926 213
46.90938 206
46.92949 203
46.9496 219
46.96972 216
46.98983 234
47.00995 277
47.03006 213
47.05017 244
47.07029 240
47.0904 246
47.11051 256
47.13063 254
47.15074 246
47.17086 237
47.19097 227
47.21108 247
47.2312 236
47.25131 230
47.27142 240
47.29154 226
47.31165 230
47.33176 216
47.35188 206
47.37199 237
47.39211 235
47.41222 216
47.43233 248
47.45245 226
47.47256 241
47.49267 213
47.51279 198
47.5329 187
47.55302 193
47.57313 211
47.59324 188
47.61336 207
47.63347 201
47.65358 206
47.6737 205
47.69381 168
47.71393 188
47.73404 190
47.75415 164
47.77427 184
47.79438 194
47.81449 165
47.83461 187
47.85472 191
47.87483 163
47.89495 202
47.91506 185
47.93518 211
47.95529 185
47.9754 199
47.99552 189
48.01563 198
48.03574 188
48.05586 201
48.07597 191
48.09609 182
48.1162 175
48.13631 174
48.15643 180
48.17654 206
48.19665 167
48.21677 183
48.23688 168
48.257 173
48.27711 174
48.29722 174
48.31734 182
48.33745 165
48.35756 194
48.37768 181
48.39779 192
48.4179 173
48.43802 178
48.45813 181
48.47825 195
48.49836 181
48.51847 184
48.53859 189
48.5587 190
48.57881 174
48.59893 206
48.61904 183
48.63916 215
48.65927 213
48.67938 204
48.6995 251
48.71961 233
48.73972 207
48.75984 266
48.77995 220
48.80006 221
48.82018 255
48.84029 238
48.86041 250
48.88052 256
48.90063 232
48.92075 241
48.94086 229
48.96097 251
48.98109 238
49.0012 234
49.02132 208
49.04143 230
49.06154 246
49.08166 232
49.10177 227
49.12188 231
49.142 229
49.16211 189
49.18223 224
49.20234 201
49.22245 179
49.24257 189
49.26268 187
49.28279 195
49.30291 195
49.32302 183
49.34313 194
49.36325 189
49.38336 196
49.40348 204
49.42359 212
49.4437 171
49.46382 203
49.48393 228
49.50404 231
49.52416 229
49.54427 195
49.56439 238
49.5845 204
49.60461 232
49.62473 233
49.64484 224
49.66495 224
49.68507 297
49.70518 299
49.7253 323
49.74541 324
49.76552 354
49.78564 349
49.80575 407
49.82586 501
49.84598 489
49.86609 562
49.8862 642
49.90632 735
49.92643 892
49.94655 1121
49.96666 1291
49.98677 1530
50.00689 1771
50.027 1984
50.04711 2101
50.06723 2178
50.08734 2030
50.10746 1905
50.12757 1597
50.14768 1445
50.1678 1294
50.18791 1290
50.20802 1112
50.22814 1013
50.24825 777
50.26837 676
50.28848 506
50.30859 450
50.32871 425
50.34882 409
50.36893 454
50.38905 456
50.40916 472
50.42927 500
50.44939 500
50.4695 540
50.48962 569
50.50973 549
50.52984 485
50.54996 473
50.57007 462
50.59018 436
50.6103 450
50.63041 419
50.65053 426
50.67064 421
50.69075 364
50.71087 328
50.73098 351
50.75109 329
50.77121 344
50.79132 326
50.81143 279
50.83155 292
50.85166 254
50.87178 251
50.89189 269
50.912 238
50.93212 269
50.95223 233
50.97234 240
50.99246 218
51.01257 208
51.03269 225
51.0528 211
51.07291 181
51.09303 219
51.11314 200
51.13325 163
51.15337 186
51.17348 173
51.1936 170
51.21371 188
51.23382 175
51.25394 177
51.27405 178
51.29416 171
51.31428 185
51.33439 152
51.3545 181
51.37462 164
51.39473 156
51.41485 170
51.43496 161
51.45507 172
51.47519 168
51.4953 169
51.51541 172
51.53553 165
51.55564 158
51.57576 161
51.59587 172
51.61598 174
51.6361 172
51.65621 157
51.67632 156
51.69644 159
51.71655 153
51.73667 158
51.75678 147
51.77689 156
51.79701 136
51.81712 166
51.83723 162
51.85735 174
51.87746 151
51.89757 172
51.91769 176
51.9378 171
51.95792 152
51.97803 158
51.99814 172
52.01826 154
52.03837 155
52.05848 173
52.0786 165
52.09871 175
52.11883 166
52.13894 164
52.15905 166
52.17917 180
52.19928 164
52.21939 163
52.23951 180
52.25962 165
52.27974 168
52.29985 177
52.31996 175
52.34008 155
52.36019 154
52.3803 163
52.40042 161
52.42053 164
52.44064 195
52.46076 166
52.48087 173
52.50099 191
52.5211 156
52.54121 178
52.56133 164
52.58144 168
52.60155 178
52.62167 184
52.64178 163
52.6619 184
52.68201 185
52.70212 200
52.72224 175
52.74235 189
52.76246 177
52.78258 175
52.80269 160
52.8228 191
52.84292 175
52.86303 170
52.88315 184
52.90326 183
52.92337 175
52.94349 178
52.9636 156
52.98371 178
53.00383 163
53.02394 159
53.04406 141
53.06417 174
53.08428 176
53.1044 161
53.12451 179
53.14462 162
53.16474 214
53.18485 182
53.20497 185
53.22508 191
53.24519 182
53.26531 199
53.28542 184
53.30553 192
53.32565 188
53.34576 181
53.36587 187
53.38599 184
53.4061 179
53.42622 202
53.44633 197
53.46644 176
53.48656 199
53.50667 195
53.52678 190
53.5469 168
53.56701 188
53.58713 168
53.60724 178
53.62735 172
53.64747 181
53.66758 165
53.68769 177
53.70781 214
53.72792 182
53.74804 180
53.76815 167
53.78826 198
53.80838 199
53.82849 204
53.8486 194
53.86872 189
53.88883 199
53.90894 166
53.92906 158
53.94917 173
53.96929 207
53.9894 193
54.00951 205
54.02963 191
54.04974 198
54.06985 228
54.08997 206
54.11008 197
54.1302 222
54.15031 204
54.17042 184
54.19054 199
54.21065 219
54.23076 192
54.25088 195
54.27099 207
54.29111 204
54.31122 209
54.33133 203
54.35145 200
54.37156 211
54.39167 218
54.41179 204
54.4319 228
54.45201 235
54.47213 217
54.49224 240
54.51236 249
54.53247 248
54.55258 271
54.5727 273
54.59281 297
54.61292 298
54.63304 331
54.65315 408
54.67327 401
54.69338 459
54.71349 541
54.73361 573
54.75372 657
54.77383 675
54.79395 702
54.81406 777
54.83417 660
54.85429 630
54.8744 549
54.89452 478
54.91463 472
54.93474 470
54.95486 487
54.97497 417
54.99508 392
55.0152 338
55.03531 329
55.05543 303
55.07554 291
55.09565 297
55.11577 297
55.13588 321
55.15599 325
55.17611 400
55.19622 424
55.21634 423
55.23645 459
55.25656 423
55.27668 424
55.29679 372
55.3169 354
55.33702 364
55.35713 374
55.37724 328
55.39736 334
55.41747 316
55.43759 282
55.4577 258
55.47781 253
55.49793 242
55.51804 228
55.53815 208
55.55827 240
55.57838 235
55.5985 214
55.61861 187
55.63872 225
55.65884 220
55.67895 193
55.69906 218
55.71918 195
55.73929 210
55.75941 189
55.77952 185
55.79963 169
55.81975 188
55.83986 190
55.85997 156
55.88009 188
55.9002 190
55.92031 213
55.94043 179
55.96054 182
55.98066 207
56.00077 171
56.02088 167
56.041 160
56.06111 159
56.08122 182
56.10134 189
56.12145 176
56.14157 205
56.16168 175
56.18179 186
56.20191 163
56.22202 169
56.24213 176
56.26225 167
56.28236 184
56.30248 170
56.32259 174
56.3427 192
56.36282 194
56.38293 176
56.40304 182
56.42316 185
56.44327 147
56.46338 172
56.4835 173
56.50361 179
56.52373 173
56.54384 194
56.56395 170
56.58407 190
56.60418 218
56.62429 201
56.64441 190
56.66452 186
56.68464 195
56.70475 201
56.72486 189
56.74498 195
56.76509 188
56.7852 184
56.80532 187
56.82543 194
56.84554 191
56.86566 197
56.88577 192
56.90589 185
56.926 160
56.94611 204
56.96623 183
56.98634 194
57.00645 169
57.02657 197
57.04668 203
57.0668 204
57.08691 214
57.10702 227
57.12714 210
57.14725 188
57.16736 200
57.18748 204
57.20759 212
57.22771 201
57.24782 209
57.26793 181
57.28805 194
57.30816 203
57.32827 193
57.34839 180
57.3685 203
57.38861 180
57.40873 179
57.42884 167
57.44896 175
57.46907 166
57.48918 187
57.5093 167
57.52941 179
57.54952 165
57.56964 189
57.58975 180
57.60987 165
57.62998 153
57.65009 165
57.67021 162
57.69032 155
57.71043 169
57.73055 155
57.75066 163
57.77078 179
57.79089 182
57.811 161
57.83112 170
57.85123 176
57.87134 152
57.89146 149
57.91157 168
57.93168 150
57.9518 166
57.97191 177
57.99203 194
58.01214 151
58.03225 203
58.05237 182
58.07248 186
58.09259 157
58.11271 167
58.13282 176
58.15294 161
58.17305 168
58.19316 202
58.21328 187
58.23339 191
58.2535 186
58.27362 165
58.29373 148
58.31385 178
58.33396 183
58.35407 161
58.37419 173
58.3943 181
58.41441 194
58.43453 207
58.45464 210
58.47475 209
58.49487 177
58.51498 193
58.5351 207
58.55521 200
58.57532 238
58.59544 186
58.61555 190
58.63566 194
58.65578 199
58.67589 199
58.69601 227
58.71612 199
58.73623 181
58.75635 188
58.77646 181
58.79657 202
58.81669 147
58.8368 148
58.85691 151
58.87703 147
58.89714 162
58.91726 161
58.93737 150
58.95748 171
58.9776 161
58.99771 138
59.01782 161
59.03794 170
59.05805 178
59.07817 160
59.09828 155
59.11839 205
59.13851 154
59.15862 190
59.17873 187
59.19885 161
59.21896 177
59.23908 191
59.25919 178
59.2793 174
59.29942 193
59.31953 177
59.33964 211
59.35976 207
59.37987 195
59.39998 194
59.4201 238
59.44021 226
59.46033 243
59.48044 208
59.50055 258
59.52067 264
59.54078 275
59.56089 274
59.58101 307
59.60112 340
59.62124 334
59.64135 356
59.66146 451
59.68158 466
59.70169 509
59.7218 613
59.74192 689
59.76203 751
59.78215 918
59.80226 1068
59.82237 1239
59.84249 1357
59.8626 1381
59.88271 1399
59.90283 1252
59.92294 1146
59.94305 1076
59.96317 847
59.98328 851
60.0034 823
60.02351 773
60.04362 759
60.06374 713
60.08385 620
60.10396 496
60.12408 396
60.14419 332
60.16431 260
60.18442 237
60.20453 264
60.22465 213
60.24476 221
60.26487 202
60.28499 213
60.3051 169
60.32522 180
60.34533 210
60.36544 199
60.38556 197
60.40567 183
60.42578 198
60.4459 191
60.46601 204
60.48612 200
60.50624 188
60.52635 188
60.54647 175
60.56658 182
60.58669 163
60.60681 192
60.62692 179
60.64703 159
60.66715 166
60.68726 183
60.70738 189
60.72749 179
60.7476 188
60.76772 185
60.78783 195
60.80794 175
60.82806 194
60.84817 170
60.86828 188
60.8884 186
60.90851 194
60.92863 199
60.94874 173
60.96885 211
60.98897 214
61.00908 206
61.02919 193
61.04931 214
61.06942 232
61.08954 221
61.10965 228
61.12976 212
61.14988 210
61.16999 237
61.1901 214
61.21022 190
61.23033 215
61.25045 222
61.27056 200
61.29067 207
61.31079 230
61.3309 195
61.35101 176
61.37113 187
61.39124 209
61.41135 185
61.43147 172
61.45158 186
61.4717 191
61.49181 205
61.51192 182
61.53204 166
61.55215 188
61.57226 169
61.59238 195
61.61249 183
61.63261 200
61.65272 167
61.67283 190
61.69295 183
61.71306 181
61.73317 171
61.75329 184
61.7734 193
61.79352 187
61.81363 194
61.83374 192
61.85386 189
61.87397 185
61.89408 196
61.9142 182
61.93431 186
61.95442 214
61.97454 236
61.99465 212
62.01477 213
62.03488 203
62.05499 221
62.07511 211
62.09522 208
62.11533 232
62.13545 225
62.15556 216
62.17568 223
62.19579 226
62.2159 221
62.23602 225
62.25613 238
62.27624 215
62.29636 223
62.31647 219
62.33659 231
62.3567 207
62.37681 205
62.39693 210
62.41704 213
62.43715 194
62.45727 231
62.47738 225
62.49749 253
62.51761 203
62.53772 187
62.55784 193
62.57795 199
62.59806 185
62.61818 212
62.63829 196
62.6584 183
62.67852 209
62.69863 201
62.71875 216
62.73886 207
62.75897 198
62.77909 212
62.7992 224
62.81931 200
62.83943 199
62.85954 205
62.87965 219
62.89977 241
62.91988 205
62.94 182
62.96011 214
62.98022 187
63.00034 208
63.02045 212
63.04056 211
63.06068 213
63.08079 198
63.10091 192
63.12102 183
63.14113 213
63.16125 211
63.18136 182
63.20147 188
63.22159 181
63.2417 198
63.26182 187
63.28193 193
63.30204 167
63.32216 202
63.34227 162
63.36238 134
63.3825 187
63.40261 186
63.42272 190
63.44284 169
63.46295 189
63.48307 181
63.50318 182
63.52329 182
63.54341 202
63.56352 203
63.58363 180
63.60375 198
63.62386 212
63.64398 203
63.66409 210
63.6842 236
63.70432 216
63.72443 271
63.74454 275
63.76466 285
63.78477 302
63.80489 293
63.825 314
63.84511 360
63.86523 306
63.88534 419
63.90545 458
63.92557 417
63.94568 448
63.96579 421
63.98591 385
64.00602 367
64.02614 356
64.04625 331
64.06636 329
64.08648 314
64.10659 310
64.1267 299
64.14682 251
64.16693 268
64.18705 253
64.20716 210
64.22727 201
64.24739 204
64.2675 167
64.28761 190
64.30773 186
64.32784 183
64.34796 201
64.36807 169
64.38818 166
64.4083 153
64.42841 166
64.44852 164
64.46864 149
64.48875 165
64.50886 171
64.52898 146
64.54909 176
64.56921 157
64.58932 161
64.60943 177
64.62955 166
64.64966 175
64.66977 172
64.68989 154
64.71 146
64.73012 174
64.75023 177
64.77034 169
64.79046 166
64.81057 170
64.83068 139
64.8508 152
64.87091 193
64.89102 193
64.91114 150
64.93125 191
64.95137 189
64.97148 180
64.99159 182
65.01171 160
65.03182 189
65.05193 171
65.07205 185
65.09216 199
65.11228 181
65.13239 193
65.1525 190
65.17262 220
65.19273 185
65.21284 194
65.23296 202
65.25307 206
65.27319 193
65.2933 186
65.31341 171
65.33353 181
65.35364 203
65.37375 183
65.39387 178
65.41398 156
65.43409 195
65.45421 187
65.47432 189
65.49444 180
65.51455 188
65.53466 178
65.55478 177
65.57489 179
65.595 173
65.61512 217
65.63523 170
65.65535 201
65.67546 214
65.69557 218
65.71569 189
65.7358 208
65.75591 203
65.77603 174
65.79614 188
65.81626 172
65.83637 181
65.85648 185
65.8766 185
65.89671 206
65.91682 193
65.93694 154
65.95705 188
65.97716 176
65.99728 165
66.01739 185
66.03751 168
66.05762 178
66.07773 172
66.09785 169
66.11796 178
66.13807 183
66.15819 177
66.1783 200
66.19842 214
66.21853 202
66.23864 208
66.25876 207
66.27887 193
66.29898 183
66.3191 187
66.33921 217
66.35933 189
66.37944 209
66.39955 219
66.41967 203
66.43978 188
66.45989 196
66.48001 173
66.50012 169
66.52023 165
66.54035 172
66.56046 167
66.58058 177
66.60069 161
66.6208 167
66.64092 176
66.66103 164
66.68114 151
66.70126 174
66.72137 170
66.74149 169
66.7616 176
66.78171 180
66.80183 155
66.82194 174
66.84205 189
66.86217 166
66.88228 177
66.90239 164
66.92251 170
66.94262 193
66.96274 182
66.98285 177
67.00296 191
67.02308 162
67.04319 188
67.0633 184
67.08342 201
67.10353 187
67.12365 179
67.14376 177
67.16387 195
67.18399 190
67.2041 203
67.22421 182
67.24433 211
67.26444 208
67.28456 221
67.30467 219
67.32478 207
67.3449 248
67.36501 255
67.38512 276
67.40524 285
67.42535 271
67.44546 347
67.46558 350
67.48569 394
67.50581 466
67.52592 487
67.54603 543
67.56615 662
67.58626 702
67.60637 821
67.62649 850
67.6466 873
67.66672 808
67.68683 860
67.70694 786
67.72706 718
67.74717 646
67.76728 597
67.7874 603
67.80751 628
67.82763 613
67.84774 675
67.86785 715
67.88797 698
67.90808 671
67.92819 714
67.94831 747
67.96842 836
67.98853 916
68.00865 1001
68.02876 1080
68.04888 1140
68.06899 1105
68.0891 1146
68.10922 1066
68.12933 1008
68.14944 918
68.16956 985
68.18967 991
68.20979 1033
68.2299 1036
68.25001 998
68.27013 943
68.29024 862
68.31035 698
68.33047 591
68.35058 500
68.3707 503
68.39081 457
68.41092 448
68.43104 397
68.45115 397
68.47126 377
68.49138 314
68.51149 295
68.5316 287
68.55172 221
68.57183 228
68.59195 225
68.61206 202
68.63217 187
68.65229 166
68.6724 208
68.69251 161
68.71263 184
68.73274 176
68.75286 178
68.77297 194
68.79308 174
68.8132 217
68.83331 173
68.85342 163
68.87354 174
68.89365 140
68.91376 182
68.93388 170
68.95399 175
68.97411 169
68.99422 146
69.01433 162
69.03445 166
69.05456 161
69.07467 164
69.09479 140
69.1149 153
69.13502 154
69.15513 154
69.17524 162
69.19536 171
69.21547 158
69.23558 166
69.2557 157
69.27581 145
69.29593 165
69.31604 145
69.33615 140
69.35627 168
69.37638 163
69.39649 134
69.41661 146
69.43672 143
69.45683 142
69.47695 144
69.49706 139
69.51718 168
69.53729 131
69.5574 131
69.57752 140
69.59763 143
69.61774 153
69.63786 129
69.65797 142
69.67809 137
69.6982 141
69.71831 161
69.73843 139
69.75854 138
69.77865 142
69.79877 155
69.81888 129
69.839 148
69.85911 168
69.87922 169
69.89934 137
69.91945 161
69.93956 145
69.95968 162
69.97979 157
69.9999 156
70.02002 152
70.04013 172
70.06025 150
70.08036 133
70.10047 150
70.12059 149
70.1407 163
70.16081 143
70.18093 140
70.20104 147
70.22116 154
70.24127 168
70.26138 145
70.2815 146
70.30161 153
70.32172 133
70.34184 150
70.36195 166
70.38207 137
70.40218 135
70.42229 162
70.44241 144
70.46252 142
70.48263 138
70.50275 168
70.52286 165
70.54297 156
70.56309 126
70.5832 139
70.60332 156
70.62343 155
70.64354 179
70.66366 146
70.68377 138
70.70388 148
70.724 156
70.74411 173
70.76423 154
70.78434 148
70.80445 160
70.82457 162
70.84468 161
70.86479 164
70.88491 148
70.90502 137
70.92513 165
70.94525 142
70.96536 133
70.98548 154
71.00559 135
71.0257 132
71.04582 150
71.06593 146
71.08604 114
71.10616 135
71.12627 139
71.14639 136
71.1665 141
71.18661 157
71.20673 132
71.22684 140
71.24695 147
71.26707 150
71.28718 156
71.3073 134
71.32741 159
71.34752 142
71.36764 159
71.38775 142
71.40786 155
71.42798 175
71.44809 180
71.4682 170
71.48832 175
71.50843 174
71.52855 167
71.54866 185
71.56877 177
71.58889 143
71.609 161
71.62911 167
71.64923 178
71.66934 179
71.68946 176
71.70957 168
71.72968 173
71.7498 151
71.76991 150
71.79002 170
71.81014 136
71.83025 149
71.85037 139
71.87048 158
71.89059 153
71.91071 174
71.93082 151
71.95093 144
71.97105 158
71.99116 166
72.01127 161
72.03139 165
72.0515 190
72.07162 186
72.09173 170
72.11184 173
72.13196 161
72.15207 166
72.17218 190
72.1923 178
72.21241 166
72.23253 165
72.25264 164
72.27275 158
72.29287 157
72.31298 166
72.33309 154
72.35321 174
72.37332 149
72.39344 158
72.41355 168
72.43366 174
72.45378 151
72.47389 159
72.494 164
72.51412 159
72.53423 153
72.55434 147
72.57446 169
72.59457 158
72.61469 147
72.6348 146
72.65491 167
72.67503 159
72.69514 173
72.71525 164
72.73537 154
72.75548 172
72.7756 156
72.79571 163
72.81582 161
72.83594 174
72.85605 159
72.87616 176
72.89628 169
72.91639 163
72.9365 192
72.95662 198
72.97673 192
72.99685 192
73.01696 198
73.03707 219
73.05719 184
73.0773 224
73.09741 201
73.11753 204
73.13764 192
73.15776 234
73.17787 250
73.19798 245
73.2181 248
73.23821 290
73.25832 295
73.27844 316
73.29855 329
73.31867 338
73.33878 369
73.35889 386
73.37901 395
73.39912 392
73.41923 309
73.43935 344
73.45946 324
73.47957 304
73.49969 263
73.5198 262
73.53992 268
73.56003 272
73.58014 294
73.60026 296
73.62037 283
73.64048 273
73.6606 246
73.68071 222
73.70083 171
73.72094 174
73.74105 185
73.76117 188
73.78128 167
73.80139 163
73.82151 171
73.84162 161
73.86174 148
73.88185 163
73.90196 179
73.92208 133
73.94219 145
73.9623 151
73.98242 156
74.00253 138
74.02264 143
74.04276 152
74.06287 171
74.08299 163
74.1031 153
74.12321 172
74.14333 145
74.16344 161
74.18355 162
74.20367 186
74.22378 150
74.2439 164
74.26401 159
74.28412 164
74.30424 138
74.32435 151
74.34446 177
74.36458 161
74.38469 174
74.40481 152
74.42492 168
74.44503 165
74.46515 172
74.48526 190
74.50537 151
74.52549 153
74.5456 137
74.56571 170
74.58583 168
74.60594 169
74.62606 165
74.64617 175
74.66628 170
74.6864 152
74.70651 154
74.72662 161
74.74674 177
74.76685 186
74.78697 179
74.80708 155
74.82719 186
74.84731 197
74.86742 183
74.88753 169
74.90765 174
74.92776 169
74.94787 179
74.96799 173
74.9881 207
75.00822 189
