3.00117 20006
3.02128 19392
3.0414 18951
3.06151 18274
3.08162 18199
3.10174 17261
3.12185 17082
3.14197 16386
3.16208 15744
3.18219 15794
3.20231 14945
3.22242 14644
3.24253 14319
3.26265 13564
3.28276 13327
3.30288 12859
3.32299 12576
3.3431 12080
3.36322 11536
3.38333 11474
3.40344 10705
3.42356 10832
3.44367 10341
3.46379 9698
3.4839 9671
3.50401 8981
3.52413 8930
3.54424 8491
3.56435 8311
3.58447 8190
3.60458 7576
3.62469 7487
3.64481 7257
3.66492 6945
3.68504 6725
3.70515 6192
3.72526 6012
3.74538 5842
3.76549 5566
3.7856 5563
3.80572 5131
3.82583 4813
3.84595 4699
3.86606 4518
3.88617 4404
3.90629 4060
3.9264 3956
3.94651 3815
3.96663 3598
3.98674 3527
4.00686 3210
4.02697 3198
4.04708 2937
4.0672 2841
4.08731 2798
4.10742 2607
4.12754 2501
4.14765 2488
4.16776 2284
4.18788 2216
4.20799 2105
4.22811 2009
4.24822 1938
4.26833 1831
4.28845 1820
4.30856 1718
4.32867 1708
4.34879 1710
4.3689 1570
4.38902 1641
4.40913 1459
4.42924 1523
4.44936 1514
4.46947 1411
4.48958 1378
4.5097 1244
4.52981 1302
4.54992 1256
4.57004 1236
4.59015 1199
4.61027 1083
4.63038 1016
4.65049 1142
4.67061 1093
4.69072 1101
4.71083 1038
4.73095 1019
4.75106 899
4.77118 969
4.79129 926
4.8114 929
4.83152 923
4.85163 861
4.87174 936
4.89186 806
4.91197 791
4.93209 776
4.9522 848
4.97231 756
4.99243 788
5.01254 761
5.03265 768
5.05277 661
5.07288 762
5.09299 691
5.11311 656
5.13322 678
5.15334 692
5.17345 642
5.19356 573
5.21368 595
5.23379 569
5.2539 587
5.27402 547
5.29413 544
5.31425 514
5.33436 546
5.35447 478
5.37459 531
5.3947 456
5.41481 478
5.43493 505
5.45504 446
5.47516 456
5.49527 429
5.51538 449
5.5355 399
5.55561 433
5.57572 425
5.59584 374
5.61595 460
5.63606 386
5.65618 383
5.67629 415
5.69641 391
5.71652 334
5.73663 366
5.75675 380
5.77686 352
5.79697 288
5.81709 342
5.8372 349
5.85732 361
5.87743 337
5.89754 329
5.91766 293
5.93777 326
5.95788 303
5.978 352
5.99811 320
6.01823 315
6.03834 312
6.05845 301
6.07857 300
6.09868 319
6.11879 314
6.13891 308
6.15902 345
6.17913 312
6.19925 316
6.21936 279
6.23948 324
6.25959 284
6.2797 287
6.29982 295
6.31993 246
6.34004 257
6.36016 328
6.38027 307
6.40039 320
6.4205 286
6.44061 288
6.46073 297
6.48084 290
6.50095 304
6.52107 303
6.54118 282
6.56129 296
6.58141 252
6.60152 309
6.62164 258
6.64175 235
6.66186 279
6.68198 251
6.70209 264
6.7222 273
6.74232 268
6.76243 295
6.78255 258
6.80266 237
6.82277 256
6.84289 247
6.863 254
6.88311 264
6.90323 253
6.92334 249
6.94346 262
6.96357 288
6.98368 244
7.0038 260
7.02391 283
7.04402 273
7.06414 296
7.08425 279
7.10436 257
7.12448 290
7.14459 264
7.16471 297
7.18482 261
7.20493 280
7.22505 276
7.24516 267
7.26527 247
7.28539 292
7.3055 272
7.32562 272
7.34573 250
7.36584 258
7.38596 267
7.40607 236
7.42618 255
7.4463 276
7.46641 280
7.48653 225
7.50664 254
7.52675 267
7.54687 274
7.56698 255
7.58709 294
7.60721 276
7.62732 270
7.64743 229
7.66755 255
7.68766 259
7.70778 250
7.72789 232
7.748 266
7.76812 264
7.78823 264
7.80834 252
7.82846 276
7.84857 290
7.86869 254
7.8888 264
7.90891 256
7.92903 332
7.94914 277
7.96925 304
7.98937 213
8.00948 287
8.0296 264
8.04971 254
8.06982 276
8.08994 273
8.11005 279
8.13016 300
8.15028 245
8.17039 256
8.1905 260
8.21062 291
8.23073 273
8.25085 280
8.27096 248
8.29107 254
8.31119 274
8.3313 266
8.35141 250
8.37153 257
8.39164 258
8.41176 248
8.43187 286
8.45198 260
8.4721 290
8.49221 245
8.51232 263
8.53244 267
8.55255 279
8.57266 260
8.59278 248
8.61289 292
8.63301 291
8.65312 315
8.67323 260
8.69335 291
8.71346 268
8.73357 263
8.75369 323
8.7738 288
8.79392 272
8.81403 276
8.83414 292
8.85426 274
8.87437 274
8.89448 321
8.9146 282
8.93471 282
8.95483 232
8.97494 260
8.99505 252
9.01517 276
9.03528 287
9.05539 257
9.07551 289
9.09562 264
9.11573 251
9.13585 300
9.15596 259
9.17608 244
9.19619 240
9.2163 289
9.23642 315
9.25653 267
9.27664 260
9.29676 258
9.31687 242
9.33699 229
9.3571 316
9.37721 295
9.39733 270
9.41744 268
9.43755 269
9.45767 277
9.47778 258
9.4979 288
9.51801 243
9.53812 281
9.55824 327
9.57835 283
9.59846 272
9.61858 257
9.63869 288
9.6588 301
9.67892 288
9.69903 329
9.71915 361
9.73926 350
9.75937 343
9.77949 327
9.7996 309
9.81971 315
9.83983 346
9.85994 273
9.88006 262
9.90017 285
9.92028 243
9.9404 286
9.96051 287
9.98062 321
10.00074 300
10.02085 260
10.04097 297
10.06108 274
10.08119 290
10.10131 272
10.12142 251
10.14153 284
10.16165 269
10.18176 267
10.20187 283
10.22199 273
10.2421 310
10.26222 331
10.28233 337
10.30244 318
10.32256 384
10.34267 371
10.36278 421
10.3829 477
10.40301 488
10.42313 542
10.44324 600
10.46335 625
10.48347 581
10.50358 592
10.52369 495
10.54381 464
10.56392 381
10.58403 330
10.60415 333
10.62426 316
10.64438 272
10.66449 297
10.6846 313
10.70472 299
10.72483 267
10.74494 290
10.76506 266
10.78517 325
10.80529 292
10.8254 258
10.84551 276
10.86563 298
10.88574 281
10.90585 274
10.92597 289
10.94608 291
10.9662 271
10.98631 282
11.00642 270
11.02654 293
11.04665 279
11.06676 304
11.08688 287
11.10699 297
11.1271 302
11.14722 262
11.16733 290
11.18745 272
11.20756 274
11.22767 299
11.24779 266
11.2679 273
11.28801 276
11.30813 258
11.32824 259
11.34836 282
11.36847 261
11.38858 250
11.4087 260
11.42881 247
11.44892 238
11.46904 279
11.48915 281
11.50927 288
11.52938 242
11.54949 290
11.56961 275
11.58972 263
11.60983 283
11.62995 274
11.65006 271
11.67017 293
11.69029 272
11.7104 266
11.73052 289
11.75063 280
11.77074 240
11.79086 280
11.81097 276
11.83108 262
11.8512 307
11.87131 253
11.89143 294
11.91154 272
11.93165 285
11.95177 238
11.97188 246
11.99199 259
12.01211 263
12.03222 258
12.05234 253
12.07245 237
12.09256 274
12.11268 230
12.13279 266
12.1529 287
12.17302 290
12.19313 254
12.21324 290
12.23336 268
12.25347 303
12.27359 268
12.2937 261
12.31381 266
12.33393 262
12.35404 246
12.37415 294
12.39427 265
12.41438 278
12.4345 261
12.45461 264
12.47472 261
12.49484 251
12.51495 288
12.53506 273
12.55518 251
12.57529 282
12.5954 226
12.61552 274
12.63563 261
12.65575 243
12.67586 227
12.69597 255
12.71609 254
12.7362 274
12.75631 256
12.77643 271
12.79654 245
12.81666 254
12.83677 261
12.85688 278
12.877 249
12.89711 249
12.91722 276
12.93734 263
12.95745 263
12.97757 229
12.99768 240
13.01779 296
13.03791 257
13.05802 271
13.07813 292
13.09825 266
13.11836 284
13.13847 252
13.15859 273
13.1787 250
13.19882 260
13.21893 286
13.23904 249
13.25916 284
13.27927 254
13.29938 278
13.3195 280
13.33961 232
13.35973 241
13.37984 251
13.39995 255
13.42007 279
13.44018 256
13.46029 282
13.48041 254
13.50052 288
13.52064 277
13.54075 303
13.56086 273
13.58098 279
13.60109 308
13.6212 293
13.64132 278
13.66143 295
13.68154 276
13.70166 302
13.72177 250
13.74189 280
13.762 290
13.78211 328
13.80223 282
13.82234 322
13.84245 323
13.86257 297
13.88268 289
13.9028 267
13.92291 284
13.94302 266
13.96314 289
13.98325 273
14.00336 278
14.02348 250
14.04359 248
14.06371 281
14.08382 220
14.10393 241
14.12405 269
14.14416 250
14.16427 271
14.18439 284
14.2045 232
14.22461 270
14.24473 254
14.26484 280
14.28496 222
14.30507 243
14.32518 242
14.3453 253
14.36541 256
14.38552 245
14.40564 273
14.42575 283
14.44587 243
14.46598 253
14.48609 245
14.50621 258
14.52632 252
14.54643 257
14.56655 246
14.58666 238
14.60677 268
14.62689 210
14.647 258
14.66712 271
14.68723 268
14.70734 280
14.72746 268
14.74757 269
14.76768 221
14.7878 277
14.80791 269
14.82803 258
14.84814 240
14.86825 277
14.88837 285
14.90848 259
14.92859 275
14.94871 260
14.96882 247
14.98894 271
15.00905 269
15.02916 270
15.04928 285
15.06939 268
15.0895 268
15.10962 239
15.12973 238
15.14984 249
15.16996 276
15.19007 247
15.21019 264
15.2303 267
15.25041 271
15.27053 260
15.29064 246
15.31075 259
15.33087 233
15.35098 264
15.3711 268
15.39121 260
15.41132 261
15.43144 244
15.45155 244
15.47166 216
15.49178 232
15.51189 279
15.53201 278
15.55212 279
15.57223 255
15.59235 262
15.61246 290
15.63257 277
15.65269 277
15.6728 275
15.69291 248
15.71303 248
15.73314 244
15.75326 283
15.77337 261
15.79348 252
15.8136 258
15.83371 253
15.85382 278
15.87394 246
15.89405 251
15.91417 256
15.93428 244
15.95439 237
15.97451 228
15.99462 265
16.01473 223
16.03485 263
16.05496 267
16.07508 265
16.09519 255
16.1153 252
16.13542 234
16.15553 259
16.17564 250
16.19576 254
16.21587 238
16.23598 266
16.2561 246
16.27621 275
16.29633 243
16.31644 238
16.33655 219
16.35667 269
16.37678 252
16.39689 240
16.41701 241
16.43712 273
16.45724 265
16.47735 233
16.49746 239
16.51758 244
16.53769 261
16.5578 254
16.57792 248
16.59803 255
16.61814 263
16.63826 245
16.65837 249
16.67849 270
16.6986 229
16.71871 240
16.73883 245
16.75894 259
16.77905 253
16.79917 256
16.81928 260
16.8394 252
16.85951 222
16.87962 256
16.89974 219
16.91985 268
16.93996 241
16.96008 257
16.98019 248
17.00031 231
17.02042 220
17.04053 233
17.06065 248
17.08076 228
17.10087 239
17.12099 279
17.1411 242
17.16121 221
17.18133 270
17.20144 249
17.22156 228
17.24167 247
17.26178 258
17.2819 248
17.30201 244
17.32212 270
17.34224 264
17.36235 304
17.38247 277
17.40258 258
17.42269 315
17.44281 279
17.46292 260
17.48303 245
17.50315 241
17.52326 270
17.54338 258
17.56349 277
17.5836 252
17.60372 268
17.62383 254
17.64394 284
17.66406 270
17.68417 247
17.70428 253
17.7244 262
17.74451 265
17.76463 273
17.78474 235
17.80485 227
17.82497 245
17.84508 278
17.86519 279
17.88531 290
17.90542 270
17.92554 282
17.94565 313
17.96576 309
17.98588 269
18.00599 297
18.0261 268
18.04622 270
18.06633 249
18.08645 234
18.10656 242
18.12667 250
18.14679 261
18.1669 266
18.18701 257
18.20713 226
18.22724 262
18.24735 241
18.26747 258
18.28758 251
18.3077 229
18.32781 248
18.34792 234
18.36804 307
18.38815 267
18.40826 226
18.42838 249
18.44849 252
18.46861 258
18.48872 256
18.50883 254
18.52895 275
18.54906 267
18.56917 232
18.58929 258
18.6094 267
18.62951 254
18.64963 262
18.66974 248
18.68986 257
18.70997 241
18.73008 242
18.7502 253
18.77031 265
18.79042 292
18.81054 259
18.83065 232
18.85077 230
18.87088 254
18.89099 236
18.91111 293
18.93122 257
18.95133 263
18.97145 264
18.99156 249
19.01168 257
19.03179 222
19.0519 221
19.07202 266
19.09213 276
19.11224 257
19.13236 253
19.15247 274
19.17258 270
19.1927 241
19.21281 237
19.23293 298
19.25304 301
19.27315 264
19.29327 260
19.31338 290
19.33349 270
19.35361 333
19.37372 278
19.39384 243
19.41395 277
19.43406 296
19.45418 250
19.47429 290
19.4944 284
19.51452 289
19.53463 294
19.55475 305
19.57486 287
19.59497 282
19.61509 291
19.6352 297
19.65531 310
19.67543 297
19.69554 268
19.71565 304
19.73577 325
19.75588 272
19.776 297
19.79611 323
19.81622 324
19.83634 319
19.85645 352
19.87656 306
19.89668 304
19.91679 331
19.93691 329
19.95702 305
19.97713 312
19.99725 354
20.01736 312
20.03747 299
20.05759 283
20.0777 285
20.09782 302
20.11793 305
20.13804 302
20.15816 293
20.17827 308
20.19838 276
20.2185 314
20.23861 297
20.25872 268
20.27884 321
20.29895 310
20.31907 316
20.33918 339
20.35929 315
20.37941 332
20.39952 344
20.41963 330
20.43975 360
20.45986 352
20.47998 354
20.50009 363
20.5202 332
20.54032 381
20.56043 393
20.58054 430
20.60066 437
20.62077 513
20.64088 580
20.661 746
20.68111 916
20.70123 1214
20.72134 1594
20.74145 2044
20.76157 2496
20.78168 2984
20.80179 3383
20.82191 3536
20.84202 3364
20.86214 2876
20.88225 2321
20.90236 1786
20.92248 1379
20.94259 1003
20.9627 767
20.98282 611
21.00293 638
21.02305 578
21.04316 506
21.06327 473
21.08339 440
21.1035 386
21.12361 383
21.14373 356
21.16384 345
21.18395 334
21.20407 356
21.22418 357
21.2443 339
21.26441 311
21.28452 293
21.30464 317
21.32475 299
21.34486 304
21.36498 320
21.38509 308
21.40521 300
21.42532 285
21.44543 287
21.46555 295
21.48566 294
21.50577 315
21.52589 327
21.546 314
21.56612 286
21.58623 302
21.60634 296
21.62646 316
21.64657 311
21.66668 295
21.6868 326
21.70691 283
21.72702 324
21.74714 330
21.76725 299
21.78737 345
21.80748 309
21.82759 367
21.84771 358
21.86782 378
21.88793 396
21.90805 431
21.92816 500
21.94828 478
21.96839 499
21.9885 538
22.00862 499
22.02873 491
22.04884 459
22.06896 403
22.08907 373
22.10919 401
22.1293 334
22.14941 336
22.16953 306
22.18964 336
22.20975 319
22.22987 359
22.24998 346
22.27009 343
22.29021 316
22.31032 322
22.33044 312
22.35055 338
22.37066 351
22.39078 301
22.41089 329
22.431 314
22.45112 318
22.47123 298
22.49135 298
22.51146 293
22.53157 330
22.55169 305
22.5718 305
22.59191 283
22.61203 343
22.63214 328
22.65225 311
22.67237 310
22.69248 291
22.7126 268
22.73271 332
22.75282 316
22.77294 313
22.79305 310
22.81316 276
22.83328 319
22.85339 328
22.87351 329
22.89362 307
22.91373 331
22.93385 347
22.95396 350
22.97407 303
22.99419 323
23.0143 350
23.03442 359
23.05453 351
23.07464 319
23.09476 353
23.11487 336
23.13498 368
23.1551 344
23.17521 334
23.19532 356
23.21544 363
23.23555 315
23.25567 377
23.27578 349
23.29589 320
23.31601 318
23.33612 339
23.35623 341
23.37635 309
23.39646 381
23.41658 359
23.43669 389
23.4568 419
23.47692 401
23.49703 424
23.51714 477
23.53726 438
23.55737 450
23.57749 444
23.5976 450
23.61771 431
23.63783 455
23.65794 438
23.67805 428
23.69817 436
23.71828 434
23.73839 399
23.75851 441
23.77862 445
23.79874 456
23.81885 479
23.83896 495
23.85908 462
23.87919 462
23.8993 442
23.91942 454
23.93953 390
23.95965 417
23.97976 425
23.99987 412
24.01999 418
24.0401 411
24.06021 394
24.08033 327
24.10044 403
24.12056 326
24.14067 404
24.16078 401
24.1809 405
24.20101 408
24.22112 429
24.24124 418
24.26135 386
24.28146 414
24.30158 394
24.32169 384
24.34181 369
24.36192 344
24.38203 323
24.40215 352
24.42226 332
24.44237 327
24.46249 331
24.4826 313
24.50272 310
24.52283 311
24.54294 296
24.56306 299
24.58317 322
24.60328 281
24.6234 307
24.64351 297
24.66362 322
24.68374 296
24.70385 309
24.72397 292
24.74408 302
24.76419 310
24.78431 288
24.80442 299
24.82453 327
24.84465 320
24.86476 282
24.88488 314
24.90499 288
24.9251 284
24.94522 297
24.96533 311
24.98544 276
25.00556 303
25.02567 300
25.04579 308
25.0659 286
25.08601 309
25.10613 310
25.12624 326
25.14635 300
25.16647 333
25.18658 301
25.20669 313
25.22681 341
25.24692 336
25.26704 306
25.28715 348
25.30726 381
25.32738 362
25.34749 360
25.3676 377
25.38772 380
25.40783 437
25.42795 398
25.44806 473
25.46817 448
25.48829 480
25.5084 464
25.52851 462
25.54863 473
25.56874 515
25.58886 473
25.60897 472
25.62908 442
25.6492 461
25.66931 458
25.68942 433
25.70954 416
25.72965 441
25.74976 416
25.76988 392
25.78999 427
25.81011 412
25.83022 422
25.85033 386
25.87045 430
25.89056 440
25.91067 406
25.93079 427
25.9509 411
25.97102 424
25.99113 466
26.01124 465
26.03136 500
26.05147 527
26.07158 563
26.0917 526
26.11181 569
26.13193 622
26.15204 671
26.17215 646
26.19227 756
26.21238 715
26.23249 770
26.25261 797
26.27272 836
26.29283 923
26.31295 1028
26.33306 1076
26.35318 1278
26.37329 1370
26.3934 1646
26.41352 2157
26.43363 2782
26.45374 3807
26.47386 5159
26.49397 6839
26.51409 9148
26.5342 11383
26.55431 13130
26.57443 14768
26.59454 15317
26.61465 15174
26.63477 13325
26.65488 10801
26.67499 8179
26.69511 5807
26.71522 4219
26.73534 2714
26.75545 1724
26.77556 1266
26.79568 1127
26.81579 1007
26.8359 900
26.85602 934
26.87613 852
26.89625 800
26.91636 830
26.93647 809
26.95659 808
26.9767 739
26.99681 747
27.01693 827
27.03704 688
27.05716 690
27.07727 746
27.09738 668
27.1175 669
27.13761 575
27.15772 553
27.17784 549
27.19795 517
27.21806 541
27.23818 552
27.25829 523
27.27841 561
27.29852 579
27.31863 668
27.33875 726
27.35886 739
27.37897 815
27.39909 831
27.4192 935
27.43932 890
27.45943 897
27.47954 839
27.49966 742
27.51977 684
27.53988 707
27.56 556
27.58011 608
27.60023 577
27.62034 558
27.64045 598
27.66057 605
27.68068 707
27.70079 736
27.72091 746
27.74102 798
27.76113 814
27.78125 747
27.80136 792
27.82148 777
27.84159 792
27.8617 756
27.88182 750
27.90193 782
27.92204 744
27.94216 744
27.96227 713
27.98239 673
28.0025 612
28.02261 533
28.04273 550
28.06284 469
28.08295 456
28.10307 448
28.12318 416
28.1433 451
28.16341 375
28.18352 442
28.20364 405
28.22375 447
28.24386 457
28.26398 461
28.28409 449
28.3042 435
28.32432 425
28.34443 435
28.36455 466
28.38466 461
28.40477 429
28.42489 446
28.445 446
28.46511 437
28.48523 475
28.50534 429
28.52546 435
28.54557 423
28.56568 374
28.5858 360
28.60591 375
28.62602 332
28.64614 356
28.66625 312
28.68636 327
28.70648 332
28.72659 325
28.74671 332
28.76682 354
28.78693 349
28.80705 283
28.82716 308
28.84727 310
28.86739 289
28.8875 309
28.90762 296
28.92773 324
28.94784 309
28.96796 305
28.98807 302
29.00818 326
29.0283 309
29.04841 325
29.06853 299
29.08864 314
29.10875 284
29.12887 308
29.14898 306
29.16909 299
29.18921 331
29.20932 311
29.22943 330
29.24955 311
29.26966 324
29.28978 349
29.30989 305
29.33 328
29.35012 339
29.37023 341
29.39034 342
29.41046 321
29.43057 331
29.45069 322
29.4708 289
29.49091 312
29.51103 343
29.53114 344
29.55125 332
29.57137 371
29.59148 359
29.6116 323
29.63171 358
29.65182 361
29.67194 373
29.69205 377
29.71216 418
29.73228 402
29.75239 410
29.7725 432
29.79262 454
29.81273 391
29.83285 400
29.85296 387
29.87307 395
29.89319 352
29.9133 341
29.93341 358
29.95353 344
29.97364 347
29.99376 362
30.01387 353
30.03398 404
30.0541 378
30.07421 401
30.09432 398
30.11444 388
30.13455 395
30.15467 409
30.17478 461
30.19489 427
30.21501 440
30.23512 442
30.25523 463
30.27535 412
30.29546 424
30.31557 430
30.33569 452
30.3558 449
30.37592 435
30.39603 453
30.41614 398
30.43626 402
30.45637 433
30.47648 417
30.4966 415
30.51671 400
30.53683 380
30.55694 386
30.57705 365
30.59717 386
30.61728 379
30.63739 387
30.65751 445
30.67762 422
30.69773 428
30.71785 460
30.73796 447
30.75808 464
30.77819 541
30.7983 489
30.81842 490
30.83853 495
30.85864 458
30.87876 416
30.89887 371
30.91899 349
30.9391 344
30.95921 332
30.97933 341
30.99944 302
31.01955 309
31.03967 303
31.05978 281
31.0799 276
31.10001 274
31.12012 301
31.14024 316
31.16035 291
31.18046 316
31.20058 300
31.22069 301
31.2408 304
31.26092 351
31.28103 305
31.30115 353
31.32126 327
31.34137 327
31.36149 352
31.3816 333
31.40171 309
31.42183 302
31.44194 311
31.46206 337
31.48217 284
31.50228 307
31.5224 284
31.54251 287
31.56262 310
31.58274 308
31.60285 330
31.62297 301
31.64308 302
31.66319 353
31.68331 320
31.70342 363
31.72353 352
31.74365 361
31.76376 338
31.78387 325
31.80399 325
31.8241 345
31.84422 339
31.86433 323
31.88444 312
31.90456 318
31.92467 293
31.94478 305
31.9649 312
31.98501 303
32.00513 329
32.02524 313
32.04535 322
32.06547 339
32.08558 338
32.10569 335
32.12581 346
32.14592 337
32.16604 344
32.18615 331
32.20626 361
32.22638 370
32.24649 374
32.2666 383
32.28672 399
32.30683 400
32.32694 442
32.34706 505
32.36717 472
32.38729 496
32.4074 499
32.42751 549
32.44763 602
32.46774 636
32.48785 632
32.50797 648
32.52808 613
32.5482 599
32.56831 585
32.58842 525
32.60854 492
32.62865 501
32.64876 452
32.66888 417
32.68899 425
32.7091 384
32.72922 419
32.74933 384
32.76945 448
32.78956 428
32.80967 441
32.82979 434
32.8499 419
32.87001 465
32.89013 467
32.91024 441
32.93036 458
32.95047 505
32.97058 459
32.9907 487
33.01081 495
33.03092 406
33.05104 397
33.07115 388
33.09127 346
33.11138 374
33.13149 338
33.15161 372
33.17172 282
33.19183 339
33.21195 405
33.23206 353
33.25217 345
33.27229 332
33.2924 335
33.31252 351
33.33263 342
33.35274 311
33.37286 293
33.39297 282
33.41308 288
33.4332 287
33.45331 317
33.47343 343
33.49354 281
33.51365 291
33.53377 301
33.55388 297
33.57399 306
33.59411 281
33.61422 298
33.63434 331
33.65445 313
33.67456 311
33.69468 300
33.71479 317
33.7349 305
33.75502 328
33.77513 300
33.79524 313
33.81536 286
33.83547 317
33.85559 319
33.8757 305
33.89581 244
33.91593 314
33.93604 278
33.95615 310
33.97627 303
33.99638 290
34.0165 303
34.03661 321
34.05672 326
34.07684 308
34.09695 321
34.11706 323
34.13718 325
34.15729 379
34.17741 363
34.19752 405
34.21763 384
34.23775 411
34.25786 407
34.27797 408
34.29809 449
34.3182 432
34.33831 425
34.35843 471
34.37854 463
34.39866 461
34.41877 479
34.43888 466
34.459 506
34.47911 476
34.49922 464
34.51934 403
34.53945 440
34.55957 448
34.57968 422
34.59979 413
34.61991 453
34.64002 431
34.66013 385
34.68025 390
34.70036 417
34.72047 379
34.74059 378
34.7607 382
34.78082 390
34.80093 383
34.82104 359
34.84116 396
34.86127 370
34.88138 371
34.9015 409
34.92161 402
34.94173 434
34.96184 417
34.98195 456
35.00207 480
35.02218 534
35.04229 518
35.06241 506
35.08252 535
35.10264 557
35.12275 543
35.14286 590
35.16298 606
35.18309 547
35.2032 602
35.22332 617
35.24343 563
35.26354 559
35.28366 559
35.30377 551
35.32389 477
35.344 502
35.36411 465
35.38423 491
35.40434 479
35.42445 476
35.44457 443
35.46468 499
35.4848 419
35.50491 414
35.52502 413
35.54514 423
35.56525 425
35.58536 402
35.60548 363
35.62559 368
35.64571 344
35.66582 346
35.68593 353
35.70605 337
35.72616 322
35.74627 321
35.76639 335
35.7865 292
35.80661 317
35.82673 344
35.84684 327
35.86696 332
35.88707 325
35.90718 321
35.9273 352
35.94741 345
35.96752 325
35.98764 356
36.00775 358
36.02787 319
36.04798 364
36.06809 332
36.08821 353
36.10832 336
36.12843 323
36.14855 321
36.16866 355
36.18878 353
36.20889 367
36.229 328
36.24912 345
36.26923 395
36.28934 412
36.30946 420
36.32957 503
36.34968 586
36.3698 679
36.38991 821
36.41003 894
36.43014 1052
36.45025 1167
36.47037 1229
36.49048 1282
36.51059 1244
36.53071 1182
36.55082 1034
36.57094 891
36.59105 771
36.61116 674
36.63128 626
36.65139 472
36.6715 422
36.69162 341
36.71173 357
36.73184 359
36.75196 337
36.77207 328
36.79219 335
36.8123 319
36.83241 312
36.85253 294
36.87264 331
36.89275 303
36.91287 319
36.93298 294
36.9531 301
36.97321 328
36.99332 307
37.01344 309
37.03355 266
37.05366 296
37.07378 299
37.09389 279
37.11401 283
37.13412 282
37.15423 301
37.17435 327
37.19446 285
37.21457 324
37.23469 322
37.2548 315
37.27491 271
37.29503 312
37.31514 316
37.33526 339
37.35537 353
37.37548 343
37.3956 341
37.41571 302
37.43582 334
37.45594 331
37.47605 331
37.49617 311
37.51628 301
37.53639 305
37.55651 279
37.57662 342
37.59673 322
37.61685 325
37.63696 327
37.65708 320
37.67719 272
37.6973 314
37.71742 250
37.73753 328
37.75764 279
37.77776 275
37.79787 290
37.81798 265
37.8381 302
37.85821 294
37.87833 252
37.89844 290
37.91855 274
37.93867 288
37.95878 266
37.97889 278
37.99901 273
38.01912 291
38.03924 278
38.05935 271
38.07946 292
38.09958 312
38.11969 281
38.1398 331
38.15992 301
38.18003 306
38.20015 324
38.22026 314
38.24037 337
38.26049 321
38.2806 373
38.30071 355
38.32083 358
38.34094 364
38.36105 315
38.38117 339
38.40128 369
38.4214 359
38.44151 341
38.46162 324
38.48174 336
38.50185 343
38.52196 269
38.54208 327
38.56219 299
38.58231 331
38.60242 298
38.62253 301
38.64265 300
38.66276 301
38.68287 262
38.70299 304
38.7231 275
38.74321 265
38.76333 271
38.78344 295
38.80356 313
38.82367 298
38.84378 271
38.8639 294
38.88401 272
38.90412 313
38.92424 317
38.94435 316
38.96447 295
38.98458 316
39.00469 327
39.02481 332
39.04492 311
39.06503 334
39.08515 341
39.10526 363
39.12538 343
39.14549 406
39.1656 385
39.18572 382
39.20583 367
39.22594 429
39.24606 484
39.26617 510
39.28628 622
39.3064 660
39.32651 832
39.34663 941
39.36674 1056
39.38685 1131
39.40697 1161
39.42708 1210
39.44719 1127
39.46731 994
39.48742 877
39.50754 742
39.52765 744
39.54776 619
39.56788 548
39.58799 465
39.6081 379
39.62822 346
39.64833 336
39.66845 345
39.68856 303
39.70867 304
39.72879 278
39.7489 320
39.76901 293
39.78913 289
39.80924 287
39.82935 287
39.84947 274
39.86958 285
39.8897 290
39.90981 291
39.92992 284
39.95004 296
39.97015 319
39.99026 332
40.01038 297
40.03049 351
40.05061 320
40.07072 394
40.09083 431
40.11095 485
40.13106 537
40.15117 573
40.17129 621
40.1914 684
40.21152 735
40.23163 757
40.25174 758
40.27186 708
40.29197 702
40.31208 583
40.3322 578
40.35231 531
40.37242 469
40.39254 434
40.41265 379
40.43277 346
40.45288 304
40.47299 332
40.49311 301
40.51322 295
40.53333 290
40.55345 309
40.57356 297
40.59368 274
40.61379 318
40.6339 337
40.65402 316
40.67413 277
40.69424 289
40.71436 278
40.73447 282
40.75458 286
40.7747 270
40.79481 302
40.81493 281
40.83504 281
40.85515 271
40.87527 300
40.89538 310
40.91549 295
40.93561 278
40.95572 273
40.97584 296
40.99595 288
41.01606 278
41.03618 272
41.05629 313
41.0764 286
41.09652 292
41.11663 306
41.13675 299
41.15686 303
41.17697 273
41.19709 271
41.2172 304
41.23731 288
41.25743 287
41.27754 270
41.29765 249
41.31777 297
41.33788 318
41.358 307
41.37811 314
41.39822 314
41.41834 290
41.43845 337
41.45856 265
41.47868 322
41.49879 330
41.51891 359
41.53902 348
41.55913 344
41.57925 348
41.59936 381
41.61947 345
41.63959 381
41.6597 385
41.67982 410
41.69993 407
41.72004 390
41.74016 380
41.76027 372
41.78038 347
41.8005 347
41.82061 299
41.84072 306
41.86084 340
41.88095 323
41.90107 301
41.92118 297
41.94129 293
41.96141 301
41.98152 282
42.00163 296
42.02175 280
42.04186 280
42.06198 287
42.08209 294
42.1022 287
42.12232 317
42.14243 315
42.16254 357
42.18266 350
42.20277 351
42.22289 363
42.243 451
42.26311 539
42.28323 607
42.30334 656
42.32345 756
42.34357 818
42.36368 937
42.38379 934
42.40391 901
42.42402 884
42.44414 822
42.46425 711
42.48436 654
42.50448 623
42.52459 518
42.5447 478
42.56482 440
42.58493 457
42.60505 352
42.62516 362
42.64527 335
42.66539 344
42.6855 329
42.70561 347
42.72573 343
42.74584 349
42.76595 377
42.78607 357
42.80618 321
42.8263 328
42.84641 288
42.86652 306
42.88664 297
42.90675 285
42.92686 298
42.94698 314
42.96709 277
42.98721 284
43.00732 270
43.02743 282
43.04755 252
43.06766 259
43.08777 239
43.10789 275
43.128 289
43.14812 277
43.16823 284
43.18834 270
43.20846 256
43.22857 260
43.24868 251
43.2688 287
43.28891 269
43.30902 267
43.32914 250
43.34925 267
43.36937 245
43.38948 261
43.40959 240
43.42971 263
43.44982 266
43.46993 265
43.49005 272
43.51016 286
43.53028 266
43.55039 288
43.5705 283
43.59062 267
43.61073 293
43.63084 275
43.65096 296
43.67107 284
43.69119 283
43.7113 303
43.73141 269
43.75153 292
43.77164 298
43.79175 274
43.81187 291
43.83198 272
43.85209 270
43.87221 267
43.89232 277
43.91244 266
43.93255 303
43.95266 295
43.97278 303
43.99289 274
44.013 278
44.03312 314
44.05323 285
44.07335 294
44.09346 284
44.11357 269
44.13369 287
44.1538 250
44.17391 272
44.19403 297
44.21414 274
44.23426 260
44.25437 278
44.27448 272
44.2946 242
44.31471 274
44.33482 267
44.35494 241
44.37505 269
44.39516 255
44.41528 257
44.43539 253
44.45551 259
44.47562 276
44.49573 255
44.51585 269
44.53596 260
44.55607 261
44.57619 287
44.5963 258
44.61642 294
44.63653 263
44.65664 274
44.67676 289
44.69687 278
44.71698 278
44.7371 280
44.75721 267
44.77732 276
44.79744 272
44.81755 297
44.83767 286
44.85778 286
44.87789 284
44.89801 269
44.91812 281
44.93823 249
44.95835 273
44.97846 275
44.99858 284
45.01869 299
45.0388 283
45.05892 274
45.07903 262
45.09914 249
45.11926 260
45.13937 253
45.15949 260
45.1796 261
45.19971 237
45.21983 233
45.23994 273
45.26005 257
45.28017 265
45.30028 278
45.32039 257
45.34051 249
45.36062 272
45.38074 254
45.40085 294
45.42096 244
45.44108 284
45.46119 314
45.4813 271
45.50142 279
45.52153 290
45.54165 341
45.56176 388
45.58187 389
45.60199 436
45.6221 465
45.64221 511
45.66233 535
45.68244 654
45.70256 628
45.72267 630
45.74278 666
45.7629 669
45.78301 605
45.80312 550
45.82324 489
45.84335 467
45.86346 441
45.88358 437
45.90369 394
45.92381 355
45.94392 307
45.96403 306
45.98415 270
46.00426 281
46.02437 253
46.04449 300
46.0646 303
46.08472 256
46.10483 249
46.12494 230
46.14506 282
46.16517 278
46.18528 268
46.2054 272
46.22551 265
46.24563 254
46.26574 235
46.28585 236
46.30597 252
46.32608 255
46.34619 255
46.36631 241
46.38642 245
46.40653 267
46.42665 242
46.44676 239
46.46688 240
46.48699 241
46.5071 243
46.52722 258
46.54733 232
46.56744 234
46.58756 243
46.60767 244
46.62779 276
46.6479 242
46.66801 235
46.68813 258
46.70824 229
46.72835 220
46.74847 235
46.76858 238
46.78869 283
46.80881 241
46.82892 250
46.84904 243
46.86915 269
46.88926 235
46.90938 272
46.92949 256
46.9496 291
46.96972 255
46.98983 251
47.00995 282
47.03006 276
47.05017 265
47.07029 285
47.0904 260
47.11051 265
47.13063 272
47.15074 271
47.17086 273
47.19097 250
47.21108 249
47.2312 270
47.25131 254
47.27142 230
47.29154 257
47.31165 271
47.33176 256
47.35188 288
47.37199 285
47.39211 276
47.41222 270
47.43233 277
47.45245 286
47.47256 253
47.49267 252
47.51279 240
47.5329 263
47.55302 271
47.57313 277
47.59324 253
47.61336 257
47.63347 269
47.65358 254
47.6737 243
47.69381 227
47.71393 271
47.73404 250
47.75415 224
47.77427 243
47.79438 256
47.81449 263
47.83461 256
47.85472 275
47.87483 235
47.89495 278
47.91506 253
47.93518 264
47.95529 257
47.9754 260
47.99552 242
48.01563 283
48.03574 282
48.05586 260
48.07597 224
48.09609 276
48.1162 272
48.13631 285
48.15643 306
48.17654 271
48.19665 270
48.21677 282
48.23688 298
48.257 304
48.27711 266
48.29722 302
48.31734 306
48.33745 287
48.35756 298
48.37768 304
48.39779 281
48.4179 309
48.43802 309
48.45813 305
48.47825 330
48.49836 307
48.51847 343
48.53859 350
48.5587 360
48.57881 331
48.59893 347
48.61904 405
48.63916 353
48.65927 312
48.67938 390
48.6995 386
48.71961 348
48.73972 354
48.75984 356
48.77995 383
48.80006 331
48.82018 305
48.84029 320
48.86041 320
48.88052 315
48.90063 336
48.92075 294
48.94086 333
48.96097 304
48.98109 306
49.0012 307
49.02132 293
49.04143 304
49.06154 311
49.08166 316
49.10177 299
49.12188 326
49.142 320
49.16211 339
49.18223 297
49.20234 298
49.22245 300
49.24257 298
49.26268 279
49.28279 284
49.30291 294
49.32302 250
49.34313 257
49.36325 281
49.38336 292
49.40348 267
49.42359 274
49.4437 269
49.46382 297
49.48393 298
49.50404 303
49.52416 287
49.54427 294
49.56439 254
49.5845 269
49.60461 317
49.62473 281
49.64484 325
49.66495 338
49.68507 292
49.70518 336
49.7253 363
49.74541 338
49.76552 365
49.78564 373
49.80575 402
49.82586 383
49.84598 455
49.86609 502
49.8862 522
49.90632 615
49.92643 710
49.94655 858
49.96666 1000
49.98677 1154
50.00689 1413
50.027 1537
50.04711 1734
50.06723 1723
50.08734 1733
50.10746 1648
50.12757 1567
50.14768 1202
50.1678 1158
50.18791 1086
50.20802 1029
50.22814 889
50.24825 850
50.26837 684
50.28848 517
50.30859 463
50.32871 398
50.34882 406
50.36893 403
50.38905 338
50.40916 372
50.42927 368
50.44939 377
50.4695 331
50.48962 389
50.50973 375
50.52984 391
50.54996 351
50.57007 350
50.59018 398
50.6103 358
50.63041 348
50.65053 337
50.67064 289
50.69075 359
50.71087 325
50.73098 321
50.75109 312
50.77121 293
50.79132 296
50.81143 274
50.83155 283
50.85166 247
50.87178 236
50.89189 247
50.912 275
50.93212 305
50.95223 292
50.97234 276
50.99246 264
51.01257 283
51.03269 252
51.0528 235
51.07291 265
51.09303 260
51.11314 260
51.13325 262
51.15337 262
51.17348 271
51.1936 267
51.21371 259
51.23382 273
51.25394 259
51.27405 282
51.29416 272
51.31428 259
51.33439 253
51.3545 248
51.37462 254
51.39473 252
51.41485 249
51.43496 247
51.45507 275
51.47519 243
51.4953 252
51.51541 240
51.53553 250
51.55564 245
51.57576 246
51.59587 267
51.61598 255
51.6361 231
51.65621 243
51.67632 235
51.69644 234
51.71655 253
51.73667 243
51.75678 238
51.77689 256
51.79701 230
51.81712 231
51.83723 239
51.85735 247
51.87746 221
51.89757 264
51.91769 226
51.9378 249
51.95792 276
51.97803 224
51.99814 228
52.01826 245
52.03837 266
52.05848 259
52.0786 236
52.09871 247
52.11883 209
52.13894 279
52.15905 230
52.17917 260
52.19928 254
52.21939 242
52.23951 273
52.25962 271
52.27974 270
52.29985 265
52.31996 272
52.34008 256
52.36019 257
52.3803 271
52.40042 281
52.42053 250
52.44064 259
52.46076 259
52.48087 263
52.50099 261
52.5211 257
52.54121 248
52.56133 262
52.58144 267
52.60155 274
52.62167 272
52.64178 277
52.6619 277
52.68201 290
52.70212 279
52.72224 271
52.74235 234
52.76246 307
52.78258 308
52.80269 288
52.8228 311
52.84292 335
52.86303 329
52.88315 328
52.90326 328
52.92337 355
52.94349 384
52.9636 390
52.98371 363
53.00383 381
53.02394 372
53.04406 372
53.06417 356
53.08428 364
53.1044 368
53.12451 353
53.14462 426
53.16474 358
53.18485 343
53.20497 338
53.22508 352
53.24519 305
53.26531 313
53.28542 331
53.30553 322
53.32565 329
53.34576 325
53.36587 314
53.38599 310
53.4061 313
53.42622 341
53.44633 301
53.46644 304
53.48656 316
53.50667 292
53.52678 306
53.5469 287
53.56701 295
53.58713 349
53.60724 305
53.62735 266
53.64747 298
53.66758 303
53.68769 289
53.70781 313
53.72792 288
53.74804 285
53.76815 264
53.78826 304
53.80838 285
53.82849 276
53.8486 272
53.86872 300
53.88883 321
53.90894 328
53.92906 331
53.94917 300
53.96929 306
53.9894 322
54.00951 303
54.02963 341
54.04974 326
54.06985 292
54.08997 313
54.11008 301
54.1302 322
54.15031 333
54.17042 335
54.19054 330
54.21065 327
54.23076 313
54.25088 306
54.27099 311
54.29111 300
54.31122 293
54.33133 352
54.35145 284
54.37156 327
54.39167 316
54.41179 299
54.4319 286
54.45201 329
54.47213 280
54.49224 314
54.51236 318
54.53247 291
54.55258 333
54.5727 314
54.59281 299
54.61292 342
54.63304 342
54.65315 371
54.67327 418
54.69338 469
54.71349 482
54.73361 593
54.75372 595
54.77383 703
54.79395 635
54.81406 683
54.83417 660
54.85429 617
54.8744 597
54.89452 532
54.91463 504
54.93474 475
54.95486 488
54.97497 458
54.99508 407
55.0152 377
55.03531 370
55.05543 362
55.07554 333
55.09565 318
55.11577 334
55.13588 337
55.15599 371
55.17611 400
55.19622 388
55.21634 429
55.23645 414
55.25656 474
55.27668 455
55.29679 410
55.3169 402
55.33702 418
55.35713 372
55.37724 408
55.39736 377
55.41747 369
55.43759 351
55.4577 319
55.47781 373
55.49793 340
55.51804 327
55.53815 308
55.55827 327
55.57838 322
55.5985 278
55.61861 296
55.63872 290
55.65884 288
55.67895 268
55.69906 298
55.71918 248
55.73929 280
55.75941 287
55.77952 313
55.79963 307
55.81975 275
55.83986 295
55.85997 259
55.88009 282
55.9002 275
55.92031 299
55.94043 283
55.96054 279
55.98066 271
56.00077 288
56.02088 283
56.041 278
56.06111 296
56.08122 290
56.10134 303
56.12145 316
56.14157 288
56.16168 285
56.18179 261
56.20191 274
56.22202 274
56.24213 288
56.26225 251
56.28236 266
56.30248 255
56.32259 282
56.3427 265
56.36282 275
56.38293 258
56.40304 257
56.42316 263
56.44327 280
56.46338 256
56.4835 281
56.50361 282
56.52373 298
56.54384 275
56.56395 308
56.58407 273
56.60418 284
56.62429 304
56.64441 266
56.66452 266
56.68464 261
56.70475 244
56.72486 293
56.74498 286
56.76509 274
56.7852 245
56.80532 278
56.82543 272
56.84554 241
56.86566 222
56.88577 260
56.90589 267
56.926 256
56.94611 235
56.96623 269
56.98634 234
57.00645 247
57.02657 234
57.04668 257
57.0668 266
57.08691 242
57.10702 274
57.12714 271
57.14725 285
57.16736 278
57.18748 274
57.20759 290
57.22771 266
57.24782 271
57.26793 261
57.28805 275
57.30816 246
57.32827 283
57.34839 264
57.3685 272
57.38861 273
57.40873 248
57.42884 239
57.44896 247
57.46907 234
57.48918 232
57.5093 250
57.52941 248
57.54952 244
57.56964 258
57.58975 270
57.60987 264
57.62998 248
57.65009 248
57.67021 257
57.69032 267
57.71043 248
57.73055 257
57.75066 278
57.77078 276
57.79089 250
57.811 261
57.83112 238
57.85123 241
57.87134 267
57.89146 265
57.91157 267
57.93168 283
57.9518 248
57.97191 265
57.99203 270
58.01214 248
58.03225 255
58.05237 260
58.07248 253
58.09259 266
58.11271 239
58.13282 255
58.15294 240
58.17305 233
58.19316 250
58.21328 260
58.23339 238
58.2535 244
58.27362 258
58.29373 233
58.31385 223
58.33396 256
58.35407 247
58.37419 241
58.3943 246
58.41441 258
58.43453 271
58.45464 277
58.47475 254
58.49487 251
58.51498 233
58.5351 268
58.55521 258
58.57532 243
58.59544 232
58.61555 260
58.63566 242
58.65578 254
58.67589 261
58.69601 276
58.71612 261
58.73623 263
58.75635 262
58.77646 246
58.79657 223
58.81669 193
58.8368 218
58.85691 211
58.87703 240
58.89714 261
58.91726 240
58.93737 246
58.95748 242
58.9776 246
58.99771 256
59.01782 229
59.03794 219
59.05805 234
59.07817 238
59.09828 260
59.11839 252
59.13851 241
59.15862 229
59.17873 237
59.19885 232
59.21896 239
59.23908 246
59.25919 230
59.2793 272
59.29942 272
59.31953 247
59.33964 230
59.35976 267
59.37987 256
59.39998 234
59.4201 277
59.44021 276
59.46033 304
59.48044 264
59.50055 305
59.52067 281
59.54078 321
59.56089 329
59.58101 298
59.60112 325
59.62124 342
59.64135 359
59.66146 408
59.68158 410
59.70169 493
59.7218 493
59.74192 579
59.76203 641
59.78215 754
59.80226 890
59.82237 1015
59.84249 1091
59.8626 1169
59.88271 1161
59.90283 1126
59.92294 1090
59.94305 953
59.96317 919
59.98328 789
60.0034 755
60.02351 719
60.04362 723
60.06374 717
60.08385 611
60.10396 535
60.12408 499
60.14419 426
60.16431 362
60.18442 333
60.20453 283
60.22465 285
60.24476 294
60.26487 316
60.28499 274
60.3051 275
60.32522 270
60.34533 253
60.36544 264
60.38556 272
60.40567 223
60.42578 281
60.4459 272
60.46601 297
60.48612 284
60.50624 263
60.52635 262
60.54647 290
60.56658 272
60.58669 264
60.60681 223
60.62692 276
60.64703 269
60.66715 269
60.68726 304
60.70738 294
60.72749 269
60.7476 286
60.76772 236
60.78783 261
60.80794 283
60.82806 261
60.84817 238
60.86828 263
60.8884 277
60.90851 256
60.92863 257
60.94874 255
60.96885 243
60.98897 269
61.00908 242
61.02919 222
61.04931 272
61.06942 287
61.08954 285
61.10965 249
61.12976 258
61.14988 276
61.16999 279
61.1901 296
61.21022 292
61.23033 282
61.25045 262
61.27056 292
61.29067 292
61.31079 278
61.3309 275
61.35101 297
61.37113 297
61.39124 296
61.41135 335
61.43147 308
61.45158 292
61.4717 273
61.49181 323
61.51192 306
61.53204 296
61.55215 316
61.57226 305
61.59238 324
61.61249 296
61.63261 300
61.65272 319
61.67283 261
61.69295 266
61.71306 279
61.73317 280
61.75329 247
61.7734 291
61.79352 269
61.81363 286
61.83374 272
61.85386 257
61.87397 273
61.89408 248
61.9142 277
61.93431 236
61.95442 260
61.97454 273
61.99465 228
62.01477 278
62.03488 273
62.05499 242
62.07511 268
62.09522 265
62.11533 243
62.13545 259
62.15556 244
62.17568 240
62.19579 246
62.2159 255
62.23602 247
62.25613 233
62.27624 259
62.29636 230
62.31647 239
62.33659 241
62.3567 263
62.37681 263
62.39693 260
62.41704 257
62.43715 264
62.45727 281
62.47738 217
62.49749 235
62.51761 262
62.53772 243
62.55784 246
62.57795 245
62.59806 265
62.61818 245
62.63829 253
62.6584 277
62.67852 228
62.69863 248
62.71875 268
62.73886 250
62.75897 270
62.77909 281
62.7992 276
62.81931 261
62.83943 268
62.85954 261
62.87965 251
62.89977 253
62.91988 278
62.94 265
62.96011 267
62.98022 261
63.00034 253
63.02045 276
63.04056 262
63.06068 299
63.08079 295
63.10091 350
63.12102 299
63.14113 309
63.16125 325
63.18136 318
63.20147 320
63.22159 289
63.2417 294
63.26182 302
63.28193 293
63.30204 286
63.32216 260
63.34227 273
63.36238 266
63.3825 267
63.40261 279
63.42272 296
63.44284 291
63.46295 299
63.48307 292
63.50318 267
63.52329 253
63.54341 254
63.56352 278
63.58363 273
63.60375 262
63.62386 268
63.64398 248
63.66409 289
63.6842 290
63.70432 296
63.72443 315
63.74454 350
63.76466 287
63.78477 336
63.80489 316
63.825 352
63.84511 357
63.86523 390
63.88534 363
63.90545 418
63.92557 409
63.94568 423
63.96579 434
63.98591 400
64.00602 375
64.02614 375
64.04625 348
64.06636 358
64.08648 374
64.10659 362
64.1267 353
64.14682 351
64.16693 328
64.18705 307
64.20716 312
64.22727 262
64.24739 282
64.2675 276
64.28761 277
64.30773 279
64.32784 283
64.34796 249
64.36807 269
64.38818 269
64.4083 270
64.42841 246
64.44852 250
64.46864 285
64.48875 262
64.50886 253
64.52898 272
64.54909 265
64.56921 228
64.58932 246
64.60943 251
64.62955 264
64.64966 265
64.66977 217
64.68989 235
64.71 237
64.73012 260
64.75023 242
64.77034 249
64.79046 230
64.81057 253
64.83068 221
64.8508 265
64.87091 273
64.89102 236
64.91114 239
64.93125 233
64.95137 252
64.97148 234
64.99159 225
65.01171 251
65.03182 276
65.05193 231
65.07205 226
65.09216 252
65.11228 219
65.13239 254
65.1525 237
65.17262 203
65.19273 233
65.21284 246
65.23296 217
65.25307 229
65.27319 212
65.2933 230
65.31341 255
65.33353 257
65.35364 251
65.37375 240
65.39387 238
65.41398 231
65.43409 266
65.45421 269
65.47432 250
65.49444 270
65.51455 234
65.53466 244
65.55478 273
65.57489 253
65.595 257
65.61512 250
65.63523 256
65.65535 280
65.67546 295
65.69557 276
65.71569 232
65.7358 304
65.75591 272
65.77603 228
65.79614 252
65.81626 228
65.83637 239
65.85648 241
65.8766 269
65.89671 253
65.91682 259
65.93694 238
65.95705 231
65.97716 233
65.99728 243
66.01739 248
66.03751 233
66.05762 253
66.07773 247
66.09785 230
66.11796 215
66.13807 229
66.15819 248
66.1783 239
66.19842 231
66.21853 242
66.23864 246
66.25876 237
66.27887 299
66.29898 234
66.3191 250
66.33921 280
66.35933 249
66.37944 239
66.39955 242
66.41967 257
66.43978 234
66.45989 245
66.48001 224
66.50012 256
66.52023 268
66.54035 231
66.56046 233
66.58058 244
66.60069 250
66.6208 248
66.64092 238
66.66103 270
66.68114 236
66.70126 232
66.72137 234
66.74149 242
66.7616 220
66.78171 224
66.80183 231
66.82194 237
66.84205 245
66.86217 230
66.88228 248
66.90239 264
66.92251 239
66.94262 241
66.96274 240
66.98285 262
67.00296 275
67.02308 272
67.04319 249
67.0633 258
67.08342 259
67.10353 233
67.12365 240
67.14376 235
67.16387 251
67.18399 252
67.2041 248
67.22421 265
67.24433 256
67.26444 237
67.28456 258
67.30467 266
67.32478 254
67.3449 261
67.36501 265
67.38512 277
67.40524 283
67.42535 296
67.44546 342
67.46558 325
67.48569 328
67.50581 393
67.52592 443
67.54603 515
67.56615 560
67.58626 626
67.60637 684
67.62649 685
67.6466 731
67.66672 789
67.68683 729
67.70694 733
67.72706 640
67.74717 604
67.76728 584
67.7874 518
67.80751 562
67.82763 558
67.84774 586
67.86785 607
67.88797 591
67.90808 601
67.92819 609
67.94831 629
67.96842 740
67.98853 746
68.00865 857
68.02876 851
68.04888 894
68.06899 913
68.0891 927
68.10922 880
68.12933 889
68.14944 852
68.16956 836
68.18967 869
68.20979 910
68.2299 899
68.25001 871
68.27013 801
68.29024 766
68.31035 679
68.33047 630
68.35058 544
68.3707 527
68.39081 503
68.41092 491
68.43104 433
68.45115 488
68.47126 412
68.49138 398
68.51149 362
68.5316 305
68.55172 287
68.57183 291
68.59195 283
68.61206 272
68.63217 255
68.65229 279
68.6724 280
68.69251 254
68.71263 256
68.73274 266
68.75286 267
68.77297 284
68.79308 249
68.8132 257
68.83331 252
68.85342 266
68.87354 228
68.89365 230
68.91376 269
68.93388 245
68.95399 231
68.97411 220
68.99422 226
69.01433 203
69.03445 231
69.05456 247
69.07467 239
69.09479 222
69.1149 230
69.13502 226
69.15513 232
69.17524 234
69.19536 230
69.21547 229
69.23558 246
69.2557 207
69.27581 236
69.29593 231
69.31604 246
69.33615 209
69.35627 250
69.37638 252
69.39649 229
69.41661 230
69.43672 195
69.45683 243
69.47695 225
69.49706 250
69.51718 229
69.53729 231
69.5574 227
69.57752 228
69.59763 233
69.61774 231
69.63786 237
69.65797 243
69.67809 245
69.6982 236
69.71831 242
69.73843 253
69.75854 255
69.77865 203
69.79877 214
69.81888 244
69.839 298
69.85911 230
69.87922 267
69.89934 232
69.91945 227
69.93956 270
69.95968 232
69.97979 236
69.9999 257
70.02002 243
70.04013 223
70.06025 253
70.08036 233
70.10047 244
70.12059 246
70.1407 263
70.16081 227
70.18093 239
70.20104 259
70.22116 220
70.24127 216
70.26138 247
70.2815 217
70.30161 233
70.32172 231
70.34184 228
70.36195 245
70.38207 208
70.40218 200
70.42229 210
70.44241 222
70.46252 213
70.48263 209
70.50275 198
70.52286 205
70.54297 196
70.56309 218
70.5832 227
70.60332 208
70.62343 211
70.64354 224
70.66366 224
70.68377 229
70.70388 223
70.724 197
70.74411 221
70.76423 226
70.78434 226
70.80445 221
70.82457 242
70.84468 189
70.86479 224
70.88491 224
70.90502 203
70.92513 201
70.94525 197
70.96536 209
70.98548 235
71.00559 220
71.0257 203
71.04582 245
71.06593 201
71.08604 216
71.10616 229
71.12627 199
71.14639 194
71.1665 221
71.18661 223
71.20673 188
71.22684 222
71.24695 209
71.26707 195
71.28718 232
71.3073 197
71.32741 204
71.34752 212
71.36764 237
71.38775 208
71.40786 189
71.42798 195
71.44809 216
71.4682 232
71.48832 214
71.50843 234
71.52855 187
71.54866 204
71.56877 219
71.58889 206
71.609 230
71.62911 222
71.64923 231
71.66934 211
71.68946 222
71.70957 222
71.72968 217
71.7498 199
71.76991 239
71.79002 227
71.81014 213
71.83025 202
71.85037 209
71.87048 222
71.89059 219
71.91071 229
71.93082 208
71.95093 213
71.97105 223
71.99116 193
72.01127 201
72.03139 223
72.0515 212
72.07162 205
72.09173 221
72.11184 183
72.13196 197
72.15207 197
72.17218 224
72.1923 230
72.21241 233
72.23253 229
72.25264 211
72.27275 225
72.29287 239
72.31298 213
72.33309 224
72.35321 231
72.37332 208
72.39344 216
72.41355 235
72.43366 190
72.45378 209
72.47389 210
72.494 199
72.51412 212
72.53423 231
72.55434 212
72.57446 219
72.59457 237
72.61469 218
72.6348 205
72.65491 211
72.67503 234
72.69514 217
72.71525 225
72.73537 197
72.75548 217
72.7756 192
72.79571 217
72.81582 234
72.83594 227
72.85605 213
72.87616 254
72.89628 247
72.91639 216
72.9365 196
72.95662 219
72.97673 227
72.99685 218
73.01696 254
73.03707 198
73.05719 230
73.0773 232
73.09741 250
73.11753 222
73.13764 240
73.15776 223
73.17787 231
73.19798 267
73.2181 248
73.23821 282
73.25832 304
73.27844 313
73.29855 334
73.31867 347
73.33878 344
73.35889 369
73.37901 380
73.39912 405
73.41923 370
73.43935 354
73.45946 343
73.47957 293
73.49969 303
73.5198 241
73.53992 301
73.56003 291
73.58014 291
73.60026 320
73.62037 293
73.64048 298
73.6606 231
73.68071 256
73.70083 251
73.72094 221
73.74105 233
73.76117 220
73.78128 206
73.80139 241
73.82151 236
73.84162 215
73.86174 208
73.88185 205
73.90196 224
73.92208 221
73.94219 196
73.9623 209
73.98242 207
74.00253 210
74.02264 219
74.04276 204
74.06287 197
74.08299 213
74.1031 215
74.12321 206
74.14333 200
74.16344 193
74.18355 219
74.20367 249
74.22378 225
74.2439 235
74.26401 200
74.28412 225
74.30424 225
74.32435 203
74.34446 223
74.36458 210
74.38469 222
74.40481 210
74.42492 189
74.44503 234
74.46515 263
74.48526 238
74.50537 237
74.52549 219
74.5456 203
74.56571 202
74.58583 240
74.60594 253
74.62606 229
74.64617 225
74.66628 218
74.6864 214
74.70651 204
74.72662 222
74.74674 214
74.76685 214
74.78697 231
74.80708 238
74.82719 196
74.84731 210
74.86742 216
74.88753 232
74.90765 225
74.92776 232
74.94787 206
74.96799 208
74.9881 201
75.00822 207
