3.00117 22361.548154558
3.02128 21588.2410591654
3.0414 21561
3.06151 20575.3934893516
3.08162 19772.9078927984
3.10174 19924.2793722648
3.12185 19040.6244323797
3.14197 18767.7355037593
3.16208 17920.7272998975
3.18219 17593.0530302162
3.20231 17285.6290076075
3.22242 16380.4555963746
3.24253 16221.6186128269
3.26265 15606.1289939928
3.28276 15029.6118681639
3.30288 14838.3183071597
3.32299 14370.1936926283
3.3431 14095
3.36322 13574.4153178401
3.38333 13014.1979499623
3.40344 12513.1132032906
3.42356 12152.5248849418
3.44367 11893.53263077
3.46379 11405.2730420486
3.4839 10997
3.50401 10904.7964503638
3.52413 10327.6493388125
3.54424 10369.4963555437
3.56435 9687.66913956574
3.58447 9319.31304715596
3.60458 9066.34932445742
3.62469 8687.14004643464
3.64481 8459.83015542045
3.66492 8002.59660437793
3.68504 7747.65730579494
3.70515 7548.33405403272
3.72526 7227.62848377608
3.74538 6979.1739220194
3.76549 6737.2265068588
3.7856 6224
3.80572 6184.87351212819
3.82583 5839.43814598995
3.84595 5578.54105316425
3.86606 5424.26046969093
3.88617 5270.32307686952
3.90629 4998.13965685806
3.9264 4789
3.94651 4697.89803709464
3.96663 4384.5688913819
3.98674 4229.91503946417
4.00686 4163.40674911241
4.02697 3874.30774979867
4.04708 3769.15287141522
4.0672 3517
4.08731 3400.02304668801
4.10742 3438.83137486198
4.12754 3132.66134929155
4.14765 3116.2908157283
4.16776 2828.54680992488
4.18788 2716.98187923093
4.20799 2735.03868144096
4.22811 2603.97720618846
4.24822 2599.85694754941
4.26833 2316.6403790965
4.28845 2253.16859864
4.30856 2327.99446204021
4.32867 2243.16331064296
4.34879 2150.04926746681
4.3689 2042
4.38902 1985.99701098889
4.40913 1995.95762816554
4.42924 1921.84910139068
4.44936 1871.08465401535
4.46947 1822.07932760273
4.48958 1758.08338931944
4.5097 1695
4.52981 1742.00288869781
4.54992 1659.86469714366
4.57004 1538.8589849755
4.59015 1521.98525847891
4.61027 1547.88880111903
4.63038 1625.99227389329
4.65049 1539.0657244087
4.67061 1409.93671362184
4.69072 1347.0647939727
4.71083 1464.04351886044
4.73095 1367.70218992563
4.75106 1304.05832107114
4.77118 1300.96318672114
4.79129 1317.03972001503
4.8114 1199
4.83152 1248.9692910259
4.85163 1135.93613471202
4.87174 1183.00948753652
4.89186 1113.0889043744
4.91197 1134.95473395906
4.93209 1117.03212251383
4.9522 1039
4.97231 1018.00357966398
4.99243 1021.97027965792
5.01254 996.012614869012
5.03265 1036.90252392777
5.05277 1038.05567793141
5.07288 981.057375390062
5.09299 952.993576120203
5.11311 981.002916724784
5.13322 958.981620203952
5.15334 957.998207249348
5.17345 943.942687638351
5.19356 920.041109658346
5.21368 897.034811906358
5.23379 874.987247673963
5.2539 923
5.27402 874.933420178686
5.29413 817.914030990747
5.31425 786.075894987161
5.33436 847.94961142446
5.35447 807.103240073936
5.37459 764.998765657568
5.3947 793
5.41481 789.000531020075
5.43493 778.905285247762
5.45504 707.013018881582
5.47516 767.991907060441
5.49527 703.052358745836
5.51538 714.025931993718
5.5355 643
5.55561 661.014284006747
5.57572 679.03334480843
5.59584 702.92670284941
5.61595 623.133143034683
5.63606 620.989069704466
5.65618 623.965630362936
5.67629 671.995423804121
5.69641 629.973530413406
5.71652 608.011697295681
5.73663 619.964525767853
5.75675 561.863243753051
5.77686 546.950429594963
5.79697 582.972219612055
5.81709 573.010531496142
5.8372 561
5.85732 567.002673429163
5.87743 553.95231891289
5.89754 539.081876680137
5.91766 587.067168423171
5.93777 499.039430473041
5.95788 546.981257914917
5.978 511
5.99811 543.009904773131
6.01823 516.926701598121
6.03834 490.035081397327
6.05845 534.91975977168
6.07857 531.035709137787
6.09868 499.044166247957
6.11879 455.013169950863
6.13891 464.022507221862
6.15902 515.025386585693
6.17913 498.936540950514
6.19925 474.05377997285
6.21936 517.974309414465
6.23948 475.07012414515
6.25959 437.985520244648
6.2797 494
6.29982 441.939752720077
6.31993 417.000804078987
6.34004 436.080756185909
6.36016 466.031934770942
6.38027 428.996559983945
6.40039 476.980385254518
6.4205 480
6.44061 483.003347799735
6.46073 478.965775285558
6.48084 451.983907608826
6.50095 450.078230139664
6.52107 401.028059974236
6.54118 421.977729005384
6.56129 431.988913857621
6.58141 458.999710739076
6.60152 424.959128689882
6.62164 421.101643008342
6.64175 480.005147289847
6.66186 426.087875179744
6.68198 419.008083390439
6.70209 407.988743948994
6.7222 448
6.74232 408.962475123923
6.76243 412.057542558719
6.78255 451.023825708555
6.80266 435.01583674689
6.82277 444.993633848661
6.84289 428.01492932246
6.863 399
6.88311 389.000863917989
6.90323 404.045197528895
6.92334 415.916547389078
6.94346 359.988502506531
6.96357 419.953374984764
6.98368 390.040177028703
7.0038 386
7.02391 418.005571755911
7.04402 402.977956041111
7.06414 390.99294649507
7.08425 385.043522742131
7.10436 369.9788326491
7.12448 400.977463847507
7.14459 405.996613152926
7.16471 420.003534855089
7.18482 414.991766648589
7.20493 415.016455456007
7.22505 416.925686496497
7.24516 378.998771693373
7.26527 412.976587810697
7.28539 391.013495724551
7.3055 375
7.32562 362.024578709317
7.34573 402.005163609527
7.36584 370.976407958904
7.38596 392.966555862639
7.40607 387.011117881224
7.42618 392.987105782224
7.4463 393
7.46641 369.010325231786
7.48653 400.951293558621
7.50664 333.002650835801
7.52675 399.940317051986
7.54687 362.015490051785
7.56698 410.949996685593
7.58709 413.018690766714
7.60721 373.994610566656
7.62732 382.991019093041
7.64743 361.011717775656
7.66755 399.064339214517
7.68766 386.072161829591
7.70778 360.99481255903
7.72789 390.984955548628
7.748 387
7.76812 334.994581832711
7.78823 371.033185982554
7.80834 356.964675156356
7.82846 350.028050027069
7.84857 342.951850548753
7.86869 395.988697632619
7.8888 371
7.90891 356.006788134451
7.92903 381.021667984196
7.94914 371.95243272976
7.96925 358.962419927828
7.98937 385.991772609612
8.00948 370.00396662899
8.0296 383
8.04971 355.978408957267
8.06982 324.998303228232
8.08994 350.064430629122
8.11005 358.935411096138
8.13016 319.042344302978
8.15028 343.933962343882
8.17039 396.006657965393
8.1905 342
8.21062 374.021831099205
8.23073 350.936731131202
8.25085 347.166274854972
8.27096 418.048022899268
8.29107 321.072824775036
8.31119 363.971787028836
8.3313 388
8.35141 403.986040727893
8.37153 344.940804793029
8.39164 349.043900868765
8.41176 366.965715230046
8.43187 378.006309093305
8.45198 354.03897487495
8.4721 334
8.49221 378.999098171914
8.51232 331.972269693362
8.53244 348.040788738293
8.55255 350.993095343355
8.57266 355.021366323548
8.59278 339.99271232096
8.61289 366.991380107666
8.63301 364.999209393224
8.65312 363.980150954823
8.67323 349.049815025921
8.69335 410.06145224574
8.71346 376.10167889851
8.73357 347.013687276768
8.75369 347.998196801778
8.7738 360
8.79392 399.014626795775
8.81403 384.973674504711
8.83414 383.015791011422
8.85426 398.944926976946
8.87437 414.038513669878
8.89448 361.037942942684
8.9146 355
8.93471 347.997132191237
8.95483 339.965410789445
8.97494 323.046665886702
8.99505 368.960009461228
9.01517 346.028289237059
9.03528 351.991362317025
9.05539 347.006348862771
9.07551 344.009155998316
9.09562 366.999165856975
9.11573 342.972851229194
9.13585 341.996786792075
9.15596 338.977502868632
9.17608 361.984071270458
9.19619 358.009100564002
9.2163 350
9.23642 383.008382701269
9.25653 348.913206122168
9.27664 316.046290700368
9.29676 366.962622312127
9.31687 346.013131637369
9.33699 360.002368388383
9.3571 333
9.37721 353.014092624182
9.39733 362.981736336216
9.41744 327.891393842704
9.43755 289.970628431407
9.45767 336.948422320678
9.47778 331.026747444462
9.4979 316
9.51801 348.018720092727
9.53812 357.965517963845
9.55824 311.985904436552
9.57835 342.038478105115
9.59846 338.948353400152
9.61858 387.981632707577
9.63869 363.01374383101
9.6588 357
9.67892 350.995440590233
9.69903 351.001952482274
9.71915 353.013334803612
9.73926 364.962024050293
9.75937 359.095139130107
9.77949 300.977951908031
9.7996 399
9.81971 303.970052437851
9.83983 342.095272533183
9.85994 352.903564131114
9.88006 303.967745904936
9.90017 362.979051038726
9.92028 329.993972037928
9.9404 384
9.96051 348.976670388907
9.98062 331.004203427763
10.00074 339.000069839111
10.02085 332.995948931227
10.04097 344.982966126031
10.06108 345.011196286525
10.08119 339.990727641104
10.10131 373.01025495495
10.12142 362.967961070436
10.14153 321.933002269056
10.16165 297.034549407237
10.18176 344.884706819974
10.20187 371.035903624933
10.22199 327.007620010973
10.2421 344
10.26222 326.998263379071
10.28233 351.035640954733
10.30244 357.998261332673
10.32256 350.04627778371
10.34267 326.002960931658
10.36278 341.993030144822
10.3829 332
10.40301 327.991468301324
10.42313 309.011306487567
10.44324 340.045933483025
10.46335 339.024719496143
10.48347 332.011075960369
10.50358 334.972548067845
10.52369 367.997539365815
10.54381 337.980955346985
10.56392 313.986314830625
10.58403 317.045349905752
10.60415 356.045582829097
10.62426 343.051126067128
10.64438 329.993567091871
10.66449 337.009084726788
10.6846 301
10.70472 317.03949281879
10.72483 354.030725661415
10.74494 349.953769372325
10.76506 324.034629312029
10.78517 318.999791968992
10.80529 321.994621478786
10.8254 332
10.84551 330.015340419219
10.86563 378.028480854777
10.88574 355.941241720053
10.90585 345.992238105043
10.92597 352.987739125685
10.94608 347.032783637899
10.9662 317
10.98631 367.014928893942
11.00642 353.975231285785
11.02654 339.977296275571
11.04665 325.040423482894
11.06676 318.973016834042
11.08688 351.957431707414
11.10699 376.00682277035
11.1271 339
11.14722 342.018903319819
11.16733 353.993720775521
11.18745 338.971956902029
11.20756 337.003184976583
11.22767 324.040595739882
11.24779 302.995776321763
11.2679 335
11.28801 339.998926789785
11.30813 332.964834366006
11.32824 315.042550036979
11.34836 360.956872353994
11.36847 343.036462453109
11.38858 339.987042657307
11.4087 352
11.42881 339.994994473939
11.44892 333.987062312236
11.46904 331.069925702685
11.48915 384.937767865306
11.50927 375.00533026651
11.52938 379.028612410683
11.54949 332.005090930562
11.56961 360.00623997183
11.58972 338.981012473837
11.60983 347.037181616451
11.62995 362.978639689899
11.65006 346.981354247497
11.67017 370.011661309183
11.69029 339.999415357251
11.7104 375
11.73052 359.986658264056
11.75063 366.012985009915
11.77074 362.975217525372
11.79086 352.995669664131
11.81097 366.976371778959
11.83108 377.990543430484
11.8512 386
11.87131 375.985994358749
11.89143 357.033598005112
11.91154 403.03857595828
11.93165 394.965730340212
11.95177 423.021979649729
11.97188 376.011497036439
11.99199 407.992178828868
12.01211 394.001369362607
12.03222 426.027258689718
12.05234 421.943306450059
12.07245 395.991261642759
12.09256 414.957278731513
12.11268 428.983576915733
12.13279 450.98980053927
12.1529 448
12.17302 407.013560924013
12.19313 460.034737407026
12.21324 432.942061664409
12.23336 429.993544783113
12.25347 446.913114781767
12.27359 518.984791825538
12.2937 488
12.31381 472.028916269282
12.33393 553.029711965094
12.35404 513.975448602963
12.37415 549.949697064596
12.39427 524.057461352219
12.41438 495.030984773275
12.4345 457
12.45461 428.992455788976
12.47472 428.01155867551
12.49484 431.955543199966
12.51495 395.052105399432
12.53506 392.026998191271
12.55518 360.029467019483
12.57529 353.991046046948
12.5954 365
12.61552 324.001867921439
12.63563 356.994293053778
12.65575 324.032818906973
12.67586 386.918913256016
12.69597 359.106726031354
12.71609 302.004708331916
12.7362 330
12.75631 326.997771085089
12.77643 324.971165439492
12.79654 303.019259529708
12.81666 330.00894326464
12.83677 300.996811572109
12.85688 333.992367316577
12.877 309
12.89711 329.005914022046
12.91722 311.97013910634
12.93734 299.036284169636
12.95745 324.017362820445
12.97757 284.05269900525
12.99768 284.969043039608
13.01779 310.005604165794
13.03791 273.990588714703
13.05802 294.038885959732
13.07813 321.005327612586
13.09825 307.971349129976
13.11836 302.028498743079
13.13847 282.013488542666
13.15859 294.985401007733
13.1787 320
13.19882 310.996298576924
13.21893 321.018458647496
13.23904 319.96254325532
13.25916 294.035459768774
13.27927 293.981553931447
13.29938 308.986764798119
13.3195 309
13.33961 293.010418970769
13.35973 331.004164041621
13.37984 294.947317453475
13.39995 300.967412647421
13.42007 306.984827424467
13.44018 316.008731388621
13.46029 293.008440077548
13.48041 289.999308401491
13.50052 292.019424909753
13.52064 325.056472024226
13.54075 321.892285322145
13.56086 289.920887092493
13.58098 359.004555719766
13.60109 275.032864379026
13.6212 285
13.64132 325.028823279598
13.66143 325.940650145193
13.68154 277.977948929203
13.70166 303.964238970999
13.72177 292.028193150766
13.74189 284.001195785973
13.762 281
13.78211 285.011693103875
13.80223 313.009699276965
13.82234 289.930840494498
13.84245 274.953817775784
13.86257 304.991668289534
13.88268 290.992749637909
13.9028 305
13.92291 251.006105102509
13.94302 314.012888272884
13.96314 271.99734182151
13.98325 310.048599485218
14.00336 241.026599406773
14.02348 299.958000034137
14.04359 277.023572566561
14.06371 265.021105809621
14.08382 315.994734068418
14.10393 259.945425563031
14.12405 279.101830233578
14.14416 299.020541857291
14.16427 278.999895637202
14.18439 305.984660285311
14.2045 316
14.22461 292.99001719605
14.24473 284.999607257522
14.26484 277.952423377787
14.28496 259.958324444354
14.30507 293.021940012355
14.32518 247.000760570507
14.3453 286
14.36541 243.001480569845
14.38552 296.021704051744
14.40564 253.885487902903
14.42575 246.847677181897
14.44587 322.970834602954
14.46598 280.039717248157
14.48609 277.997486561928
14.50621 272.999350981214
14.52632 279.003183821327
14.54643 271.978292122999
14.56655 269.062302902591
14.58666 307.95604272558
14.60677 293.062244494015
14.62689 255.0070163792
14.647 263
14.66712 268.020802236176
14.68723 297.015512880441
14.70734 279.946865910305
14.72746 271.957408983676
14.74757 294.025038018774
14.76768 252.013923592973
14.7878 279
14.80791 282.998382932715
14.82803 275.964826438535
14.84814 248.990927379073
14.86825 268.948601712198
14.88837 268.031565264218
14.90848 254.97806945388
14.92859 291.997607651174
14.94871 267.998934092071
14.96882 302.033740023147
14.98894 314.00878128898
15.00905 313.961174107002
15.02916 284.063035304845
15.04928 265.004338268173
15.06939 267.000977741543
15.0895 254
15.10962 246.021978113885
15.12973 278.006726497869
15.14984 262.015284354238
15.16996 295.963214463523
15.19007 289.996837566822
15.21019 306.997050454894
15.2303 290
15.25041 268.991727818366
15.27053 270.048363551513
15.29064 304.990288698749
15.31075 265.068693059181
15.33087 269.984318453022
15.35098 273.987517223829
15.3711 282
15.39121 246.001229943235
15.41132 278.002934110243
15.43144 243.959314468152
15.45155 266.886602040643
15.47166 291.041766344352
15.49178 254.000182708047
15.51189 279.007187249299
15.53201 228.99161073312
15.55212 271.057834494582
15.57223 305.018333900815
15.59235 291.889321276672
15.61246 248.010001703387
15.63257 267.01485028848
15.65269 242.985024733553
15.6728 311
15.69291 268.981176143001
15.71303 278.046350268571
15.73314 296.995174952355
15.75326 284.006602599308
15.77337 284.034606573637
15.79348 246.017665503604
15.8136 263
15.83371 282.000728356108
15.85382 262.963211027492
15.87394 236.016866938068
15.89405 267.955502088397
15.91417 271.958536896807
15.93428 312.994194386572
15.95439 279.014876508584
15.97451 277.002862702204
15.99462 274.994864311918
16.01473 276.017782525026
16.03485 286.983866952481
16.05496 269.013764017269
16.07508 277.992782096879
16.09519 268.012478882692
16.1153 243
16.13542 255.033455912395
16.15553 274.960215419633
16.17564 241.061325859723
16.19576 312.966352221983
16.21587 255.084945499227
16.23598 254.963612450009
16.2561 284
16.27621 258.992842711973
16.29633 266.009166440619
16.31644 258.979537002555
16.33655 256.980161202412
16.35667 265.005370772786
16.37678 256.993537210713
16.39689 280.987300039587
16.41701 285.989242000528
16.43712 254.983031384884
16.45724 260.023787031885
16.47735 266.005496776409
16.49746 268.987803867258
16.51758 267.023635443761
16.53769 239.000503981903
16.5578 269
16.57792 287.010033709075
16.59803 278.934117077785
16.61814 230.996719191293
16.63826 267.965083353675
16.65837 249.021984916995
16.67849 262.986935036419
16.6986 271
16.71871 242.004112548646
16.73883 279.022920352246
16.75894 257.956191358398
16.77905 256.983277150158
16.79917 254.024983674312
16.81928 234.00862864944
16.8394 244
16.85951 260.000614658607
16.87962 254.003668529511
16.89974 257.956233144118
16.91985 233.939630913033
16.93996 295.922683272124
16.96008 280.041049440588
16.98019 260.989408617898
17.00031 285.987028403773
17.02042 229.989934761873
17.04053 280.072944768766
17.06065 281.926199424114
17.08076 251.033775975957
17.10087 251.988212672208
17.12099 256.998333514669
17.1411 272
17.16121 303.991423553343
17.18133 253.964459710361
17.20144 271.027570465431
17.22156 260.026853647052
17.24167 257.998297686208
17.26178 260.988151741095
17.2819 268
17.30201 247.010659419863
17.32212 297.020109522787
17.34224 269.933323909219
17.36235 259.000029166576
17.38247 267.958591331576
17.40258 285.032878718015
17.42269 232.001650424155
17.44281 275.008017097204
17.46292 245.980761930952
17.48303 266.051363156554
17.50315 283.989084405641
17.52326 260.068968119357
17.54338 239.988797334088
17.56349 273.984353832826
17.5836 279
17.60372 256.997802118182
17.62383 277.034361955105
17.64394 289.012063684582
17.66406 293.992772477446
17.68417 295.999489456544
17.70428 297.993029978031
17.7244 304
17.74451 293.999287237534
17.76463 292.965824414547
17.78474 260.987845209024
17.80485 289.905337065223
17.82497 310.994494686901
17.84508 305.007630087898
17.86519 291.016417252389
17.88531 256.997885452405
17.90542 292.052868271832
17.92554 317.949428732705
17.94565 265.92559356875
17.96576 274.96781455798
17.98588 279.992718903857
18.00599 290.998729828834
18.0261 283
18.04622 283.007444104793
18.06633 292.008346787077
18.08645 286.955393896672
18.10656 268.011394076433
18.12667 276.983563064134
18.14679 279.00264347777
18.1669 276
18.18701 287.000115364285
18.20713 275.987730292828
18.22724 275.999444547979
18.24735 271.013926136371
18.26747 273.975098634655
18.28758 285.019108301403
18.3077 250
18.32781 281.026852943457
18.34792 310.978815333297
18.36804 262.954287978508
18.38815 282.92764730049
18.40826 284.060351624354
18.42838 257.982610420865
18.44849 303.989949990289
18.46861 286.994439185193
18.48872 293.99462945503
18.50883 266.959181413811
18.52895 261.039623693383
18.54906 276.018612500612
18.56917 256.986033410563
18.58929 284.002159031734
18.6094 248
18.62951 262.007023277477
18.64963 268.033533210233
18.66974 297.002226106219
18.68986 265.070927229521
18.70997 249.998947570326
18.73008 256.991335435407
18.7502 272
18.77031 294.991753874685
18.79042 249.969905877198
18.81054 265.095099936084
18.83065 293.079495092175
18.85077 238.997074831151
18.87088 291.979422365112
18.89099 253.021118390398
18.91111 259.024945932471
18.93122 307.003830974927
18.95133 277.986932854209
18.97145 295.995913940519
18.99156 261.070519563918
19.01168 261.958603788202
19.03179 303.002573912079
19.0519 261
19.07202 275.016189338702
19.09213 272.991902938846
19.11224 276.016855595169
19.13236 282.997045730444
19.15247 290.954531833465
19.17258 308.048192263065
19.1927 237
19.21281 304.014807200923
19.23293 272.980801625663
19.25304 305.049911901711
19.27315 300.016127501377
19.29327 310.972121375857
19.31338 320.008220724484
19.33349 308.995795999794
19.35361 335.009645907537
19.37372 321.95311389285
19.39384 286.044069054415
19.41395 348.092331345318
19.43406 336.041260828613
19.45418 335.990367565002
19.47429 348.989578484788
19.4944 369
19.51452 369.016974239268
19.53463 381.948176476129
19.55475 335.048965228072
19.57486 405.944702844197
19.59497 380.989987525692
19.61509 446.966176198487
19.6352 461
19.65531 433.022373104219
19.67543 521.05805099271
19.69554 496.981818901584
19.71565 538.872707581096
19.73577 577.929660568878
19.75588 625.978822376282
19.776 631
19.79611 657.983612540287
19.81622 601.014697258462
19.83634 697.181655486618
19.85645 714.102364662066
19.87656 672.004110575206
19.89668 708.966251074769
19.91679 708.012726036361
19.93691 680.992281163792
19.95702 675.991718722063
19.97713 662.992208447136
19.99725 663.983218255152
20.01736 654.983702680145
20.03747 661.052120956857
20.05759 599.017980507334
20.0777 613
20.09782 628.984349459471
20.11793 582.906401710807
20.13804 539.999283698813
20.15816 567.962157262167
20.17827 571.970035313677
20.19838 601.997459753861
20.2185 581
20.23861 602.00492060953
20.25872 582.969604455552
20.27884 559.972779679216
20.29895 567.900311818498
20.31907 608.004180466987
20.33918 564.040311995883
20.35929 561.986675632529
20.37941 581.993666956082
20.39952 547.982151859214
20.41963 565.050237997343
20.43975 601.105393705293
20.45986 631.01077481158
20.47998 608.000021211955
20.50009 633.992842483949
20.5202 632
20.54032 647.969657307689
20.56043 589.972016003748
20.58054 618.031617947616
20.60066 619.910614333916
20.62077 705.898367139688
20.64088 730.984136067062
20.661 790
20.68111 926.043971289262
20.70123 988.179573574314
20.72134 1231.6891991062
20.74145 1612.09366696987
20.76157 1985.31958769738
20.78168 2544.39564307175
20.80179 3145.70427772508
20.82191 3766.33735263802
20.84202 4315.19890674514
20.86214 4205.6826144175
20.88225 4062.20950859217
20.90236 3487.43712582281
20.92248 2776.64371430243
20.94259 2182.29972867454
20.9627 1598
20.98282 1235.67496338628
21.00293 953.779143389242
21.02305 909.854509705146
21.04316 804.133483201215
21.06327 794.030179173748
21.08339 731.035244905932
21.1035 695
21.12361 700.977201019171
21.14373 616.914304673355
21.16384 621.071615416691
21.18395 646.991759485512
21.20407 622.069288247249
21.22418 580.018396024162
21.2443 598
21.26441 648.01468411589
21.28452 645.977729634916
21.30464 631.017979046852
21.32475 639.085957682536
21.34486 574.082765177992
21.36498 580.973615773763
21.38509 596.997803552885
21.40521 603.010882570221
21.42532 607.94133860292
21.44543 523.965279184079
21.46555 558.006145183911
21.48566 510.056636003729
21.50577 528.963325035154
21.52589 520.01978918526
21.546 481
21.56612 506.035030514344
21.58623 526.005153209848
21.60634 509.926006367974
21.62646 474.02066367922
21.64657 481.011749111533
21.66668 457.008947166832
21.6868 457
21.70691 423.00999885498
21.72702 471.993004408387
21.74714 413.961743561099
21.76725 455.911129449045
21.78737 434.094995328681
21.80748 388.981999104051
21.82759 442.991071119268
21.84771 411.989683157935
21.86782 429.023051558361
21.88793 443.03139951638
21.90805 463.994229424765
21.92816 438.052959615118
21.94828 439.963251268159
21.96839 471.011082736542
21.9885 421
22.00862 467.02877083795
22.02873 450.968244385498
22.04884 443.974646682664
22.06896 432.963657410109
22.08907 472.960138387277
22.10919 460.021842991913
22.1293 415
22.14941 420.011847098298
22.16953 430.966653427108
22.18964 396.992802461516
22.20975 437.85730436201
22.22987 469.015168946372
22.24998 436.022279888636
22.27009 435.001169711397
22.29021 416.987462919104
22.31032 413.037039272361
22.33044 453.974776542221
22.35055 395.905138679301
22.37066 400.98722635079
22.39078 396.98441173245
22.41089 420.006051097381
22.431 379
22.45112 395.020711994543
22.47123 409.041179667568
22.49135 435.979665436636
22.51146 394.078882371577
22.53157 380.996924104765
22.55169 386.994877780747
22.5718 401
22.59191 411.998867748553
22.61203 401.993055892194
22.63214 395.946078285361
22.65225 362.01667950581
22.67237 383.972997376616
22.69248 389.981724098444
22.7126 406
22.73271 367.007596456338
22.75282 421.009645113385
22.77294 378.96360005656
22.79305 402.976471068481
22.81316 373.074426657952
22.83328 360.98597628551
22.85339 387.987126477915
22.87351 394.992235485847
22.89362 377.003533593414
22.91373 402.033626724437
22.93385 410.013033173064
22.95396 407.056424161916
22.97407 369.021966127947
22.99419 385.988069725354
23.0143 396
23.03442 389.989082855683
23.05453 385.016657231473
23.07464 404.016767077994
23.09476 408.946422487822
23.11487 444.989981880092
23.13498 425.005489124332
23.1551 449
23.17521 447.982839363902
23.19532 405.981806319213
23.21544 421.053355505586
23.23555 429.049654954952
23.25567 403.001498553848
23.27578 421.997227062187
23.29589 403.004994017816
23.31601 396.981246166726
23.33612 350.00176236596
23.35623 401.064035626892
23.37635 401.956072499561
23.39646 383.051810592189
23.41658 370.971081803977
23.43669 423.983795807493
23.4568 425
23.47692 433.986611670394
23.49703 412.017933165351
23.51714 437.955382169972
23.53726 380.035652375769
23.55737 422.926189779145
23.57749 437.004394956324
23.5976 409
23.61771 369.014428630605
23.63783 435.02696129953
23.65794 396.964584245165
23.67805 417.994804667729
23.69817 392.008063175461
23.71828 403.025485940679
23.73839 359.994007023723
23.75851 426.022994486122
23.77862 418.979956267079
23.79874 408.96690783811
23.81885 389.999001158503
23.83896 406.975751181294
23.85908 408.991479122019
23.87919 426.993268243376
23.8993 427
23.91942 425.015123953451
23.93953 464.088073522943
23.95965 497.919454248297
23.97976 432.050241553926
23.99987 465.943558842314
24.01999 461.019364859565
24.0401 413
24.06021 398.006931745724
24.08033 415.991418960615
24.10044 399.023702256863
24.12056 426.023842583524
24.14067 384.01360902983
24.16078 413.987920514939
24.1809 400
24.20101 431.002011855888
24.22112 403.987083299432
24.24124 434.113632203309
24.26135 463.095756834929
24.28146 387.087968803306
24.30158 404.959415163048
24.32169 424.004013152191
24.34181 403.994315036063
24.36192 402.990866498504
24.38203 388.000156933613
24.40215 408.059493809746
24.42226 422.98207885651
24.44237 434.96896137988
24.46249 434.029464409559
24.4826 357
24.50272 402.033958487341
24.52283 404.032827187913
24.54294 438.978173711739
24.56306 388.051240986117
24.58317 407.968196376161
24.60328 410.990485770202
24.6234 441
24.64351 470.004904873286
24.66362 463.990182963717
24.68374 464.023185562096
24.70385 478.979775676865
24.72397 478.99895231238
24.74408 475.022805742938
24.76419 460.981567855516
24.78431 518.001746166044
24.80442 487.026629475397
24.82453 558.014513810277
24.84465 489.857568080399
24.86476 492.951165559523
24.88488 511.974791139279
24.90499 530.007406901529
24.9251 502
24.94522 516.958741272913
24.96533 444.985500561131
24.98544 493.017620381752
25.00556 446.044547452565
25.02567 482.924103557388
25.04579 507.997527334436
25.0659 489
25.08601 453.020262043975
25.10613 534.037004905797
25.12624 469.821560503241
25.14635 424.98189965837
25.16647 459.953638091063
25.18658 472.987540610881
25.20669 492.991123530901
25.22681 484.976164754729
25.24692 450.044614875634
25.26704 538.055300980265
25.28715 495.953094057838
25.30726 532.935392208518
25.32738 515.053784698329
25.34749 466.00849005314
25.3676 477
25.38772 462.975286754151
25.40783 449.010713522433
25.42795 478.10278438286
25.44806 492.086427649743
25.46817 440.968310702279
25.48829 520.977695709535
25.5084 495
25.52851 486.002162444471
25.54863 496.036075932936
25.56874 518.996033333316
25.58886 506.966695350827
25.60897 544.980539791812
25.62908 525.014568359749
25.6492 511
25.66931 453.012360967918
25.68942 554.085956732385
25.70954 555.876989748858
25.72965 513.898272428542
25.74976 589.005118089551
25.76988 504.059296582351
25.78999 510.996604543641
25.81011 494.001156857725
25.83022 520.010923401793
25.85033 519.042815603419
25.87045 560.993516616924
25.89056 518.042167187237
25.91067 539.963349904403
25.93079 533.015902203845
25.9509 504
25.97102 522.017296331554
25.99113 534.037357206811
26.01124 557.98115952416
26.03136 526.021812890541
26.05147 550.95149834295
26.07158 561.013931397491
26.0917 557
26.11181 616.00617276981
26.13193 591.015928254604
26.15204 649.088256907061
26.17215 655.983392980818
26.19227 700.87395381436
26.21238 781.966888951087
26.23249 766.011079609704
26.25261 802.057648031043
26.27272 938.074449594602
26.29283 955.064909846764
26.31295 1034.09814521836
26.33306 1030.94798897243
26.35318 1129.85726546509
26.37329 1302.89264754019
26.3934 1547
26.41352 1800.2965508485
26.43363 2193.74934585755
26.45374 2776.23288179683
26.47386 3549.84170227113
26.49397 4881.97515287009
26.51409 6365.03943894729
26.5342 8734
26.55431 11216.3628567965
26.57443 14056.7766766766
26.59454 16138.7717732716
26.61465 17789.308167022
26.63477 18057.7116964537
26.65488 16942.7124284193
26.67499 14671.3913777669
26.69511 11628.4957088879
26.71522 8881.54651624876
26.73534 6572.48003308782
26.75545 4406.35495463002
26.77556 2940.29410792327
26.79568 2043.60042975112
26.81579 1622.19063335733
26.8359 1274
26.85602 1246.94226531202
26.87613 1103.83954699206
26.89625 1061.83452251459
26.91636 948.185520220771
26.93647 900.067722066679
26.95659 837.028970370765
26.9767 808
26.99681 804.976602756685
27.01693 744.995278548168
27.03704 777.958425423185
27.05716 703.076909040407
27.07727 711.037163574299
27.09738 642.04420552737
27.1175 645
27.13761 616.975979660519
27.15772 570.966893197617
27.17784 550.967055822465
27.19795 537.998435639882
27.21806 553.954020376869
27.23818 564.014985856746
27.25829 537.00683134177
27.27841 549.012410551522
27.29852 570.012854974153
27.31863 575.001985465238
27.33875 580.029292653757
27.35886 611.876493976888
27.37897 676.95445701785
27.39909 667.00934265198
27.4192 675
27.43932 719.019962372897
27.45943 699.934119783372
27.47954 648.893295299313
27.49966 619.96239805437
27.51977 634.099259740312
27.53988 525.037085744547
27.56 576
27.58011 554.981479353276
27.60023 525.937062188963
27.62034 482.979782780486
27.64045 506.936143191988
27.66057 495.084356433023
27.68068 434.018209751099
27.70079 468.974402407599
27.72091 485.984286530303
27.74102 443.999864723155
27.76113 477.007968495117
27.78125 438.909109370216
27.80136 444.910940177002
27.82148 487.995498402666
27.84159 461.007287036678
27.8617 474
27.88182 469.993555328159
27.90193 467.993898428103
27.92204 464.009598674313
27.94216 461.07165375746
27.96227 422.975689341345
27.98239 479.986389061124
28.0025 460
28.02261 463.991745293227
28.04273 422.955230506645
28.06284 417.997584238991
28.08295 404.054516588009
28.10307 385.014860740083
28.12318 391.97448809544
28.1433 413
28.16341 376.982176066343
28.18352 370.022980568061
28.20364 403.042820305861
28.22375 393.906818332237
28.24386 356.024703263797
28.26398 373.972665759274
28.28409 383.008214178971
28.3042 364
28.32432 388.999872208288
28.34443 358.965173711591
28.36455 367.068840223793
28.38466 380.048422962336
28.40477 350.967905987464
28.42489 396.007025703271
28.445 333
28.46511 374.011798159754
28.48523 352.976012748175
28.50534 368.045410340548
28.52546 363.089533186061
28.54557 320.975861881751
28.56568 382.960382046699
28.5858 362
28.60591 324.997655538244
28.62602 354.046962695306
28.64614 379.961831706
28.66625 346.978684739364
28.68636 384.005981079324
28.70648 339.019914903071
28.72659 364.987096216261
28.74671 359.989685603959
28.76682 350.011986144919
28.78693 363.976999038496
28.80705 328.966225395921
28.82716 350.93900926094
28.84727 361.019543674367
28.86739 346.995077609911
28.8875 369
28.90762 337.973412937863
28.92773 335.011288732345
28.94784 343.022886131327
28.96796 347.034901493488
28.98807 327.97968453135
29.00818 361.992202096189
29.0283 334
29.04841 335.009112223968
29.06853 357.033606834529
29.08864 375.023063043582
29.10875 360.148068846196
29.12887 301.988315441801
29.14898 363.960512109764
29.16909 348.014122785638
29.18921 332.990491561459
29.20932 325.035674046894
29.22943 372.993764584113
29.24955 321.929026092945
29.26966 341.949527717066
29.28978 348.991936392065
29.30989 367.989940612985
29.33 381
29.35012 383.999723749001
29.37023 378.982196827832
29.39034 365.987986217708
29.41046 372.964208987519
29.43057 396.959707631263
29.45069 412.004461963084
29.4708 390
29.49091 388.994114758499
29.51103 367.990087759802
29.53114 370.969175863866
29.55125 342.02284739624
29.57137 353.997959044292
29.59148 342.993244619662
29.6116 362
29.63171 337.998407920326
29.65182 348.978601437155
29.67194 314.034172216821
29.69205 380.115563742259
29.71216 372.057921861436
29.73228 362.981298047607
29.75239 381.009554960735
29.7725 335
29.79262 347.020568625488
29.81273 343.9552987432
29.83285 315.007672579216
29.85296 347.941368219935
29.87307 357.988330789117
29.89319 367.001860582722
29.9133 352
29.93341 359.011480054778
29.95353 371.967865417478
29.97364 345.041597647636
29.99376 388.028332179219
30.01387 334.991375844518
30.03398 396.982482384208
30.0541 356
30.07421 389.004932808767
30.09432 361.991129662884
30.11444 388.045585840953
30.13455 388.011929386997
30.15467 388.005751536548
30.17478 372.027599580706
30.19489 348.00256177038
30.21501 368.018050545567
30.23512 400.015913518691
30.25523 388.94418103905
30.27535 360.033858071584
30.29546 391.02181900637
30.31557 334.071374367206
30.33569 333.98454878692
30.3558 359
30.37592 340.9961259344
30.39603 354.003321604713
30.41614 338.977823850719
30.43626 342.981462622343
30.45637 343.021022401527
30.47648 327.997898661278
30.4966 350
30.51671 353.984938647201
30.53683 319.002375783497
30.55694 346.000378261492
30.57705 311.064880047213
30.59717 320.956365069732
30.61728 347.98009362694
30.63739 351.009553406286
30.65751 333.005919847811
30.67762 362.004648307591
30.69773 336.972008396728
30.71785 336.988713733994
30.73796 329.968484666193
30.75808 369.960092486237
30.77819 385.005597760355
30.7983 370
30.81842 388.000306290185
30.83853 360.950180485088
30.85864 346.014525719793
30.87876 352.045166574113
30.89887 318.000749051995
30.91899 342.002791628875
30.9391 308
30.95921 335.006287164259
30.97933 315.970709931168
30.99944 315.01194171975
31.01955 313.033037920735
31.03967 306.965461312137
31.05978 335.013396779707
31.0799 284
31.10001 298.027171986216
31.12012 347.008490561094
31.14024 314.924426774344
31.16035 301.97878548979
31.18046 314.991904168463
31.20058 315.982788843312
31.22069 339.000660420345
31.2408 316
31.26092 319.992013736783
31.28103 303.007372425878
31.30115 329.038404232142
31.32126 322.019409456836
31.34137 317.018577420311
31.36149 306.992735708853
31.3816 336
31.40171 321.993271347289
31.42183 324.010692392224
31.44194 323.981748759434
31.46206 317.977101809278
31.48217 326.045926810666
31.50228 280.002134755753
31.5224 324
31.54251 314.987479513118
31.56262 292.974746958905
31.58274 271.995451318109
31.60285 280.010998641639
31.62297 279.93437716531
31.64308 332.015638802732
31.66319 272.002353118738
31.68331 334.020107616216
31.70342 312.965974190784
31.72353 295.97376842114
31.74365 283.036186795983
31.76376 314.967701027951
31.78387 295.065159790967
31.80399 267.99128079476
31.8241 311
31.84422 296.983840821598
31.86433 303.029347790807
31.88444 313.977267599336
31.90456 295.989865875034
31.92467 315.008675043353
31.94478 292.990693259124
31.9649 327
31.98501 295.991482370767
32.00513 315.042389598541
32.02524 320.956973780783
32.04535 292.026663861242
32.06547 315.925939061232
32.08558 346.025751788326
32.10569 288.014826051679
32.12581 303.007948482899
32.14592 307.022701206499
32.16604 335.983643108907
32.18615 292.919432365517
32.20626 288.011895302521
32.22638 291.946756356624
32.24649 348.014066174796
32.2666 266
32.28672 328.040697375313
32.30683 309.979368619598
32.32694 327.023060381106
32.34706 317.022767034041
32.36717 317.98927685841
32.38729 317.008618027581
32.4074 306
32.42751 341.993865038627
32.44763 288.958351332929
32.46774 303.014582832215
32.48785 295.951490106805
32.50797 336.975471720879
32.52808 327.989101969042
32.5482 353
32.56831 291.965469044611
32.58842 262.017059857336
32.60854 297.031739883404
32.62865 288.007492197206
32.64876 298.001974655868
32.66888 287.992910587154
32.68899 317.983880938198
32.7091 328
32.72922 302.9896156848
32.74933 306.993397170968
32.76945 297.025114263998
32.78956 320.988135421706
32.80967 303.024000831906
32.82979 302.997862144941
32.8499 299
32.87001 298.016553335866
32.89013 343.017973393726
32.91024 314.938693648114
32.93036 307.987523451996
32.95047 320.964372088707
32.97058 340.005773850231
32.9907 314
33.01081 312.003912247412
33.03092 313.990081687556
33.05104 303.009953932638
33.07115 326.928589009273
33.09127 350.964302338806
33.11138 353.046076120364
33.13149 294.004704498914
33.15161 332.010418978325
33.17172 321.006503857616
33.19183 351.014990587239
33.21195 330.957879816359
33.23206 325.039925977921
33.25217 303.9755734215
33.27229 343.994395272246
33.2924 323
33.31252 336.985291437923
33.33263 299.991541619103
33.35274 325.003437445943
33.37286 296.025946637686
33.39297 315.964841355896
33.41308 327.985247428395
33.4332 334
33.45331 298.005359466466
33.47343 348.041607769789
33.49354 324.917012469752
33.51365 302.989823643406
33.53377 319.984223736948
33.55388 318.998322730113
33.57399 317.013094172894
33.59411 276.988899760579
33.61422 296.052448687123
33.63434 335.97694818601
33.65445 289.938115740266
33.67456 303.969834130445
33.69468 298.011617102635
33.71479 301.987282355163
33.7349 320
33.75502 280.007053545843
33.77513 325.017257692363
33.79524 282.910927149059
33.81536 284.905782738836
33.83547 331.996343199782
33.85559 300.005839956009
33.8757 322
33.89581 314.999388195682
33.91593 322.990210033247
33.93604 308.012649780911
33.95615 329.00233624718
33.97627 296.05754064982
33.99638 283.979969219788
34.0165 312
34.03661 299.000730114139
34.05672 320.012279936786
34.07684 314.994203288541
34.09695 322.97949195765
34.11706 316.05380964157
34.13718 291.992956652627
34.15729 337.967890463851
34.17741 374.991873688972
34.19752 325.964874275489
34.21763 324.007028299557
34.23775 318.988638801022
34.25786 324.967218267559
34.27797 347.961815050658
34.29809 358.009850420599
34.3182 337
34.33831 382.004458138814
34.35843 351.982648549338
34.37854 372.015587472597
34.39866 363.96769679638
34.41877 399.983345864207
34.43888 372.036418054186
34.459 365
34.47911 411.016179784103
34.49922 409.974682078768
34.51934 391.018455324037
34.53945 417.969655744911
34.55957 414.979416038108
34.57968 446.980591815399
34.59979 437.012792084988
34.61991 420.001196508352
34.64002 442.030996675894
34.66013 459.989467404333
34.68025 444.00738964022
34.70036 463.985794053165
34.72047 454.002432335747
34.74059 475.98245717159
34.7607 505
34.78082 487.946845587875
34.80093 451.056989811627
34.82104 535.083951353639
34.84116 507.077195963384
34.86127 506.956768539578
34.88138 539.978362454835
34.9015 547
34.92161 546.991418001593
34.94173 520.980390064476
34.96184 527.019845290607
34.98195 536.947602474735
35.00207 565.966384484418
35.02218 561.03884936432
35.04229 515.009544807523
35.06241 513.98739828866
35.08252 469.985489412367
35.10264 498.071409559994
35.12275 493.857584739117
35.14286 432.009106799211
35.16298 482.957184488279
35.18309 478.014673468651
35.2032 453
35.22332 451.008387356826
35.24343 452.972005571056
35.26354 431.012963987194
35.28366 456.990920653237
35.30377 442.983505368935
35.32389 465.012439072138
35.344 414
35.36411 464.006833200998
35.38423 420.946061943372
35.40434 441.123850466527
35.42445 502.918880712382
35.44457 488.077929832262
35.46468 431.039296310929
35.4848 432
35.50491 463.985140528618
35.52502 401.987371157625
35.54514 447.059550490162
35.56525 438.990471821438
35.58536 463.989027947917
35.60548 434.040370713738
35.62559 412.998097113771
35.64571 427.002081811562
35.66582 421.003375135392
35.68593 441.036322268465
35.70605 448.958117497818
35.72616 420.039392044302
35.74627 422.97274383887
35.76639 440.995199275663
35.7865 434
35.80661 411.99936918387
35.82673 433.038762060532
35.84684 455.052451663613
35.86696 466.064479927448
35.88707 407.060854447456
35.90718 414.957973466709
35.9273 454
35.94741 436.986635609064
35.96752 418.989874067942
35.98764 418.021151106469
36.00775 439.924451436354
36.02787 453.040810339429
36.04798 418.983821682906
36.06809 468.995009686855
36.08821 434.995913238324
36.10832 455.984050660011
36.12843 390.910531479828
36.14855 391.152259921441
36.16866 448.027997462737
36.18878 380.038139783795
36.20889 412.969045136819
36.229 460
36.24912 473.00031169987
36.26923 473.012493071958
36.28934 482.992517659714
36.30946 488.891848175009
36.32957 587.849210045944
36.34968 649.975481615041
36.3698 665
36.38991 750.074125603617
36.41003 912.169260781676
36.43014 1003.31059236062
36.45025 1220.53567688407
36.47037 1323.91347208663
36.49048 1395.8937964091
36.51059 1501.97565501512
36.53071 1486.98543270396
36.55082 1444.89771757496
36.57094 1288.69384080214
36.59105 1172.7575124428
36.61116 1066.24574478765
36.63128 934.123319551684
36.65139 821.057616255339
36.6715 702
36.69162 605.906558541301
36.71173 528.948541048062
36.73184 515.924525328316
36.75196 469.981056325852
36.77207 528.941535213365
36.79219 502.034775484289
36.8123 448
36.83241 483.01119121518
36.85253 469.967656455089
36.87264 465.020479698522
36.89275 476.996387586412
36.91287 470.001743500386
36.93298 479.987897054532
36.9531 479
36.97321 461.006381582064
36.99332 496.02014616322
37.01344 473.890472574911
37.03355 425.03147894763
37.05366 433.033534389457
37.07378 396.006592513211
37.09389 423.991940259796
37.11401 408.990483515071
37.13412 402.997393649636
37.15423 392.972503953668
37.17435 370.95091138284
37.19446 368.949572872373
37.21457 403.974056518385
37.23469 399.002330716984
37.2548 386
37.27491 341.020518652263
37.29503 431.033890673862
37.31514 365.884823732789
37.33526 373.924930989743
37.35537 394.013209339437
37.37548 367.0229798716
37.3956 357
37.41571 357.016095684908
37.43582 409.036282015519
37.45594 409.961411572768
37.47605 394.009404744831
37.49617 391.033289250284
37.51628 366.987954291458
37.53639 396.005625354661
37.55651 353.997161021729
37.57662 396.034152625598
37.59673 393.982445612948
37.61685 382.934533434089
37.63696 367.922520378181
37.65708 426.997438593475
37.67719 372.018377818819
37.6973 374
37.71742 329.966592904611
37.73753 341.073757397875
37.75764 385.001963528983
37.77776 363.969018688694
37.79787 412.969037225621
37.81798 382.044005050285
37.8381 354
37.85821 357.026109578371
37.87833 415.995290278876
37.89844 364.967429099483
37.91855 393.000967778288
37.93867 360.990926628764
37.95878 400.003187412499
37.97889 358.001004308029
37.99901 405.012991730742
38.01912 374.948595501732
38.03924 339.971317779719
38.05935 351.093503062656
38.07946 387.98445912313
38.09958 377.988255805413
38.11969 414.987128281832
38.1398 405
38.15992 379.003218123597
38.18003 391.973753962119
38.20015 358.009854374711
38.22026 404.919398638239
38.24037 400.060055524079
38.26049 364.999664537561
38.2806 403
38.30071 426.999748940722
38.32083 416.996352641794
38.34094 426.014693838953
38.36105 426.000287877032
38.38117 421.032749360967
38.40128 401.984106563286
38.4214 444
38.44151 421.968475582926
38.46162 377.025556371984
38.48174 448.077376697408
38.50185 428.070205328366
38.52196 428.966421046178
38.54208 433.02423258704
38.56219 401.001652409409
38.58231 421.000757962915
38.60242 398.991168845209
38.62253 422.055432976007
38.64265 435.928328540763
38.66276 380.094449993313
38.68287 362.999704203836
38.70299 368.993257197098
38.7231 378
38.74321 359.998607635202
38.76333 377.026387316654
38.78344 372.942156911473
38.80356 338.035989597514
38.82367 349.951142140653
38.84378 383.975106379992
38.8639 396
38.88401 393.992030655031
38.90412 371.986869032104
38.92424 376.029646351442
38.94435 386.011056966905
38.96447 375.000269871203
38.98458 384.99792538026
39.00469 374.00552444775
39.02481 373.003151306175
39.04492 384.015696692493
39.06503 404.035210731556
39.08515 413.949667824654
39.10526 374.064395370198
39.12538 372.973115353939
39.14549 416.973574910917
39.1656 444
39.18572 402.007975744099
39.20583 465.086272819543
39.22594 492.060843105708
39.24606 533.947506938315
39.26617 558.903921940533
39.28628 645.948427585081
39.3064 675
39.32651 812.069655490488
39.34663 938.227468817889
39.36674 1096.20401078098
39.38685 1169.67207053484
39.40697 1351.7965172577
39.42708 1395.00167380725
39.44719 1387.01213694927
39.46731 1312.92699732816
39.48742 1136.86195268585
39.50754 1054.85667102022
39.52765 968.807754953618
39.54776 888.235658486993
39.56788 753.095166859332
39.58799 683.056810729552
39.6081 536
39.62822 494.944305915888
39.64833 411.925595712215
39.66845 413.024283975945
39.68856 396.073523212951
39.70867 358.040009079846
39.72879 347.001464708672
39.7489 346
39.76901 341.988926614066
39.78913 327.044097763377
39.80924 370.98270591526
39.82935 315.075695408493
39.84947 329.988645835611
39.86958 322.976079862364
39.8897 369
39.90981 344.994947056116
39.92992 357.994703248281
39.95004 337.014701672394
39.97015 379.897052086834
39.99026 392.016339731342
40.01038 381.005345177661
40.03049 388.989722010827
40.05061 412.007806292662
40.07072 417.000538078465
40.09083 427.040570095273
40.11095 457.026814134034
40.13106 477.836815906307
40.15117 594.888579378346
40.17129 608.993604159788
40.1914 667
40.21152 762.085710423748
40.23163 824.054216225798
40.25174 834.974793427814
40.27186 825.959681866022
40.29197 845.057129134555
40.31208 752.088207277575
40.3322 689
40.35231 596.96241881231
40.37242 562.999492259405
40.39254 547.861726925595
40.41265 456.103860120704
40.43277 460.039963817124
40.45288 397.027774763005
40.47299 410.00586471824
40.49311 347.964256346528
40.51322 319.026208912391
40.53333 364.021867380736
40.55345 330.877332911196
40.57356 307.970549131266
40.59368 333.003565743454
40.61379 305.004639079671
40.6339 324
40.65402 316.990054532865
40.67413 311.985361214779
40.69424 309.050255525812
40.71436 346.973179443274
40.73447 324.051442400885
40.75458 301.013509903148
40.7747 287
40.79481 286.028712028106
40.81493 363.028984641921
40.83504 316.914427187861
40.85515 324.904351350899
40.87527 341.057760030161
40.89538 282.012210536062
40.91549 319.987810372714
40.93561 306.994690710055
40.95572 317.009239512748
40.97584 318.012935670726
40.99595 333.031872152713
41.01606 335.013517600807
41.03618 328.99771102073
41.05629 334.002709937572
41.0764 328
41.09652 352.996336921642
41.11663 316.947756165813
41.13675 317.089365678261
41.15686 353.001697960823
41.17697 332.977419818159
41.19709 372.001490731101
41.2172 326
41.23731 345.009092890936
41.25743 341.998364505812
41.27754 346.984419164983
41.29765 325.045695230995
41.31777 320.994827948645
41.33788 323.998552519739
41.358 324
41.37811 320.995343982612
41.39822 320.025605878725
41.41834 346.969006792122
41.43845 310.976095992635
41.45856 354.997638008599
41.47868 309.019678319638
41.49879 342.979213059464
41.51891 348.986373709347
41.53902 317.992817675883
41.55913 327.990111172614
41.57925 308.009006865721
41.59936 343.920635723862
41.61947 356.028960276577
41.63959 327.006482686352
41.6597 343
41.67982 365.999997644252
41.69993 354.000634993935
41.72004 363.984865429542
41.74016 336.047211992469
41.76027 335.972055692705
41.78038 354.994307806015
41.8005 352
41.82061 368.003666158863
41.84072 347.952200429973
41.86084 303.985663476608
41.88095 326.965643537088
41.90107 325.973259316395
41.92118 361.980715807243
41.94129 344.02055144884
41.96141 319.008435916459
41.98152 356.00950069239
42.00163 328.96215863612
42.02175 328.019934968925
42.04186 325.036993818946
42.06198 306.996626287122
42.08209 324.997552510941
42.1022 316
42.12232 340.024078111609
42.14243 345.983782473899
42.16254 336.014366794481
42.18266 362.934964900091
42.20277 392.951138200421
42.22289 433.975456029338
42.243 475
42.26311 477.008001395
42.28323 535.14912613874
42.30334 629.080254994753
42.32345 651.779050390495
42.34357 809.781733263676
42.36368 887.96574809463
42.38379 925.968030652561
42.40391 1020.05197039432
42.42402 1082.98880748798
42.44414 1014.85112371486
42.46425 955.824951248543
42.48436 860.213719057257
42.50448 778.032638773769
42.52459 758.033651013469
42.5447 642
42.56482 580.954911925786
42.58493 522.893562290741
42.60505 449.844597090749
42.62516 402.081575693949
42.64527 364.045977971184
42.66539 355.98700282705
42.6855 380
42.70561 319.984625602884
42.72573 329.999255679225
42.74584 298.939577918936
42.76595 289.00222917471
42.78607 287.998263998409
42.80618 291.99480261949
42.8263 298
42.84641 300.995031495463
42.86652 288.001989485742
42.88664 302.010050418479
42.90675 294.010420630908
42.92686 287.066144310601
42.94698 252.985684553952
42.96709 304.985352634609
42.98721 292.993998068532
43.00732 297.99791687181
43.02743 284.994594907705
43.04755 298.041546889189
43.06766 302.024294829559
43.08777 282.023756580123
43.10789 281.992133456932
43.128 288
43.14812 249.002799911047
43.16823 296.063313865124
43.18834 298.954737923391
43.20846 278.01055694419
43.22857 287.983307850025
43.24868 284.021285428873
43.2688 265
43.28891 285.001224930946
43.30902 269.999620092889
43.32914 287.010237790099
43.34925 272.035082310944
43.36937 279.954824494273
43.38948 307.002090838155
43.40959 282.007809884842
43.42971 280.993455509457
43.44982 257.996284069537
43.46993 272.001792117906
43.49005 256.989590458229
43.51016 270.975135592325
43.53028 272.997865874166
43.55039 289.982132318016
43.5705 317
43.59062 280.992619879036
43.61073 303.002591397799
43.63084 270.940716616659
43.65096 269.963327689669
43.67107 292.966942289161
43.69119 303.003976660887
43.7113 284
43.73141 278.000738671479
43.75153 285.021196096997
43.77164 290.961552961011
43.79175 261.021694434529
43.81187 275.98603630474
43.83198 270.001640002336
43.85209 270.010340734503
43.87221 243.00193213121
43.89232 284.047147168648
43.91244 298.949104961906
43.93255 271.039125687037
43.95266 317.961232604316
43.97278 290.036717398922
43.99289 277.995936064152
44.013 290
44.03312 282.990211191011
44.05323 276.99433867994
44.07335 271.980117323629
44.09346 270.964783350695
44.11357 293.995243112452
44.13369 281.000128094466
44.1538 291
44.17391 251.979074346764
44.19403 244.057531508476
44.21414 293.02202329811
44.23426 265.039155502706
44.25437 270.001833903606
44.27448 263.978465632766
44.2946 302
44.31471 268.975819518371
44.33482 238.995014785104
44.35494 257.065247560646
44.37505 281.000858837884
44.39516 267.997284337809
44.41528 284.993341696637
44.43539 277.000539014824
44.45551 293.010755466936
44.47562 292.962717179567
44.49573 241.962898328187
44.51585 258.080148182886
44.53596 280.97469477788
44.55607 283.012534127696
44.57619 274.998533720316
44.5963 291
44.61642 298.986753221523
44.63653 270.959067261535
44.65664 262.024128424838
44.67676 286.946929352512
44.69687 298.016493735194
44.71698 277.012242188531
44.7371 274
44.75721 268.016178543229
44.77732 317.010722018782
44.79744 282.938599504091
44.81755 283.965919888329
44.83767 297.968432009404
44.85778 307.029159931392
44.87789 255.0162796645
44.89801 264.015491488881
44.91812 280.986167085569
44.93823 262.027464751413
44.95835 309.061051267848
44.97846 291.058880813978
44.99858 282.984268578028
45.01869 308.989942319793
45.0388 318
45.05892 323.991437197057
45.07903 297.949215505306
45.09914 277.007486372961
45.11926 294.980336289139
45.13937 291.997647668685
45.15949 304.993160021923
45.1796 303
45.19971 285.010260069949
45.21983 334.050966646165
45.23994 323.919289727451
45.26005 293.979535811646
45.28017 327.970420466824
45.30028 317.018264270722
45.32039 314.992730068901
45.34051 324.991956241825
45.36062 287.969142904437
45.38074 293.088367809593
45.40085 343.046253292704
45.42096 322.063199055172
45.44108 321.954759459149
45.46119 368.006130728799
45.4813 314
45.50142 347.029181096891
45.52153 342.984304652122
45.54165 346.024372936399
45.56176 366.91447279481
45.58187 420.935922731796
45.60199 448.98436966879
45.6221 490
45.64221 523.018384262101
45.66233 564.053416245152
45.68244 611.167038498917
45.70256 713.846297307539
45.72267 753.947939389839
45.74278 797.964930071352
45.7629 812
45.78301 788.972608687135
45.80312 694.871548061271
45.82324 596.991238374206
45.84335 641.037571847928
45.86346 548.162985924326
45.88358 530.987732075403
45.90369 517.030128469773
45.92381 433.969689418314
45.94392 409.983481448991
45.96403 376.93472602955
45.98415 341.969088169086
46.00426 337.052168184586
46.02437 292.04845951493
46.04449 292.988100771607
46.0646 311
46.08472 284.977383978957
46.10483 273.979533151646
46.12494 261.011097347873
46.14506 286.940045517049
46.16517 297.027327021344
46.18528 269.010639522267
46.2054 287
46.22551 300.99143930345
46.24563 273.998314807983
46.26574 295.007871243513
46.28585 273.043599292674
46.30597 273.995198939752
46.32608 267.013273443833
46.34619 265.986988809163
46.36631 292.993337409325
46.38642 253.991360482049
46.40653 282.022884061123
46.42665 269.987992500642
46.44676 287.956513315554
46.46688 297.998701894602
46.48699 295.002993877334
46.5071 281
46.52722 259.010922449032
46.54733 289.012628705912
46.56744 268.970037245167
46.58756 276.968792301405
46.60767 286.990580192528
46.62779 280.015862382849
46.6479 253
46.66801 297.002816568258
46.68813 254.9461857845
46.70824 259.049488839056
46.72835 277.986452393471
46.74847 274.998287469163
46.76858 285.986148735676
46.78869 288.008868036252
46.80881 267.000229149932
46.82892 279.99207333421
46.84904 255.996679547085
46.86915 281.044692707237
46.88926 279.002570502278
46.90938 290.983016532451
46.92949 294.010942371288
46.9496 269
46.96972 294.002004841193
46.98983 267.97577085494
47.00995 286.097404832022
47.03006 312.017033203791
47.05017 276.052484093477
47.07029 262.000422385048
47.0904 267
47.11051 287.014838510141
47.13063 314.015176166533
47.15074 302.954866169408
47.17086 279.048052096372
47.19097 273.951446294403
47.21108 314.001218152641
47.2312 280
47.25131 306.007325082976
47.27142 282.959555507937
47.29154 262.031745075962
47.31165 296.953705948913
47.33176 291.007181232014
47.35188 299.995284298455
47.37199 294.003148237429
47.39211 291.998293500896
47.41222 282.987091124289
47.43233 282.037867741172
47.45245 307.966495314092
47.47256 272.002934502015
47.49267 300.006604879554
47.51279 266.997758123311
47.5329 314
47.55302 298.978239006061
47.57313 284.95852027298
47.59324 261.037844503725
47.61336 301.000950301069
47.63347 260.030385405033
47.65358 276.990372581876
47.6737 263
47.69381 278.015132599532
47.71393 298.993350053986
47.73404 276.968599619158
47.75415 278.98113328748
47.77427 283.990305598974
47.79438 290.997584688697
47.81449 291.996110535141
47.83461 293.987690181356
47.85472 256.986178078796
47.87483 272.021598230733
47.89495 273.009789287822
47.91506 286.970849172016
47.93518 294.996676859405
47.95529 290.009437684561
47.9754 277
47.99552 311.007550202904
48.01563 281.949008136959
48.03574 272.024276907363
48.05586 286.005316552647
48.07597 274.989021027529
48.09609 290.007421940834
48.1162 251
48.13631 270.016623316363
48.15643 285.986413186813
48.17654 264.975838245844
48.19665 277.916729074661
48.21677 298.034125444816
48.23688 254.013639374649
48.257 282
48.27711 286.997373032588
48.29722 292.021566554487
48.31734 307.963285447218
48.33745 273.994627283692
48.35756 303.970085297954
48.37768 289.013003058362
48.39779 290.002367620006
48.4179 271
48.43802 261.005279912594
48.45813 274.014487869404
48.47825 272.979578667736
48.49836 268.98385863972
48.51847 286.973475282676
48.53859 292.005057987602
48.5587 271
48.57881 254.999704383469
48.59893 266.018599995649
48.61904 265.967493263707
48.63916 251.978272964464
48.65927 281.969035009504
48.67938 279.012714291175
48.6995 282
48.71961 305.986122990798
48.73972 246.976192669975
48.75984 279.085341696839
48.77995 293.024312970393
48.80006 273.04375227041
48.82018 260.001295742313
48.84029 271.988000464485
48.86041 288.995904593245
48.88052 271.005744601692
48.90063 298.018312071989
48.92075 284.967581810374
48.94086 284.004076074388
48.96097 277.999522757698
48.98109 290.989205989888
49.0012 308
49.02132 289.964017475055
49.04143 256.983263194553
49.06154 275.072152378004
49.08166 305.974389758115
49.10177 294.046370679061
49.12188 270.993538197136
49.142 296
49.16211 285.997430092427
49.18223 291.99667576705
49.20234 273.956100620413
49.22245 271.924463355646
49.24257 307.996226576938
49.26268 276.028057430313
49.28279 279.986966401997
49.30291 290.984232074367
49.32302 244.995549938888
49.34313 288.060981298891
49.36325 296.992162772415
49.38336 288.055913733775
49.40348 251.022141147828
49.42359 260.98208658282
49.4437 299
49.46382 306.010352841712
49.48393 316.985456401057
49.50404 293.984937560558
49.52416 304.992061187378
49.54427 296.003591816908
49.56439 299.006187454324
49.5845 287
49.60461 330.00231879031
49.62473 299.992699406154
49.64484 322.988444502242
49.66495 288.019146647093
49.68507 317.967743154358
49.70518 315.994698647102
49.7253 335
49.74541 333.006782509723
49.76552 373.051285483179
49.78564 395.938407465762
49.80575 348.999750266757
49.82586 413.831200069609
49.84598 464.991797094675
49.86609 464.982378922728
49.8862 535
49.90632 590.099232577418
49.92643 694.027196340116
49.94655 695.35366668363
49.96666 947.655572891619
49.98677 1020.7896206006
50.00689 1268.88790682378
50.027 1448
50.04711 1734.10676838621
50.06723 1869.24723388091
50.08734 2073.27905180801
50.10746 2084.16293810105
50.12757 1958.23583995665
50.14768 1777.20578352607
50.1678 1570
50.18791 1421.9284590099
50.20802 1299.94412705995
50.22814 1258.76017269611
50.24825 1078.31326356019
50.26837 1015.15825089585
50.28848 824.210475970947
50.30859 655.063597096977
50.32871 550.952100479782
50.34882 461.934272808267
50.36893 418.947222267846
50.38905 391.99401254327
50.40916 407.976132397723
50.42927 398.041202537092
50.44939 375.000228432136
50.4695 376
50.48962 328.006001156444
50.50973 384.054979804022
50.52984 378.998638443173
50.54996 397.984636664596
50.57007 375.063046874705
50.59018 345.994705540534
50.6103 372
50.63041 365.00231352747
50.65053 384.008467360641
50.67064 354.885352404992
50.69075 305.029317353611
50.71087 325.972880745675
50.73098 325.997867384099
50.75109 333.002865637648
50.77121 324.007442783267
50.79132 347.991007096861
50.81143 310.973159449536
50.83155 321.000425137549
50.85166 300.03102315468
50.87178 301.994730359788
50.89189 299.004285033868
50.912 301
50.93212 327.990897595632
50.95223 288.961511564794
50.97234 297.038881929509
50.99246 305.008769019534
51.01257 298.994097940889
51.03269 310.996768161328
51.0528 301
51.07291 274.990672708632
51.09303 270.008909192186
51.11314 288.067597051465
51.13325 315.017458876224
51.15337 281.040320819544
51.17348 276.001989069661
51.1936 279
51.21371 313.999961630336
51.23382 278.971333935017
51.25394 277.00883015461
51.27405 274.009709112363
51.29416 269.025486278737
51.31428 259.986873682064
51.33439 285.99456331522
51.3545 277
51.37462 279.994526731913
51.39473 271.014655109129
51.41485 281.930968660605
51.43496 235.01322030963
51.45507 270.967705006573
51.47519 252.014273502326
51.4953 238
51.51541 239.006440398743
51.53553 257.016476510137
51.55564 251.963726862333
51.57576 243.954571570507
51.59587 279.983647571063
51.61598 258.024282935886
51.6361 250
51.65621 249.00537863076
51.67632 260.993149661557
51.69644 237.967445758139
51.71655 242.95452723412
51.73667 261.977300593356
51.75678 268.004046753701
51.77689 265.993481910116
51.79701 281.996812306796
51.81712 258.9915065625
51.83723 272.015923824141
51.85735 262.944607653791
51.87746 245.004887731937
51.89757 248.018927621302
51.91769 231.992876872078
51.9378 260
51.95792 227.005367046685
51.97803 273.039354786093
51.99814 253.939911854962
52.01826 241.996974737601
52.03837 246.995041929831
52.05848 249.990842657643
52.0786 268
52.09871 281.997746194813
52.11883 266.9884725273
52.13894 255.915303582667
52.15905 208.989410493934
52.17917 253.970567392353
52.19928 239.989987554777
52.21939 285.982154940346
52.23951 282.987806705434
52.25962 264.999216779763
52.27974 267.965527918883
52.29985 232.934923669604
52.31996 232.966096339565
52.34008 253.979022592842
52.36019 270.993713418396
52.3803 278
52.40042 264.967955212592
52.42053 237.008100485201
52.44064 267.03331798177
52.46076 262.989004286401
52.48087 282.986491988724
52.50099 270.010244861976
52.5211 257
52.54121 255.998581571419
52.56133 258.028468804134
52.58144 289.051105286979
52.60155 283.115938165787
52.62167 229.028472375151
52.64178 252.967561560448
52.6619 267
52.68201 262.993420060154
52.70212 249.999245930723
52.72224 259.008576265416
52.74235 256.988883739616
52.76246 270.972673137201
52.78258 274.00831012076
52.80269 264.999138440255
52.8228 279
52.84292 286.99868297413
52.86303 280.992344194526
52.88315 275.972234999637
52.90326 271.954842793095
52.92337 301.006870737716
52.94349 264.013908183621
52.9636 269
52.98371 280.998597516575
53.00383 276.017690252936
53.02394 290.97112198742
53.04406 259.009166544395
53.06417 286.968442837784
53.08428 280.016758220737
53.1044 271
53.12451 276.005868393915
53.14462 292.017482850237
53.16474 300.98582234307
53.18485 284.032179440514
53.20497 289.961261577059
53.22508 316.992053696564
53.24519 299.015310904741
53.26531 281.003567378889
53.28542 304.017055018522
53.30553 302.985340899288
53.32565 307.077667338284
53.34576 338.020228081764
53.36587 296.035496465301
53.38599 310.988029679953
53.4061 324
53.42622 326.978096824804
53.44633 299.002242117871
53.46644 322.002428516226
53.48656 300.006513931793
53.50667 324.968738877104
53.52678 326.002410703426
53.5469 319
53.56701 294.01167288095
53.58713 347.029018057607
53.60724 319.952926419989
53.62735 326.962383548863
53.64747 329.014544030456
53.66758 319.997083399596
53.68769 324.008475262974
53.70781 293.993679799857
53.72792 310.025827745013
53.74804 321.985704129244
53.76815 298.924324325667
53.78826 290.928722593801
53.80838 341.983914275277
53.82849 316.012584480289
53.8486 325
53.86872 350.994203356315
53.88883 325.988284073327
53.90894 337.996804131209
53.92906 312.054612543574
53.94917 299.008051066681
53.96929 299.99355028549
53.9894 317
54.00951 321.009967955187
54.02963 345.999018317676
54.04974 321.970868858894
54.06985 318.061092635608
54.08997 290.969953493216
54.11008 339.990355605293
54.1302 307
54.15031 332.004404843872
54.17042 325.029010838456
54.19054 366.959335726142
54.21065 296.084563398509
54.23076 322.95082626278
54.25088 319.992715980637
54.27099 337.005980035099
54.29111 302.994965376497
54.31122 330.031485403658
54.33133 354.054508806949
54.35145 393.028102265483
54.37156 371.0609980744
54.39167 343.057490856619
54.41179 306.005068997594
54.4319 330
54.45201 355.999662731231
54.47213 336.975318135494
54.49224 345.067658944487
54.51236 378.987537419887
54.53247 364.003589168521
54.55258 379.993804628313
54.5727 378
54.59281 405.996740706968
54.61292 369.98262259726
54.63304 401.122705254036
54.65315 451.959410192791
54.67327 461.917190184142
54.69338 550.941880932101
54.71349 574.975090916585
54.73361 663.038414832523
54.75372 704.027787347012
54.77383 741.067316694188
54.79395 787.101215917419
54.81406 817.954927877075
54.83417 821.04430563467
54.85429 779.010273771212
54.8744 783
54.89452 753.952869516207
54.91463 692.882312198307
54.93474 620.927874838837
54.95486 621.978107244028
54.97497 634.948742921067
54.99508 647.073065655136
55.0152 529
55.03531 540.993964864048
55.05543 464.872300362246
55.07554 417.971395542477
55.09565 419.97965255768
55.11577 425.99149911696
55.13588 437.977091621756
55.15599 461.994944335553
55.17611 455.995211593319
55.19622 463.031244564992
55.21634 505.061869577487
55.23645 531.119747533602
55.25656 585.962438117672
55.27668 557.045883459194
55.29679 530.00116236427
55.3169 531
55.33702 490.975951601726
55.35713 481.958815973156
55.37724 439.962985666156
55.39736 458.934660274911
55.41747 471.029553938235
55.43759 435.012622794846
55.4577 432
55.47781 419.981703853939
55.49793 367.92654909064
55.51804 344.011540552311
55.53815 363.965382374942
55.55827 352.056008961608
55.57838 319.995684918732
55.5985 348
55.61861 327.993940179604
55.63872 335.001819576946
55.65884 321.973728490218
55.67895 326.933201541577
55.69906 350.020414216584
55.71918 307.045185861106
55.73929 283.004519734349
55.75941 288.012297780677
55.77952 315.006182245494
55.79963 308.015430662177
55.81975 326.971397528154
55.83986 294.012490791692
55.85997 323.958565100343
55.88009 318.016250999294
55.9002 279
55.92031 271.009803009889
55.94043 304.042113017631
55.96054 314.998607632666
55.98066 308.026572158488
56.00077 301.977360413343
56.02088 324.996488954849
56.041 309
56.06111 310.99357920501
56.08122 278.96986585577
56.10134 275.052103823588
56.12145 308.96197582111
56.14157 304.996400239227
56.16168 317.000972920725
56.18179 292.018610277936
56.20191 268.001822026358
56.22202 290.016729123666
56.24213 287.983574079416
56.26225 284.022968332398
56.28236 300.974232415834
56.30248 301.010125913173
56.32259 289.004072625539
56.3427 289
56.36282 297.004514487863
56.38293 283.940083944763
56.40304 254.053766063213
56.42316 308.986554489006
56.44327 270.009628742755
56.46338 304.993303043632
56.4835 276
56.50361 314.014588377071
56.52373 306.966940324803
56.54384 289.974709373941
56.56395 279.026939106308
56.58407 282.947562078762
56.60418 324.991950077644
56.62429 287.027499186415
56.64441 261.010491079632
56.66452 307.030839624154
56.68464 301.955730931975
56.70475 292.032409087903
56.72486 306.035380931282
56.74498 272.001916044734
56.76509 309.981437793712
56.7852 307
56.80532 266.000039989293
56.82543 302.040885170076
56.84554 290.930612036099
56.86566 259.033052955066
56.88577 262.973628404607
56.90589 281.992615516411
56.926 275
56.94611 237.007132976486
56.96623 288.033948446034
56.98634 264.956761921389
57.00645 281.885900273015
57.02657 318.999851140891
57.04668 284.039752719166
57.0668 272
57.08691 300.006514382704
57.10702 291.988913495556
57.12714 288.997021159533
57.14725 296.920610337272
57.16736 337.958969896615
57.18748 323.035897450364
57.20759 294.004080223282
57.22771 303.004383630067
57.24782 299.990949657006
57.26793 295.00534406582
57.28805 304.01698163432
57.30816 301.02557568187
57.32827 295.969305031041
57.34839 320.00627453147
57.3685 283
57.38861 300.99588692989
57.40873 259.959749253602
57.42884 267.028703657356
57.44896 273.977767877247
57.46907 287.994424652243
57.48918 276.019905751544
57.5093 261
57.52941 266.004336966743
57.54952 269.996810864971
57.56964 271.038063442768
57.58975 290.033183037565
57.60987 254.025013786845
57.62998 271.97394051349
57.65009 288.991553635967
57.67021 291.983020666902
57.69032 244.987555817076
57.71043 271.03190762667
57.73055 267.989665323281
57.75066 272.997538254954
57.77078 270.991828025793
57.79089 282.003547285847
57.811 255
57.83112 251.024613923951
57.85123 286.032492766785
57.87134 284.980113186295
57.89146 275.029195314169
57.91157 263.991317572555
57.93168 280.990778205763
57.9518 275
57.97191 263.989581988725
57.99203 250.027817913826
58.01214 288.037035871905
58.03225 272.067063729506
58.05237 259.992150777449
58.07248 276.979323946556
58.09259 289.999195044991
58.11271 275.984962363608
58.13282 253.008272271988
58.15294 281.024040981221
58.17305 273.007749519917
58.19316 287.013014293975
58.21328 252.039725349289
58.23339 240.985950170628
58.2535 284
58.27362 273.979464628902
58.29373 261.990680959428
58.31385 266.053989417981
58.33396 280.05274786241
58.35407 237.004109810667
58.37419 280.980043232697
58.3943 285
58.41441 270.992464956672
58.43453 258.994527208973
58.45464 260.999745787663
58.47475 259.98223719584
58.49487 268.011160126661
58.51498 256.986206017015
58.5351 288
58.55521 272.993360821881
58.57532 275.002551141828
58.59544 277.030051086362
58.61555 297.985383438288
58.63566 283.041201250339
58.65578 275.989123408102
58.67589 288.004033250816
58.69601 265.995809359649
58.71612 280.01779810902
58.73623 279.968358937772
58.75635 256.994672649357
58.77646 271.988473550882
58.79657 260.018004057022
58.81669 260.995312395933
58.8368 271
58.85691 274.000106193243
58.87703 277.014655809285
58.89714 284.987102716798
58.91726 273.985825857139
58.93737 294.988001493619
58.95748 280.021027171875
58.9776 268
58.99771 275.011992567699
59.01782 293.986126968007
59.03794 266.009137332941
59.05805 298.974023209449
59.07817 271.046835079577
59.09828 270.969116298328
59.11839 305.993988999357
59.13851 291.991896801615
59.15862 300.034989929539
59.17873 327.975576778439
59.19885 285.97026415126
59.21896 313.955885402842
59.23908 307.013714403552
59.25919 298.007456236879
59.2793 285
59.29942 310.019872777956
59.31953 302.949573836528
59.33964 276.026130468468
59.35976 324.90687987266
59.37987 339.017519798306
59.39998 325.996698867614
59.4201 346
59.44021 344.988155625393
59.46033 324.01478433701
59.48044 349.99877830302
59.50055 317.070102712225
59.52067 321.956027491485
59.54078 343.011747750298
59.56089 321.991082060678
59.58101 379.02386148092
59.60112 384.979164204402
59.62124 379.07136116219
59.64135 436.076753850703
59.66146 430.012912575212
59.68158 450.96030902485
59.70169 496.976209279107
59.7218 537
59.74192 582.099464671023
59.76203 714.15605840787
59.78215 779.180373696596
59.80226 870.850195281774
59.82237 952.780417664265
59.84249 1157.90216732573
59.8626 1294
59.88271 1364.03200129997
59.90283 1416.02892215704
59.92294 1387.86026221613
59.94305 1310.13846349877
59.96317 1239.22847706792
59.98328 1037.14965998202
60.0034 966
60.02351 899.999005778353
60.04362 942.000791192794
60.06374 877.865660911829
60.08385 843.067572706059
60.10396 792.161282433321
60.12408 690.106800964632
60.14419 588.050538128884
60.16431 494.964516203542
60.18442 429.913325916163
60.20453 345.959303109562
60.22465 367.018894552769
60.24476 337.059605261496
60.26487 330.993486346137
60.28499 328.007240120904
60.3051 309
60.32522 311.011976620683
60.34533 314.973046972157
60.36544 285.970281455373
60.38556 294.964707909124
60.40567 297.034312780244
60.42578 271.994647551679
60.4459 297
60.46601 274.999250872147
60.48612 296.001807230766
60.50624 272.976366467096
60.52635 286.9537322983
60.54647 291.012745640565
60.56658 279.008306393365
60.58669 279.995571653684
60.60681 287.999857037391
60.62692 278.989272828721
60.64703 266.97074998585
60.66715 247.990463780626
60.68726 259.972331592735
60.70738 278.959092758164
60.72749 317.003701014317
60.7476 270
60.76772 273.028230525807
60.78783 300.021994770092
60.80794 298.981197482818
60.82806 289.019570500542
60.84817 277.025461246657
60.86828 270.976052199347
60.8884 310
60.90851 285.971368747384
60.92863 248.036866878811
60.94874 307.044078182519
60.96885 283.020639149304
60.98897 301.010580267129
61.00908 265.017064739487
61.02919 288.980326825074
61.04931 310.998465254858
61.06942 292.984832518499
61.08954 291.008201130771
61.10965 297.026841493893
61.12976 303.022440795398
61.14988 278.022571416717
61.16999 277.986575080821
61.1901 308
61.21022 285.978465792616
61.23033 286.023916914493
61.25045 298.991441976932
61.27056 300.915570799018
61.29067 350.019991289127
61.31079 292.007601276746
61.3309 329
61.35101 297.993765620564
61.37113 322.026512130878
61.39124 307.942748014006
61.41135 297.937144935962
61.43147 337.973606666955
61.45158 324.017711117011
61.4717 319
61.49181 324.01580372195
61.51192 361.002433436848
61.53204 332.970731006006
61.55215 345.971730832239
61.57226 336.043128347644
61.59238 320.002591045514
61.61249 328.994521528887
61.63261 332.998780182612
61.65272 324.986848578027
61.67283 331.073729488992
61.69295 388.011795465711
61.71306 355.987202056743
61.73317 405.964866798127
61.75329 370.028977467385
61.7734 338
61.79352 365.020884088333
61.81363 361.973658749669
61.83374 360.06896656363
61.85386 398.026202417425
61.87397 338.071986648279
61.89408 340.965305754464
61.9142 374
61.93431 370.994378856394
61.95442 372.022513203838
61.97454 396.997634433352
61.99465 377.007057341217
62.01477 392.003669192642
62.03488 367.01709867251
62.05499 376.987005284349
62.07511 392.995342474183
62.09522 369.990332157202
62.11533 372.982542107444
62.13545 353.013529962905
62.15556 375.008001331011
62.17568 354.983504505883
62.19579 400.992271216417
62.2159 379
62.23602 406.025850715637
62.25613 405.975454644343
62.27624 397.025466445958
62.29636 405.074811584132
62.31647 348.014010847626
62.33659 381.997174974953
62.3567 340
62.37681 337.004258198582
62.39693 340.004550084748
62.41704 344.000513792764
62.43715 341.002664018403
62.45727 333.043178368266
62.47738 296.01797555374
62.49749 304.991509458
62.51761 306.991425768579
62.53772 301.039711155883
62.55784 348.967427962085
62.57795 278.897591440813
62.59806 303.908463719292
62.61818 325.004793423233
62.63829 301.01769717456
62.6584 280
62.67852 296.975060795749
62.69863 258.03278698586
62.71875 315.986347093557
62.73886 253.029820576047
62.75897 300.969132957778
62.77909 266.014116981456
62.7992 279
62.81931 288.994973510929
62.83943 275.002329140029
62.85954 294.037857416349
62.87965 302.984573734882
62.89977 305.016398683669
62.91988 283.022034515588
62.94 278
62.96011 296.994965941947
62.98022 268.994890076677
63.00034 287.001531704097
63.02045 268.002256959371
63.04056 288.982402251186
63.06068 276.010211028711
63.08079 286.986972949682
63.10091 309.002220861366
63.12102 295.982988247191
63.14113 286.996945481511
63.16125 286.995803981444
63.18136 280.024100744179
63.20147 270.001178594136
63.22159 276.996922224963
63.2417 277
63.26182 284.026560091615
63.28193 317.024249686216
63.30204 302.930522000409
63.32216 272.022485592367
63.34227 272.018662282714
63.36238 256.983685499541
63.3825 296
63.40261 277.98591666089
63.42272 277.037410890712
63.44284 322.019837232876
63.46295 294.065515237447
63.48307 294.97844779396
63.50318 298.019392218346
63.52329 268.008640220792
63.54341 281.018869895311
63.56352 302.970733937429
63.58363 258.015782697073
63.60375 323.118312105152
63.62386 312.077444846401
63.64398 282.01490961673
63.66409 282.994149105452
63.6842 296
63.70432 306.017520943737
63.72443 310.94718451678
63.74454 271.037390601087
63.76466 334.936799567781
63.78477 325.972163535085
63.80489 378.987399149587
63.825 362
63.84511 370.999204483256
63.86523 366.045296551772
63.88534 416.030742485571
63.90545 402.953554803335
63.92557 452.969306507758
63.94568 436.998696537347
63.96579 480.971117375067
63.98591 504.985271372796
64.00602 452.976422247765
64.02614 471.044975124427
64.04625 459.885637227256
64.06636 405.072084385064
64.08648 392.012461277011
64.10659 372.006316885656
64.1267 382
64.14682 411.999473236426
64.16693 379.944223340339
64.18705 356.962889470995
64.20716 347.997633742611
64.22727 349.020445801753
64.24739 312.026986347586
64.2675 275
64.28761 302.996150892486
64.30773 258.961402226984
64.32784 276.060764072542
64.34796 291.994882066352
64.36807 291.989669671992
64.38818 302.000306018884
64.4083 287
64.42841 280.00837474638
64.44852 294.977395951087
64.46864 249.967997064688
64.48875 273.940421654463
64.50886 277.99156367629
64.52898 283.013862685916
64.54909 255.008664437873
64.56921 270.022176977504
64.58932 303.986132917342
64.60943 255.953650328008
64.62955 248.933623422562
64.64966 218.946686703587
64.66977 279.981103052776
64.68989 241.005441423835
64.71 272
64.73012 252.015626273584
64.75023 302.030395167273
64.77034 272.93125022493
64.79046 265.980320546519
64.81057 265.042955644806
64.83068 237.978713638619
64.8508 292
64.87091 263.980565881239
64.89102 260.036276113546
64.91114 301.008507004109
64.93125 263.110077174234
64.95137 252.956823046416
64.97148 279.023583548098
64.99159 224.010374780657
65.01171 260.024874787888
65.03182 276.979812900259
65.05193 248.997109801054
65.07205 273.040412830444
65.09216 265.02997961443
65.11228 264.980124871964
65.13239 281.008418795275
65.1525 247
65.17262 270.008608267765
65.19273 253.988680238594
65.21284 259.983665618554
65.23296 242.98509125636
65.25307 275.960750104243
65.27319 276.006747895787
65.2933 265
65.31341 273.012194974829
65.33353 290.977444783017
65.35364 263.011443287603
65.37375 291.019706939212
65.39387 244.046206982634
65.41398 256.970570757874
65.43409 264.013625551347
65.45421 229.999558161423
65.47432 268.042864587894
65.49444 284.986970816577
65.51455 271.987488674575
65.53466 273.018363546147
65.55478 257.999976052717
65.57489 280.983560725544
65.595 309
65.61512 322.006823073002
65.63523 313.950337404299
65.65535 281.007961105481
65.67546 310.977201132458
65.69557 290.033058397423
65.71569 291.990009543634
65.7358 315
65.75591 315.992476222526
65.77603 296.984676435812
65.79614 299.010542152994
65.81626 291.057180626405
65.83637 254.037642099002
65.85648 263.951802349885
65.8766 316
65.89671 291.983345046719
65.91682 284.020626915605
65.93694 307.997188142759
65.95705 279.074228350653
65.97716 268.992133812219
65.99728 277.989152793859
66.01739 280.007242711664
66.03751 256.992234301755
66.05762 258.011000722019
66.07773 269.011046115496
66.09785 265.958356908802
66.11796 255.959188954598
66.13807 291.980972940147
66.15819 265.02200994766
66.1783 239
66.19842 262.013955765889
66.21853 260.002233478968
66.23864 274.031987699966
66.25876 275.041275500599
66.27887 246.025529706257
66.29898 248.989025353032
66.3191 252
66.33921 239.999087833511
66.35933 255.037957004181
66.37944 272.99817690561
66.39955 266.964861364719
66.41967 287.020407928283
66.43978 251.007151405584
66.45989 279.989433430361
66.48001 272.994161445562
66.50012 263.977847847534
66.52023 248.038500461466
66.54035 289.993161719418
66.56046 243.05903381698
66.58058 253.9864224674
66.60069 258.988534793787
66.6208 281
66.64092 239.0165019309
66.66103 306.050599010564
66.68114 274.911092012868
66.70126 253.027696630147
66.72137 241.001881977388
66.74149 251.992109839807
66.7616 268
66.78171 276.992001394887
66.80183 256.014219271043
66.82194 288.022318283609
66.84205 266.060256009044
66.86217 261.988462546583
66.88228 260.02462942421
66.90239 231.999309970326
66.92251 263.013979778753
66.94262 271.003109170202
66.96274 278.008770921734
66.98285 278.000487682855
67.00296 275.028066587314
67.02308 260.994733684099
67.04319 280.994609982524
67.0633 272
67.08342 265.003581019588
67.10353 274.010808963778
67.12365 272.978545144168
67.14376 265.993480122447
67.16387 284.952930612761
67.18399 308.001738173814
67.2041 292
67.22421 318.009674965702
67.24433 306.945670813689
67.26444 278.012222145099
67.28456 316.917481165744
67.30467 326.042260398177
67.32478 287.017863800609
67.3449 300
67.36501 314.005463408022
67.38512 317.988132693854
67.40524 312.061216396531
67.42535 358.971208549498
67.44546 338.992735937165
67.46558 375.975651488189
67.48569 384.981836360761
67.50581 449.024070995171
67.52592 472.030695889482
67.54603 516.043717208754
67.56615 542.154134733808
67.58626 647.765903400446
67.60637 733.936930593712
67.62649 766.964840122288
67.6466 878
67.66672 938.014277533
67.68683 931.996262080625
67.70694 923.907753945361
67.72706 851.108045058631
67.74717 820.071098221729
67.76728 756.039816760984
67.7874 731
67.80751 648.978553026651
67.82763 688.153991268897
67.84774 777.028793757227
67.86785 732.071987893496
67.88797 772.866870203307
67.90808 844.989184467037
67.92819 793.035974005978
67.94831 756.005697809912
67.96842 806.065275093089
67.98853 857.04343204298
68.00865 898.233962313674
68.02876 1026.79430270656
68.04888 1086.94226392884
68.06899 1159.96837491503
68.0891 1193
68.10922 1185.99155118188
68.12933 1199.06915270618
68.14944 1222.86891138261
68.16956 1095.18626790836
68.18967 1080.97685691409
68.20979 1096.98138327141
68.2299 1148
68.25001 1166.01319893171
68.27013 1176.91793274508
68.29024 1077.85857347655
68.31035 1036.20578135281
68.33047 893.226457233118
68.35058 782.072024638101
68.3707 707
68.39081 592.986671449235
68.41092 631.999305655807
68.43104 555.837247095705
68.45115 529.047975799447
68.47126 544.061886897509
68.49138 486.023738276962
68.51149 490.017723886301
68.5316 410
68.55172 392.990793696287
68.57183 360.927467378118
68.59195 319.961833878209
68.61206 327.977942777087
68.63217 329.998451794598
68.65229 334.997134466686
68.6724 334
68.69251 315.992823851774
68.71263 306.983267987081
68.73274 291.974587328198
68.75286 285.007160317316
68.77297 281.008531038481
68.79308 281.98263538227
68.8132 292
68.83331 245.999668726349
68.85342 296.045775740558
68.87354 302.975058011646
68.89365 288.048977732941
68.91376 272.997032266694
68.93388 277.01933831466
68.95399 249.996342815718
68.97411 290.01437879222
68.99422 288.993946565473
69.01433 292.002188871905
69.03445 281.948108147354
69.05456 268.97410371199
69.07467 285.032889496542
69.09479 238.008719220086
69.1149 263
69.13502 271.012090637616
69.15513 291.0139810604
69.17524 284.984589349655
69.19536 286.980975586014
69.21547 291.018621514481
69.23558 262.034334717784
69.2557 250
69.27581 293.008648303856
69.29593 271.953493709962
69.31604 256.99871264274
69.33615 259.012877329916
69.35627 253.981520363569
69.37638 273.999469535639
69.39649 257.002686772407
69.41661 275.011954339109
69.43672 289.005211260851
69.45683 282.968595697925
69.47695 260.987295497644
69.49706 276.953456426115
69.51718 288.007516561806
69.53729 262.018934273558
69.5574 238
69.57752 270.022620388576
69.59763 268.988205249972
69.61774 270.017729340684
69.63786 275.019347198598
69.65797 253.031383786074
69.67809 244.998113881723
69.6982 254
69.71831 259.001453488974
69.73843 258.991762262178
69.75854 247.972351479032
69.77865 242.9674461547
69.79877 264.981303067351
69.81888 264.997128337432
69.839 272
69.85911 259.997271417288
69.87922 268.013015209649
69.89934 266.948438252605
69.91945 241.023503347695
69.93956 277.958279559459
69.95968 267.015449762553
69.97979 266.995935355588
69.9999 266
70.02002 241.997596694834
70.04013 255.999938381356
70.06025 245.02860878743
70.08036 280.942705402111
70.10047 285.01037141111
70.12059 275.009416947971
70.1407 258
70.16081 277.009044983017
70.18093 273.960471581295
70.20104 251.019335016356
70.22116 280.983192666525
70.24127 255.047266187326
70.26138 245.986871781129
70.2815 268
70.30161 270.995369320319
70.32172 258.992488364883
70.34184 255.989108012909
70.36195 248.008667181549
70.38207 247.011229254728
70.40218 243.978509050303
70.42229 268.007952152994
70.44241 228.99875823474
70.46252 265.01703845719
70.48263 248.99078316982
70.50275 265.019204149888
70.52286 251.037083965176
70.54297 249.967384954161
70.56309 283.985052889521
70.5832 282
70.60332 225.980262770289
70.62343 242.008380819754
70.64354 229.012404148655
70.66366 256.971703209689
70.68377 242.036242415093
70.70388 242.959312947159
70.724 286
70.74411 238.988631520836
70.76423 256.01344268684
70.78434 238.973336192205
70.80445 244.971306470303
70.82457 251.990637902579
70.84468 256.003592071223
70.86479 245.006361864292
70.88491 238.000382884622
70.90502 248.018641413126
70.92513 265.007906263372
70.94525 257.97505298534
70.96536 250.020004842251
70.98548 244.988692735364
71.00559 258.00570916842
71.0257 228
71.04582 240.022935538352
71.06593 255.007680270336
71.08604 250.978671901107
71.10616 241.008316742356
71.12627 242.994706588067
71.14639 243.001994061424
71.1665 241
71.18661 255.006970120328
71.20673 252.960293840139
71.22684 226.010607856856
71.24695 253.979693551731
71.26707 237.007515904839
71.28718 250.997132461837
71.3073 243
71.32741 271.005341906435
71.34752 251.972500592037
71.36764 240.013688517286
71.38775 257.955321249026
71.40786 258.049408499551
71.42798 233.990482720952
71.44809 269.988858555408
71.4682 265
71.48832 268.999022918297
71.50843 263.00595042424
71.52855 267.955342279896
71.54866 241.990295410334
71.56877 277.957346100394
71.58889 264.026385717953
71.609 220
71.62911 266.010049572235
71.64923 252.008108940962
71.66934 273.964714659897
71.68946 230.994582619793
71.70957 276.975972412418
71.72968 251.006777948227
71.7498 277
71.76991 253.985976709049
71.79002 249.017745158979
71.81014 256.931949365091
71.83025 211.979780495691
71.85037 266.952590845404
71.87048 252.01488976022
71.89059 263.990521302229
71.91071 269.996381975658
71.93082 277.048841447206
71.95093 328.982097892083
71.97105 259.869166630217
71.99116 261.956964147119
72.01127 268.014395364844
72.03139 252.006431551334
72.0515 250
72.07162 254.99252321942
72.09173 241.997994505755
72.11184 266.091691477808
72.13196 296.042056134387
72.15207 253.00127445446
72.17218 288.996828849414
72.1923 248
72.21241 261.009692137255
72.23253 269.017455396288
72.25264 276.963662859681
72.27275 242.048190282351
72.29287 252.964264035489
72.31298 264.010410090599
72.33309 246.999994354375
72.35321 264.005149694656
72.37332 263.006498504879
72.39344 273.987138224107
72.41355 259.017826249626
72.43366 281.996506618935
72.45378 263.002268426248
72.47389 279.999358844307
72.494 258
72.51412 266.027923635906
72.53423 285.984407871149
72.55434 255.967195988904
72.57446 264.973448346851
72.59457 268.996842823634
72.61469 268.00636473696
72.6348 250
72.65491 252.999719269199
72.67503 254.033122786942
72.69514 286.021743270285
72.71525 271.036895267425
72.73537 272.9859777839
72.75548 283.983890048609
72.7756 291
72.79571 254.988844676337
72.81582 262.022851337997
72.83594 279.00506584708
72.85605 271.015248705048
72.87616 266.033776550588
72.89628 239.021726120361
72.91639 244.979472882991
72.9365 296
72.95662 284.968109563416
72.97673 263.002313043501
72.99685 287.079731577375
73.01696 305.007847749899
73.03707 285.033566858165
73.05719 270.005524686948
73.0773 268
73.09741 288.000755892901
73.11753 281.025423826475
73.13764 309.993051624999
73.15776 276.035484592831
73.17787 291.968630192841
73.19798 300.991277725502
73.2181 311
73.23821 312.010253405683
73.25832 350.033538698294
73.27844 368.024857027312
73.29855 387.925396813693
73.31867 425.938509423171
73.33878 453.996787365903
73.35889 453.985073472915
73.37901 506.016239921651
73.39912 515.022215498071
73.41923 543.988210908094
73.43935 498.902887322793
73.45946 484.030940997115
73.47957 445.09003080939
73.49969 396.003502452955
73.5198 417
73.53992 390.974703022713
73.56003 390.024582004613
73.58014 399.973248173098
73.60026 373.026829777236
73.62037 382.975242985154
73.64048 387.010814517875
73.6606 362
73.68071 337.002500761329
73.70083 344.947593716794
73.72094 286.970412963722
73.74105 312.010829645256
73.76117 268.036571143991
73.78128 288.967004343656
73.80139 300.006050340732
73.82151 276.989831427672
73.84162 263.986020682983
73.86174 257.033205098385
73.88185 277.973756159245
73.90196 253.967301388612
73.92208 295.004129402951
73.94219 243.016220774523
73.9623 266
73.98242 287.977581521809
74.00253 249.991765148173
74.02264 272.999735926768
74.04276 241.041167138928
74.06287 253.961110641268
74.08299 269.998304698151
74.1031 265
74.12321 258.995111986163
74.14333 250.001427395195
74.16344 264.042012364706
74.18355 279.988962500425
74.20367 277.00003959573
74.22378 278.010291489868
74.2439 261
74.26401 264.998738106864
74.28412 257.004633288822
74.30424 261.950052043355
74.32435 222.022402095946
74.34446 250.943692014987
74.36458 256.99906703438
74.38469 267.99055630017
74.40481 275.99009399203
74.42492 236.967763679806
74.44503 236.044256038423
74.46515 260.964723074736
74.48526 225.011688228268
74.50537 243.023997632359
74.52549 209.987309599832
74.5456 282
74.56571 253.991438576637
74.58583 268.998477207762
74.60594 245.994170021683
74.62606 271.957182160736
74.64617 263.048151406328
74.66628 242.979470536582
74.6864 291
74.70651 284.985755134537
74.72662 252.967200553868
74.74674 232.003093469582
74.76685 244.993205825442
74.78697 236.000734147213
74.80708 244.003805114505
74.82719 229.002558145026
74.84731 243.010626845796
74.86742 245.970777997767
74.88753 217.02696378795
74.90765 269.065687117692
74.92776 251.043339123313
74.94787 254.972167960508
74.96799 264.006909728267
74.9881 236
75.00822 236.009963533658
