3.00117 20495
3.02128 19813
3.0414 18760
3.06151 18574
3.08162 17899
3.10174 17405
3.12185 17065
3.14197 16379
3.16208 15847
3.18219 15525
3.20231 14833
3.22242 14670
3.24253 14187
3.26265 13570
3.28276 13084
3.30288 12853
3.32299 12423
3.3431 11957
3.36322 11882
3.38333 11101
3.40344 10614
3.42356 10540
3.44367 9957
3.46379 9822
3.4839 9245
3.50401 8956
3.52413 8864
3.54424 8303
3.56435 8165
3.58447 7591
3.60458 7628
3.62469 7259
3.64481 6722
3.66492 6799
3.68504 6445
3.70515 6235
3.72526 6052
3.74538 5494
3.76549 5570
3.7856 5275
3.80572 5033
3.82583 4790
3.84595 4470
3.86606 4548
3.88617 4279
3.90629 3914
3.9264 3728
3.94651 3615
3.96663 3611
3.98674 3282
4.00686 3182
4.02697 3082
4.04708 2786
4.0672 2858
4.08731 2690
4.10742 2477
4.12754 2444
4.14765 2254
4.16776 2208
4.18788 2292
4.20799 2004
4.22811 1839
4.24822 1827
4.26833 1783
4.28845 1794
4.30856 1597
4.32867 1589
4.34879 1549
4.3689 1503
4.38902 1693
4.40913 1301
4.42924 1401
4.44936 1278
4.46947 1362
4.48958 1373
4.5097 1203
4.52981 1176
4.54992 1116
4.57004 1186
4.59015 1150
4.61027 1066
4.63038 1073
4.65049 967
4.67061 1023
4.69072 973
4.71083 852
4.73095 1042
4.75106 901
4.77118 847
4.79129 895
4.8114 854
4.83152 745
4.85163 748
4.87174 807
4.89186 739
4.91197 691
4.93209 738
4.9522 693
4.97231 620
4.99243 630
5.01254 629
5.03265 606
5.05277 636
5.07288 593
5.09299 613
5.11311 586
5.13322 527
5.15334 571
5.17345 496
5.19356 498
5.21368 496
5.23379 441
5.2539 477
5.27402 506
5.29413 479
5.31425 402
5.33436 392
5.35447 447
5.37459 383
5.3947 361
5.41481 362
5.43493 369
5.45504 376
5.47516 328
5.49527 386
5.51538 338
5.5355 303
5.55561 326
5.57572 326
5.59584 301
5.61595 282
5.63606 288
5.65618 246
5.67629 277
5.69641 231
5.71652 280
5.73663 251
5.75675 245
5.77686 271
5.79697 232
5.81709 225
5.8372 212
5.85732 254
5.87743 236
5.89754 232
5.91766 226
5.93777 216
5.95788 209
5.978 201
5.99811 207
6.01823 166
6.03834 230
6.05845 177
6.07857 221
6.09868 183
6.11879 160
6.13891 213
6.15902 173
6.17913 186
6.19925 178
6.21936 189
6.23948 188
6.25959 200
6.2797 161
6.29982 215
6.31993 200
6.34004 173
6.36016 164
6.38027 175
6.40039 173
6.4205 221
6.44061 157
6.46073 154
6.48084 173
6.50095 170
6.52107 203
6.54118 193
6.56129 197
6.58141 167
6.60152 142
6.62164 162
6.64175 143
6.66186 160
6.68198 173
6.70209 168
6.7222 163
6.74232 173
6.76243 186
6.78255 182
6.80266 183
6.82277 154
6.84289 176
6.863 191
6.88311 179
6.90323 161
6.92334 171
6.94346 144
6.96357 162
6.98368 175
7.0038 151
7.02391 154
7.04402 148
7.06414 181
7.08425 188
7.10436 155
7.12448 156
7.14459 162
7.16471 167
7.18482 160
7.20493 162
7.22505 190
7.24516 178
7.26527 172
7.28539 173
7.3055 166
7.32562 162
7.34573 158
7.36584 176
7.38596 222
7.40607 162
7.42618 187
7.4463 193
7.46641 166
7.48653 156
7.50664 183
7.52675 168
7.54687 172
7.56698 150
7.58709 206
7.60721 176
7.62732 172
7.64743 158
7.66755 197
7.68766 180
7.70778 194
7.72789 184
7.748 191
7.76812 185
7.78823 191
7.80834 204
7.82846 160
7.84857 188
7.86869 185
7.8888 173
7.90891 174
7.92903 191
7.94914 188
7.96925 187
7.98937 184
8.00948 224
8.0296 182
8.04971 178
8.06982 168
8.08994 173
8.11005 183
8.13016 180
8.15028 202
8.17039 182
8.1905 195
8.21062 218
8.23073 212
8.25085 237
8.27096 189
8.29107 181
8.31119 179
8.3313 202
8.35141 203
8.37153 180
8.39164 203
8.41176 217
8.43187 224
8.45198 213
8.4721 211
8.49221 193
8.51232 212
8.53244 202
8.55255 215
8.57266 184
8.59278 215
8.61289 217
8.63301 188
8.65312 196
8.67323 219
8.69335 160
8.71346 189
8.73357 211
8.75369 226
8.7738 197
8.79392 213
8.81403 187
8.83414 207
8.85426 180
8.87437 203
8.89448 192
8.9146 218
8.93471 198
8.95483 210
8.97494 206
8.99505 217
9.01517 190
9.03528 214
9.05539 201
9.07551 180
9.09562 178
9.11573 218
9.13585 212
9.15596 215
9.17608 211
9.19619 195
9.2163 198
9.23642 213
9.25653 208
9.27664 198
9.29676 202
9.31687 216
9.33699 219
9.3571 217
9.37721 233
9.39733 218
9.41744 195
9.43755 232
9.45767 189
9.47778 198
9.4979 210
9.51801 187
9.53812 205
9.55824 216
9.57835 200
9.59846 214
9.61858 215
9.63869 208
9.6588 211
9.67892 202
9.69903 219
9.71915 242
9.73926 206
9.75937 226
9.77949 211
9.7996 220
9.81971 193
9.83983 216
9.85994 195
9.88006 238
9.90017 200
9.92028 237
9.9404 210
9.96051 210
9.98062 228
10.00074 195
10.02085 200
10.04097 227
10.06108 230
10.08119 219
10.10131 200
10.12142 200
10.14153 216
10.16165 206
10.18176 203
10.20187 228
10.22199 199
10.2421 209
10.26222 210
10.28233 216
10.30244 214
10.32256 221
10.34267 200
10.36278 222
10.3829 200
10.40301 215
10.42313 214
10.44324 212
10.46335 197
10.48347 207
10.50358 225
10.52369 189
10.54381 247
10.56392 206
10.58403 176
10.60415 240
10.62426 207
10.64438 194
10.66449 190
10.6846 246
10.70472 193
10.72483 217
10.74494 198
10.76506 215
10.78517 210
10.80529 205
10.8254 207
10.84551 228
10.86563 210
10.88574 202
10.90585 200
10.92597 191
10.94608 230
10.9662 224
10.98631 201
11.00642 250
11.02654 209
11.04665 206
11.06676 219
11.08688 222
11.10699 209
11.1271 202
11.14722 223
11.16733 205
11.18745 219
11.20756 211
11.22767 227
11.24779 190
11.2679 212
11.28801 189
11.30813 181
11.32824 228
11.34836 212
11.36847 196
11.38858 214
11.4087 212
11.42881 221
11.44892 208
11.46904 206
11.48915 205
11.50927 219
11.52938 221
11.54949 204
11.56961 219
11.58972 208
11.60983 206
11.62995 235
11.65006 217
11.67017 181
11.69029 202
11.7104 223
11.73052 212
11.75063 211
11.77074 195
11.79086 217
11.81097 201
11.83108 193
11.8512 199
11.87131 213
11.89143 198
11.91154 201
11.93165 211
11.95177 231
11.97188 221
11.99199 218
12.01211 215
12.03222 247
12.05234 214
12.07245 230
12.09256 234
12.11268 217
12.13279 239
12.1529 252
12.17302 231
12.19313 236
12.21324 242
12.23336 207
12.25347 246
12.27359 242
12.2937 242
12.31381 248
12.33393 240
12.35404 250
12.37415 199
12.39427 269
12.41438 246
12.4345 237
12.45461 210
12.47472 226
12.49484 218
12.51495 237
12.53506 239
12.55518 229
12.57529 197
12.5954 188
12.61552 217
12.63563 202
12.65575 187
12.67586 171
12.69597 190
12.71609 211
12.7362 191
12.75631 205
12.77643 193
12.79654 228
12.81666 208
12.83677 216
12.85688 210
12.877 153
12.89711 203
12.91722 211
12.93734 203
12.95745 215
12.97757 195
12.99768 212
13.01779 202
13.03791 209
13.05802 185
13.07813 201
13.09825 198
13.11836 225
13.13847 208
13.15859 184
13.1787 182
13.19882 210
13.21893 175
13.23904 166
13.25916 199
13.27927 182
13.29938 207
13.3195 182
13.33961 195
13.35973 200
13.37984 208
13.39995 187
13.42007 190
13.44018 207
13.46029 192
13.48041 197
13.50052 174
13.52064 194
13.54075 180
13.56086 214
13.58098 170
13.60109 194
13.6212 207
13.64132 190
13.66143 189
13.68154 190
13.70166 172
13.72177 189
13.74189 193
13.762 189
13.78211 175
13.80223 154
13.82234 185
13.84245 202
13.86257 176
13.88268 218
13.9028 166
13.92291 187
13.94302 182
13.96314 175
13.98325 178
14.00336 190
14.02348 208
14.04359 176
14.06371 157
14.08382 183
14.10393 174
14.12405 170
14.14416 151
14.16427 171
14.18439 179
14.2045 161
14.22461 164
14.24473 189
14.26484 187
14.28496 205
14.30507 186
14.32518 175
14.3453 155
14.36541 172
14.38552 172
14.40564 201
14.42575 193
14.44587 159
14.46598 179
14.48609 162
14.50621 193
14.52632 161
14.54643 167
14.56655 189
14.58666 178
14.60677 171
14.62689 181
14.647 167
14.66712 166
14.68723 178
14.70734 148
14.72746 184
14.74757 166
14.76768 180
14.7878 204
14.80791 181
14.82803 164
14.84814 170
14.86825 184
14.88837 171
14.90848 182
14.92859 156
14.94871 215
14.96882 173
14.98894 186
15.00905 163
15.02916 185
15.04928 164
15.06939 175
15.0895 176
15.10962 163
15.12973 193
15.14984 167
15.16996 170
15.19007 160
15.21019 180
15.2303 158
15.25041 176
15.27053 166
15.29064 174
15.31075 175
15.33087 153
15.35098 157
15.3711 158
15.39121 177
15.41132 167
15.43144 182
15.45155 170
15.47166 144
15.49178 156
15.51189 156
15.53201 168
15.55212 179
15.57223 149
15.59235 165
15.61246 186
15.63257 163
15.65269 192
15.6728 133
15.69291 150
15.71303 154
15.73314 142
15.75326 157
15.77337 157
15.79348 162
15.8136 160
15.83371 159
15.85382 138
15.87394 188
15.89405 198
15.91417 171
15.93428 150
15.95439 169
15.97451 171
15.99462 168
16.01473 156
16.03485 162
16.05496 150
16.07508 197
16.09519 174
16.1153 200
16.13542 189
16.15553 167
16.17564 149
16.19576 157
16.21587 182
16.23598 149
16.2561 155
16.27621 176
16.29633 176
16.31644 161
16.33655 150
16.35667 166
16.37678 122
16.39689 188
16.41701 182
16.43712 135
16.45724 157
16.47735 150
16.49746 182
16.51758 164
16.53769 167
16.5578 159
16.57792 141
16.59803 173
16.61814 169
16.63826 158
16.65837 171
16.67849 143
16.6986 163
16.71871 175
16.73883 145
16.75894 158
16.77905 170
16.79917 159
16.81928 149
16.8394 143
16.85951 153
16.87962 163
16.89974 172
16.91985 192
16.93996 159
16.96008 186
16.98019 165
17.00031 135
17.02042 183
17.04053 169
17.06065 206
17.08076 145
17.10087 170
17.12099 170
17.1411 162
17.16121 152
17.18133 160
17.20144 158
17.22156 152
17.24167 136
17.26178 146
17.2819 172
17.30201 152
17.32212 163
17.34224 146
17.36235 158
17.38247 162
17.40258 152
17.42269 161
17.44281 144
17.46292 155
17.48303 165
17.50315 132
17.52326 130
17.54338 144
17.56349 162
17.5836 158
17.60372 150
17.62383 154
17.64394 144
17.66406 166
17.68417 165
17.70428 181
17.7244 148
17.74451 145
17.76463 154
17.78474 156
17.80485 154
17.82497 156
17.84508 162
17.86519 143
17.88531 149
17.90542 141
17.92554 154
17.94565 159
17.96576 145
17.98588 169
18.00599 173
18.0261 164
18.04622 151
18.06633 170
18.08645 158
18.10656 159
18.12667 151
18.14679 148
18.1669 154
18.18701 158
18.20713 151
18.22724 171
18.24735 128
18.26747 151
18.28758 161
18.3077 164
18.32781 151
18.34792 150
18.36804 150
18.38815 153
18.40826 137
18.42838 151
18.44849 186
18.46861 149
18.48872 164
18.50883 154
18.52895 170
18.54906 146
18.56917 156
18.58929 162
18.6094 174
18.62951 161
18.64963 157
18.66974 171
18.68986 155
18.70997 148
18.73008 153
18.7502 189
18.77031 190
18.79042 155
18.81054 183
18.83065 184
18.85077 185
18.87088 178
18.89099 168
18.91111 153
18.93122 139
18.95133 143
18.97145 176
18.99156 154
19.01168 151
19.03179 157
19.0519 181
19.07202 171
19.09213 162
19.11224 166
19.13236 172
19.15247 168
19.17258 144
19.1927 148
19.21281 161
19.23293 160
19.25304 176
19.27315 180
19.29327 151
19.31338 168
19.33349 171
19.35361 170
19.37372 171
19.39384 177
19.41395 149
19.43406 131
19.45418 141
19.47429 164
19.4944 155
19.51452 181
19.53463 149
19.55475 190
19.57486 161
19.59497 175
19.61509 177
19.6352 160
19.65531 190
19.67543 177
19.69554 153
19.71565 177
19.73577 196
19.75588 223
19.776 199
19.79611 171
19.81622 195
19.83634 219
19.85645 196
19.87656 225
19.89668 243
19.91679 246
19.93691 184
19.95702 244
19.97713 200
19.99725 187
20.01736 190
20.03747 194
20.05759 195
20.0777 225
20.09782 232
20.11793 231
20.13804 251
20.15816 256
20.17827 236
20.19838 274
20.2185 287
20.23861 252
20.25872 281
20.27884 291
20.29895 250
20.31907 271
20.33918 272
20.35929 296
20.37941 306
20.39952 337
20.41963 294
20.43975 348
20.45986 331
20.47998 368
20.50009 382
20.5202 411
20.54032 403
20.56043 436
20.58054 430
20.60066 519
20.62077 615
20.64088 622
20.661 842
20.68111 1102
20.70123 1366
20.72134 1859
20.74145 2570
20.76157 3448
20.78168 4666
20.80179 6062
20.82191 7473
20.84202 8320
20.86214 8209
20.88225 7569
20.90236 5876
20.92248 4137
20.94259 2688
20.9627 1682
20.98282 1043
21.00293 779
21.02305 639
21.04316 584
21.06327 577
21.08339 522
21.1035 431
21.12361 417
21.14373 391
21.16384 384
21.18395 334
21.20407 315
21.22418 327
21.2443 291
21.26441 247
21.28452 257
21.30464 280
21.32475 278
21.34486 253
21.36498 305
21.38509 268
21.40521 257
21.42532 251
21.44543 209
21.46555 232
21.48566 230
21.50577 246
21.52589 239
21.546 242
21.56612 224
21.58623 227
21.60634 218
21.62646 211
21.64657 234
21.66668 205
21.6868 224
21.70691 240
21.72702 233
21.74714 235
21.76725 194
21.78737 212
21.80748 190
21.82759 219
21.84771 212
21.86782 195
21.88793 192
21.90805 206
21.92816 249
21.94828 235
21.96839 197
21.9885 174
22.00862 180
22.02873 188
22.04884 195
22.06896 211
22.08907 209
22.10919 190
22.1293 214
22.14941 217
22.16953 197
22.18964 208
22.20975 192
22.22987 206
22.24998 197
22.27009 201
22.29021 218
22.31032 213
22.33044 243
22.35055 203
22.37066 234
22.39078 211
22.41089 193
22.431 178
22.45112 174
22.47123 201
22.49135 193
22.51146 205
22.53157 212
22.55169 216
22.5718 200
22.59191 221
22.61203 198
22.63214 199
22.65225 198
22.67237 192
22.69248 203
22.7126 200
22.73271 198
22.75282 184
22.77294 193
22.79305 185
22.81316 205
22.83328 232
22.85339 182
22.87351 193
22.89362 181
22.91373 193
22.93385 172
22.95396 182
22.97407 164
22.99419 210
23.0143 183
23.03442 218
23.05453 219
23.07464 215
23.09476 201
23.11487 208
23.13498 241
23.1551 243
23.17521 257
23.19532 237
23.21544 212
23.23555 238
23.25567 223
23.27578 211
23.29589 186
23.31601 214
23.33612 212
23.35623 162
23.37635 181
23.39646 185
23.41658 192
23.43669 192
23.4568 188
23.47692 237
23.49703 196
23.51714 212
23.53726 176
23.55737 188
23.57749 193
23.5976 200
23.61771 205
23.63783 188
23.65794 232
23.67805 199
23.69817 222
23.71828 204
23.73839 180
23.75851 203
23.77862 188
23.79874 216
23.81885 210
23.83896 216
23.85908 211
23.87919 237
23.8993 218
23.91942 253
23.93953 257
23.95965 301
23.97976 274
23.99987 307
24.01999 349
24.0401 278
24.06021 249
24.08033 216
24.10044 196
24.12056 197
24.14067 214
24.16078 199
24.1809 191
24.20101 205
24.22112 218
24.24124 191
24.26135 206
24.28146 195
24.30158 184
24.32169 205
24.34181 211
24.36192 195
24.38203 190
24.40215 211
24.42226 209
24.44237 181
24.46249 183
24.4826 183
24.50272 206
24.52283 211
24.54294 192
24.56306 192
24.58317 206
24.60328 198
24.6234 196
24.64351 186
24.66362 204
24.68374 208
24.70385 233
24.72397 229
24.74408 238
24.76419 211
24.78431 185
24.80442 218
24.82453 223
24.84465 228
24.86476 196
24.88488 213
24.90499 202
24.9251 236
24.94522 208
24.96533 210
24.98544 247
25.00556 177
25.02567 241
25.04579 180
25.0659 195
25.08601 207
25.10613 215
25.12624 211
25.14635 217
25.16647 187
25.18658 214
25.20669 257
25.22681 224
25.24692 205
25.26704 210
25.28715 225
25.30726 220
25.32738 217
25.34749 197
25.3676 233
25.38772 198
25.40783 235
25.42795 249
25.44806 235
25.46817 270
25.48829 279
25.5084 298
25.52851 287
25.54863 284
25.56874 303
25.58886 298
25.60897 303
25.62908 321
25.6492 352
25.66931 369
25.68942 417
25.70954 443
25.72965 395
25.74976 433
25.76988 433
25.78999 450
25.81011 425
25.83022 427
25.85033 462
25.87045 459
25.89056 464
25.91067 489
25.93079 476
25.9509 490
25.97102 551
25.99113 556
26.01124 590
26.03136 581
26.05147 588
26.07158 628
26.0917 743
26.11181 662
26.13193 742
26.15204 710
26.17215 825
26.19227 932
26.21238 951
26.23249 1086
26.25261 1087
26.27272 1196
26.29283 1302
26.31295 1469
26.33306 1683
26.35318 1893
26.37329 2211
26.3934 2519
26.41352 3263
26.43363 3997
26.45374 5201
26.47386 6928
26.49397 9379
26.51409 12569
26.5342 16777
26.55431 22043
26.57443 28192
26.59454 33867
26.61465 38332
26.63477 38532
26.65488 34923
26.67499 27737
26.69511 20990
26.71522 15612
26.73534 10263
26.75545 5919
26.77556 3523
26.79568 2564
26.81579 2140
26.8359 1755
26.85602 1581
26.87613 1458
26.89625 1279
26.91636 1185
26.93647 1107
26.95659 945
26.9767 880
26.99681 833
27.01693 760
27.03704 776
27.05716 676
27.07727 690
27.09738 618
27.1175 558
27.13761 527
27.15772 521
27.17784 493
27.19795 500
27.21806 478
27.23818 449
27.25829 501
27.27841 452
27.29852 474
27.31863 465
27.33875 460
27.35886 513
27.37897 511
27.39909 497
27.4192 491
27.43932 498
27.45943 493
27.47954 495
27.49966 506
27.51977 428
27.53988 422
27.56 399
27.58011 381
27.60023 374
27.62034 344
27.64045 323
27.66057 328
27.68068 337
27.70079 306
27.72091 300
27.74102 334
27.76113 310
27.78125 308
27.80136 288
27.82148 287
27.84159 262
27.8617 316
27.88182 289
27.90193 280
27.92204 292
27.94216 286
27.96227 243
27.98239 324
28.0025 249
28.02261 297
28.04273 268
28.06284 286
28.08295 265
28.10307 248
28.12318 256
28.1433 240
28.16341 255
28.18352 254
28.20364 241
28.22375 247
28.24386 261
28.26398 237
28.28409 241
28.3042 230
28.32432 240
28.34443 239
28.36455 252
28.38466 246
28.40477 258
28.42489 253
28.445 237
28.46511 234
28.48523 261
28.50534 219
28.52546 227
28.54557 222
28.56568 232
28.5858 231
28.60591 206
28.62602 227
28.64614 224
28.66625 202
28.68636 232
28.70648 220
28.72659 245
28.74671 247
28.76682 209
28.78693 220
28.80705 246
28.82716 213
28.84727 251
28.86739 245
28.8875 233
28.90762 218
28.92773 226
28.94784 215
28.96796 227
28.98807 222
29.00818 202
29.0283 260
29.04841 198
29.06853 224
29.08864 223
29.10875 232
29.12887 202
29.14898 219
29.16909 241
29.18921 215
29.20932 198
29.22943 220
29.24955 219
29.26966 219
29.28978 231
29.30989 218
29.33 213
29.35012 234
29.37023 255
29.39034 237
29.41046 227
29.43057 234
29.45069 220
29.4708 211
29.49091 225
29.51103 202
29.53114 230
29.55125 209
29.57137 221
29.59148 233
29.6116 203
29.63171 213
29.65182 210
29.67194 197
29.69205 184
29.71216 192
29.73228 178
29.75239 191
29.7725 209
29.79262 209
29.81273 186
29.83285 179
29.85296 205
29.87307 209
29.89319 209
29.9133 204
29.93341 189
29.95353 216
29.97364 204
29.99376 187
30.01387 202
30.03398 191
30.0541 222
30.07421 224
30.09432 215
30.11444 186
30.13455 205
30.15467 202
30.17478 205
30.19489 189
30.21501 210
30.23512 223
30.25523 216
30.27535 188
30.29546 226
30.31557 182
30.33569 211
30.3558 188
30.37592 194
30.39603 170
30.41614 194
30.43626 182
30.45637 196
30.47648 170
30.4966 180
30.51671 229
30.53683 194
30.55694 187
30.57705 201
30.59717 212
30.61728 197
30.63739 191
30.65751 190
30.67762 207
30.69773 209
30.71785 212
30.73796 217
30.75808 202
30.77819 178
30.7983 192
30.81842 201
30.83853 205
30.85864 185
30.87876 167
30.89887 191
30.91899 185
30.9391 193
30.95921 174
30.97933 175
30.99944 167
31.01955 172
31.03967 171
31.05978 178
31.0799 179
31.10001 166
31.12012 170
31.14024 167
31.16035 170
31.18046 173
31.20058 179
31.22069 177
31.2408 148
31.26092 146
31.28103 147
31.30115 147
31.32126 180
31.34137 148
31.36149 172
31.3816 156
31.40171 185
31.42183 168
31.44194 161
31.46206 135
31.48217 169
31.50228 169
31.5224 180
31.54251 140
31.56262 150
31.58274 136
31.60285 158
31.62297 177
31.64308 155
31.66319 143
31.68331 142
31.70342 182
31.72353 137
31.74365 155
31.76376 138
31.78387 138
31.80399 155
31.8241 146
31.84422 184
31.86433 155
31.88444 138
31.90456 143
31.92467 144
31.94478 174
31.9649 157
31.98501 163
32.00513 155
32.02524 190
32.04535 135
32.06547 158
32.08558 165
32.10569 159
32.12581 160
32.14592 149
32.16604 140
32.18615 182
32.20626 158
32.22638 159
32.24649 177
32.2666 163
32.28672 154
32.30683 171
32.32694 143
32.34706 165
32.36717 165
32.38729 174
32.4074 164
32.42751 166
32.44763 156
32.46774 174
32.48785 128
32.50797 138
32.52808 147
32.5482 157
32.56831 157
32.58842 152
32.60854 168
32.62865 123
32.64876 134
32.66888 145
32.68899 157
32.7091 171
32.72922 161
32.74933 141
32.76945 154
32.78956 158
32.80967 141
32.82979 139
32.8499 145
32.87001 146
32.89013 158
32.91024 147
32.93036 150
32.95047 137
32.97058 148
32.9907 164
33.01081 146
33.03092 142
33.05104 165
33.07115 155
33.09127 135
33.11138 144
33.13149 141
33.15161 145
33.17172 136
33.19183 139
33.21195 145
33.23206 130
33.25217 122
33.27229 138
33.2924 150
33.31252 180
33.33263 145
33.35274 134
33.37286 150
33.39297 135
33.41308 143
33.4332 168
33.45331 135
33.47343 126
33.49354 169
33.51365 152
33.53377 150
33.55388 121
33.57399 150
33.59411 127
33.61422 146
33.63434 123
33.65445 139
33.67456 116
33.69468 129
33.71479 146
33.7349 145
33.75502 122
33.77513 163
33.79524 117
33.81536 139
33.83547 133
33.85559 116
33.8757 138
33.89581 143
33.91593 129
33.93604 130
33.95615 129
33.97627 122
33.99638 148
34.0165 133
34.03661 144
34.05672 160
34.07684 135
34.09695 128
34.11706 142
34.13718 155
34.15729 146
34.17741 150
34.19752 139
34.21763 147
34.23775 168
34.25786 136
34.27797 147
34.29809 139
34.3182 119
34.33831 138
34.35843 136
34.37854 146
34.39866 154
34.41877 146
34.43888 144
34.459 155
34.47911 134
34.49922 138
34.51934 161
34.53945 160
34.55957 138
34.57968 161
34.59979 141
34.61991 141
34.64002 156
34.66013 169
34.68025 160
34.70036 134
34.72047 172
34.74059 149
34.7607 166
34.78082 164
34.80093 148
34.82104 168
34.84116 161
34.86127 172
34.88138 178
34.9015 177
34.92161 136
34.94173 164
34.96184 189
34.98195 157
35.00207 159
35.02218 146
35.04229 172
35.06241 167
35.08252 158
35.10264 157
35.12275 155
35.14286 168
35.16298 172
35.18309 151
35.2032 152
35.22332 154
35.24343 149
35.26354 150
35.28366 169
35.30377 169
35.32389 177
35.344 144
35.36411 164
35.38423 160
35.40434 162
35.42445 172
35.44457 184
35.46468 168
35.4848 166
35.50491 166
35.52502 165
35.54514 214
35.56525 172
35.58536 176
35.60548 166
35.62559 196
35.64571 151
35.66582 177
35.68593 163
35.70605 155
35.72616 156
35.74627 187
35.76639 166
35.7865 171
35.80661 178
35.82673 187
35.84684 176
35.86696 164
35.88707 162
35.90718 177
35.9273 175
35.94741 192
35.96752 169
35.98764 156
36.00775 181
36.02787 178
36.04798 178
36.06809 176
36.08821 216
36.10832 197
36.12843 219
36.14855 250
36.16866 226
36.18878 246
36.20889 256
36.229 278
36.24912 301
36.26923 333
36.28934 319
36.30946 424
36.32957 498
36.34968 600
36.3698 749
36.38991 901
36.41003 1070
36.43014 1373
36.45025 1742
36.47037 2134
36.49048 2283
36.51059 2619
36.53071 2621
36.55082 2298
36.57094 1960
36.59105 1644
36.61116 1373
36.63128 1198
36.65139 881
36.6715 620
36.69162 424
36.71173 345
36.73184 277
36.75196 281
36.77207 256
36.79219 265
36.8123 219
36.83241 227
36.85253 192
36.87264 217
36.89275 188
36.91287 219
36.93298 215
36.9531 186
36.97321 174
36.99332 175
37.01344 172
37.03355 158
37.05366 152
37.07378 170
37.09389 152
37.11401 165
37.13412 146
37.15423 147
37.17435 163
37.19446 159
37.21457 159
37.23469 166
37.2548 144
37.27491 167
37.29503 170
37.31514 143
37.33526 154
37.35537 160
37.37548 181
37.3956 142
37.41571 136
37.43582 168
37.45594 158
37.47605 146
37.49617 164
37.51628 136
37.53639 162
37.55651 153
37.57662 162
37.59673 154
37.61685 160
37.63696 154
37.65708 143
37.67719 150
37.6973 151
37.71742 165
37.73753 159
37.75764 149
37.77776 175
37.79787 168
37.81798 156
37.8381 159
37.85821 154
37.87833 142
37.89844 119
37.91855 166
37.93867 137
37.95878 149
37.97889 147
37.99901 156
38.01912 154
38.03924 157
38.05935 146
38.07946 152
38.09958 173
38.11969 154
38.1398 149
38.15992 155
38.18003 153
38.20015 151
38.22026 153
38.24037 184
38.26049 158
38.2806 151
38.30071 144
38.32083 159
38.34094 154
38.36105 157
38.38117 143
38.40128 137
38.4214 150
38.44151 155
38.46162 158
38.48174 164
38.50185 159
38.52196 163
38.54208 160
38.56219 183
38.58231 177
38.60242 184
38.62253 178
38.64265 161
38.66276 165
38.68287 151
38.70299 169
38.7231 150
38.74321 153
38.76333 162
38.78344 160
38.80356 161
38.82367 146
38.84378 170
38.8639 183
38.88401 171
38.90412 168
38.92424 200
38.94435 163
38.96447 186
38.98458 180
39.00469 208
39.02481 196
39.04492 203
39.06503 215
39.08515 216
39.10526 218
39.12538 256
39.14549 277
39.1656 299
39.18572 298
39.20583 325
39.22594 437
39.24606 478
39.26617 573
39.28628 683
39.3064 836
39.32651 1028
39.34663 1238
39.36674 1531
39.38685 1790
39.40697 2196
39.42708 2319
39.44719 2400
39.46731 2160
39.48742 1896
39.50754 1503
39.52765 1332
39.54776 1236
39.56788 1039
39.58799 758
39.6081 519
39.62822 388
39.64833 331
39.66845 263
39.68856 277
39.70867 245
39.72879 265
39.7489 219
39.76901 225
39.78913 224
39.80924 192
39.82935 206
39.84947 228
39.86958 199
39.8897 198
39.90981 231
39.92992 199
39.95004 245
39.97015 241
39.99026 240
40.01038 243
40.03049 257
40.05061 308
40.07072 336
40.09083 367
40.11095 426
40.13106 439
40.15117 614
40.17129 683
40.1914 856
40.21152 1056
40.23163 1206
40.25174 1199
40.27186 1149
40.29197 1115
40.31208 891
40.3322 794
40.35231 733
40.37242 642
40.39254 576
40.41265 396
40.43277 329
40.45288 287
40.47299 249
40.49311 208
40.51322 187
40.53333 180
40.55345 167
40.57356 204
40.59368 185
40.61379 184
40.6339 160
40.65402 164
40.67413 163
40.69424 147
40.71436 141
40.73447 150
40.75458 153
40.7747 154
40.79481 169
40.81493 133
40.83504 147
40.85515 161
40.87527 146
40.89538 134
40.91549 141
40.93561 154
40.95572 162
40.97584 165
40.99595 157
41.01606 161
41.03618 147
41.05629 144
41.0764 154
41.09652 155
41.11663 158
41.13675 145
41.15686 158
41.17697 171
41.19709 141
41.2172 148
41.23731 157
41.25743 158
41.27754 154
41.29765 160
41.31777 169
41.33788 165
41.358 159
41.37811 143
41.39822 162
41.41834 132
41.43845 153
41.45856 162
41.47868 178
41.49879 171
41.51891 169
41.53902 180
41.55913 181
41.57925 160
41.59936 166
41.61947 156
41.63959 178
41.6597 171
41.67982 164
41.69993 183
41.72004 184
41.74016 191
41.76027 204
41.78038 193
41.8005 180
41.82061 211
41.84072 182
41.86084 191
41.88095 176
41.90107 179
41.92118 148
41.94129 176
41.96141 170
41.98152 161
42.00163 193
42.02175 193
42.04186 189
42.06198 222
42.08209 195
42.1022 254
42.12232 228
42.14243 227
42.16254 275
42.18266 320
42.20277 338
42.22289 384
42.243 431
42.26311 499
42.28323 598
42.30334 779
42.32345 878
42.34357 1098
42.36368 1263
42.38379 1493
42.40391 1575
42.42402 1588
42.44414 1515
42.46425 1403
42.48436 1160
42.50448 921
42.52459 938
42.5447 805
42.56482 657
42.58493 493
42.60505 356
42.62516 261
42.64527 251
42.66539 211
42.6855 216
42.70561 186
42.72573 217
42.74584 184
42.76595 168
42.78607 205
42.80618 159
42.8263 173
42.84641 164
42.86652 154
42.88664 168
42.90675 162
42.92686 147
42.94698 143
42.96709 153
42.98721 152
43.00732 143
43.02743 155
43.04755 161
43.06766 149
43.08777 134
43.10789 150
43.128 159
43.14812 153
43.16823 157
43.18834 153
43.20846 132
43.22857 164
43.24868 140
43.2688 140
43.28891 165
43.30902 122
43.32914 130
43.34925 144
43.36937 137
43.38948 166
43.40959 136
43.42971 132
43.44982 132
43.46993 152
43.49005 142
43.51016 135
43.53028 131
43.55039 122
43.5705 143
43.59062 139
43.61073 158
43.63084 133
43.65096 155
43.67107 130
43.69119 141
43.7113 121
43.73141 134
43.75153 116
43.77164 146
43.79175 129
43.81187 130
43.83198 127
43.85209 127
43.87221 120
43.89232 115
43.91244 136
43.93255 132
43.95266 133
43.97278 135
43.99289 136
44.013 131
44.03312 158
44.05323 126
44.07335 152
44.09346 126
44.11357 123
44.13369 156
44.1538 144
44.17391 150
44.19403 136
44.21414 133
44.23426 155
44.25437 146
44.27448 127
44.2946 128
44.31471 139
44.33482 115
44.35494 136
44.37505 125
44.39516 149
44.41528 139
44.43539 131
44.45551 120
44.47562 142
44.49573 119
44.51585 110
44.53596 143
44.55607 131
44.57619 127
44.5963 122
44.61642 138
44.63653 146
44.65664 125
44.67676 150
44.69687 150
44.71698 126
44.7371 144
44.75721 135
44.77732 144
44.79744 138
44.81755 114
44.83767 159
44.85778 141
44.87789 124
44.89801 148
44.91812 149
44.93823 146
44.95835 147
44.97846 145
44.99858 136
45.01869 129
45.0388 150
45.05892 137
45.07903 147
45.09914 147
45.11926 130
45.13937 130
45.15949 140
45.1796 139
45.19971 159
45.21983 140
45.23994 139
45.26005 137
45.28017 174
45.30028 154
45.32039 157
45.34051 170
45.36062 162
45.38074 196
45.40085 199
45.42096 183
45.44108 199
45.46119 249
45.4813 224
45.50142 238
45.52153 273
45.54165 250
45.56176 298
45.58187 350
45.60199 423
45.6221 445
45.64221 526
45.66233 647
45.68244 775
45.70256 955
45.72267 1002
45.74278 1106
45.7629 1094
45.78301 1089
45.80312 932
45.82324 787
45.84335 639
45.86346 587
45.88358 592
45.90369 541
45.92381 465
45.94392 326
45.96403 245
45.98415 213
46.00426 178
46.02437 186
46.04449 169
46.0646 185
46.08472 189
46.10483 185
46.12494 141
46.14506 140
46.16517 131
46.18528 145
46.2054 132
46.22551 133
46.24563 134
46.26574 140
46.28585 130
46.30597 129
46.32608 125
46.34619 145
46.36631 123
46.38642 149
46.40653 129
46.42665 147
46.44676 129
46.46688 133
46.48699 105
46.5071 136
46.52722 113
46.54733 128
46.56744 125
46.58756 114
46.60767 125
46.62779 103
46.6479 104
46.66801 137
46.68813 121
46.70824 119
46.72835 118
46.74847 119
46.76858 130
46.78869 112
46.80881 117
46.82892 116
46.84904 125
46.86915 128
46.88926 135
46.90938 128
46.92949 113
46.9496 136
46.96972 131
46.98983 128
47.00995 138
47.03006 145
47.05017 112
47.07029 133
47.0904 127
47.11051 146
47.13063 123
47.15074 136
47.17086 145
47.19097 125
47.21108 125
47.2312 111
47.25131 128
47.27142 135
47.29154 122
47.31165 122
47.33176 126
47.35188 118
47.37199 134
47.39211 136
47.41222 148
47.43233 140
47.45245 126
47.47256 124
47.49267 102
47.51279 140
47.5329 127
47.55302 112
47.57313 132
47.59324 128
47.61336 136
47.63347 127
47.65358 126
47.6737 131
47.69381 131
47.71393 138
47.73404 116
47.75415 108
47.77427 122
47.79438 118
47.81449 130
47.83461 112
47.85472 117
47.87483 116
47.89495 131
47.91506 122
47.93518 121
47.95529 104
47.9754 128
47.99552 136
48.01563 137
48.03574 110
48.05586 129
48.07597 112
48.09609 105
48.1162 102
48.13631 116
48.15643 134
48.17654 126
48.19665 110
48.21677 111
48.23688 135
48.257 136
48.27711 125
48.29722 129
48.31734 119
48.33745 123
48.35756 125
48.37768 131
48.39779 119
48.4179 106
48.43802 116
48.45813 144
48.47825 124
48.49836 120
48.51847 124
48.53859 130
48.5587 141
48.57881 125
48.59893 138
48.61904 156
48.63916 140
48.65927 158
48.67938 136
48.6995 144
48.71961 125
48.73972 137
48.75984 161
48.77995 142
48.80006 135
48.82018 137
48.84029 141
48.86041 135
48.88052 132
48.90063 131
48.92075 134
48.94086 154
48.96097 154
48.98109 147
49.0012 152
49.02132 136
49.04143 127
49.06154 132
49.08166 143
49.10177 146
49.12188 155
49.142 148
49.16211 124
49.18223 159
49.20234 154
49.22245 156
49.24257 160
49.26268 150
49.28279 176
49.30291 160
49.32302 162
49.34313 157
49.36325 149
49.38336 171
49.40348 174
49.42359 165
49.4437 159
49.46382 174
49.48393 166
49.50404 157
49.52416 174
49.54427 199
49.56439 196
49.5845 200
49.60461 177
49.62473 215
49.64484 207
49.66495 243
49.68507 260
49.70518 279
49.7253 303
49.74541 288
49.76552 349
49.78564 390
49.80575 414
49.82586 439
49.84598 530
49.86609 574
49.8862 708
49.90632 811
49.92643 989
49.94655 1144
49.96666 1431
49.98677 1643
50.00689 2041
50.027 2473
50.04711 2875
50.06723 3184
50.08734 3460
50.10746 3577
50.12757 3374
50.14768 2992
50.1678 2430
50.18791 2139
50.20802 1900
50.22814 1902
50.24825 1668
50.26837 1465
50.28848 1102
50.30859 789
50.32871 493
50.34882 425
50.36893 387
50.38905 339
50.40916 308
50.42927 350
50.44939 249
50.4695 293
50.48962 288
50.50973 272
50.52984 323
50.54996 285
50.57007 285
50.59018 266
50.6103 254
50.63041 273
50.65053 245
50.67064 250
50.69075 221
50.71087 215
50.73098 204
50.75109 199
50.77121 193
50.79132 173
50.81143 169
50.83155 168
50.85166 179
50.87178 150
50.89189 156
50.912 143
50.93212 149
50.95223 156
50.97234 131
50.99246 154
51.01257 144
51.03269 121
51.0528 135
51.07291 135
51.09303 135
51.11314 141
51.13325 138
51.15337 133
51.17348 134
51.1936 109
51.21371 140
51.23382 108
51.25394 146
51.27405 131
51.29416 139
51.31428 130
51.33439 135
51.3545 108
51.37462 128
51.39473 113
51.41485 121
51.43496 131
51.45507 120
51.47519 109
51.4953 116
51.51541 109
51.53553 123
51.55564 112
51.57576 110
51.59587 129
51.61598 128
51.6361 129
51.65621 128
51.67632 126
51.69644 97
51.71655 120
51.73667 119
51.75678 115
51.77689 118
51.79701 121
51.81712 121
51.83723 112
51.85735 118
51.87746 102
51.89757 109
51.91769 115
51.9378 107
51.95792 109
51.97803 114
51.99814 119
52.01826 106
52.03837 107
52.05848 140
52.0786 114
52.09871 107
52.11883 137
52.13894 124
52.15905 114
52.17917 98
52.19928 126
52.21939 119
52.23951 99
52.25962 121
52.27974 127
52.29985 118
52.31996 113
52.34008 107
52.36019 128
52.3803 117
52.40042 121
52.42053 98
52.44064 110
52.46076 103
52.48087 115
52.50099 121
52.5211 129
52.54121 121
52.56133 120
52.58144 100
52.60155 116
52.62167 126
52.64178 109
52.6619 131
52.68201 137
52.70212 111
52.72224 122
52.74235 98
52.76246 121
52.78258 121
52.80269 108
52.8228 123
52.84292 121
52.86303 127
52.88315 123
52.90326 124
52.92337 134
52.94349 114
52.9636 108
52.98371 106
53.00383 115
53.02394 133
53.04406 126
53.06417 136
53.08428 138
53.1044 127
53.12451 118
53.14462 117
53.16474 113
53.18485 117
53.20497 121
53.22508 133
53.24519 118
53.26531 120
53.28542 126
53.30553 103
53.32565 122
53.34576 126
53.36587 109
53.38599 123
53.4061 124
53.42622 128
53.44633 127
53.46644 132
53.48656 132
53.50667 139
53.52678 117
53.5469 125
53.56701 119
53.58713 130
53.60724 138
53.62735 137
53.64747 126
53.66758 128
53.68769 118
53.70781 142
53.72792 109
53.74804 128
53.76815 133
53.78826 119
53.80838 129
53.82849 141
53.8486 144
53.86872 129
53.88883 114
53.90894 121
53.92906 131
53.94917 136
53.96929 119
53.9894 134
54.00951 146
54.02963 124
54.04974 129
54.06985 154
54.08997 121
54.11008 124
54.1302 132
54.15031 159
54.17042 137
54.19054 115
54.21065 144
54.23076 138
54.25088 135
54.27099 126
54.29111 130
54.31122 150
54.33133 166
54.35145 153
54.37156 168
54.39167 175
54.41179 136
54.4319 186
54.45201 153
54.47213 177
54.49224 189
54.51236 179
54.53247 205
54.55258 234
54.5727 237
54.59281 288
54.61292 295
54.63304 328
54.65315 315
54.67327 418
54.69338 489
54.71349 598
54.73361 663
54.75372 806
54.77383 897
54.79395 1023
54.81406 1043
54.83417 1063
54.85429 1000
54.8744 927
54.89452 783
54.91463 698
54.93474 612
54.95486 620
54.97497 597
54.99508 617
55.0152 547
55.03531 457
55.05543 380
55.07554 344
55.09565 307
55.11577 271
55.13588 263
55.15599 303
55.17611 359
55.19622 381
55.21634 442
55.23645 481
55.25656 549
55.27668 545
55.29679 561
55.3169 514
55.33702 455
55.35713 386
55.37724 383
55.39736 307
55.41747 305
55.43759 333
55.4577 312
55.47781 266
55.49793 231
55.51804 216
55.53815 189
55.55827 161
55.57838 139
55.5985 156
55.61861 144
55.63872 141
55.65884 128
55.67895 123
55.69906 129
55.71918 134
55.73929 121
55.75941 129
55.77952 128
55.79963 119
55.81975 123
55.83986 120
55.85997 128
55.88009 122
55.9002 104
55.92031 131
55.94043 114
55.96054 123
55.98066 113
56.00077 111
56.02088 131
56.041 115
56.06111 113
56.08122 120
56.10134 119
56.12145 116
56.14157 112
56.16168 104
56.18179 109
56.20191 124
56.22202 113
56.24213 106
56.26225 106
56.28236 122
56.30248 124
56.32259 109
56.3427 107
56.36282 111
56.38293 111
56.40304 114
56.42316 119
56.44327 120
56.46338 128
56.4835 125
56.50361 118
56.52373 105
56.54384 102
56.56395 107
56.58407 104
56.60418 114
56.62429 119
56.64441 132
56.66452 116
56.68464 119
56.70475 122
56.72486 119
56.74498 107
56.76509 102
56.7852 96
56.80532 136
56.82543 130
56.84554 114
56.86566 132
56.88577 122
56.90589 115
56.926 116
56.94611 106
56.96623 128
56.98634 105
57.00645 127
57.02657 106
57.04668 127
57.0668 111
57.08691 128
57.10702 142
57.12714 145
57.14725 170
57.16736 183
57.18748 169
57.20759 168
57.22771 175
57.24782 141
57.26793 142
57.28805 164
57.30816 124
57.32827 122
57.34839 135
57.3685 118
57.38861 132
57.40873 121
57.42884 134
57.44896 118
57.46907 123
57.48918 103
57.5093 133
57.52941 110
57.54952 116
57.56964 107
57.58975 118
57.60987 127
57.62998 106
57.65009 100
57.67021 138
57.69032 97
57.71043 123
57.73055 122
57.75066 131
57.77078 98
57.79089 105
57.811 128
57.83112 118
57.85123 112
57.87134 128
57.89146 112
57.91157 118
57.93168 117
57.9518 136
57.97191 112
57.99203 128
58.01214 118
58.03225 116
58.05237 123
58.07248 128
58.09259 117
58.11271 109
58.13282 103
58.15294 121
58.17305 138
58.19316 137
58.21328 135
58.23339 117
58.2535 122
58.27362 127
58.29373 115
58.31385 137
58.33396 137
58.35407 118
58.37419 103
58.3943 139
58.41441 132
58.43453 121
58.45464 105
58.47475 115
58.49487 104
58.51498 106
58.5351 113
58.55521 111
58.57532 142
58.59544 134
58.61555 117
58.63566 116
58.65578 99
58.67589 124
58.69601 136
58.71612 110
58.73623 128
58.75635 129
58.77646 106
58.79657 105
58.81669 119
58.8368 109
58.85691 115
58.87703 117
58.89714 141
58.91726 155
58.93737 141
58.95748 136
58.9776 137
58.99771 115
59.01782 129
59.03794 126
59.05805 150
59.07817 108
59.09828 131
59.11839 129
59.13851 125
59.15862 143
59.17873 138
59.19885 113
59.21896 131
59.23908 155
59.25919 146
59.2793 137
59.29942 161
59.31953 145
59.33964 154
59.35976 173
59.37987 167
59.39998 162
59.4201 192
59.44021 169
59.46033 208
59.48044 212
59.50055 190
59.52067 220
59.54078 233
59.56089 272
59.58101 296
59.60112 311
59.62124 345
59.64135 376
59.66146 396
59.68158 463
59.70169 604
59.7218 638
59.74192 709
59.76203 913
59.78215 1012
59.80226 1174
59.82237 1478
59.84249 1629
59.8626 1937
59.88271 2115
59.90283 2177
59.92294 2129
59.94305 1945
59.96317 1610
59.98328 1467
60.0034 1251
60.02351 1151
60.04362 1144
60.06374 1209
60.08385 1105
60.10396 932
60.12408 849
60.14419 602
60.16431 439
60.18442 358
60.20453 300
60.22465 255
60.24476 205
60.26487 179
60.28499 196
60.3051 199
60.32522 190
60.34533 184
60.36544 173
60.38556 137
60.40567 154
60.42578 163
60.4459 144
60.46601 161
60.48612 164
60.50624 135
60.52635 149
60.54647 138
60.56658 129
60.58669 131
60.60681 144
60.62692 122
60.64703 122
60.66715 128
60.68726 149
60.70738 132
60.72749 136
60.7476 140
60.76772 119
60.78783 134
60.80794 128
60.82806 121
60.84817 124
60.86828 108
60.8884 120
60.90851 123
60.92863 118
60.94874 144
60.96885 123
60.98897 117
61.00908 126
61.02919 124
61.04931 128
61.06942 145
61.08954 122
61.10965 127
61.12976 107
61.14988 130
61.16999 138
61.1901 115
61.21022 102
61.23033 110
61.25045 132
61.27056 117
61.29067 110
61.31079 98
61.3309 133
61.35101 107
61.37113 119
61.39124 112
61.41135 100
61.43147 111
61.45158 114
61.4717 112
61.49181 87
61.51192 121
61.53204 117
61.55215 115
61.57226 111
61.59238 95
61.61249 115
61.63261 115
61.65272 109
61.67283 119
61.69295 131
61.71306 114
61.73317 106
61.75329 113
61.7734 92
61.79352 108
61.81363 116
61.83374 116
61.85386 99
61.87397 132
61.89408 124
61.9142 107
61.93431 126
61.95442 112
61.97454 113
61.99465 128
62.01477 132
62.03488 120
62.05499 110
62.07511 121
62.09522 126
62.11533 123
62.13545 129
62.15556 102
62.17568 119
62.19579 144
62.2159 123
62.23602 128
62.25613 136
62.27624 113
62.29636 132
62.31647 119
62.33659 138
62.3567 114
62.37681 145
62.39693 117
62.41704 129
62.43715 119
62.45727 122
62.47738 115
62.49749 120
62.51761 124
62.53772 129
62.55784 124
62.57795 101
62.59806 108
62.61818 98
62.63829 123
62.6584 109
62.67852 114
62.69863 116
62.71875 113
62.73886 79
62.75897 126
62.77909 115
62.7992 116
62.81931 106
62.83943 107
62.85954 118
62.87965 104
62.89977 143
62.91988 119
62.94 105
62.96011 115
62.98022 108
63.00034 113
63.02045 126
63.04056 105
63.06068 120
63.08079 104
63.10091 104
63.12102 95
63.14113 107
63.16125 98
63.18136 103
63.20147 94
63.22159 120
63.2417 107
63.26182 120
63.28193 118
63.30204 103
63.32216 92
63.34227 100
63.36238 111
63.3825 99
63.40261 106
63.42272 121
63.44284 120
63.46295 113
63.48307 104
63.50318 114
63.52329 118
63.54341 124
63.56352 136
63.58363 145
63.60375 153
63.62386 142
63.64398 158
63.66409 158
63.6842 135
63.70432 160
63.72443 161
63.74454 164
63.76466 179
63.78477 199
63.80489 223
63.825 237
63.84511 264
63.86523 281
63.88534 333
63.90545 342
63.92557 384
63.94568 471
63.96579 445
63.98591 473
64.00602 451
64.02614 389
64.04625 381
64.06636 308
64.08648 276
64.10659 296
64.1267 286
64.14682 281
64.16693 287
64.18705 247
64.20716 241
64.22727 199
64.24739 182
64.2675 147
64.28761 129
64.30773 139
64.32784 122
64.34796 112
64.36807 118
64.38818 130
64.4083 115
64.42841 111
64.44852 114
64.46864 93
64.48875 102
64.50886 110
64.52898 104
64.54909 106
64.56921 113
64.58932 107
64.60943 107
64.62955 126
64.64966 103
64.66977 100
64.68989 108
64.71 120
64.73012 125
64.75023 109
64.77034 100
64.79046 111
64.81057 105
64.83068 115
64.8508 118
64.87091 115
64.89102 132
64.91114 127
64.93125 128
64.95137 117
64.97148 108
64.99159 127
65.01171 113
65.03182 112
65.05193 122
65.07205 112
65.09216 102
65.11228 93
65.13239 113
65.1525 109
65.17262 106
65.19273 99
65.21284 87
65.23296 115
65.25307 125
65.27319 114
65.2933 96
65.31341 143
65.33353 122
65.35364 104
65.37375 130
65.39387 123
65.41398 131
65.43409 114
65.45421 113
65.47432 128
65.49444 142
65.51455 125
65.53466 118
65.55478 132
65.57489 161
65.595 141
65.61512 154
65.63523 178
65.65535 184
65.67546 168
65.69557 190
65.71569 202
65.7358 196
65.75591 196
65.77603 175
65.79614 156
65.81626 142
65.83637 170
65.85648 157
65.8766 168
65.89671 175
65.91682 155
65.93694 147
65.95705 150
65.97716 134
65.99728 144
66.01739 130
66.03751 111
66.05762 136
66.07773 143
66.09785 108
66.11796 113
66.13807 128
66.15819 111
66.1783 124
66.19842 110
66.21853 114
66.23864 118
66.25876 126
66.27887 122
66.29898 105
66.3191 119
66.33921 129
66.35933 131
66.37944 114
66.39955 133
66.41967 138
66.43978 123
66.45989 130
66.48001 126
66.50012 122
66.52023 120
66.54035 128
66.56046 117
66.58058 133
66.60069 133
66.6208 141
66.64092 121
66.66103 116
66.68114 122
66.70126 128
66.72137 126
66.74149 130
66.7616 135
66.78171 136
66.80183 134
66.82194 116
66.84205 134
66.86217 153
66.88228 114
66.90239 124
66.92251 119
66.94262 134
66.96274 131
66.98285 131
67.00296 147
67.02308 126
67.04319 143
67.0633 131
67.08342 147
67.10353 136
67.12365 149
67.14376 136
67.16387 148
67.18399 164
67.2041 176
67.22421 176
67.24433 183
67.26444 171
67.28456 182
67.30467 230
67.32478 200
67.3449 229
67.36501 235
67.38512 235
67.40524 254
67.42535 330
67.44546 332
67.46558 377
67.48569 396
67.50581 498
67.52592 546
67.54603 650
67.56615 701
67.58626 785
67.60637 881
67.62649 1029
67.6466 1142
67.66672 1224
67.68683 1289
67.70694 1277
67.72706 1200
67.74717 1093
67.76728 950
67.7874 864
67.80751 860
67.82763 895
67.84774 916
67.86785 988
67.88797 1034
67.90808 1082
67.92819 1051
67.94831 1107
67.96842 1116
67.98853 1182
68.00865 1259
68.02876 1411
68.04888 1570
68.06899 1629
68.0891 1773
68.10922 1777
68.12933 1636
68.14944 1582
68.16956 1490
68.18967 1360
68.20979 1465
68.2299 1415
68.25001 1544
68.27013 1585
68.29024 1517
68.31035 1318
68.33047 1165
68.35058 981
68.3707 744
68.39081 746
68.41092 614
68.43104 619
68.45115 590
68.47126 570
68.49138 485
68.51149 421
68.5316 364
68.55172 299
68.57183 235
68.59195 240
68.61206 214
68.63217 204
68.65229 176
68.6724 192
68.69251 173
68.71263 158
68.73274 145
68.75286 148
68.77297 151
68.79308 141
68.8132 132
68.83331 143
68.85342 140
68.87354 139
68.89365 164
68.91376 127
68.93388 127
68.95399 145
68.97411 141
68.99422 125
69.01433 138
69.03445 120
69.05456 131
69.07467 118
69.09479 122
69.1149 148
69.13502 121
69.15513 121
69.17524 117
69.19536 118
69.21547 125
69.23558 110
69.2557 92
69.27581 121
69.29593 98
69.31604 129
69.33615 121
69.35627 119
69.37638 110
69.39649 101
69.41661 130
69.43672 128
69.45683 114
69.47695 122
69.49706 123
69.51718 114
69.53729 116
69.5574 108
69.57752 108
69.59763 118
69.61774 100
69.63786 101
69.65797 92
69.67809 95
69.6982 128
69.71831 106
69.73843 118
69.75854 103
69.77865 95
69.79877 113
69.81888 103
69.839 116
69.85911 107
69.87922 121
69.89934 104
69.91945 107
69.93956 110
69.95968 116
69.97979 103
69.9999 96
70.02002 112
70.04013 116
70.06025 112
70.08036 89
70.10047 111
70.12059 91
70.1407 114
70.16081 102
70.18093 118
70.20104 112
70.22116 91
70.24127 103
70.26138 111
70.2815 103
70.30161 102
70.32172 102
70.34184 82
70.36195 99
70.38207 91
70.40218 98
70.42229 102
70.44241 106
70.46252 105
70.48263 112
70.50275 132
70.52286 115
70.54297 102
70.56309 100
70.5832 113
70.60332 102
70.62343 105
70.64354 106
70.66366 114
70.68377 91
70.70388 109
70.724 113
70.74411 104
70.76423 102
70.78434 91
70.80445 94
70.82457 101
70.84468 97
70.86479 104
70.88491 112
70.90502 97
70.92513 107
70.94525 90
70.96536 113
70.98548 91
71.00559 84
71.0257 89
71.04582 91
71.06593 96
71.08604 89
71.10616 95
71.12627 99
71.14639 97
71.1665 113
71.18661 113
71.20673 101
71.22684 85
71.24695 119
71.26707 86
71.28718 117
71.3073 83
71.32741 106
71.34752 92
71.36764 113
71.38775 107
71.40786 89
71.42798 83
71.44809 101
71.4682 83
71.48832 110
71.50843 100
71.52855 106
71.54866 112
71.56877 110
71.58889 90
71.609 98
71.62911 99
71.64923 107
71.66934 93
71.68946 108
71.70957 102
71.72968 108
71.7498 116
71.76991 94
71.79002 92
71.81014 93
71.83025 97
71.85037 100
71.87048 102
71.89059 108
71.91071 104
71.93082 113
71.95093 99
71.97105 113
71.99116 101
72.01127 103
72.03139 101
72.0515 105
72.07162 99
72.09173 90
72.11184 103
72.13196 100
72.15207 109
72.17218 97
72.1923 105
72.21241 107
72.23253 99
72.25264 103
72.27275 92
72.29287 92
72.31298 101
72.33309 92
72.35321 96
72.37332 104
72.39344 89
72.41355 96
72.43366 112
72.45378 90
72.47389 91
72.494 84
72.51412 114
72.53423 105
72.55434 102
72.57446 90
72.59457 112
72.61469 108
72.6348 106
72.65491 99
72.67503 114
72.69514 109
72.71525 97
72.73537 111
72.75548 103
72.7756 96
72.79571 99
72.81582 120
72.83594 93
72.85605 102
72.87616 90
72.89628 122
72.91639 139
72.9365 94
72.95662 128
72.97673 123
72.99685 120
73.01696 132
73.03707 151
73.05719 131
73.0773 138
73.09741 129
73.11753 150
73.13764 166
73.15776 187
73.17787 167
73.19798 193
73.2181 201
73.23821 202
73.25832 243
73.27844 273
73.29855 299
73.31867 352
73.33878 364
73.35889 416
73.37901 448
73.39912 462
73.41923 428
73.43935 469
73.45946 427
73.47957 384
73.49969 317
73.5198 280
73.53992 245
73.56003 243
73.58014 297
73.60026 295
73.62037 278
73.64048 301
73.6606 250
73.68071 219
73.70083 210
73.72094 170
73.74105 139
73.76117 153
73.78128 113
73.80139 121
73.82151 123
73.84162 104
73.86174 115
73.88185 118
73.90196 100
73.92208 129
73.94219 93
73.9623 102
73.98242 95
74.00253 111
74.02264 111
74.04276 101
74.06287 100
74.08299 96
74.1031 94
74.12321 87
74.14333 99
74.16344 92
74.18355 100
74.20367 92
74.22378 110
74.2439 111
74.26401 98
74.28412 103
74.30424 92
74.32435 105
74.34446 115
74.36458 101
74.38469 103
74.40481 101
74.42492 102
74.44503 99
74.46515 82
74.48526 96
74.50537 86
74.52549 108
74.5456 114
74.56571 105
74.58583 100
74.60594 115
74.62606 107
74.64617 88
74.66628 103
74.6864 114
74.70651 107
74.72662 107
74.74674 94
74.76685 99
74.78697 103
74.80708 105
74.82719 97
74.84731 120
74.86742 114
74.88753 100
74.90765 107
74.92776 112
74.94787 120
74.96799 103
74.9881 128
75.00822 115
