3.00117 20884
3.02128 19885
3.0414 19559
3.06151 19116
3.08162 18441
3.10174 18061
3.12185 17543
3.14197 16994
3.16208 16487
3.18219 15717
3.20231 15534
3.22242 15014
3.24253 14407
3.26265 13925
3.28276 13747
3.30288 13736
3.32299 12665
3.3431 12517
3.36322 12162
3.38333 11815
3.40344 11423
3.42356 10736
3.44367 10770
3.46379 10172
3.4839 9940
3.50401 9690
3.52413 9076
3.54424 9091
3.56435 8633
3.58447 8345
3.60458 8210
3.62469 7437
3.64481 7627
3.66492 7254
3.68504 6918
3.70515 6827
3.72526 6404
3.74538 6221
3.76549 5976
3.7856 5665
3.80572 5566
3.82583 5318
3.84595 5041
3.86606 4844
3.88617 4782
3.90629 4600
3.9264 4135
3.94651 4042
3.96663 3998
3.98674 3778
4.00686 3846
4.02697 3318
4.04708 3211
4.0672 3294
4.08731 3143
4.10742 2955
4.12754 2782
4.14765 2693
4.16776 2529
4.18788 2445
4.20799 2460
4.22811 2183
4.24822 2151
4.26833 2259
4.28845 2135
4.30856 2043
4.32867 1898
4.34879 1886
4.3689 1908
4.38902 1862
4.40913 1762
4.42924 1694
4.44936 1757
4.46947 1666
4.48958 1671
4.5097 1624
4.52981 1391
4.54992 1490
4.57004 1392
4.59015 1467
4.61027 1473
4.63038 1311
4.65049 1279
4.67061 1462
4.69072 1338
4.71083 1210
4.73095 1254
4.75106 1131
4.77118 1263
4.79129 1151
4.8114 1109
4.83152 1110
4.85163 1134
4.87174 1063
4.89186 1108
4.91197 1080
4.93209 1014
4.9522 1034
4.97231 1073
4.99243 954
5.01254 968
5.03265 883
5.05277 928
5.07288 951
5.09299 913
5.11311 797
5.13322 853
5.15334 829
5.17345 864
5.19356 787
5.21368 770
5.23379 795
5.2539 718
5.27402 778
5.29413 726
5.31425 730
5.33436 691
5.35447 787
5.37459 728
5.3947 708
5.41481 712
5.43493 658
5.45504 680
5.47516 671
5.49527 689
5.51538 630
5.5355 659
5.55561 589
5.57572 622
5.59584 624
5.61595 585
5.63606 598
5.65618 586
5.67629 574
5.69641 562
5.71652 532
5.73663 529
5.75675 527
5.77686 568
5.79697 496
5.81709 543
5.8372 570
5.85732 534
5.87743 509
5.89754 516
5.91766 509
5.93777 511
5.95788 540
5.978 456
5.99811 479
6.01823 466
6.03834 481
6.05845 454
6.07857 479
6.09868 516
6.11879 534
6.13891 512
6.15902 476
6.17913 504
6.19925 489
6.21936 491
6.23948 467
6.25959 461
6.2797 485
6.29982 495
6.31993 474
6.34004 472
6.36016 461
6.38027 474
6.40039 482
6.4205 500
6.44061 474
6.46073 432
6.48084 427
6.50095 445
6.52107 502
6.54118 475
6.56129 467
6.58141 473
6.60152 452
6.62164 436
6.64175 432
6.66186 440
6.68198 451
6.70209 417
6.7222 454
6.74232 393
6.76243 422
6.78255 416
6.80266 425
6.82277 469
6.84289 453
6.863 446
6.88311 407
6.90323 454
6.92334 448
6.94346 426
6.96357 416
6.98368 419
7.0038 449
7.02391 437
7.04402 457
7.06414 448
7.08425 405
7.10436 452
7.12448 452
7.14459 392
7.16471 432
7.18482 443
7.20493 458
7.22505 455
7.24516 427
7.26527 442
7.28539 460
7.3055 453
7.32562 429
7.34573 446
7.36584 463
7.38596 439
7.40607 484
7.42618 394
7.4463 441
7.46641 418
7.48653 434
7.50664 452
7.52675 431
7.54687 448
7.56698 473
7.58709 428
7.60721 439
7.62732 423
7.64743 424
7.66755 444
7.68766 476
7.70778 464
7.72789 419
7.748 466
7.76812 468
7.78823 426
7.80834 416
7.82846 461
7.84857 452
7.86869 428
7.8888 397
7.90891 415
7.92903 424
7.94914 436
7.96925 442
7.98937 439
8.00948 423
8.0296 441
8.04971 425
8.06982 437
8.08994 439
8.11005 436
8.13016 456
8.15028 459
8.17039 439
8.1905 433
8.21062 451
8.23073 437
8.25085 429
8.27096 418
8.29107 416
8.31119 431
8.3313 482
8.35141 423
8.37153 449
8.39164 405
8.41176 413
8.43187 427
8.45198 454
8.4721 430
8.49221 414
8.51232 412
8.53244 411
8.55255 478
8.57266 447
8.59278 431
8.61289 458
8.63301 469
8.65312 452
8.67323 480
8.69335 421
8.71346 487
8.73357 465
8.75369 425
8.7738 456
8.79392 423
8.81403 444
8.83414 428
8.85426 465
8.87437 414
8.89448 464
8.9146 452
8.93471 438
8.95483 453
8.97494 458
8.99505 465
9.01517 412
9.03528 432
9.05539 439
9.07551 420
9.09562 431
9.11573 411
9.13585 455
9.15596 453
9.17608 437
9.19619 436
9.2163 393
9.23642 451
9.25653 408
9.27664 425
9.29676 441
9.31687 446
9.33699 427
9.3571 457
9.37721 428
9.39733 439
9.41744 386
9.43755 430
9.45767 431
9.47778 421
9.4979 446
9.51801 449
9.53812 460
9.55824 429
9.57835 430
9.59846 425
9.61858 408
9.63869 438
9.6588 423
9.67892 414
9.69903 461
9.71915 408
9.73926 471
9.75937 417
9.77949 439
9.7996 453
9.81971 414
9.83983 408
9.85994 445
9.88006 450
9.90017 403
9.92028 430
9.9404 436
9.96051 397
9.98062 473
10.00074 411
10.02085 394
10.04097 422
10.06108 450
10.08119 425
10.10131 438
10.12142 376
10.14153 454
10.16165 427
10.18176 396
10.20187 409
10.22199 384
10.2421 442
10.26222 433
10.28233 453
10.30244 439
10.32256 446
10.34267 456
10.36278 412
10.3829 460
10.40301 413
10.42313 384
10.44324 417
10.46335 471
10.48347 417
10.50358 414
10.52369 410
10.54381 454
10.56392 428
10.58403 447
10.60415 466
10.62426 401
10.64438 462
10.66449 422
10.6846 447
10.70472 435
10.72483 403
10.74494 465
10.76506 431
10.78517 422
10.80529 458
10.8254 414
10.84551 450
10.86563 436
10.88574 413
10.90585 433
10.92597 429
10.94608 428
10.9662 440
10.98631 400
11.00642 423
11.02654 419
11.04665 421
11.06676 426
11.08688 445
11.10699 431
11.1271 433
11.14722 405
11.16733 461
11.18745 391
11.20756 452
11.22767 457
11.24779 447
11.2679 469
11.28801 387
11.30813 438
11.32824 435
11.34836 437
11.36847 459
11.38858 426
11.4087 423
11.42881 466
11.44892 425
11.46904 406
11.48915 470
11.50927 469
11.52938 442
11.54949 427
11.56961 392
11.58972 459
11.60983 442
11.62995 434
11.65006 445
11.67017 509
11.69029 464
11.7104 422
11.73052 439
11.75063 460
11.77074 468
11.79086 464
11.81097 502
11.83108 476
11.8512 486
11.87131 492
11.89143 528
11.91154 501
11.93165 471
11.95177 497
11.97188 546
11.99199 533
12.01211 586
12.03222 552
12.05234 574
12.07245 565
12.09256 583
12.11268 586
12.13279 567
12.1529 636
12.17302 661
12.19313 683
12.21324 657
12.23336 692
12.25347 715
12.27359 738
12.2937 710
12.31381 740
12.33393 656
12.35404 684
12.37415 656
12.39427 674
12.41438 684
12.4345 570
12.45461 613
12.47472 603
12.49484 553
12.51495 557
12.53506 507
12.55518 533
12.57529 532
12.5954 501
12.61552 511
12.63563 471
12.65575 498
12.67586 444
12.69597 450
12.71609 426
12.7362 445
12.75631 413
12.77643 481
12.79654 433
12.81666 430
12.83677 432
12.85688 406
12.877 414
12.89711 444
12.91722 426
12.93734 426
12.95745 453
12.97757 460
12.99768 402
13.01779 417
13.03791 400
13.05802 375
13.07813 454
13.09825 407
13.11836 440
13.13847 403
13.15859 432
13.1787 437
13.19882 413
13.21893 425
13.23904 414
13.25916 429
13.27927 420
13.29938 392
13.3195 394
13.33961 463
13.35973 424
13.37984 384
13.39995 445
13.42007 384
13.44018 396
13.46029 434
13.48041 417
13.50052 387
13.52064 374
13.54075 401
13.56086 406
13.58098 385
13.60109 389
13.6212 403
13.64132 413
13.66143 412
13.68154 424
13.70166 399
13.72177 403
13.74189 431
13.762 359
13.78211 390
13.80223 386
13.82234 368
13.84245 394
13.86257 395
13.88268 402
13.9028 367
13.92291 427
13.94302 399
13.96314 368
13.98325 349
14.00336 391
14.02348 387
14.04359 369
14.06371 413
14.08382 384
14.10393 389
14.12405 375
14.14416 420
14.16427 402
14.18439 390
14.2045 421
14.22461 377
14.24473 400
14.26484 417
14.28496 411
14.30507 376
14.32518 413
14.3453 446
14.36541 364
14.38552 389
14.40564 405
14.42575 383
14.44587 408
14.46598 389
14.48609 390
14.50621 386
14.52632 386
14.54643 393
14.56655 391
14.58666 418
14.60677 414
14.62689 372
14.647 387
14.66712 368
14.68723 402
14.70734 384
14.72746 376
14.74757 379
14.76768 415
14.7878 397
14.80791 384
14.82803 372
14.84814 374
14.86825 378
14.88837 365
14.90848 403
14.92859 412
14.94871 380
14.96882 396
14.98894 374
15.00905 361
15.02916 390
15.04928 407
15.06939 384
15.0895 407
15.10962 413
15.12973 386
15.14984 358
15.16996 377
15.19007 412
15.21019 394
15.2303 436
15.25041 370
15.27053 403
15.29064 395
15.31075 362
15.33087 372
15.35098 363
15.3711 377
15.39121 384
15.41132 412
15.43144 392
15.45155 374
15.47166 393
15.49178 385
15.51189 385
15.53201 407
15.55212 424
15.57223 392
15.59235 369
15.61246 363
15.63257 411
15.65269 414
15.6728 405
15.69291 374
15.71303 384
15.73314 398
15.75326 358
15.77337 399
15.79348 411
15.8136 408
15.83371 395
15.85382 420
15.87394 399
15.89405 365
15.91417 355
15.93428 390
15.95439 380
15.97451 393
15.99462 378
16.01473 416
16.03485 362
16.05496 396
16.07508 362
16.09519 390
16.1153 388
16.13542 404
16.15553 407
16.17564 343
16.19576 371
16.21587 416
16.23598 365
16.2561 366
16.27621 383
16.29633 368
16.31644 364
16.33655 370
16.35667 396
16.37678 394
16.39689 380
16.41701 410
16.43712 398
16.45724 387
16.47735 435
16.49746 396
16.51758 415
16.53769 426
16.5578 419
16.57792 387
16.59803 394
16.61814 419
16.63826 368
16.65837 372
16.67849 428
16.6986 380
16.71871 392
16.73883 377
16.75894 395
16.77905 412
16.79917 388
16.81928 416
16.8394 400
16.85951 372
16.87962 420
16.89974 390
16.91985 408
16.93996 396
16.96008 350
16.98019 382
17.00031 385
17.02042 383
17.04053 382
17.06065 401
17.08076 368
17.10087 402
17.12099 424
17.1411 370
17.16121 361
17.18133 411
17.20144 360
17.22156 405
17.24167 394
17.26178 373
17.2819 366
17.30201 395
17.32212 392
17.34224 390
17.36235 402
17.38247 409
17.40258 391
17.42269 420
17.44281 404
17.46292 400
17.48303 400
17.50315 398
17.52326 386
17.54338 390
17.56349 410
17.5836 380
17.60372 420
17.62383 406
17.64394 402
17.66406 404
17.68417 418
17.70428 387
17.7244 396
17.74451 443
17.76463 406
17.78474 408
17.80485 440
17.82497 419
17.84508 412
17.86519 360
17.88531 465
17.90542 405
17.92554 411
17.94565 427
17.96576 396
17.98588 395
18.00599 392
18.0261 403
18.04622 389
18.06633 400
18.08645 413
18.10656 423
18.12667 391
18.14679 438
18.1669 394
18.18701 404
18.20713 424
18.22724 402
18.24735 431
18.26747 417
18.28758 406
18.3077 421
18.32781 429
18.34792 406
18.36804 432
18.38815 398
18.40826 430
18.42838 430
18.44849 374
18.46861 409
18.48872 388
18.50883 397
18.52895 413
18.54906 374
18.56917 404
18.58929 411
18.6094 391
18.62951 382
18.64963 395
18.66974 404
18.68986 429
18.70997 382
18.73008 384
18.7502 395
18.77031 401
18.79042 412
18.81054 419
18.83065 422
18.85077 416
18.87088 410
18.89099 389
18.91111 406
18.93122 441
18.95133 399
18.97145 433
18.99156 428
19.01168 401
19.03179 425
19.0519 453
19.07202 455
19.09213 384
19.11224 418
19.13236 443
19.15247 372
19.17258 408
19.1927 420
19.21281 440
19.23293 476
19.25304 443
19.27315 377
19.29327 383
19.31338 446
19.33349 432
19.35361 456
19.37372 427
19.39384 457
19.41395 429
19.43406 464
19.45418 471
19.47429 445
19.4944 461
19.51452 468
19.53463 477
19.55475 467
19.57486 454
19.59497 504
19.61509 529
19.6352 524
19.65531 544
19.67543 553
19.69554 559
19.71565 530
19.73577 648
19.75588 673
19.776 648
19.79611 707
19.81622 700
19.83634 660
19.85645 706
19.87656 692
19.89668 711
19.91679 738
19.93691 716
19.95702 696
19.97713 745
19.99725 692
20.01736 717
20.03747 667
20.05759 763
20.0777 692
20.09782 641
20.11793 677
20.13804 711
20.15816 667
20.17827 633
20.19838 667
20.2185 667
20.23861 650
20.25872 692
20.27884 668
20.29895 667
20.31907 675
20.33918 684
20.35929 743
20.37941 684
20.39952 689
20.41963 673
20.43975 708
20.45986 763
20.47998 732
20.50009 737
20.5202 759
20.54032 791
20.56043 773
20.58054 800
20.60066 832
20.62077 912
20.64088 971
20.661 1148
20.68111 1245
20.70123 1581
20.72134 1809
20.74145 2237
20.76157 2598
20.78168 2906
20.80179 3182
20.82191 3427
20.84202 3113
20.86214 2875
20.88225 2356
20.90236 1902
20.92248 1493
20.94259 1135
20.9627 968
20.98282 818
21.00293 821
21.02305 742
21.04316 685
21.06327 707
21.08339 732
21.1035 750
21.12361 672
21.14373 679
21.16384 681
21.18395 667
21.20407 672
21.22418 603
21.2443 645
21.26441 640
21.28452 660
21.30464 667
21.32475 687
21.34486 630
21.36498 649
21.38509 626
21.40521 601
21.42532 629
21.44543 560
21.46555 665
21.48566 574
21.50577 596
21.52589 634
21.546 583
21.56612 616
21.58623 640
21.60634 564
21.62646 571
21.64657 599
21.66668 574
21.6868 528
21.70691 574
21.72702 577
21.74714 606
21.76725 565
21.78737 567
21.80748 574
21.82759 490
21.84771 566
21.86782 530
21.88793 556
21.90805 541
21.92816 549
21.94828 534
21.96839 527
21.9885 537
22.00862 543
22.02873 567
22.04884 607
22.06896 540
22.08907 523
22.10919 574
22.1293 567
22.14941 561
22.16953 537
22.18964 549
22.20975 527
22.22987 555
22.24998 517
22.27009 563
22.29021 507
22.31032 539
22.33044 503
22.35055 508
22.37066 567
22.39078 500
22.41089 557
22.431 524
22.45112 532
22.47123 536
22.49135 511
22.51146 518
22.53157 493
22.55169 528
22.5718 555
22.59191 490
22.61203 504
22.63214 560
22.65225 501
22.67237 488
22.69248 537
22.7126 535
22.73271 518
22.75282 554
22.77294 468
22.79305 442
22.81316 497
22.83328 501
22.85339 507
22.87351 523
22.89362 542
22.91373 521
22.93385 548
22.95396 583
22.97407 473
22.99419 531
23.0143 488
23.03442 523
23.05453 524
23.07464 509
23.09476 543
23.11487 507
23.13498 504
23.1551 497
23.17521 513
23.19532 484
23.21544 484
23.23555 504
23.25567 514
23.27578 490
23.29589 569
23.31601 518
23.33612 441
23.35623 553
23.37635 549
23.39646 500
23.41658 560
23.43669 524
23.4568 499
23.47692 515
23.49703 477
23.51714 516
23.53726 500
23.55737 564
23.57749 507
23.5976 531
23.61771 551
23.63783 567
23.65794 545
23.67805 547
23.69817 538
23.71828 539
23.73839 561
23.75851 611
23.77862 557
23.79874 558
23.81885 547
23.83896 517
23.85908 568
23.87919 575
23.8993 569
23.91942 584
23.93953 568
23.95965 545
23.97976 568
23.99987 586
24.01999 574
24.0401 645
24.06021 606
24.08033 604
24.10044 616
24.12056 562
24.14067 620
24.16078 607
24.1809 541
24.20101 534
24.22112 568
24.24124 586
24.26135 560
24.28146 564
24.30158 550
24.32169 561
24.34181 618
24.36192 539
24.38203 589
24.40215 603
24.42226 536
24.44237 569
24.46249 551
24.4826 566
24.50272 561
24.52283 573
24.54294 586
24.56306 584
24.58317 636
24.60328 656
24.6234 618
24.64351 600
24.66362 647
24.68374 723
24.70385 660
24.72397 655
24.74408 655
24.76419 684
24.78431 697
24.80442 716
24.82453 668
24.84465 657
24.86476 654
24.88488 692
24.90499 676
24.9251 723
24.94522 649
24.96533 660
24.98544 626
25.00556 662
25.02567 606
25.04579 603
25.0659 594
25.08601 559
25.10613 557
25.12624 554
25.14635 585
25.16647 600
25.18658 560
25.20669 551
25.22681 576
25.24692 576
25.26704 566
25.28715 565
25.30726 621
25.32738 538
25.34749 531
25.3676 572
25.38772 554
25.40783 535
25.42795 578
25.44806 564
25.46817 586
25.48829 524
25.5084 549
25.52851 563
25.54863 561
25.56874 511
25.58886 557
25.60897 601
25.62908 584
25.6492 554
25.66931 556
25.68942 546
25.70954 612
25.72965 612
25.74976 626
25.76988 623
25.78999 655
25.81011 613
25.83022 638
25.85033 642
25.87045 677
25.89056 704
25.91067 670
25.93079 655
25.9509 747
25.97102 726
25.99113 800
26.01124 840
26.03136 862
26.05147 842
26.07158 792
26.0917 857
26.11181 851
26.13193 869
26.15204 889
26.17215 833
26.19227 970
26.21238 975
26.23249 983
26.25261 1123
26.27272 1149
26.29283 1281
26.31295 1360
26.33306 1464
26.35318 1672
26.37329 1916
26.3934 2350
26.41352 2927
26.43363 3465
26.45374 4415
26.47386 5513
26.49397 7094
26.51409 8562
26.5342 10191
26.55431 11915
26.57443 13004
26.59454 13295
26.61465 12603
26.63477 11383
26.65488 9294
26.67499 7213
26.69511 5355
26.71522 4095
26.73534 2877
26.75545 2126
26.77556 1548
26.79568 1334
26.81579 1250
26.8359 1164
26.85602 1048
26.87613 978
26.89625 888
26.91636 862
26.93647 795
26.95659 782
26.9767 755
26.99681 755
27.01693 704
27.03704 628
27.05716 672
27.07727 623
27.09738 625
27.1175 662
27.13761 661
27.15772 605
27.17784 613
27.19795 563
27.21806 569
27.23818 593
27.25829 530
27.27841 561
27.29852 544
27.31863 626
27.33875 567
27.35886 580
27.37897 547
27.39909 548
27.4192 591
27.43932 627
27.45943 547
27.47954 499
27.49966 522
27.51977 508
27.53988 528
27.56 531
27.58011 491
27.60023 490
27.62034 517
27.64045 500
27.66057 499
27.68068 490
27.70079 500
27.72091 483
27.74102 477
27.76113 494
27.78125 553
27.80136 493
27.82148 471
27.84159 522
27.8617 513
27.88182 429
27.90193 506
27.92204 498
27.94216 499
27.96227 475
27.98239 477
28.0025 458
28.02261 466
28.04273 469
28.06284 436
28.08295 498
28.10307 501
28.12318 476
28.1433 510
28.16341 475
28.18352 430
28.20364 437
28.22375 469
28.24386 466
28.26398 497
28.28409 423
28.3042 454
28.32432 444
28.34443 467
28.36455 469
28.38466 448
28.40477 432
28.42489 403
28.445 417
28.46511 477
28.48523 388
28.50534 493
28.52546 433
28.54557 471
28.56568 418
28.5858 430
28.60591 431
28.62602 428
28.64614 458
28.66625 448
28.68636 452
28.70648 435
28.72659 479
28.74671 429
28.76682 445
28.78693 419
28.80705 448
28.82716 451
28.84727 445
28.86739 443
28.8875 419
28.90762 406
28.92773 433
28.94784 452
28.96796 427
28.98807 436
29.00818 477
29.0283 436
29.04841 458
29.06853 454
29.08864 428
29.10875 449
29.12887 467
29.14898 481
29.16909 440
29.18921 418
29.20932 446
29.22943 428
29.24955 420
29.26966 467
29.28978 453
29.30989 448
29.33 444
29.35012 448
29.37023 444
29.39034 435
29.41046 408
29.43057 405
29.45069 445
29.4708 447
29.49091 423
29.51103 435
29.53114 449
29.55125 433
29.57137 430
29.59148 436
29.6116 415
29.63171 434
29.65182 455
29.67194 434
29.69205 445
29.71216 442
29.73228 445
29.75239 476
29.7725 411
29.79262 422
29.81273 441
29.83285 428
29.85296 461
29.87307 396
29.89319 436
29.9133 467
29.93341 464
29.95353 461
29.97364 461
29.99376 471
30.01387 415
30.03398 483
30.0541 433
30.07421 439
30.09432 446
30.11444 414
30.13455 440
30.15467 435
30.17478 457
30.19489 470
30.21501 419
30.23512 461
30.25523 439
30.27535 441
30.29546 450
30.31557 438
30.33569 459
30.3558 431
30.37592 466
30.39603 454
30.41614 410
30.43626 401
30.45637 456
30.47648 450
30.4966 417
30.51671 442
30.53683 445
30.55694 437
30.57705 442
30.59717 418
30.61728 451
30.63739 396
30.65751 429
30.67762 406
30.69773 432
30.71785 451
30.73796 430
30.75808 434
30.77819 474
30.7983 447
30.81842 420
30.83853 446
30.85864 472
30.87876 463
30.89887 392
30.91899 440
30.9391 422
30.95921 479
30.97933 443
30.99944 436
31.01955 451
31.03967 442
31.05978 450
31.0799 438
31.10001 426
31.12012 437
31.14024 432
31.16035 428
31.18046 410
31.20058 400
31.22069 409
31.2408 475
31.26092 444
31.28103 407
31.30115 428
31.32126 422
31.34137 391
31.36149 390
31.3816 421
31.40171 357
31.42183 419
31.44194 410
31.46206 379
31.48217 415
31.50228 431
31.5224 413
31.54251 402
31.56262 427
31.58274 445
31.60285 419
31.62297 426
31.64308 432
31.66319 383
31.68331 447
31.70342 413
31.72353 382
31.74365 432
31.76376 419
31.78387 415
31.80399 418
31.8241 442
31.84422 441
31.86433 369
31.88444 404
31.90456 413
31.92467 421
31.94478 437
31.9649 390
31.98501 404
32.00513 430
32.02524 402
32.04535 417
32.06547 451
32.08558 426
32.10569 406
32.12581 414
32.14592 422
32.16604 440
32.18615 421
32.20626 428
32.22638 435
32.24649 473
32.2666 456
32.28672 466
32.30683 446
32.32694 432
32.34706 461
32.36717 474
32.38729 485
32.4074 477
32.42751 479
32.44763 459
32.46774 464
32.48785 472
32.50797 506
32.52808 502
32.5482 511
32.56831 486
32.58842 468
32.60854 522
32.62865 436
32.64876 467
32.66888 440
32.68899 470
32.7091 438
32.72922 435
32.74933 463
32.76945 514
32.78956 465
32.80967 506
32.82979 497
32.8499 506
32.87001 476
32.89013 508
32.91024 513
32.93036 541
32.95047 538
32.97058 559
32.9907 573
33.01081 603
33.03092 613
33.05104 608
33.07115 619
33.09127 631
33.11138 587
33.13149 598
33.15161 643
33.17172 543
33.19183 567
33.21195 591
33.23206 560
33.25217 562
33.27229 542
33.2924 551
33.31252 557
33.33263 563
33.35274 490
33.37286 478
33.39297 502
33.41308 506
33.4332 501
33.45331 461
33.47343 466
33.49354 467
33.51365 436
33.53377 443
33.55388 455
33.57399 450
33.59411 439
33.61422 497
33.63434 426
33.65445 437
33.67456 464
33.69468 447
33.71479 428
33.7349 409
33.75502 384
33.77513 407
33.79524 436
33.81536 391
33.83547 468
33.85559 418
33.8757 406
33.89581 405
33.91593 441
33.93604 430
33.95615 411
33.97627 409
33.99638 409
34.0165 396
34.03661 424
34.05672 394
34.07684 410
34.09695 433
34.11706 398
34.13718 423
34.15729 398
34.17741 412
34.19752 418
34.21763 422
34.23775 449
34.25786 361
34.27797 456
34.29809 464
34.3182 424
34.33831 430
34.35843 460
34.37854 414
34.39866 447
34.41877 418
34.43888 420
34.459 417
34.47911 437
34.49922 456
34.51934 411
34.53945 411
34.55957 450
34.57968 440
34.59979 447
34.61991 461
34.64002 484
34.66013 472
34.68025 496
34.70036 484
34.72047 537
34.74059 561
34.7607 511
34.78082 527
34.80093 560
34.82104 542
34.84116 495
34.86127 535
34.88138 588
34.9015 558
34.92161 569
34.94173 577
34.96184 607
34.98195 564
35.00207 545
35.02218 601
35.04229 568
35.06241 578
35.08252 590
35.10264 586
35.12275 613
35.14286 621
35.16298 627
35.18309 616
35.2032 690
35.22332 595
35.24343 636
35.26354 696
35.28366 678
35.30377 647
35.32389 597
35.344 657
35.36411 673
35.38423 624
35.40434 634
35.42445 663
35.44457 697
35.46468 652
35.4848 687
35.50491 708
35.52502 695
35.54514 758
35.56525 674
35.58536 724
35.60548 723
35.62559 718
35.64571 734
35.66582 673
35.68593 736
35.70605 716
35.72616 701
35.74627 714
35.76639 710
35.7865 606
35.80661 610
35.82673 683
35.84684 650
35.86696 677
35.88707 640
35.90718 647
35.9273 635
35.94741 577
35.96752 580
35.98764 601
36.00775 589
36.02787 567
36.04798 590
36.06809 559
36.08821 532
36.10832 529
36.12843 535
36.14855 541
36.16866 568
36.18878 540
36.20889 576
36.229 596
36.24912 575
36.26923 641
36.28934 633
36.30946 642
36.32957 686
36.34968 768
36.3698 840
36.38991 916
36.41003 1087
36.43014 1141
36.45025 1219
36.47037 1246
36.49048 1238
36.51059 1257
36.53071 1143
36.55082 1077
36.57094 932
36.59105 863
36.61116 761
36.63128 686
36.65139 673
36.6715 549
36.69162 562
36.71173 489
36.73184 499
36.75196 510
36.77207 492
36.79219 495
36.8123 465
36.83241 503
36.85253 467
36.87264 478
36.89275 491
36.91287 460
36.93298 515
36.9531 472
36.97321 487
36.99332 464
37.01344 486
37.03355 477
37.05366 451
37.07378 472
37.09389 453
37.11401 465
37.13412 424
37.15423 432
37.17435 445
37.19446 457
37.21457 459
37.23469 457
37.2548 485
37.27491 479
37.29503 403
37.31514 478
37.33526 417
37.35537 469
37.37548 455
37.3956 431
37.41571 442
37.43582 439
37.45594 444
37.47605 420
37.49617 440
37.51628 476
37.53639 427
37.55651 478
37.57662 459
37.59673 445
37.61685 477
37.63696 458
37.65708 506
37.67719 456
37.6973 502
37.71742 486
37.73753 488
37.75764 485
37.77776 484
37.79787 464
37.81798 427
37.8381 453
37.85821 465
37.87833 469
37.89844 476
37.91855 490
37.93867 471
37.95878 509
37.97889 510
37.99901 486
38.01912 452
38.03924 479
38.05935 504
38.07946 502
38.09958 449
38.11969 491
38.1398 477
38.15992 466
38.18003 463
38.20015 496
38.22026 460
38.24037 493
38.26049 519
38.2806 482
38.30071 514
38.32083 524
38.34094 523
38.36105 497
38.38117 507
38.40128 544
38.4214 497
38.44151 549
38.46162 499
38.48174 474
38.50185 502
38.52196 479
38.54208 518
38.56219 475
38.58231 505
38.60242 452
38.62253 477
38.64265 461
38.66276 460
38.68287 424
38.70299 465
38.7231 469
38.74321 460
38.76333 417
38.78344 433
38.80356 429
38.82367 431
38.84378 441
38.8639 483
38.88401 443
38.90412 434
38.92424 463
38.94435 498
38.96447 454
38.98458 446
39.00469 507
39.02481 496
39.04492 502
39.06503 499
39.08515 487
39.10526 501
39.12538 518
39.14549 547
39.1656 523
39.18572 531
39.20583 595
39.22594 590
39.24606 676
39.26617 698
39.28628 791
39.3064 858
39.32651 908
39.34663 1014
39.36674 1144
39.38685 1197
39.40697 1182
39.42708 1189
39.44719 1025
39.46731 990
39.48742 892
39.50754 829
39.52765 734
39.54776 689
39.56788 604
39.58799 509
39.6081 491
39.62822 501
39.64833 488
39.66845 482
39.68856 455
39.70867 433
39.72879 437
39.7489 432
39.76901 471
39.78913 439
39.80924 450
39.82935 440
39.84947 437
39.86958 452
39.8897 432
39.90981 425
39.92992 435
39.95004 456
39.97015 464
39.99026 448
40.01038 436
40.03049 519
40.05061 509
40.07072 551
40.09083 533
40.11095 598
40.13106 615
40.15117 682
40.17129 695
40.1914 694
40.21152 804
40.23163 768
40.25174 717
40.27186 732
40.29197 693
40.31208 664
40.3322 643
40.35231 585
40.37242 558
40.39254 540
40.41265 496
40.43277 489
40.45288 481
40.47299 467
40.49311 448
40.51322 473
40.53333 438
40.55345 471
40.57356 455
40.59368 446
40.61379 440
40.6339 462
40.65402 402
40.67413 446
40.69424 525
40.71436 503
40.73447 517
40.75458 551
40.7747 527
40.79481 541
40.81493 542
40.83504 531
40.85515 565
40.87527 508
40.89538 507
40.91549 543
40.93561 536
40.95572 521
40.97584 515
40.99595 462
41.01606 453
41.03618 485
41.05629 476
41.0764 445
41.09652 436
41.11663 456
41.13675 472
41.15686 409
41.17697 432
41.19709 441
41.2172 473
41.23731 420
41.25743 434
41.27754 439
41.29765 410
41.31777 435
41.33788 403
41.358 411
41.37811 410
41.39822 413
41.41834 421
41.43845 404
41.45856 415
41.47868 390
41.49879 401
41.51891 422
41.53902 414
41.55913 387
41.57925 460
41.59936 409
41.61947 419
41.63959 398
41.6597 410
41.67982 406
41.69993 394
41.72004 405
41.74016 416
41.76027 410
41.78038 407
41.8005 401
41.82061 400
41.84072 386
41.86084 422
41.88095 425
41.90107 372
41.92118 406
41.94129 387
41.96141 390
41.98152 389
42.00163 428
42.02175 407
42.04186 446
42.06198 422
42.08209 430
42.1022 450
42.12232 467
42.14243 491
42.16254 495
42.18266 448
42.20277 531
42.22289 539
42.243 586
42.26311 653
42.28323 687
42.30334 745
42.32345 780
42.34357 897
42.36368 949
42.38379 872
42.40391 931
42.42402 875
42.44414 785
42.46425 743
42.48436 659
42.50448 655
42.52459 649
42.5447 537
42.56482 487
42.58493 442
42.60505 429
42.62516 402
42.64527 434
42.66539 455
42.6855 427
42.70561 390
42.72573 393
42.74584 408
42.76595 380
42.78607 400
42.80618 418
42.8263 414
42.84641 415
42.86652 401
42.88664 375
42.90675 364
42.92686 401
42.94698 410
42.96709 383
42.98721 378
43.00732 403
43.02743 390
43.04755 394
43.06766 379
43.08777 372
43.10789 418
43.128 369
43.14812 419
43.16823 397
43.18834 395
43.20846 381
43.22857 394
43.24868 418
43.2688 380
43.28891 387
43.30902 385
43.32914 370
43.34925 389
43.36937 388
43.38948 375
43.40959 389
43.42971 377
43.44982 367
43.46993 408
43.49005 335
43.51016 399
43.53028 414
43.55039 355
43.5705 390
43.59062 378
43.61073 404
43.63084 389
43.65096 359
43.67107 330
43.69119 382
43.7113 368
43.73141 379
43.75153 391
43.77164 358
43.79175 373
43.81187 369
43.83198 374
43.85209 374
43.87221 376
43.89232 367
43.91244 377
43.93255 397
43.95266 339
43.97278 380
43.99289 378
44.013 374
44.03312 354
44.05323 416
44.07335 364
44.09346 363
44.11357 385
44.13369 376
44.1538 364
44.17391 356
44.19403 390
44.21414 381
44.23426 395
44.25437 355
44.27448 342
44.2946 370
44.31471 334
44.33482 333
44.35494 355
44.37505 406
44.39516 357
44.41528 342
44.43539 377
44.45551 361
44.47562 369
44.49573 374
44.51585 395
44.53596 412
44.55607 359
44.57619 375
44.5963 382
44.61642 374
44.63653 382
44.65664 363
44.67676 360
44.69687 346
44.71698 397
44.7371 333
44.75721 365
44.77732 354
44.79744 385
44.81755 354
44.83767 378
44.85778 387
44.87789 381
44.89801 371
44.91812 346
44.93823 378
44.95835 368
44.97846 380
44.99858 380
45.01869 383
45.0388 352
45.05892 391
45.07903 392
45.09914 394
45.11926 372
45.13937 431
45.15949 406
45.1796 408
45.19971 407
45.21983 384
45.23994 390
45.26005 410
45.28017 424
45.30028 426
45.32039 402
45.34051 412
45.36062 403
45.38074 395
45.40085 411
45.42096 423
45.44108 435
45.46119 427
45.4813 425
45.50142 434
45.52153 433
45.54165 472
45.56176 467
45.58187 544
45.60199 550
45.6221 557
45.64221 646
45.66233 643
45.68244 668
45.70256 668
45.72267 775
45.74278 712
45.7629 726
45.78301 675
45.80312 605
45.82324 649
45.84335 577
45.86346 537
45.88358 480
45.90369 441
45.92381 435
45.94392 408
45.96403 424
45.98415 404
46.00426 389
46.02437 415
46.04449 390
46.0646 385
46.08472 375
46.10483 410
46.12494 396
46.14506 400
46.16517 389
46.18528 379
46.2054 426
46.22551 358
46.24563 371
46.26574 392
46.28585 391
46.30597 399
46.32608 377
46.34619 377
46.36631 370
46.38642 382
46.40653 331
46.42665 381
46.44676 365
46.46688 340
46.48699 380
46.5071 388
46.52722 379
46.54733 396
46.56744 349
46.58756 406
46.60767 372
46.62779 366
46.6479 361
46.66801 383
46.68813 374
46.70824 399
46.72835 387
46.74847 371
46.76858 350
46.78869 371
46.80881 398
46.82892 385
46.84904 352
46.86915 377
46.88926 369
46.90938 368
46.92949 373
46.9496 345
46.96972 366
46.98983 369
47.00995 367
47.03006 366
47.05017 388
47.07029 391
47.0904 401
47.11051 343
47.13063 371
47.15074 348
47.17086 380
47.19097 365
47.21108 360
47.2312 333
47.25131 370
47.27142 388
47.29154 371
47.31165 354
47.33176 394
47.35188 369
47.37199 382
47.39211 363
47.41222 361
47.43233 355
47.45245 347
47.47256 349
47.49267 366
47.51279 342
47.5329 415
47.55302 384
47.57313 392
47.59324 366
47.61336 384
47.63347 378
47.65358 370
47.6737 335
47.69381 393
47.71393 347
47.73404 354
47.75415 361
47.77427 365
47.79438 356
47.81449 377
47.83461 368
47.85472 396
47.87483 361
47.89495 384
47.91506 377
47.93518 372
47.95529 357
47.9754 375
47.99552 351
48.01563 342
48.03574 386
48.05586 402
48.07597 360
48.09609 367
48.1162 369
48.13631 384
48.15643 365
48.17654 373
48.19665 375
48.21677 342
48.23688 380
48.257 367
48.27711 391
48.29722 402
48.31734 325
48.33745 390
48.35756 373
48.37768 371
48.39779 371
48.4179 373
48.43802 387
48.45813 383
48.47825 395
48.49836 393
48.51847 392
48.53859 358
48.5587 362
48.57881 392
48.59893 376
48.61904 374
48.63916 389
48.65927 377
48.67938 360
48.6995 391
48.71961 426
48.73972 403
48.75984 389
48.77995 384
48.80006 372
48.82018 388
48.84029 398
48.86041 356
48.88052 409
48.90063 384
48.92075 368
48.94086 375
48.96097 367
48.98109 382
49.0012 360
49.02132 405
49.04143 401
49.06154 412
49.08166 410
49.10177 411
49.12188 373
49.142 458
49.16211 408
49.18223 440
49.20234 408
49.22245 416
49.24257 409
49.26268 429
49.28279 436
49.30291 473
49.32302 428
49.34313 448
49.36325 448
49.38336 452
49.40348 429
49.42359 452
49.4437 450
49.46382 428
49.48393 465
49.50404 461
49.52416 461
49.54427 414
49.56439 461
49.5845 454
49.60461 484
49.62473 468
49.64484 474
49.66495 440
49.68507 515
49.70518 484
49.7253 490
49.74541 505
49.76552 527
49.78564 528
49.80575 570
49.82586 592
49.84598 592
49.86609 680
49.8862 707
49.90632 826
49.92643 902
49.94655 1019
49.96666 1119
49.98677 1240
50.00689 1337
50.027 1462
50.04711 1619
50.06723 1633
50.08734 1541
50.10746 1439
50.12757 1340
50.14768 1167
50.1678 1063
50.18791 1035
50.20802 975
50.22814 888
50.24825 810
50.26837 699
50.28848 562
50.30859 522
50.32871 509
50.34882 482
50.36893 438
50.38905 443
50.40916 485
50.42927 434
50.44939 410
50.4695 425
50.48962 450
50.50973 380
50.52984 435
50.54996 451
50.57007 440
50.59018 434
50.6103 399
50.63041 419
50.65053 420
50.67064 385
50.69075 437
50.71087 393
50.73098 408
50.75109 411
50.77121 381
50.79132 380
50.81143 355
50.83155 390
50.85166 357
50.87178 376
50.89189 333
50.912 346
50.93212 362
50.95223 344
50.97234 384
50.99246 389
51.01257 374
51.03269 365
51.0528 387
51.07291 354
51.09303 370
51.11314 383
51.13325 373
51.15337 394
51.17348 359
51.1936 332
51.21371 346
51.23382 350
51.25394 378
51.27405 341
51.29416 342
51.31428 363
51.33439 363
51.3545 335
51.37462 320
51.39473 328
51.41485 319
51.43496 355
51.45507 312
51.47519 376
51.4953 359
51.51541 353
51.53553 334
51.55564 354
51.57576 346
51.59587 327
51.61598 336
51.6361 365
51.65621 330
51.67632 340
51.69644 318
51.71655 359
51.73667 355
51.75678 335
51.77689 355
51.79701 337
51.81712 334
51.83723 346
51.85735 361
51.87746 335
51.89757 318
51.91769 338
51.9378 323
51.95792 320
51.97803 333
51.99814 363
52.01826 326
52.03837 336
52.05848 332
52.0786 317
52.09871 331
52.11883 333
52.13894 347
52.15905 351
52.17917 336
52.19928 382
52.21939 355
52.23951 369
52.25962 331
52.27974 334
52.29985 338
52.31996 305
52.34008 339
52.36019 341
52.3803 319
52.40042 379
52.42053 374
52.44064 390
52.46076 387
52.48087 364
52.50099 387
52.5211 342
52.54121 310
52.56133 384
52.58144 344
52.60155 364
52.62167 359
52.64178 347
52.6619 347
52.68201 377
52.70212 346
52.72224 348
52.74235 378
52.76246 383
52.78258 352
52.80269 408
52.8228 381
52.84292 377
52.86303 366
52.88315 401
52.90326 375
52.92337 346
52.94349 373
52.9636 400
52.98371 387
53.00383 404
53.02394 350
53.04406 374
53.06417 379
53.08428 378
53.1044 400
53.12451 375
53.14462 396
53.16474 381
53.18485 385
53.20497 428
53.22508 365
53.24519 370
53.26531 440
53.28542 342
53.30553 375
53.32565 414
53.34576 371
53.36587 419
53.38599 394
53.4061 395
53.42622 423
53.44633 366
53.46644 433
53.48656 416
53.50667 387
53.52678 377
53.5469 418
53.56701 412
53.58713 410
53.60724 408
53.62735 390
53.64747 436
53.66758 395
53.68769 418
53.70781 435
53.72792 410
53.74804 422
53.76815 420
53.78826 426
53.80838 426
53.82849 452
53.8486 425
53.86872 441
53.88883 455
53.90894 459
53.92906 469
53.94917 481
53.96929 475
53.9894 467
54.00951 488
54.02963 471
54.04974 464
54.06985 476
54.08997 484
54.11008 454
54.1302 497
54.15031 468
54.17042 465
54.19054 463
54.21065 486
54.23076 465
54.25088 470
54.27099 481
54.29111 473
54.31122 489
54.33133 475
54.35145 486
54.37156 492
54.39167 490
54.41179 469
54.4319 452
54.45201 450
54.47213 538
54.49224 499
54.51236 493
54.53247 485
54.55258 530
54.5727 514
54.59281 527
54.61292 523
54.63304 524
54.65315 537
54.67327 579
54.69338 629
54.71349 698
54.73361 707
54.75372 745
54.77383 777
54.79395 778
54.81406 765
54.83417 774
54.85429 726
54.8744 652
54.89452 599
54.91463 624
54.93474 584
54.95486 601
54.97497 594
54.99508 539
55.0152 511
55.03531 528
55.05543 497
55.07554 516
55.09565 490
55.11577 492
55.13588 474
55.15599 531
55.17611 524
55.19622 533
55.21634 553
55.23645 575
55.25656 540
55.27668 519
55.29679 522
55.3169 495
55.33702 507
55.35713 459
55.37724 480
55.39736 476
55.41747 456
55.43759 444
55.4577 463
55.47781 459
55.49793 435
55.51804 408
55.53815 417
55.55827 411
55.57838 368
55.5985 416
55.61861 426
55.63872 398
55.65884 404
55.67895 406
55.69906 390
55.71918 394
55.73929 388
55.75941 360
55.77952 369
55.79963 405
55.81975 373
55.83986 362
55.85997 374
55.88009 398
55.9002 392
55.92031 362
55.94043 369
55.96054 350
55.98066 384
56.00077 381
56.02088 381
56.041 401
56.06111 351
56.08122 401
56.10134 391
56.12145 380
56.14157 356
56.16168 390
56.18179 410
56.20191 380
56.22202 378
56.24213 363
56.26225 412
56.28236 347
56.30248 371
56.32259 363
56.3427 351
56.36282 370
56.38293 371
56.40304 406
56.42316 367
56.44327 383
56.46338 400
56.4835 372
56.50361 391
56.52373 386
56.54384 382
56.56395 381
56.58407 371
56.60418 359
56.62429 432
56.64441 370
56.66452 378
56.68464 361
56.70475 377
56.72486 376
56.74498 387
56.76509 373
56.7852 377
56.80532 372
56.82543 379
56.84554 407
56.86566 387
56.88577 322
56.90589 365
56.926 399
56.94611 382
56.96623 395
56.98634 388
57.00645 368
57.02657 403
57.04668 375
57.0668 381
57.08691 417
57.10702 372
57.12714 380
57.14725 411
57.16736 400
57.18748 420
57.20759 412
57.22771 414
57.24782 393
57.26793 392
57.28805 377
57.30816 400
57.32827 356
57.34839 430
57.3685 430
57.38861 384
57.40873 403
57.42884 385
57.44896 408
57.46907 435
57.48918 371
57.5093 393
57.52941 368
57.54952 400
57.56964 401
57.58975 426
57.60987 393
57.62998 390
57.65009 410
57.67021 383
57.69032 386
57.71043 387
57.73055 379
57.75066 384
57.77078 366
57.79089 401
57.811 366
57.83112 401
57.85123 366
57.87134 362
57.89146 350
57.91157 364
57.93168 372
57.9518 335
57.97191 354
57.99203 357
58.01214 396
58.03225 337
58.05237 343
58.07248 392
58.09259 358
58.11271 369
58.13282 399
58.15294 360
58.17305 382
58.19316 364
58.21328 347
58.23339 356
58.2535 382
58.27362 404
58.29373 321
58.31385 360
58.33396 362
58.35407 363
58.37419 368
58.3943 373
58.41441 334
58.43453 352
58.45464 367
58.47475 343
58.49487 346
58.51498 322
58.5351 361
58.55521 365
58.57532 382
58.59544 349
58.61555 343
58.63566 357
58.65578 343
58.67589 382
58.69601 392
58.71612 353
58.73623 318
58.75635 379
58.77646 366
58.79657 361
58.81669 363
58.8368 352
58.85691 372
58.87703 354
58.89714 377
58.91726 340
58.93737 380
58.95748 359
58.9776 344
58.99771 358
59.01782 352
59.03794 378
59.05805 381
59.07817 357
59.09828 397
59.11839 346
59.13851 388
59.15862 360
59.17873 345
59.19885 364
59.21896 369
59.23908 376
59.25919 394
59.2793 378
59.29942 367
59.31953 369
59.33964 368
59.35976 375
59.37987 380
59.39998 389
59.4201 391
59.44021 400
59.46033 420
59.48044 394
59.50055 390
59.52067 420
59.54078 425
59.56089 483
59.58101 442
59.60112 476
59.62124 481
59.64135 503
59.66146 548
59.68158 608
59.70169 647
59.7218 643
59.74192 675
59.76203 758
59.78215 865
59.80226 962
59.82237 982
59.84249 1097
59.8626 1132
59.88271 1069
59.90283 1051
59.92294 992
59.94305 898
59.96317 856
59.98328 762
60.0034 773
60.02351 768
60.04362 756
60.06374 733
60.08385 674
60.10396 560
60.12408 508
60.14419 514
60.16431 465
60.18442 407
60.20453 396
60.22465 409
60.24476 402
60.26487 403
60.28499 395
60.3051 388
60.32522 391
60.34533 387
60.36544 384
60.38556 366
60.40567 386
60.42578 374
60.4459 358
60.46601 373
60.48612 359
60.50624 377
60.52635 372
60.54647 379
60.56658 328
60.58669 352
60.60681 351
60.62692 377
60.64703 383
60.66715 350
60.68726 383
60.70738 377
60.72749 367
60.7476 362
60.76772 360
60.78783 390
60.80794 379
60.82806 368
60.84817 401
60.86828 388
60.8884 425
60.90851 346
60.92863 393
60.94874 379
60.96885 408
60.98897 362
61.00908 362
61.02919 366
61.04931 395
61.06942 364
61.08954 363
61.10965 384
61.12976 370
61.14988 351
61.16999 389
61.1901 352
61.21022 386
61.23033 345
61.25045 354
61.27056 378
61.29067 387
61.31079 371
61.3309 377
61.35101 368
61.37113 353
61.39124 357
61.41135 363
61.43147 378
61.45158 379
61.4717 395
61.49181 369
61.51192 397
61.53204 394
61.55215 418
61.57226 358
61.59238 379
61.61249 399
61.63261 371
61.65272 385
61.67283 379
61.69295 373
61.71306 388
61.73317 405
61.75329 392
61.7734 391
61.79352 403
61.81363 387
61.83374 419
61.85386 385
61.87397 391
61.89408 398
61.9142 377
61.93431 386
61.95442 382
61.97454 443
61.99465 402
62.01477 438
62.03488 439
62.05499 423
62.07511 426
62.09522 453
62.11533 436
62.13545 452
62.15556 469
62.17568 464
62.19579 469
62.2159 434
62.23602 471
62.25613 478
62.27624 484
62.29636 454
62.31647 473
62.33659 486
62.3567 464
62.37681 464
62.39693 478
62.41704 469
62.43715 473
62.45727 498
62.47738 412
62.49749 463
62.51761 482
62.53772 426
62.55784 450
62.57795 404
62.59806 437
62.61818 418
62.63829 423
62.6584 435
62.67852 395
62.69863 374
62.71875 409
62.73886 433
62.75897 431
62.77909 416
62.7992 408
62.81931 406
62.83943 376
62.85954 402
62.87965 433
62.89977 389
62.91988 408
62.94 381
62.96011 398
62.98022 436
63.00034 414
63.02045 373
63.04056 416
63.06068 401
63.08079 359
63.10091 401
63.12102 414
63.14113 367
63.16125 375
63.18136 378
63.20147 368
63.22159 404
63.2417 379
63.26182 414
63.28193 349
63.30204 434
63.32216 405
63.34227 385
63.36238 384
63.3825 378
63.40261 423
63.42272 403
63.44284 400
63.46295 375
63.48307 387
63.50318 363
63.52329 410
63.54341 381
63.56352 420
63.58363 404
63.60375 391
63.62386 432
63.64398 421
63.66409 402
63.6842 385
63.70432 386
63.72443 424
63.74454 450
63.76466 409
63.78477 473
63.80489 436
63.825 460
63.84511 506
63.86523 501
63.88534 523
63.90545 525
63.92557 551
63.94568 518
63.96579 525
63.98591 527
64.00602 547
64.02614 465
64.04625 523
64.06636 460
64.08648 499
64.10659 477
64.1267 454
64.14682 482
64.16693 481
64.18705 460
64.20716 440
64.22727 418
64.24739 449
64.2675 398
64.28761 419
64.30773 430
64.32784 408
64.34796 387
64.36807 413
64.38818 422
64.4083 400
64.42841 366
64.44852 369
64.46864 364
64.48875 393
64.50886 354
64.52898 405
64.54909 404
64.56921 382
64.58932 348
64.60943 372
64.62955 373
64.64966 374
64.66977 369
64.68989 345
64.71 355
64.73012 367
64.75023 343
64.77034 366
64.79046 340
64.81057 366
64.83068 385
64.8508 351
64.87091 381
64.89102 346
64.91114 366
64.93125 296
64.95137 317
64.97148 335
64.99159 350
65.01171 331
65.03182 339
65.05193 370
65.07205 312
65.09216 348
65.11228 339
65.13239 342
65.1525 346
65.17262 332
65.19273 347
65.21284 342
65.23296 379
65.25307 352
65.27319 361
65.2933 344
65.31341 350
65.33353 378
65.35364 353
65.37375 360
65.39387 341
65.41398 292
65.43409 391
65.45421 347
65.47432 367
65.49444 369
65.51455 347
65.53466 340
65.55478 363
65.57489 347
65.595 358
65.61512 371
65.63523 369
65.65535 403
65.67546 377
65.69557 400
65.71569 373
65.7358 383
65.75591 381
65.77603 354
65.79614 398
65.81626 354
65.83637 344
65.85648 354
65.8766 368
65.89671 367
65.91682 377
65.93694 367
65.95705 335
65.97716 332
65.99728 354
66.01739 352
66.03751 303
66.05762 346
66.07773 316
66.09785 339
66.11796 338
66.13807 356
66.15819 338
66.1783 354
66.19842 371
66.21853 351
66.23864 352
66.25876 360
66.27887 330
66.29898 346
66.3191 333
66.33921 324
66.35933 340
66.37944 346
66.39955 351
66.41967 332
66.43978 332
66.45989 324
66.48001 380
66.50012 361
66.52023 327
66.54035 351
66.56046 326
66.58058 361
66.60069 349
66.6208 328
66.64092 383
66.66103 356
66.68114 329
66.70126 348
66.72137 324
66.74149 345
66.7616 330
66.78171 331
66.80183 352
66.82194 340
66.84205 321
66.86217 372
66.88228 335
66.90239 342
66.92251 363
66.94262 350
66.96274 372
66.98285 357
67.00296 344
67.02308 350
67.04319 371
67.0633 348
67.08342 385
67.10353 386
67.12365 345
67.14376 417
67.16387 389
67.18399 369
67.2041 364
67.22421 372
67.24433 421
67.26444 415
67.28456 439
67.30467 429
67.32478 351
67.3449 408
67.36501 433
67.38512 431
67.40524 429
67.42535 411
67.44546 430
67.46558 481
67.48569 497
67.50581 540
67.52592 596
67.54603 631
67.56615 633
67.58626 652
67.60637 772
67.62649 715
67.6466 792
67.66672 819
67.68683 777
67.70694 778
67.72706 746
67.74717 723
67.76728 666
67.7874 682
67.80751 650
67.82763 756
67.84774 701
67.86785 720
67.88797 746
67.90808 689
67.92819 797
67.94831 763
67.96842 851
67.98853 870
68.00865 887
68.02876 930
68.04888 917
68.06899 1004
68.0891 1004
68.10922 932
68.12933 930
68.14944 891
68.16956 978
68.18967 915
68.20979 923
68.2299 932
68.25001 886
68.27013 846
68.29024 775
68.31035 761
68.33047 648
68.35058 625
68.3707 571
68.39081 562
68.41092 570
68.43104 535
68.45115 505
68.47126 448
68.49138 479
68.51149 420
68.5316 443
68.55172 390
68.57183 362
68.59195 394
68.61206 374
68.63217 361
68.65229 372
68.6724 368
68.69251 383
68.71263 361
68.73274 344
68.75286 376
68.77297 361
68.79308 348
68.8132 328
68.83331 346
68.85342 342
68.87354 361
68.89365 342
68.91376 351
68.93388 333
68.95399 370
68.97411 350
68.99422 364
69.01433 316
69.03445 337
69.05456 365
69.07467 366
69.09479 316
69.1149 326
69.13502 323
69.15513 326
69.17524 349
69.19536 345
69.21547 355
69.23558 337
69.2557 333
69.27581 343
69.29593 318
69.31604 369
69.33615 339
69.35627 352
69.37638 339
69.39649 312
69.41661 333
69.43672 350
69.45683 339
69.47695 327
69.49706 356
69.51718 329
69.53729 335
69.5574 320
69.57752 311
69.59763 314
69.61774 334
69.63786 323
69.65797 301
69.67809 342
69.6982 334
69.71831 311
69.73843 298
69.75854 328
69.77865 351
69.79877 340
69.81888 348
69.839 332
69.85911 317
69.87922 350
69.89934 335
69.91945 336
69.93956 341
69.95968 353
69.97979 344
69.9999 351
70.02002 324
70.04013 345
70.06025 342
70.08036 311
70.10047 363
70.12059 349
70.1407 312
70.16081 348
70.18093 343
70.20104 348
70.22116 334
70.24127 350
70.26138 331
70.2815 320
70.30161 335
70.32172 350
70.34184 316
70.36195 332
70.38207 317
70.40218 319
70.42229 332
70.44241 342
70.46252 331
70.48263 366
70.50275 333
70.52286 289
70.54297 347
70.56309 294
70.5832 359
70.60332 331
70.62343 295
70.64354 336
70.66366 336
70.68377 345
70.70388 296
70.724 329
70.74411 345
70.76423 355
70.78434 305
70.80445 332
70.82457 306
70.84468 316
70.86479 322
70.88491 368
70.90502 339
70.92513 334
70.94525 306
70.96536 305
70.98548 309
71.00559 314
71.0257 341
71.04582 314
71.06593 340
71.08604 343
71.10616 341
71.12627 340
71.14639 306
71.1665 337
71.18661 332
71.20673 303
71.22684 316
71.24695 342
71.26707 307
71.28718 337
71.3073 327
71.32741 303
71.34752 320
71.36764 320
71.38775 337
71.40786 303
71.42798 332
71.44809 337
71.4682 304
71.48832 332
71.50843 335
71.52855 320
71.54866 337
71.56877 317
71.58889 340
71.609 335
71.62911 330
71.64923 345
71.66934 340
71.68946 325
71.70957 309
71.72968 319
71.7498 321
71.76991 345
71.79002 334
71.81014 340
71.83025 331
71.85037 357
71.87048 351
71.89059 337
71.91071 330
71.93082 332
71.95093 351
71.97105 349
71.99116 333
72.01127 337
72.03139 343
72.0515 314
72.07162 352
72.09173 326
72.11184 323
72.13196 339
72.15207 320
72.17218 364
72.1923 353
72.21241 301
72.23253 338
72.25264 326
72.27275 323
72.29287 290
72.31298 360
72.33309 354
72.35321 334
72.37332 322
72.39344 321
72.41355 339
72.43366 347
72.45378 330
72.47389 345
72.494 359
72.51412 330
72.53423 330
72.55434 348
72.57446 291
72.59457 338
72.61469 328
72.6348 318
72.65491 325
72.67503 347
72.69514 336
72.71525 342
72.73537 306
72.75548 347
72.7756 333
72.79571 328
72.81582 380
72.83594 326
72.85605 289
72.87616 305
72.89628 301
72.91639 328
72.9365 336
72.95662 361
72.97673 327
72.99685 335
73.01696 350
73.03707 328
73.05719 334
73.0773 377
73.09741 355
73.11753 362
73.13764 335
73.15776 384
73.17787 372
73.19798 396
73.2181 408
73.23821 402
73.25832 415
73.27844 431
73.29855 465
73.31867 456
73.33878 472
73.35889 479
73.37901 467
73.39912 506
73.41923 476
73.43935 490
73.45946 405
73.47957 418
73.49969 403
73.5198 409
73.53992 414
73.56003 400
73.58014 402
73.60026 396
73.62037 415
73.64048 364
73.6606 361
73.68071 392
73.70083 340
73.72094 352
73.74105 342
73.76117 333
73.78128 343
73.80139 329
73.82151 316
73.84162 354
73.86174 328
73.88185 348
73.90196 354
73.92208 324
73.94219 298
73.9623 334
73.98242 324
74.00253 340
74.02264 305
74.04276 344
74.06287 307
74.08299 340
74.1031 356
74.12321 326
74.14333 384
74.16344 315
74.18355 344
74.20367 347
74.22378 383
74.2439 345
74.26401 333
74.28412 317
74.30424 342
74.32435 320
74.34446 335
74.36458 320
74.38469 313
74.40481 327
74.42492 364
74.44503 306
74.46515 320
74.48526 327
74.50537 341
74.52549 322
74.5456 329
74.56571 300
74.58583 308
74.60594 335
74.62606 310
74.64617 318
74.66628 323
74.6864 299
74.70651 332
74.72662 309
74.74674 337
74.76685 342
74.78697 324
74.80708 346
74.82719 328
74.84731 308
74.86742 325
74.88753 328
74.90765 339
74.92776 324
74.94787 337
74.96799 347
74.9881 347
75.00822 310
