3.00117 20634
3.02128 20077
3.0414 19428
3.06151 19161
3.08162 18191
3.10174 18017
3.12185 17564
3.14197 16979
3.16208 16794
3.18219 16103
3.20231 15992
3.22242 14743
3.24253 14778
3.26265 14162
3.28276 13642
3.30288 13279
3.32299 13002
3.3431 12454
3.36322 12563
3.38333 11583
3.40344 11698
3.42356 11099
3.44367 10720
3.46379 10568
3.4839 10108
3.50401 9723
3.52413 9237
3.54424 9110
3.56435 8647
3.58447 8242
3.60458 8002
3.62469 7721
3.64481 7566
3.66492 7282
3.68504 6881
3.70515 6888
3.72526 6170
3.74538 6290
3.76549 6195
3.7856 5539
3.80572 5618
3.82583 5214
3.84595 4991
3.86606 4939
3.88617 4526
3.90629 4451
3.9264 4230
3.94651 4120
3.96663 4135
3.98674 3628
4.00686 3654
4.02697 3459
4.04708 3356
4.0672 3410
4.08731 2985
4.10742 2858
4.12754 2769
4.14765 2795
4.16776 2692
4.18788 2460
4.20799 2392
4.22811 2275
4.24822 2241
4.26833 2262
4.28845 2004
4.30856 1986
4.32867 1955
4.34879 1983
4.3689 1952
4.38902 1729
4.40913 1799
4.42924 1798
4.44936 1780
4.46947 1747
4.48958 1612
4.5097 1596
4.52981 1605
4.54992 1553
4.57004 1582
4.59015 1343
4.61027 1417
4.63038 1396
4.65049 1413
4.67061 1395
4.69072 1287
4.71083 1279
4.73095 1296
4.75106 1275
4.77118 1296
4.79129 1103
4.8114 1160
4.83152 1163
4.85163 1102
4.87174 1149
4.89186 1053
4.91197 1116
4.93209 1060
4.9522 1047
4.97231 1013
4.99243 945
5.01254 944
5.03265 922
5.05277 880
5.07288 877
5.09299 919
5.11311 894
5.13322 812
5.15334 852
5.17345 794
5.19356 809
5.21368 776
5.23379 784
5.2539 779
5.27402 792
5.29413 676
5.31425 699
5.33436 739
5.35447 711
5.37459 702
5.3947 761
5.41481 647
5.43493 717
5.45504 677
5.47516 622
5.49527 615
5.51538 594
5.5355 614
5.55561 632
5.57572 585
5.59584 596
5.61595 603
5.63606 538
5.65618 578
5.67629 548
5.69641 586
5.71652 515
5.73663 585
5.75675 567
5.77686 559
5.79697 505
5.81709 504
5.8372 505
5.85732 562
5.87743 509
5.89754 469
5.91766 521
5.93777 473
5.95788 507
5.978 499
5.99811 491
6.01823 473
6.03834 525
6.05845 485
6.07857 482
6.09868 479
6.11879 502
6.13891 456
6.15902 432
6.17913 510
6.19925 529
6.21936 484
6.23948 447
6.25959 516
6.2797 462
6.29982 479
6.31993 488
6.34004 466
6.36016 503
6.38027 512
6.40039 455
6.4205 463
6.44061 449
6.46073 450
6.48084 449
6.50095 408
6.52107 461
6.54118 484
6.56129 413
6.58141 494
6.60152 442
6.62164 480
6.64175 420
6.66186 426
6.68198 429
6.70209 425
6.7222 482
6.74232 439
6.76243 445
6.78255 429
6.80266 427
6.82277 429
6.84289 424
6.863 413
6.88311 449
6.90323 415
6.92334 422
6.94346 422
6.96357 413
6.98368 395
7.0038 401
7.02391 394
7.04402 420
7.06414 389
7.08425 446
7.10436 400
7.12448 415
7.14459 417
7.16471 415
7.18482 383
7.20493 424
7.22505 390
7.24516 409
7.26527 378
7.28539 402
7.3055 384
7.32562 440
7.34573 406
7.36584 394
7.38596 431
7.40607 387
7.42618 456
7.4463 376
7.46641 385
7.48653 378
7.50664 398
7.52675 377
7.54687 409
7.56698 413
7.58709 435
7.60721 351
7.62732 419
7.64743 384
7.66755 384
7.68766 395
7.70778 379
7.72789 374
7.748 393
7.76812 396
7.78823 440
7.80834 434
7.82846 397
7.84857 389
7.86869 446
7.8888 387
7.90891 405
7.92903 383
7.94914 394
7.96925 426
7.98937 440
8.00948 420
8.0296 381
8.04971 403
8.06982 404
8.08994 396
8.11005 411
8.13016 379
8.15028 431
8.17039 440
8.1905 365
8.21062 417
8.23073 403
8.25085 354
8.27096 387
8.29107 390
8.31119 387
8.3313 443
8.35141 423
8.37153 349
8.39164 405
8.41176 389
8.43187 395
8.45198 443
8.4721 398
8.49221 378
8.51232 419
8.53244 389
8.55255 372
8.57266 393
8.59278 392
8.61289 396
8.63301 388
8.65312 397
8.67323 398
8.69335 424
8.71346 370
8.73357 368
8.75369 385
8.7738 375
8.79392 384
8.81403 408
8.83414 372
8.85426 396
8.87437 403
8.89448 409
8.9146 370
8.93471 386
8.95483 395
8.97494 419
8.99505 410
9.01517 411
9.03528 395
9.05539 409
9.07551 355
9.09562 361
9.11573 395
9.13585 396
9.15596 345
9.17608 382
9.19619 418
9.2163 421
9.23642 396
9.25653 411
9.27664 378
9.29676 348
9.31687 403
9.33699 411
9.3571 377
9.37721 346
9.39733 356
9.41744 377
9.43755 381
9.45767 403
9.47778 364
9.4979 407
9.51801 369
9.53812 369
9.55824 393
9.57835 374
9.59846 385
9.61858 369
9.63869 364
9.6588 374
9.67892 376
9.69903 367
9.71915 382
9.73926 396
9.75937 377
9.77949 383
9.7996 348
9.81971 373
9.83983 342
9.85994 376
9.88006 408
9.90017 392
9.92028 396
9.9404 383
9.96051 353
9.98062 372
10.00074 407
10.02085 402
10.04097 393
10.06108 336
10.08119 402
10.10131 391
10.12142 364
10.14153 390
10.16165 380
10.18176 417
10.20187 420
10.22199 376
10.2421 355
10.26222 399
10.28233 391
10.30244 401
10.32256 403
10.34267 371
10.36278 394
10.3829 373
10.40301 362
10.42313 406
10.44324 383
10.46335 399
10.48347 360
10.50358 405
10.52369 404
10.54381 358
10.56392 349
10.58403 330
10.60415 383
10.62426 330
10.64438 388
10.66449 385
10.6846 373
10.70472 349
10.72483 394
10.74494 366
10.76506 383
10.78517 388
10.80529 398
10.8254 392
10.84551 379
10.86563 399
10.88574 393
10.90585 399
10.92597 403
10.94608 402
10.9662 377
10.98631 359
11.00642 396
11.02654 399
11.04665 433
11.06676 420
11.08688 393
11.10699 392
11.1271 402
11.14722 394
11.16733 413
11.18745 408
11.20756 385
11.22767 437
11.24779 435
11.2679 432
11.28801 401
11.30813 410
11.32824 413
11.34836 448
11.36847 411
11.38858 419
11.4087 387
11.42881 447
11.44892 398
11.46904 432
11.48915 449
11.50927 416
11.52938 427
11.54949 452
11.56961 394
11.58972 428
11.60983 445
11.62995 419
11.65006 430
11.67017 443
11.69029 445
11.7104 496
11.73052 482
11.75063 474
11.77074 462
11.79086 494
11.81097 500
11.83108 537
11.8512 563
11.87131 506
11.89143 567
11.91154 618
11.93165 583
11.95177 631
11.97188 643
11.99199 599
12.01211 689
12.03222 754
12.05234 745
12.07245 780
12.09256 908
12.11268 921
12.13279 941
12.1529 1043
12.17302 1048
12.19313 1161
12.21324 1187
12.23336 1236
12.25347 1236
12.27359 1265
12.2937 1262
12.31381 1241
12.33393 1102
12.35404 1106
12.37415 1103
12.39427 1027
12.41438 949
12.4345 926
12.45461 851
12.47472 787
12.49484 700
12.51495 745
12.53506 712
12.55518 611
12.57529 577
12.5954 569
12.61552 586
12.63563 539
12.65575 520
12.67586 489
12.69597 531
12.71609 508
12.7362 484
12.75631 438
12.77643 453
12.79654 405
12.81666 448
12.83677 439
12.85688 442
12.877 382
12.89711 417
12.91722 395
12.93734 341
12.95745 381
12.97757 402
12.99768 373
13.01779 405
13.03791 391
13.05802 381
13.07813 367
13.09825 390
13.11836 357
13.13847 343
13.15859 371
13.1787 349
13.19882 374
13.21893 370
13.23904 355
13.25916 354
13.27927 380
13.29938 383
13.3195 353
13.33961 355
13.35973 355
13.37984 376
13.39995 329
13.42007 342
13.44018 349
13.46029 350
13.48041 337
13.50052 368
13.52064 383
13.54075 383
13.56086 356
13.58098 319
13.60109 398
13.6212 366
13.64132 343
13.66143 330
13.68154 347
13.70166 359
13.72177 379
13.74189 319
13.762 337
13.78211 334
13.80223 377
13.82234 370
13.84245 351
13.86257 345
13.88268 340
13.9028 351
13.92291 340
13.94302 322
13.96314 355
13.98325 319
14.00336 368
14.02348 306
14.04359 357
14.06371 335
14.08382 344
14.10393 327
14.12405 347
14.14416 357
14.16427 333
14.18439 339
14.2045 354
14.22461 311
14.24473 301
14.26484 318
14.28496 342
14.30507 335
14.32518 363
14.3453 345
14.36541 336
14.38552 338
14.40564 352
14.42575 325
14.44587 292
14.46598 341
14.48609 322
14.50621 322
14.52632 314
14.54643 347
14.56655 320
14.58666 378
14.60677 342
14.62689 336
14.647 309
14.66712 316
14.68723 288
14.70734 349
14.72746 323
14.74757 298
14.76768 350
14.7878 320
14.80791 316
14.82803 364
14.84814 322
14.86825 323
14.88837 325
14.90848 294
14.92859 348
14.94871 344
14.96882 345
14.98894 318
15.00905 339
15.02916 311
15.04928 333
15.06939 330
15.0895 339
15.10962 357
15.12973 329
15.14984 310
15.16996 310
15.19007 333
15.21019 322
15.2303 338
15.25041 340
15.27053 329
15.29064 330
15.31075 344
15.33087 349
15.35098 331
15.3711 307
15.39121 328
15.41132 313
15.43144 335
15.45155 314
15.47166 295
15.49178 330
15.51189 334
15.53201 326
15.55212 304
15.57223 332
15.59235 301
15.61246 328
15.63257 289
15.65269 324
15.6728 306
15.69291 326
15.71303 349
15.73314 327
15.75326 335
15.77337 322
15.79348 315
15.8136 308
15.83371 326
15.85382 317
15.87394 327
15.89405 283
15.91417 314
15.93428 348
15.95439 343
15.97451 346
15.99462 329
16.01473 295
16.03485 297
16.05496 292
16.07508 317
16.09519 344
16.1153 295
16.13542 309
16.15553 297
16.17564 311
16.19576 286
16.21587 319
16.23598 310
16.2561 335
16.27621 298
16.29633 346
16.31644 310
16.33655 326
16.35667 345
16.37678 332
16.39689 296
16.41701 321
16.43712 344
16.45724 305
16.47735 348
16.49746 308
16.51758 358
16.53769 313
16.5578 349
16.57792 309
16.59803 298
16.61814 313
16.63826 315
16.65837 331
16.67849 318
16.6986 349
16.71871 348
16.73883 301
16.75894 313
16.77905 306
16.79917 356
16.81928 310
16.8394 363
16.85951 338
16.87962 295
16.89974 318
16.91985 329
16.93996 305
16.96008 329
16.98019 335
17.00031 317
17.02042 340
17.04053 320
17.06065 331
17.08076 331
17.10087 329
17.12099 323
17.1411 310
17.16121 347
17.18133 294
17.20144 324
17.22156 338
17.24167 329
17.26178 330
17.2819 334
17.30201 360
17.32212 330
17.34224 342
17.36235 355
17.38247 330
17.40258 306
17.42269 327
17.44281 335
17.46292 331
17.48303 343
17.50315 367
17.52326 328
17.54338 348
17.56349 311
17.5836 321
17.60372 325
17.62383 305
17.64394 347
17.66406 333
17.68417 394
17.70428 309
17.7244 345
17.74451 361
17.76463 314
17.78474 359
17.80485 364
17.82497 316
17.84508 353
17.86519 323
17.88531 348
17.90542 359
17.92554 337
17.94565 313
17.96576 336
17.98588 340
18.00599 341
18.0261 304
18.04622 320
18.06633 329
18.08645 325
18.10656 361
18.12667 347
18.14679 329
18.1669 345
18.18701 363
18.20713 347
18.22724 375
18.24735 336
18.26747 363
18.28758 325
18.3077 324
18.32781 312
18.34792 334
18.36804 338
18.38815 341
18.40826 325
18.42838 347
18.44849 329
18.46861 314
18.48872 339
18.50883 328
18.52895 349
18.54906 319
18.56917 296
18.58929 339
18.6094 347
18.62951 355
18.64963 304
18.66974 301
18.68986 308
18.70997 341
18.73008 351
18.7502 335
18.77031 353
18.79042 336
18.81054 330
18.83065 361
18.85077 327
18.87088 327
18.89099 323
18.91111 302
18.93122 296
18.95133 323
18.97145 340
18.99156 298
19.01168 310
19.03179 309
19.0519 353
19.07202 353
19.09213 366
19.11224 333
19.13236 380
19.15247 377
19.17258 377
19.1927 334
19.21281 328
19.23293 351
19.25304 378
19.27315 343
19.29327 348
19.31338 402
19.33349 345
19.35361 382
19.37372 402
19.39384 400
19.41395 413
19.43406 357
19.45418 412
19.47429 381
19.4944 413
19.51452 436
19.53463 422
19.55475 397
19.57486 462
19.59497 466
19.61509 500
19.6352 520
19.65531 561
19.67543 617
19.69554 689
19.71565 721
19.73577 771
19.75588 843
19.776 889
19.79611 890
19.81622 944
19.83634 991
19.85645 979
19.87656 971
19.89668 901
19.91679 932
19.93691 895
19.95702 891
19.97713 854
19.99725 841
20.01736 915
20.03747 854
20.05759 868
20.0777 810
20.09782 798
20.11793 815
20.13804 797
20.15816 858
20.17827 845
20.19838 771
20.2185 745
20.23861 856
20.25872 802
20.27884 835
20.29895 833
20.31907 809
20.33918 831
20.35929 869
20.37941 891
20.39952 849
20.41963 853
20.43975 911
20.45986 924
20.47998 893
20.50009 872
20.5202 873
20.54032 890
20.56043 960
20.58054 981
20.60066 1050
20.62077 1115
20.64088 1228
20.661 1373
20.68111 1620
20.70123 2082
20.72134 2374
20.74145 2937
20.76157 3453
20.78168 3651
20.80179 3695
20.82191 3471
20.84202 2929
20.86214 2465
20.88225 2001
20.90236 1550
20.92248 1228
20.94259 1098
20.9627 970
20.98282 926
21.00293 897
21.02305 846
21.04316 833
21.06327 824
21.08339 899
21.1035 842
21.12361 817
21.14373 846
21.16384 799
21.18395 835
21.20407 817
21.22418 808
21.2443 829
21.26441 805
21.28452 833
21.30464 867
21.32475 844
21.34486 810
21.36498 839
21.38509 836
21.40521 738
21.42532 745
21.44543 732
21.46555 760
21.48566 746
21.50577 780
21.52589 795
21.546 720
21.56612 733
21.58623 684
21.60634 670
21.62646 677
21.64657 701
21.66668 634
21.6868 686
21.70691 674
21.72702 641
21.74714 617
21.76725 657
21.78737 644
21.80748 618
21.82759 645
21.84771 649
21.86782 578
21.88793 603
21.90805 621
21.92816 633
21.94828 581
21.96839 585
21.9885 551
22.00862 579
22.02873 626
22.04884 642
22.06896 612
22.08907 558
22.10919 619
22.1293 558
22.14941 576
22.16953 575
22.18964 579
22.20975 543
22.22987 527
22.24998 516
22.27009 581
22.29021 520
22.31032 550
22.33044 569
22.35055 549
22.37066 528
22.39078 563
22.41089 538
22.431 568
22.45112 561
22.47123 582
22.49135 485
22.51146 546
22.53157 536
22.55169 509
22.5718 571
22.59191 511
22.61203 468
22.63214 546
22.65225 520
22.67237 511
22.69248 515
22.7126 516
22.73271 505
22.75282 476
22.77294 465
22.79305 543
22.81316 501
22.83328 517
22.85339 547
22.87351 523
22.89362 486
22.91373 540
22.93385 513
22.95396 479
22.97407 523
22.99419 464
23.0143 509
23.03442 441
23.05453 483
23.07464 490
23.09476 487
23.11487 472
23.13498 485
23.1551 511
23.17521 501
23.19532 443
23.21544 505
23.23555 488
23.25567 501
23.27578 478
23.29589 471
23.31601 447
23.33612 499
23.35623 474
23.37635 455
23.39646 451
23.41658 511
23.43669 475
23.4568 466
23.47692 443
23.49703 507
23.51714 493
23.53726 431
23.55737 452
23.57749 532
23.5976 476
23.61771 467
23.63783 520
23.65794 511
23.67805 511
23.69817 490
23.71828 470
23.73839 484
23.75851 506
23.77862 495
23.79874 512
23.81885 470
23.83896 498
23.85908 501
23.87919 509
23.8993 561
23.91942 563
23.93953 528
23.95965 522
23.97976 557
23.99987 530
24.01999 495
24.0401 532
24.06021 520
24.08033 518
24.10044 554
24.12056 532
24.14067 532
24.16078 536
24.1809 537
24.20101 550
24.22112 503
24.24124 534
24.26135 515
24.28146 522
24.30158 568
24.32169 551
24.34181 542
24.36192 586
24.38203 607
24.40215 595
24.42226 627
24.44237 666
24.46249 622
24.4826 648
24.50272 695
24.52283 675
24.54294 719
24.56306 730
24.58317 765
24.60328 826
24.6234 826
24.64351 850
24.66362 869
24.68374 933
24.70385 991
24.72397 1032
24.74408 1048
24.76419 1086
24.78431 1154
24.80442 1088
24.82453 1116
24.84465 1062
24.86476 1071
24.88488 1044
24.90499 999
24.9251 931
24.94522 875
24.96533 914
24.98544 920
25.00556 788
25.02567 793
25.04579 788
25.0659 735
25.08601 713
25.10613 694
25.12624 703
25.14635 722
25.16647 727
25.18658 691
25.20669 745
25.22681 682
25.24692 673
25.26704 640
25.28715 616
25.30726 601
25.32738 592
25.34749 609
25.3676 553
25.38772 585
25.40783 548
25.42795 504
25.44806 509
25.46817 544
25.48829 526
25.5084 550
25.52851 566
25.54863 537
25.56874 563
25.58886 528
25.60897 530
25.62908 578
25.6492 557
25.66931 576
25.68942 524
25.70954 601
25.72965 589
25.74976 613
25.76988 569
25.78999 566
25.81011 575
25.83022 593
25.85033 586
25.87045 586
25.89056 640
25.91067 591
25.93079 586
25.9509 546
25.97102 571
25.99113 657
26.01124 640
26.03136 612
26.05147 640
26.07158 636
26.0917 679
26.11181 750
26.13193 726
26.15204 797
26.17215 802
26.19227 871
26.21238 824
26.23249 902
26.25261 988
26.27272 1060
26.29283 1112
26.31295 1217
26.33306 1399
26.35318 1661
26.37329 1928
26.3934 2261
26.41352 2899
26.43363 3703
26.45374 4826
26.47386 6362
26.49397 8387
26.51409 10430
26.5342 12865
26.55431 14187
26.57443 14421
26.59454 13360
26.61465 11513
26.63477 9354
26.65488 7152
26.67499 5190
26.69511 3644
26.71522 2412
26.73534 1749
26.75545 1407
26.77556 1209
26.79568 1127
26.81579 985
26.8359 960
26.85602 896
26.87613 840
26.89625 741
26.91636 715
26.93647 726
26.95659 684
26.9767 634
26.99681 599
27.01693 594
27.03704 587
27.05716 581
27.07727 522
27.09738 576
27.1175 541
27.13761 545
27.15772 508
27.17784 597
27.19795 545
27.21806 508
27.23818 540
27.25829 504
27.27841 560
27.29852 539
27.31863 513
27.33875 483
27.35886 506
27.37897 509
27.39909 486
27.4192 453
27.43932 513
27.45943 481
27.47954 477
27.49966 489
27.51977 469
27.53988 448
27.56 439
27.58011 417
27.60023 479
27.62034 398
27.64045 476
27.66057 477
27.68068 435
27.70079 433
27.72091 424
27.74102 439
27.76113 419
27.78125 427
27.80136 436
27.82148 472
27.84159 441
27.8617 451
27.88182 426
27.90193 411
27.92204 440
27.94216 447
27.96227 406
27.98239 372
28.0025 423
28.02261 426
28.04273 411
28.06284 417
28.08295 396
28.10307 432
28.12318 411
28.1433 407
28.16341 397
28.18352 399
28.20364 402
28.22375 439
28.24386 425
28.26398 424
28.28409 388
28.3042 406
28.32432 453
28.34443 409
28.36455 353
28.38466 359
28.40477 393
28.42489 385
28.445 400
28.46511 368
28.48523 399
28.50534 397
28.52546 375
28.54557 393
28.56568 361
28.5858 400
28.60591 393
28.62602 408
28.64614 379
28.66625 361
28.68636 376
28.70648 360
28.72659 366
28.74671 384
28.76682 400
28.78693 417
28.80705 416
28.82716 378
28.84727 389
28.86739 376
28.8875 404
28.90762 349
28.92773 393
28.94784 376
28.96796 350
28.98807 373
29.00818 392
29.0283 410
29.04841 369
29.06853 396
29.08864 401
29.10875 405
29.12887 346
29.14898 385
29.16909 370
29.18921 372
29.20932 392
29.22943 383
29.24955 360
29.26966 387
29.28978 351
29.30989 389
29.33 379
29.35012 375
29.37023 364
29.39034 405
29.41046 397
29.43057 381
29.45069 356
29.4708 355
29.49091 337
29.51103 355
29.53114 377
29.55125 394
29.57137 380
29.59148 363
29.6116 357
29.63171 352
29.65182 343
29.67194 365
29.69205 334
29.71216 366
29.73228 358
29.75239 411
29.7725 373
29.79262 399
29.81273 351
29.83285 384
29.85296 386
29.87307 346
29.89319 380
29.9133 365
29.93341 321
29.95353 399
29.97364 387
29.99376 364
30.01387 388
30.03398 381
30.0541 356
30.07421 405
30.09432 383
30.11444 348
30.13455 359
30.15467 385
30.17478 374
30.19489 388
30.21501 365
30.23512 372
30.25523 437
30.27535 349
30.29546 386
30.31557 397
30.33569 375
30.3558 345
30.37592 404
30.39603 382
30.41614 359
30.43626 382
30.45637 370
30.47648 343
30.4966 366
30.51671 349
30.53683 337
30.55694 342
30.57705 357
30.59717 360
30.61728 368
30.63739 381
30.65751 384
30.67762 336
30.69773 348
30.71785 372
30.73796 389
30.75808 377
30.77819 354
30.7983 365
30.81842 355
30.83853 365
30.85864 319
30.87876 332
30.89887 344
30.91899 365
30.9391 358
30.95921 331
30.97933 330
30.99944 360
31.01955 348
31.03967 351
31.05978 352
31.0799 350
31.10001 315
31.12012 351
31.14024 349
31.16035 353
31.18046 355
31.20058 355
31.22069 340
31.2408 329
31.26092 345
31.28103 369
31.30115 346
31.32126 345
31.34137 346
31.36149 314
31.3816 354
31.40171 334
31.42183 311
31.44194 349
31.46206 317
31.48217 320
31.50228 387
31.5224 332
31.54251 375
31.56262 381
31.58274 362
31.60285 366
31.62297 353
31.64308 353
31.66319 299
31.68331 370
31.70342 378
31.72353 335
31.74365 363
31.76376 344
31.78387 344
31.80399 354
31.8241 367
31.84422 358
31.86433 351
31.88444 355
31.90456 343
31.92467 342
31.94478 357
31.9649 320
31.98501 341
32.00513 385
32.02524 324
32.04535 316
32.06547 348
32.08558 346
32.10569 369
32.12581 337
32.14592 330
32.16604 356
32.18615 377
32.20626 355
32.22638 371
32.24649 355
32.2666 324
32.28672 379
32.30683 318
32.32694 357
32.34706 342
32.36717 343
32.38729 364
32.4074 354
32.42751 385
32.44763 344
32.46774 378
32.48785 379
32.50797 334
32.52808 378
32.5482 373
32.56831 354
32.58842 377
32.60854 352
32.62865 372
32.64876 416
32.66888 380
32.68899 380
32.7091 336
32.72922 387
32.74933 399
32.76945 363
32.78956 392
32.80967 389
32.82979 355
32.8499 398
32.87001 369
32.89013 421
32.91024 391
32.93036 412
32.95047 401
32.97058 406
32.9907 429
33.01081 414
33.03092 440
33.05104 460
33.07115 412
33.09127 431
33.11138 463
33.13149 446
33.15161 399
33.17172 446
33.19183 449
33.21195 415
33.23206 386
33.25217 424
33.27229 404
33.2924 414
33.31252 395
33.33263 404
33.35274 373
33.37286 373
33.39297 450
33.41308 423
33.4332 398
33.45331 408
33.47343 390
33.49354 399
33.51365 405
33.53377 435
33.55388 380
33.57399 386
33.59411 402
33.61422 412
33.63434 434
33.65445 386
33.67456 354
33.69468 417
33.71479 386
33.7349 399
33.75502 383
33.77513 353
33.79524 351
33.81536 433
33.83547 387
33.85559 381
33.8757 368
33.89581 386
33.91593 375
33.93604 373
33.95615 354
33.97627 343
33.99638 377
34.0165 357
34.03661 360
34.05672 384
34.07684 377
34.09695 376
34.11706 391
34.13718 373
34.15729 384
34.17741 369
34.19752 367
34.21763 411
34.23775 373
34.25786 374
34.27797 356
34.29809 379
34.3182 394
34.33831 385
34.35843 421
34.37854 383
34.39866 366
34.41877 343
34.43888 371
34.459 412
34.47911 402
34.49922 415
34.51934 432
34.53945 451
34.55957 436
34.57968 458
34.59979 440
34.61991 497
34.64002 455
34.66013 510
34.68025 499
34.70036 500
34.72047 553
34.74059 534
34.7607 591
34.78082 571
34.80093 602
34.82104 634
34.84116 676
34.86127 659
34.88138 662
34.9015 631
34.92161 638
34.94173 677
34.96184 679
34.98195 648
35.00207 650
35.02218 583
35.04229 617
35.06241 642
35.08252 598
35.10264 594
35.12275 579
35.14286 568
35.16298 557
35.18309 533
35.2032 588
35.22332 605
35.24343 562
35.26354 574
35.28366 577
35.30377 583
35.32389 588
35.344 564
35.36411 563
35.38423 615
35.40434 637
35.42445 646
35.44457 585
35.46468 609
35.4848 637
35.50491 630
35.52502 629
35.54514 610
35.56525 614
35.58536 660
35.60548 613
35.62559 650
35.64571 589
35.66582 648
35.68593 642
35.70605 710
35.72616 614
35.74627 661
35.76639 690
35.7865 668
35.80661 667
35.82673 734
35.84684 706
35.86696 700
35.88707 693
35.90718 687
35.9273 640
35.94741 669
35.96752 649
35.98764 582
36.00775 610
36.02787 603
36.04798 587
36.06809 569
36.08821 548
36.10832 564
36.12843 518
36.14855 529
36.16866 532
36.18878 519
36.20889 534
36.229 522
36.24912 560
36.26923 579
36.28934 626
36.30946 670
36.32957 696
36.34968 760
36.3698 849
36.38991 1027
36.41003 1153
36.43014 1287
36.45025 1307
36.47037 1334
36.49048 1333
36.51059 1168
36.53071 1043
36.55082 1024
36.57094 886
36.59105 798
36.61116 632
36.63128 630
36.65139 553
36.6715 461
36.69162 496
36.71173 503
36.73184 477
36.75196 513
36.77207 486
36.79219 464
36.8123 514
36.83241 498
36.85253 577
36.87264 517
36.89275 512
36.91287 509
36.93298 545
36.9531 506
36.97321 506
36.99332 462
37.01344 488
37.03355 520
37.05366 470
37.07378 498
37.09389 505
37.11401 454
37.13412 477
37.15423 482
37.17435 499
37.19446 496
37.21457 491
37.23469 496
37.2548 469
37.27491 466
37.29503 447
37.31514 428
37.33526 483
37.35537 498
37.37548 444
37.3956 455
37.41571 478
37.43582 445
37.45594 481
37.47605 484
37.49617 451
37.51628 483
37.53639 516
37.55651 518
37.57662 510
37.59673 475
37.61685 452
37.63696 528
37.65708 483
37.67719 512
37.6973 480
37.71742 495
37.73753 518
37.75764 526
37.77776 493
37.79787 479
37.81798 515
37.8381 453
37.85821 508
37.87833 496
37.89844 475
37.91855 502
37.93867 521
37.95878 471
37.97889 518
37.99901 520
38.01912 535
38.03924 530
38.05935 544
38.07946 582
38.09958 559
38.11969 578
38.1398 624
38.15992 607
38.18003 614
38.20015 610
38.22026 697
38.24037 678
38.26049 690
38.2806 696
38.30071 722
38.32083 680
38.34094 707
38.36105 712
38.38117 707
38.40128 710
38.4214 727
38.44151 695
38.46162 647
38.48174 671
38.50185 653
38.52196 592
38.54208 629
38.56219 591
38.58231 641
38.60242 546
38.62253 590
38.64265 538
38.66276 549
38.68287 602
38.70299 512
38.7231 485
38.74321 508
38.76333 527
38.78344 535
38.80356 534
38.82367 532
38.84378 492
38.8639 541
38.88401 572
38.90412 523
38.92424 521
38.94435 527
38.96447 496
38.98458 505
39.00469 575
39.02481 538
39.04492 556
39.06503 593
39.08515 615
39.10526 616
39.12538 628
39.14549 615
39.1656 611
39.18572 658
39.20583 656
39.22594 654
39.24606 755
39.26617 808
39.28628 891
39.3064 933
39.32651 1072
39.34663 1141
39.36674 1250
39.38685 1281
39.40697 1208
39.42708 1190
39.44719 1008
39.46731 953
39.48742 852
39.50754 761
39.52765 682
39.54776 564
39.56788 528
39.58799 485
39.6081 487
39.62822 419
39.64833 432
39.66845 468
39.68856 375
39.70867 432
39.72879 454
39.7489 410
39.76901 427
39.78913 417
39.80924 455
39.82935 413
39.84947 421
39.86958 413
39.8897 402
39.90981 419
39.92992 423
39.95004 389
39.97015 455
39.99026 443
40.01038 468
40.03049 465
40.05061 448
40.07072 514
40.09083 551
40.11095 583
40.13106 684
40.15117 693
40.17129 708
40.1914 728
40.21152 770
40.23163 726
40.25174 737
40.27186 596
40.29197 617
40.31208 591
40.3322 568
40.35231 555
40.37242 542
40.39254 493
40.41265 462
40.43277 429
40.45288 424
40.47299 445
40.49311 438
40.51322 467
40.53333 445
40.55345 444
40.57356 449
40.59368 400
40.61379 415
40.6339 443
40.65402 414
40.67413 436
40.69424 417
40.71436 429
40.73447 405
40.75458 430
40.7747 401
40.79481 410
40.81493 416
40.83504 368
40.85515 430
40.87527 440
40.89538 434
40.91549 429
40.93561 430
40.95572 445
40.97584 414
40.99595 370
41.01606 455
41.03618 410
41.05629 409
41.0764 383
41.09652 390
41.11663 382
41.13675 406
41.15686 395
41.17697 422
41.19709 407
41.2172 410
41.23731 394
41.25743 378
41.27754 405
41.29765 408
41.31777 396
41.33788 416
41.358 383
41.37811 354
41.39822 392
41.41834 360
41.43845 395
41.45856 367
41.47868 379
41.49879 365
41.51891 378
41.53902 355
41.55913 391
41.57925 374
41.59936 381
41.61947 354
41.63959 382
41.6597 355
41.67982 416
41.69993 342
41.72004 338
41.74016 395
41.76027 371
41.78038 357
41.8005 353
41.82061 350
41.84072 400
41.86084 381
41.88095 394
41.90107 379
41.92118 372
41.94129 336
41.96141 340
41.98152 386
42.00163 380
42.02175 397
42.04186 369
42.06198 367
42.08209 380
42.1022 415
42.12232 406
42.14243 361
42.16254 425
42.18266 478
42.20277 446
42.22289 511
42.243 582
42.26311 626
42.28323 677
42.30334 764
42.32345 839
42.34357 958
42.36368 949
42.38379 868
42.40391 852
42.42402 753
42.44414 730
42.46425 645
42.48436 603
42.50448 537
42.52459 495
42.5447 455
42.56482 441
42.58493 396
42.60505 386
42.62516 368
42.64527 335
42.66539 308
42.6855 367
42.70561 377
42.72573 335
42.74584 333
42.76595 314
42.78607 336
42.80618 335
42.8263 307
42.84641 326
42.86652 327
42.88664 324
42.90675 321
42.92686 325
42.94698 318
42.96709 337
42.98721 331
43.00732 328
43.02743 343
43.04755 307
43.06766 314
43.08777 322
43.10789 324
43.128 323
43.14812 299
43.16823 352
43.18834 318
43.20846 343
43.22857 306
43.24868 298
43.2688 311
43.28891 335
43.30902 319
43.32914 320
43.34925 306
43.36937 304
43.38948 308
43.40959 338
43.42971 316
43.44982 345
43.46993 313
43.49005 302
43.51016 322
43.53028 323
43.55039 294
43.5705 347
43.59062 304
43.61073 302
43.63084 332
43.65096 294
43.67107 331
43.69119 317
43.7113 313
43.73141 321
43.75153 308
43.77164 362
43.79175 335
43.81187 327
43.83198 299
43.85209 311
43.87221 328
43.89232 329
43.91244 336
43.93255 326
43.95266 321
43.97278 324
43.99289 296
44.013 345
44.03312 360
44.05323 302
44.07335 290
44.09346 304
44.11357 317
44.13369 380
44.1538 316
44.17391 317
44.19403 317
44.21414 325
44.23426 324
44.25437 324
44.27448 341
44.2946 308
44.31471 299
44.33482 322
44.35494 316
44.37505 365
44.39516 321
44.41528 317
44.43539 289
44.45551 329
44.47562 341
44.49573 343
44.51585 288
44.53596 306
44.55607 311
44.57619 313
44.5963 336
44.61642 311
44.63653 310
44.65664 343
44.67676 312
44.69687 300
44.71698 311
44.7371 350
44.75721 335
44.77732 338
44.79744 352
44.81755 344
44.83767 339
44.85778 316
44.87789 311
44.89801 363
44.91812 364
44.93823 379
44.95835 340
44.97846 338
44.99858 337
45.01869 387
45.0388 371
45.05892 386
45.07903 332
45.09914 352
45.11926 379
45.13937 369
45.15949 385
45.1796 368
45.19971 391
45.21983 407
45.23994 429
45.26005 423
45.28017 412
45.30028 405
45.32039 413
45.34051 376
45.36062 370
45.38074 457
45.40085 448
45.42096 440
45.44108 464
45.46119 438
45.4813 481
45.50142 468
45.52153 488
45.54165 501
45.56176 486
45.58187 526
45.60199 554
45.6221 600
45.64221 656
45.66233 665
45.68244 759
45.70256 754
45.72267 779
45.74278 687
45.7629 730
45.78301 631
45.80312 553
45.82324 551
45.84335 553
45.86346 527
45.88358 465
45.90369 446
45.92381 374
45.94392 383
45.96403 421
45.98415 368
46.00426 368
46.02437 359
46.04449 364
46.0646 320
46.08472 367
46.10483 349
46.12494 344
46.14506 384
46.16517 305
46.18528 379
46.2054 339
46.22551 363
46.24563 337
46.26574 364
46.28585 350
46.30597 347
46.32608 362
46.34619 360
46.36631 334
46.38642 329
46.40653 350
46.42665 331
46.44676 356
46.46688 384
46.48699 376
46.5071 368
46.52722 325
46.54733 363
46.56744 340
46.58756 377
46.60767 376
46.62779 383
46.6479 373
46.66801 363
46.68813 394
46.70824 385
46.72835 397
46.74847 374
46.76858 354
46.78869 312
46.80881 342
46.82892 343
46.84904 332
46.86915 348
46.88926 328
46.90938 342
46.92949 343
46.9496 354
46.96972 335
46.98983 361
47.00995 331
47.03006 373
47.05017 324
47.07029 331
47.0904 337
47.11051 382
47.13063 353
47.15074 311
47.17086 348
47.19097 333
47.21108 339
47.2312 344
47.25131 324
47.27142 367
47.29154 341
47.31165 346
47.33176 365
47.35188 378
47.37199 340
47.39211 352
47.41222 339
47.43233 370
47.45245 362
47.47256 344
47.49267 366
47.51279 332
47.5329 376
47.55302 331
47.57313 314
47.59324 313
47.61336 354
47.63347 369
47.65358 369
47.6737 387
47.69381 356
47.71393 358
47.73404 351
47.75415 357
47.77427 345
47.79438 382
47.81449 337
47.83461 380
47.85472 363
47.87483 349
47.89495 343
47.91506 391
47.93518 326
47.95529 376
47.9754 374
47.99552 376
48.01563 362
48.03574 380
48.05586 339
48.07597 332
48.09609 348
48.1162 342
48.13631 357
48.15643 333
48.17654 358
48.19665 356
48.21677 356
48.23688 352
48.257 353
48.27711 346
48.29722 324
48.31734 348
48.33745 351
48.35756 330
48.37768 329
48.39779 340
48.4179 337
48.43802 316
48.45813 340
48.47825 363
48.49836 340
48.51847 352
48.53859 333
48.5587 344
48.57881 324
48.59893 365
48.61904 328
48.63916 295
48.65927 357
48.67938 336
48.6995 338
48.71961 370
48.73972 349
48.75984 340
48.77995 360
48.80006 369
48.82018 340
48.84029 323
48.86041 331
48.88052 328
48.90063 321
48.92075 300
48.94086 358
48.96097 298
48.98109 313
49.0012 369
49.02132 339
49.04143 359
49.06154 346
49.08166 348
49.10177 364
49.12188 354
49.142 379
49.16211 361
49.18223 367
49.20234 385
49.22245 382
49.24257 377
49.26268 364
49.28279 376
49.30291 370
49.32302 375
49.34313 362
49.36325 388
49.38336 392
49.40348 393
49.42359 378
49.4437 391
49.46382 357
49.48393 381
49.50404 354
49.52416 379
49.54427 365
49.56439 358
49.5845 355
49.60461 382
49.62473 379
49.64484 415
49.66495 396
49.68507 429
49.70518 394
49.7253 389
49.74541 455
49.76552 464
49.78564 457
49.80575 514
49.82586 502
49.84598 527
49.86609 624
49.8862 616
49.90632 757
49.92643 849
49.94655 1012
49.96666 1151
49.98677 1206
50.00689 1474
50.027 1604
50.04711 1639
50.06723 1674
50.08734 1534
50.10746 1357
50.12757 1162
50.14768 1059
50.1678 1020
50.18791 984
50.20802 926
50.22814 834
50.24825 623
50.26837 543
50.28848 490
50.30859 456
50.32871 412
50.34882 400
50.36893 376
50.38905 430
50.40916 384
50.42927 390
50.44939 361
50.4695 375
50.48962 376
50.50973 386
50.52984 380
50.54996 356
50.57007 398
50.59018 360
50.6103 313
50.63041 368
50.65053 361
50.67064 369
50.69075 368
50.71087 349
50.73098 388
50.75109 387
50.77121 369
50.79132 369
50.81143 376
50.83155 377
50.85166 367
50.87178 390
50.89189 352
50.912 373
50.93212 343
50.95223 372
50.97234 368
50.99246 345
51.01257 334
51.03269 379
51.0528 344
51.07291 351
51.09303 340
51.11314 339
51.13325 326
51.15337 348
51.17348 345
51.1936 331
51.21371 350
51.23382 327
51.25394 303
51.27405 323
51.29416 342
51.31428 296
51.33439 309
51.3545 321
51.37462 293
51.39473 324
51.41485 313
51.43496 308
51.45507 292
51.47519 317
51.4953 292
51.51541 309
51.53553 315
51.55564 325
51.57576 325
51.59587 297
51.61598 319
51.6361 316
51.65621 300
51.67632 307
51.69644 297
51.71655 276
51.73667 326
51.75678 314
51.77689 279
51.79701 294
51.81712 314
51.83723 309
51.85735 338
51.87746 259
51.89757 333
51.91769 316
51.9378 329
51.95792 319
51.97803 321
51.99814 300
52.01826 309
52.03837 325
52.05848 319
52.0786 321
52.09871 306
52.11883 330
52.13894 318
52.15905 298
52.17917 290
52.19928 289
52.21939 334
52.23951 301
52.25962 300
52.27974 322
52.29985 288
52.31996 291
52.34008 299
52.36019 277
52.3803 300
52.40042 301
52.42053 287
52.44064 327
52.46076 324
52.48087 293
52.50099 323
52.5211 314
52.54121 320
52.56133 312
52.58144 293
52.60155 326
52.62167 309
52.64178 315
52.6619 301
52.68201 332
52.70212 322
52.72224 306
52.74235 271
52.76246 307
52.78258 303
52.80269 333
52.8228 269
52.84292 338
52.86303 351
52.88315 329
52.90326 285
52.92337 319
52.94349 315
52.9636 313
52.98371 297
53.00383 319
53.02394 317
53.04406 338
53.06417 357
53.08428 316
53.1044 323
53.12451 320
53.14462 330
53.16474 318
53.18485 315
53.20497 325
53.22508 327
53.24519 383
53.26531 325
53.28542 328
53.30553 360
53.32565 332
53.34576 341
53.36587 388
53.38599 342
53.4061 353
53.42622 357
53.44633 382
53.46644 353
53.48656 381
53.50667 346
53.52678 382
53.5469 377
53.56701 382
53.58713 371
53.60724 356
53.62735 382
53.64747 358
53.66758 380
53.68769 427
53.70781 414
53.72792 409
53.74804 417
53.76815 390
53.78826 400
53.80838 403
53.82849 410
53.8486 408
53.86872 413
53.88883 456
53.90894 388
53.92906 444
53.94917 445
53.96929 412
53.9894 426
54.00951 450
54.02963 444
54.04974 426
54.06985 449
54.08997 416
54.11008 440
54.1302 446
54.15031 454
54.17042 428
54.19054 433
54.21065 407
54.23076 407
54.25088 477
54.27099 466
54.29111 457
54.31122 421
54.33133 451
54.35145 476
54.37156 447
54.39167 478
54.41179 482
54.4319 469
54.45201 421
54.47213 433
54.49224 470
54.51236 483
54.53247 523
54.55258 449
54.5727 522
54.59281 530
54.61292 528
54.63304 585
54.65315 606
54.67327 623
54.69338 712
54.71349 660
54.73361 739
54.75372 821
54.77383 832
54.79395 823
54.81406 815
54.83417 742
54.85429 687
54.8744 637
54.89452 702
54.91463 675
54.93474 688
54.95486 617
54.97497 615
54.99508 614
55.0152 547
55.03531 526
55.05543 558
55.07554 546
55.09565 517
55.11577 522
55.13588 523
55.15599 565
55.17611 597
55.19622 601
55.21634 610
55.23645 639
55.25656 618
55.27668 587
55.29679 543
55.3169 528
55.33702 496
55.35713 504
55.37724 460
55.39736 483
55.41747 486
55.43759 464
55.4577 422
55.47781 462
55.49793 432
55.51804 410
55.53815 393
55.55827 368
55.57838 401
55.5985 401
55.61861 379
55.63872 378
55.65884 425
55.67895 403
55.69906 414
55.71918 360
55.73929 392
55.75941 347
55.77952 374
55.79963 373
55.81975 379
55.83986 372
55.85997 369
55.88009 411
55.9002 362
55.92031 345
55.94043 374
55.96054 348
55.98066 368
56.00077 397
56.02088 395
56.041 355
56.06111 399
56.08122 342
56.10134 357
56.12145 361
56.14157 378
56.16168 367
56.18179 349
56.20191 350
56.22202 374
56.24213 386
56.26225 368
56.28236 392
56.30248 361
56.32259 358
56.3427 361
56.36282 328
56.38293 357
56.40304 356
56.42316 383
56.44327 368
56.46338 387
56.4835 365
56.50361 368
56.52373 388
56.54384 399
56.56395 390
56.58407 380
56.60418 370
56.62429 350
56.64441 371
56.66452 355
56.68464 372
56.70475 367
56.72486 379
56.74498 339
56.76509 358
56.7852 362
56.80532 327
56.82543 364
56.84554 382
56.86566 362
56.88577 343
56.90589 350
56.926 376
56.94611 341
56.96623 359
56.98634 372
57.00645 336
57.02657 352
57.04668 355
57.0668 355
57.08691 404
57.10702 364
57.12714 367
57.14725 347
57.16736 353
57.18748 342
57.20759 350
57.22771 336
57.24782 321
57.26793 342
57.28805 359
57.30816 364
57.32827 359
57.34839 321
57.3685 288
57.38861 301
57.40873 348
57.42884 348
57.44896 336
57.46907 338
57.48918 328
57.5093 327
57.52941 321
57.54952 349
57.56964 324
57.58975 342
57.60987 309
57.62998 332
57.65009 324
57.67021 344
57.69032 320
57.71043 320
57.73055 338
57.75066 351
57.77078 320
57.79089 356
57.811 336
57.83112 287
57.85123 369
57.87134 315
57.89146 316
57.91157 300
57.93168 332
57.9518 357
57.97191 337
57.99203 324
58.01214 313
58.03225 361
58.05237 359
58.07248 335
58.09259 318
58.11271 325
58.13282 351
58.15294 307
58.17305 341
58.19316 313
58.21328 344
58.23339 349
58.2535 347
58.27362 313
58.29373 314
58.31385 334
58.33396 321
58.35407 336
58.37419 331
58.3943 317
58.41441 338
58.43453 337
58.45464 344
58.47475 322
58.49487 331
58.51498 353
58.5351 292
58.55521 286
58.57532 360
58.59544 329
58.61555 321
58.63566 326
58.65578 320
58.67589 338
58.69601 319
58.71612 327
58.73623 356
58.75635 355
58.77646 338
58.79657 327
58.81669 314
58.8368 329
58.85691 286
58.87703 303
58.89714 321
58.91726 321
58.93737 321
58.95748 348
58.9776 323
58.99771 321
59.01782 300
59.03794 323
59.05805 322
59.07817 374
59.09828 301
59.11839 348
59.13851 324
59.15862 340
59.17873 321
59.19885 357
59.21896 344
59.23908 336
59.25919 348
59.2793 321
59.29942 347
59.31953 319
59.33964 358
59.35976 375
59.37987 329
59.39998 347
59.4201 384
59.44021 373
59.46033 352
59.48044 379
59.50055 376
59.52067 385
59.54078 413
59.56089 393
59.58101 449
59.60112 399
59.62124 463
59.64135 474
59.66146 547
59.68158 515
59.70169 606
59.7218 626
59.74192 706
59.76203 765
59.78215 878
59.80226 1021
59.82237 1057
59.84249 1098
59.8626 1226
59.88271 1106
59.90283 1028
59.92294 929
59.94305 846
59.96317 816
59.98328 771
60.0034 752
60.02351 760
60.04362 774
60.06374 660
60.08385 575
60.10396 511
60.12408 456
60.14419 399
60.16431 422
60.18442 383
60.20453 396
60.22465 349
60.24476 380
60.26487 359
60.28499 367
60.3051 351
60.32522 328
60.34533 369
60.36544 314
60.38556 309
60.40567 337
60.42578 316
60.4459 345
60.46601 291
60.48612 354
60.50624 309
60.52635 321
60.54647 336
60.56658 308
60.58669 351
60.60681 325
60.62692 321
60.64703 306
60.66715 343
60.68726 307
60.70738 297
60.72749 315
60.7476 312
60.76772 335
60.78783 333
60.80794 309
60.82806 305
60.84817 311
60.86828 321
60.8884 348
60.90851 279
60.92863 289
60.94874 347
60.96885 299
60.98897 325
61.00908 308
61.02919 313
61.04931 333
61.06942 322
61.08954 308
61.10965 291
61.12976 317
61.14988 313
61.16999 307
61.1901 317
61.21022 307
61.23033 303
61.25045 313
61.27056 312
61.29067 319
61.31079 326
61.3309 301
61.35101 310
61.37113 322
61.39124 305
61.41135 326
61.43147 316
61.45158 343
61.4717 323
61.49181 318
61.51192 328
61.53204 336
61.55215 343
61.57226 354
61.59238 342
61.61249 339
61.63261 370
61.65272 346
61.67283 342
61.69295 348
61.71306 338
61.73317 330
61.75329 335
61.7734 413
61.79352 365
61.81363 365
61.83374 393
61.85386 416
61.87397 389
61.89408 408
61.9142 413
61.93431 466
61.95442 448
61.97454 479
61.99465 479
62.01477 542
62.03488 540
62.05499 548
62.07511 506
62.09522 528
62.11533 589
62.13545 570
62.15556 604
62.17568 599
62.19579 587
62.2159 557
62.23602 600
62.25613 571
62.27624 549
62.29636 568
62.31647 528
62.33659 488
62.3567 514
62.37681 527
62.39693 486
62.41704 458
62.43715 442
62.45727 453
62.47738 393
62.49749 413
62.51761 424
62.53772 409
62.55784 376
62.57795 386
62.59806 353
62.61818 377
62.63829 355
62.6584 351
62.67852 335
62.69863 366
62.71875 344
62.73886 352
62.75897 333
62.77909 340
62.7992 361
62.81931 336
62.83943 347
62.85954 356
62.87965 353
62.89977 309
62.91988 350
62.94 339
62.96011 341
62.98022 330
63.00034 346
63.02045 319
63.04056 348
63.06068 353
63.08079 315
63.10091 320
63.12102 336
63.14113 310
63.16125 356
63.18136 327
63.20147 351
63.22159 347
63.2417 324
63.26182 333
63.28193 342
63.30204 350
63.32216 360
63.34227 358
63.36238 336
63.3825 343
63.40261 302
63.42272 348
63.44284 357
63.46295 341
63.48307 352
63.50318 356
63.52329 355
63.54341 338
63.56352 357
63.58363 333
63.60375 385
63.62386 379
63.64398 383
63.66409 366
63.6842 372
63.70432 377
63.72443 397
63.74454 386
63.76466 372
63.78477 366
63.80489 408
63.825 398
63.84511 481
63.86523 456
63.88534 475
63.90545 477
63.92557 539
63.94568 534
63.96579 488
63.98591 471
64.00602 484
64.02614 420
64.04625 414
64.06636 401
64.08648 454
64.10659 421
64.1267 406
64.14682 401
64.16693 388
64.18705 374
64.20716 373
64.22727 381
64.24739 361
64.2675 358
64.28761 336
64.30773 320
64.32784 300
64.34796 328
64.36807 305
64.38818 291
64.4083 333
64.42841 318
64.44852 326
64.46864 298
64.48875 318
64.50886 293
64.52898 307
64.54909 330
64.56921 332
64.58932 304
64.60943 295
64.62955 278
64.64966 350
64.66977 296
64.68989 337
64.71 315
64.73012 308
64.75023 311
64.77034 329
64.79046 319
64.81057 303
64.83068 316
64.8508 298
64.87091 323
64.89102 306
64.91114 284
64.93125 292
64.95137 326
64.97148 323
64.99159 312
65.01171 308
65.03182 305
65.05193 344
65.07205 318
65.09216 339
65.11228 311
65.13239 288
65.1525 294
65.17262 333
65.19273 294
65.21284 312
65.23296 335
65.25307 318
65.27319 280
65.2933 292
65.31341 308
65.33353 319
65.35364 309
65.37375 267
65.39387 287
65.41398 291
65.43409 280
65.45421 306
65.47432 331
65.49444 296
65.51455 327
65.53466 321
65.55478 315
65.57489 286
65.595 307
65.61512 329
65.63523 310
65.65535 351
65.67546 345
65.69557 340
65.71569 335
65.7358 348
65.75591 304
65.77603 372
65.79614 311
65.81626 317
65.83637 318
65.85648 311
65.8766 314
65.89671 331
65.91682 326
65.93694 297
65.95705 309
65.97716 331
65.99728 311
66.01739 295
66.03751 303
66.05762 315
66.07773 326
66.09785 306
66.11796 305
66.13807 272
66.15819 305
66.1783 307
66.19842 300
66.21853 277
66.23864 311
66.25876 281
66.27887 290
66.29898 284
66.3191 296
66.33921 291
66.35933 296
66.37944 286
66.39955 294
66.41967 307
66.43978 325
66.45989 330
66.48001 322
66.50012 309
66.52023 298
66.54035 308
66.56046 280
66.58058 309
66.60069 299
66.6208 305
66.64092 289
66.66103 340
66.68114 283
66.70126 296
66.72137 310
66.74149 284
66.7616 307
66.78171 319
66.80183 300
66.82194 332
66.84205 319
66.86217 309
66.88228 285
66.90239 308
66.92251 286
66.94262 294
66.96274 321
66.98285 314
67.00296 281
67.02308 342
67.04319 322
67.0633 307
67.08342 315
67.10353 321
67.12365 324
67.14376 327
67.16387 315
67.18399 312
67.2041 335
67.22421 356
67.24433 332
67.26444 336
67.28456 357
67.30467 384
67.32478 350
67.3449 379
67.36501 431
67.38512 371
67.40524 399
67.42535 404
67.44546 442
67.46558 421
67.48569 486
67.50581 489
67.52592 513
67.54603 586
67.56615 638
67.58626 681
67.60637 789
67.62649 752
67.6466 784
67.66672 743
67.68683 744
67.70694 672
67.72706 634
67.74717 608
67.76728 606
67.7874 621
67.80751 646
67.82763 633
67.84774 671
67.86785 659
67.88797 659
67.90808 713
67.92819 639
67.94831 745
67.96842 765
67.98853 858
68.00865 870
68.02876 981
68.04888 984
68.06899 1044
68.0891 934
68.10922 923
68.12933 892
68.14944 894
68.16956 868
68.18967 894
68.20979 893
68.2299 934
68.25001 927
68.27013 770
68.29024 751
68.31035 690
68.33047 599
68.35058 542
68.3707 464
68.39081 505
68.41092 508
68.43104 493
68.45115 437
68.47126 450
68.49138 383
68.51149 362
68.5316 340
68.55172 359
68.57183 335
68.59195 358
68.61206 344
68.63217 343
68.65229 348
68.6724 330
68.69251 307
68.71263 318
68.73274 313
68.75286 313
68.77297 305
68.79308 306
68.8132 322
68.83331 325
68.85342 307
68.87354 335
68.89365 287
68.91376 284
68.93388 318
68.95399 308
68.97411 326
68.99422 289
69.01433 277
69.03445 313
69.05456 316
69.07467 279
69.09479 299
69.1149 298
69.13502 276
69.15513 274
69.17524 293
69.19536 279
69.21547 276
69.23558 295
69.2557 260
69.27581 314
69.29593 297
69.31604 274
69.33615 294
69.35627 307
69.37638 256
69.39649 314
69.41661 289
69.43672 317
69.45683 281
69.47695 285
69.49706 295
69.51718 301
69.53729 258
69.5574 277
69.57752 285
69.59763 294
69.61774 302
69.63786 269
69.65797 277
69.67809 303
69.6982 301
69.71831 257
69.73843 284
69.75854 287
69.77865 301
69.79877 297
69.81888 279
69.839 326
69.85911 280
69.87922 295
69.89934 287
69.91945 268
69.93956 313
69.95968 277
69.97979 270
69.9999 291
70.02002 302
70.04013 286
70.06025 296
70.08036 289
70.10047 308
70.12059 284
70.1407 323
70.16081 277
70.18093 288
70.20104 291
70.22116 280
70.24127 263
70.26138 293
70.2815 293
70.30161 291
70.32172 300
70.34184 296
70.36195 293
70.38207 259
70.40218 274
70.42229 288
70.44241 265
70.46252 263
70.48263 249
70.50275 275
70.52286 287
70.54297 303
70.56309 279
70.5832 323
70.60332 277
70.62343 279
70.64354 275
70.66366 289
70.68377 293
70.70388 301
70.724 287
70.74411 300
70.76423 300
70.78434 285
70.80445 261
70.82457 266
70.84468 276
70.86479 298
70.88491 258
70.90502 288
70.92513 304
70.94525 294
70.96536 265
70.98548 278
71.00559 285
71.0257 294
71.04582 283
71.06593 284
71.08604 274
71.10616 264
71.12627 298
71.14639 282
71.1665 273
71.18661 261
71.20673 266
71.22684 282
71.24695 326
71.26707 277
71.28718 272
71.3073 249
71.32741 254
71.34752 275
71.36764 268
71.38775 290
71.40786 289
71.42798 288
71.44809 308
71.4682 256
71.48832 262
71.50843 294
71.52855 279
71.54866 290
71.56877 299
71.58889 288
71.609 294
71.62911 297
71.64923 290
71.66934 291
71.68946 294
71.70957 285
71.72968 290
71.7498 276
71.76991 316
71.79002 279
71.81014 297
71.83025 317
71.85037 309
71.87048 304
71.89059 292
71.91071 285
71.93082 299
71.95093 297
71.97105 274
71.99116 280
72.01127 288
72.03139 335
72.0515 318
72.07162 261
72.09173 302
72.11184 304
72.13196 316
72.15207 270
72.17218 285
72.1923 287
72.21241 293
72.23253 315
72.25264 318
72.27275 323
72.29287 297
72.31298 319
72.33309 302
72.35321 268
72.37332 297
72.39344 295
72.41355 279
72.43366 284
72.45378 282
72.47389 292
72.494 306
72.51412 315
72.53423 297
72.55434 278
72.57446 289
72.59457 268
72.61469 320
72.6348 291
72.65491 305
72.67503 270
72.69514 311
72.71525 293
72.73537 284
72.75548 276
72.7756 305
72.79571 297
72.81582 272
72.83594 309
72.85605 307
72.87616 287
72.89628 288
72.91639 290
72.9365 320
72.95662 293
72.97673 321
72.99685 323
73.01696 315
73.03707 308
73.05719 325
73.0773 353
73.09741 340
73.11753 322
73.13764 325
73.15776 367
73.17787 346
73.19798 346
73.2181 352
73.23821 374
73.25832 386
73.27844 384
73.29855 463
73.31867 442
73.33878 453
73.35889 465
73.37901 482
73.39912 475
73.41923 456
73.43935 435
73.45946 387
73.47957 359
73.49969 420
73.5198 381
73.53992 385
73.56003 423
73.58014 387
73.60026 418
73.62037 391
73.64048 347
73.6606 366
73.68071 336
73.70083 337
73.72094 335
73.74105 303
73.76117 290
73.78128 325
73.80139 294
73.82151 285
73.84162 265
73.86174 309
73.88185 313
73.90196 316
73.92208 290
73.94219 311
73.9623 308
73.98242 289
74.00253 299
74.02264 329
74.04276 327
74.06287 281
74.08299 298
74.1031 287
74.12321 284
74.14333 255
74.16344 272
74.18355 274
74.20367 293
74.22378 282
74.2439 283
74.26401 283
74.28412 273
74.30424 260
74.32435 292
74.34446 288
74.36458 249
74.38469 266
74.40481 268
74.42492 284
74.44503 266
74.46515 258
74.48526 266
74.50537 283
74.52549 278
74.5456 271
74.56571 287
74.58583 304
74.60594 264
74.62606 280
74.64617 290
74.66628 279
74.6864 263
74.70651 266
74.72662 299
74.74674 306
74.76685 256
74.78697 278
74.80708 289
74.82719 260
74.84731 289
74.86742 260
74.88753 298
74.90765 289
74.92776 319
74.94787 302
74.96799 292
74.9881 286
75.00822 293
