3.00117 20144
3.02128 19812
3.0414 18893
3.06151 18952
3.08162 18373
3.10174 17661
3.12185 17510
3.14197 16509
3.16208 15911
3.18219 15350
3.20231 15104
3.22242 14943
3.24253 14525
3.26265 14040
3.28276 13659
3.30288 13007
3.32299 12752
3.3431 12415
3.36322 12011
3.38333 11586
3.40344 11057
3.42356 11121
3.44367 10365
3.46379 10475
3.4839 9586
3.50401 9450
3.52413 9430
3.54424 8526
3.56435 8379
3.58447 8116
3.60458 7808
3.62469 7768
3.64481 7136
3.66492 7145
3.68504 6719
3.70515 6610
3.72526 6460
3.74538 6038
3.76549 5910
3.7856 5557
3.80572 5375
3.82583 5161
3.84595 4804
3.86606 4673
3.88617 4635
3.90629 4258
3.9264 4366
3.94651 3880
3.96663 3846
3.98674 3902
4.00686 3481
4.02697 3475
4.04708 3139
4.0672 3068
4.08731 3001
4.10742 2972
4.12754 2869
4.14765 2626
4.16776 2519
4.18788 2520
4.20799 2320
4.22811 2349
4.24822 2053
4.26833 2118
4.28845 2082
4.30856 1985
4.32867 2055
4.34879 1830
4.3689 1797
4.38902 1804
4.40913 1784
4.42924 1716
4.44936 1549
4.46947 1637
4.48958 1588
4.5097 1478
4.52981 1499
4.54992 1437
4.57004 1446
4.59015 1504
4.61027 1402
4.63038 1300
4.65049 1316
4.67061 1260
4.69072 1320
4.71083 1228
4.73095 1306
4.75106 1146
4.77118 1105
4.79129 1178
4.8114 1115
4.83152 1149
4.85163 1044
4.87174 931
4.89186 1054
4.91197 1029
4.93209 1042
4.9522 907
4.97231 923
4.99243 1064
5.01254 990
5.03265 888
5.05277 875
5.07288 849
5.09299 892
5.11311 881
5.13322 791
5.15334 826
5.17345 769
5.19356 773
5.21368 763
5.23379 734
5.2539 703
5.27402 730
5.29413 689
5.31425 668
5.33436 667
5.35447 710
5.37459 625
5.3947 655
5.41481 636
5.43493 602
5.45504 636
5.47516 617
5.49527 603
5.51538 586
5.5355 556
5.55561 571
5.57572 549
5.59584 560
5.61595 536
5.63606 538
5.65618 533
5.67629 535
5.69641 501
5.71652 543
5.73663 535
5.75675 464
5.77686 528
5.79697 535
5.81709 518
5.8372 477
5.85732 491
5.87743 490
5.89754 432
5.91766 519
5.93777 464
5.95788 449
5.978 510
5.99811 452
6.01823 438
6.03834 470
6.05845 458
6.07857 466
6.09868 492
6.11879 478
6.13891 457
6.15902 481
6.17913 470
6.19925 472
6.21936 459
6.23948 450
6.25959 455
6.2797 422
6.29982 457
6.31993 407
6.34004 465
6.36016 452
6.38027 444
6.40039 412
6.4205 455
6.44061 404
6.46073 438
6.48084 425
6.50095 393
6.52107 391
6.54118 400
6.56129 419
6.58141 454
6.60152 402
6.62164 436
6.64175 405
6.66186 433
6.68198 476
6.70209 412
6.7222 390
6.74232 406
6.76243 414
6.78255 455
6.80266 439
6.82277 423
6.84289 447
6.863 434
6.88311 417
6.90323 460
6.92334 426
6.94346 420
6.96357 417
6.98368 425
7.0038 437
7.02391 391
7.04402 427
7.06414 430
7.08425 449
7.10436 438
7.12448 432
7.14459 406
7.16471 423
7.18482 448
7.20493 411
7.22505 426
7.24516 425
7.26527 408
7.28539 419
7.3055 414
7.32562 422
7.34573 463
7.36584 427
7.38596 414
7.40607 405
7.42618 431
7.4463 416
7.46641 441
7.48653 424
7.50664 415
7.52675 440
7.54687 474
7.56698 419
7.58709 465
7.60721 414
7.62732 405
7.64743 424
7.66755 461
7.68766 503
7.70778 446
7.72789 443
7.748 436
7.76812 440
7.78823 436
7.80834 434
7.82846 395
7.84857 438
7.86869 451
7.8888 434
7.90891 458
7.92903 410
7.94914 432
7.96925 456
7.98937 447
8.00948 425
8.0296 444
8.04971 456
8.06982 451
8.08994 452
8.11005 442
8.13016 460
8.15028 464
8.17039 484
8.1905 446
8.21062 481
8.23073 436
8.25085 523
8.27096 470
8.29107 524
8.31119 496
8.3313 465
8.35141 480
8.37153 486
8.39164 483
8.41176 462
8.43187 513
8.45198 506
8.4721 542
8.49221 487
8.51232 471
8.53244 524
8.55255 494
8.57266 474
8.59278 492
8.61289 528
8.63301 528
8.65312 559
8.67323 516
8.69335 475
8.71346 503
8.73357 533
8.75369 558
8.7738 527
8.79392 570
8.81403 568
8.83414 505
8.85426 490
8.87437 520
8.89448 523
8.9146 467
8.93471 477
8.95483 453
8.97494 428
8.99505 432
9.01517 463
9.03528 415
9.05539 447
9.07551 425
9.09562 429
9.11573 452
9.13585 437
9.15596 441
9.17608 426
9.19619 425
9.2163 417
9.23642 423
9.25653 410
9.27664 446
9.29676 418
9.31687 408
9.33699 435
9.3571 396
9.37721 391
9.39733 381
9.41744 384
9.43755 370
9.45767 425
9.47778 402
9.4979 410
9.51801 434
9.53812 415
9.55824 397
9.57835 401
9.59846 426
9.61858 436
9.63869 398
9.6588 430
9.67892 428
9.69903 375
9.71915 383
9.73926 350
9.75937 391
9.77949 394
9.7996 435
9.81971 425
9.83983 365
9.85994 395
9.88006 449
9.90017 386
9.92028 417
9.9404 366
9.96051 422
9.98062 389
10.00074 432
10.02085 414
10.04097 390
10.06108 371
10.08119 416
10.10131 394
10.12142 399
10.14153 395
10.16165 402
10.18176 411
10.20187 397
10.22199 398
10.2421 372
10.26222 395
10.28233 366
10.30244 405
10.32256 381
10.34267 396
10.36278 392
10.3829 427
10.40301 403
10.42313 446
10.44324 421
10.46335 417
10.48347 418
10.50358 407
10.52369 411
10.54381 409
10.56392 395
10.58403 393
10.60415 404
10.62426 458
10.64438 363
10.66449 451
10.6846 403
10.70472 380
10.72483 442
10.74494 393
10.76506 421
10.78517 394
10.80529 406
10.8254 423
10.84551 422
10.86563 424
10.88574 400
10.90585 436
10.92597 404
10.94608 395
10.9662 438
10.98631 441
11.00642 405
11.02654 376
11.04665 470
11.06676 440
11.08688 416
11.10699 433
11.1271 437
11.14722 462
11.16733 434
11.18745 440
11.20756 476
11.22767 415
11.24779 438
11.2679 443
11.28801 429
11.30813 422
11.32824 425
11.34836 422
11.36847 442
11.38858 399
11.4087 419
11.42881 466
11.44892 441
11.46904 455
11.48915 460
11.50927 470
11.52938 457
11.54949 452
11.56961 458
11.58972 496
11.60983 477
11.62995 505
11.65006 490
11.67017 487
11.69029 509
11.7104 503
11.73052 465
11.75063 558
11.77074 539
11.79086 506
11.81097 554
11.83108 492
11.8512 583
11.87131 534
11.89143 563
11.91154 605
11.93165 638
11.95177 604
11.97188 652
11.99199 698
12.01211 743
12.03222 726
12.05234 688
12.07245 725
12.09256 694
12.11268 745
12.13279 784
12.1529 810
12.17302 782
12.19313 817
12.21324 820
12.23336 819
12.25347 812
12.27359 798
12.2937 783
12.31381 776
12.33393 816
12.35404 704
12.37415 758
12.39427 726
12.41438 688
12.4345 703
12.45461 654
12.47472 648
12.49484 631
12.51495 622
12.53506 530
12.55518 493
12.57529 560
12.5954 526
12.61552 528
12.63563 510
12.65575 417
12.67586 480
12.69597 435
12.71609 464
12.7362 448
12.75631 448
12.77643 462
12.79654 427
12.81666 437
12.83677 406
12.85688 449
12.877 420
12.89711 436
12.91722 403
12.93734 415
12.95745 376
12.97757 386
12.99768 415
13.01779 413
13.03791 368
13.05802 405
13.07813 385
13.09825 392
13.11836 399
13.13847 363
13.15859 374
13.1787 408
13.19882 381
13.21893 408
13.23904 381
13.25916 387
13.27927 346
13.29938 379
13.3195 306
13.33961 433
13.35973 366
13.37984 382
13.39995 346
13.42007 342
13.44018 375
13.46029 401
13.48041 353
13.50052 336
13.52064 354
13.54075 414
13.56086 383
13.58098 382
13.60109 367
13.6212 349
13.64132 404
13.66143 361
13.68154 358
13.70166 379
13.72177 324
13.74189 367
13.762 350
13.78211 347
13.80223 364
13.82234 381
13.84245 369
13.86257 372
13.88268 343
13.9028 320
13.92291 338
13.94302 368
13.96314 362
13.98325 377
14.00336 354
14.02348 367
14.04359 337
14.06371 358
14.08382 308
14.10393 349
14.12405 343
14.14416 365
14.16427 335
14.18439 351
14.2045 326
14.22461 344
14.24473 341
14.26484 354
14.28496 355
14.30507 358
14.32518 326
14.3453 327
14.36541 345
14.38552 362
14.40564 336
14.42575 346
14.44587 346
14.46598 335
14.48609 349
14.50621 353
14.52632 358
14.54643 341
14.56655 336
14.58666 360
14.60677 329
14.62689 344
14.647 382
14.66712 345
14.68723 361
14.70734 333
14.72746 326
14.74757 350
14.76768 326
14.7878 350
14.80791 362
14.82803 353
14.84814 349
14.86825 356
14.88837 347
14.90848 382
14.92859 362
14.94871 350
14.96882 340
14.98894 368
15.00905 331
15.02916 352
15.04928 380
15.06939 335
15.0895 339
15.10962 348
15.12973 340
15.14984 340
15.16996 334
15.19007 365
15.21019 368
15.2303 402
15.25041 317
15.27053 367
15.29064 327
15.31075 325
15.33087 356
15.35098 346
15.3711 335
15.39121 349
15.41132 354
15.43144 325
15.45155 346
15.47166 366
15.49178 372
15.51189 346
15.53201 318
15.55212 304
15.57223 356
15.59235 336
15.61246 332
15.63257 327
15.65269 339
15.6728 377
15.69291 303
15.71303 350
15.73314 326
15.75326 347
15.77337 334
15.79348 354
15.8136 389
15.83371 329
15.85382 364
15.87394 317
15.89405 320
15.91417 336
15.93428 326
15.95439 337
15.97451 315
15.99462 310
16.01473 325
16.03485 337
16.05496 351
16.07508 340
16.09519 302
16.1153 348
16.13542 318
16.15553 346
16.17564 364
16.19576 348
16.21587 351
16.23598 343
16.2561 349
16.27621 312
16.29633 342
16.31644 334
16.33655 333
16.35667 333
16.37678 327
16.39689 315
16.41701 342
16.43712 318
16.45724 330
16.47735 342
16.49746 324
16.51758 335
16.53769 337
16.5578 321
16.57792 338
16.59803 328
16.61814 332
16.63826 305
16.65837 336
16.67849 333
16.6986 348
16.71871 337
16.73883 308
16.75894 286
16.77905 284
16.79917 328
16.81928 351
16.8394 345
16.85951 354
16.87962 324
16.89974 327
16.91985 365
16.93996 357
16.96008 338
16.98019 324
17.00031 321
17.02042 362
17.04053 364
17.06065 327
17.08076 319
17.10087 352
17.12099 344
17.1411 349
17.16121 358
17.18133 305
17.20144 364
17.22156 301
17.24167 351
17.26178 326
17.2819 361
17.30201 359
17.32212 338
17.34224 377
17.36235 326
17.38247 338
17.40258 363
17.42269 359
17.44281 320
17.46292 364
17.48303 361
17.50315 297
17.52326 376
17.54338 341
17.56349 378
17.5836 342
17.60372 388
17.62383 376
17.64394 393
17.66406 400
17.68417 371
17.70428 385
17.7244 356
17.74451 401
17.76463 395
17.78474 369
17.80485 344
17.82497 387
17.84508 392
17.86519 353
17.88531 363
17.90542 347
17.92554 354
17.94565 362
17.96576 380
17.98588 368
18.00599 401
18.0261 421
18.04622 389
18.06633 405
18.08645 401
18.10656 447
18.12667 470
18.14679 523
18.1669 606
18.18701 619
18.20713 680
18.22724 727
18.24735 699
18.26747 691
18.28758 671
18.3077 610
18.32781 540
18.34792 523
18.36804 452
18.38815 448
18.40826 395
18.42838 366
18.44849 399
18.46861 400
18.48872 347
18.50883 381
18.52895 334
18.54906 381
18.56917 371
18.58929 322
18.6094 310
18.62951 322
18.64963 328
18.66974 364
18.68986 361
18.70997 361
18.73008 349
18.7502 332
18.77031 382
18.79042 361
18.81054 372
18.83065 346
18.85077 344
18.87088 369
18.89099 390
18.91111 355
18.93122 367
18.95133 378
18.97145 354
18.99156 377
19.01168 347
19.03179 343
19.0519 411
19.07202 354
19.09213 350
19.11224 386
19.13236 396
19.15247 371
19.17258 364
19.1927 382
19.21281 444
19.23293 454
19.25304 441
19.27315 492
19.29327 453
19.31338 457
19.33349 427
19.35361 448
19.37372 458
19.39384 437
19.41395 486
19.43406 464
19.45418 438
19.47429 461
19.4944 525
19.51452 465
19.53463 484
19.55475 495
19.57486 534
19.59497 546
19.61509 564
19.6352 580
19.65531 576
19.67543 585
19.69554 668
19.71565 697
19.73577 715
19.75588 786
19.776 876
19.79611 796
19.81622 820
19.83634 864
19.85645 879
19.87656 858
19.89668 807
19.91679 803
19.93691 839
19.95702 756
19.97713 777
19.99725 695
20.01736 788
20.03747 755
20.05759 779
20.0777 750
20.09782 714
20.11793 764
20.13804 744
20.15816 790
20.17827 827
20.19838 819
20.2185 883
20.23861 883
20.25872 872
20.27884 886
20.29895 896
20.31907 851
20.33918 796
20.35929 845
20.37941 847
20.39952 832
20.41963 850
20.43975 798
20.45986 808
20.47998 795
20.50009 808
20.5202 877
20.54032 874
20.56043 883
20.58054 956
20.60066 959
20.62077 1017
20.64088 1124
20.661 1278
20.68111 1385
20.70123 1658
20.72134 1902
20.74145 2164
20.76157 2242
20.78168 2525
20.80179 2632
20.82191 2561
20.84202 2319
20.86214 2113
20.88225 1732
20.90236 1387
20.92248 1254
20.94259 1047
20.9627 950
20.98282 805
21.00293 734
21.02305 779
21.04316 750
21.06327 792
21.08339 711
21.1035 727
21.12361 674
21.14373 758
21.16384 711
21.18395 714
21.20407 663
21.22418 669
21.2443 687
21.26441 673
21.28452 639
21.30464 659
21.32475 681
21.34486 611
21.36498 675
21.38509 658
21.40521 638
21.42532 629
21.44543 568
21.46555 597
21.48566 648
21.50577 586
21.52589 648
21.546 579
21.56612 624
21.58623 590
21.60634 599
21.62646 614
21.64657 616
21.66668 546
21.6868 572
21.70691 564
21.72702 528
21.74714 563
21.76725 591
21.78737 603
21.80748 594
21.82759 557
21.84771 567
21.86782 553
21.88793 569
21.90805 568
21.92816 509
21.94828 514
21.96839 591
21.9885 575
22.00862 565
22.02873 610
22.04884 613
22.06896 572
22.08907 566
22.10919 528
22.1293 534
22.14941 546
22.16953 579
22.18964 517
22.20975 567
22.22987 550
22.24998 540
22.27009 532
22.29021 554
22.31032 513
22.33044 563
22.35055 523
22.37066 506
22.39078 509
22.41089 539
22.431 527
22.45112 510
22.47123 516
22.49135 549
22.51146 561
22.53157 546
22.55169 558
22.5718 506
22.59191 557
22.61203 493
22.63214 519
22.65225 533
22.67237 486
22.69248 493
22.7126 514
22.73271 518
22.75282 484
22.77294 518
22.79305 506
22.81316 523
22.83328 534
22.85339 497
22.87351 537
22.89362 489
22.91373 522
22.93385 523
22.95396 496
22.97407 499
22.99419 470
23.0143 511
23.03442 542
23.05453 502
23.07464 482
23.09476 504
23.11487 526
23.13498 521
23.1551 527
23.17521 537
23.19532 453
23.21544 545
23.23555 517
23.25567 480
23.27578 502
23.29589 491
23.31601 497
23.33612 494
23.35623 518
23.37635 478
23.39646 541
23.41658 494
23.43669 546
23.4568 548
23.47692 571
23.49703 540
23.51714 604
23.53726 561
23.55737 522
23.57749 532
23.5976 525
23.61771 525
23.63783 563
23.65794 497
23.67805 523
23.69817 541
23.71828 535
23.73839 555
23.75851 576
23.77862 524
23.79874 537
23.81885 545
23.83896 565
23.85908 528
23.87919 530
23.8993 487
23.91942 578
23.93953 568
23.95965 513
23.97976 576
23.99987 585
24.01999 573
24.0401 580
24.06021 578
24.08033 590
24.10044 573
24.12056 584
24.14067 590
24.16078 579
24.1809 563
24.20101 589
24.22112 523
24.24124 601
24.26135 582
24.28146 581
24.30158 610
24.32169 609
24.34181 590
24.36192 581
24.38203 611
24.40215 679
24.42226 611
24.44237 624
24.46249 618
24.4826 673
24.50272 604
24.52283 616
24.54294 673
24.56306 626
24.58317 665
24.60328 709
24.6234 654
24.64351 730
24.66362 729
24.68374 723
24.70385 775
24.72397 738
24.74408 773
24.76419 745
24.78431 781
24.80442 799
24.82453 786
24.84465 762
24.86476 821
24.88488 711
24.90499 758
24.9251 754
24.94522 681
24.96533 681
24.98544 698
25.00556 744
25.02567 711
25.04579 663
25.0659 609
25.08601 657
25.10613 627
25.12624 620
25.14635 606
25.16647 604
25.18658 631
25.20669 610
25.22681 608
25.24692 569
25.26704 604
25.28715 622
25.30726 579
25.32738 572
25.34749 627
25.3676 618
25.38772 645
25.40783 593
25.42795 647
25.44806 610
25.46817 623
25.48829 619
25.5084 631
25.52851 690
25.54863 615
25.56874 642
25.58886 621
25.60897 606
25.62908 549
25.6492 549
25.66931 584
25.68942 628
25.70954 587
25.72965 595
25.74976 542
25.76988 597
25.78999 559
25.81011 577
25.83022 598
25.85033 575
25.87045 586
25.89056 593
25.91067 654
25.93079 615
25.9509 598
25.97102 638
25.99113 648
26.01124 664
26.03136 604
26.05147 696
26.07158 751
26.0917 702
26.11181 787
26.13193 762
26.15204 814
26.17215 826
26.19227 933
26.21238 978
26.23249 1014
26.25261 1135
26.27272 1187
26.29283 1330
26.31295 1484
26.33306 1593
26.35318 1830
26.37329 2167
26.3934 2613
26.41352 3189
26.43363 3827
26.45374 4772
26.47386 5555
26.49397 6563
26.51409 7461
26.5342 8510
26.55431 8947
26.57443 9294
26.59454 9537
26.61465 9022
26.63477 8051
26.65488 6361
26.67499 5010
26.69511 3707
26.71522 2754
26.73534 1934
26.75545 1462
26.77556 1163
26.79568 1106
26.81579 946
26.8359 934
26.85602 862
26.87613 874
26.89625 760
26.91636 772
26.93647 721
26.95659 760
26.9767 690
26.99681 714
27.01693 692
27.03704 703
27.05716 627
27.07727 624
27.09738 576
27.1175 570
27.13761 607
27.15772 590
27.17784 568
27.19795 602
27.21806 528
27.23818 588
27.25829 556
27.27841 575
27.29852 615
27.31863 589
27.33875 609
27.35886 613
27.37897 591
27.39909 629
27.4192 630
27.43932 636
27.45943 589
27.47954 646
27.49966 562
27.51977 587
27.53988 566
27.56 507
27.58011 529
27.60023 540
27.62034 553
27.64045 525
27.66057 512
27.68068 545
27.70079 547
27.72091 538
27.74102 573
27.76113 595
27.78125 601
27.80136 564
27.82148 562
27.84159 571
27.8617 567
27.88182 557
27.90193 511
27.92204 533
27.94216 521
27.96227 504
27.98239 499
28.0025 496
28.02261 478
28.04273 486
28.06284 482
28.08295 473
28.10307 482
28.12318 435
28.1433 498
28.16341 481
28.18352 463
28.20364 480
28.22375 465
28.24386 422
28.26398 462
28.28409 441
28.3042 487
28.32432 485
28.34443 455
28.36455 475
28.38466 433
28.40477 449
28.42489 437
28.445 486
28.46511 471
28.48523 463
28.50534 469
28.52546 428
28.54557 456
28.56568 460
28.5858 440
28.60591 424
28.62602 421
28.64614 449
28.66625 444
28.68636 418
28.70648 431
28.72659 429
28.74671 421
28.76682 456
28.78693 401
28.80705 423
28.82716 433
28.84727 374
28.86739 407
28.8875 398
28.90762 393
28.92773 421
28.94784 431
28.96796 405
28.98807 433
29.00818 394
29.0283 413
29.04841 402
29.06853 426
29.08864 380
29.10875 429
29.12887 420
29.14898 437
29.16909 421
29.18921 434
29.20932 437
29.22943 420
29.24955 423
29.26966 405
29.28978 399
29.30989 386
29.33 415
29.35012 393
29.37023 386
29.39034 452
29.41046 403
29.43057 450
29.45069 440
29.4708 416
29.49091 428
29.51103 420
29.53114 442
29.55125 403
29.57137 424
29.59148 430
29.6116 456
29.63171 439
29.65182 468
29.67194 433
29.69205 415
29.71216 460
29.73228 477
29.75239 452
29.7725 461
29.79262 460
29.81273 491
29.83285 479
29.85296 476
29.87307 484
29.89319 452
29.9133 463
29.93341 446
29.95353 466
29.97364 410
29.99376 436
30.01387 460
30.03398 444
30.0541 418
30.07421 423
30.09432 399
30.11444 437
30.13455 454
30.15467 412
30.17478 379
30.19489 435
30.21501 420
30.23512 432
30.25523 418
30.27535 465
30.29546 414
30.31557 445
30.33569 447
30.3558 408
30.37592 457
30.39603 420
30.41614 423
30.43626 407
30.45637 439
30.47648 405
30.4966 458
30.51671 436
30.53683 415
30.55694 447
30.57705 414
30.59717 469
30.61728 435
30.63739 453
30.65751 451
30.67762 489
30.69773 453
30.71785 480
30.73796 489
30.75808 470
30.77819 486
30.7983 484
30.81842 437
30.83853 483
30.85864 455
30.87876 418
30.89887 418
30.91899 427
30.9391 444
30.95921 419
30.97933 389
30.99944 392
31.01955 416
31.03967 392
31.05978 399
31.0799 382
31.10001 437
31.12012 427
31.14024 432
31.16035 368
31.18046 421
31.20058 415
31.22069 389
31.2408 406
31.26092 384
31.28103 405
31.30115 375
31.32126 382
31.34137 367
31.36149 394
31.3816 396
31.40171 400
31.42183 378
31.44194 371
31.46206 370
31.48217 388
31.50228 402
31.5224 386
31.54251 434
31.56262 387
31.58274 387
31.60285 399
31.62297 391
31.64308 411
31.66319 394
31.68331 398
31.70342 402
31.72353 410
31.74365 416
31.76376 466
31.78387 434
31.80399 424
31.8241 428
31.84422 411
31.86433 431
31.88444 406
31.90456 436
31.92467 444
31.94478 391
31.9649 403
31.98501 399
32.00513 381
32.02524 377
32.04535 475
32.06547 422
32.08558 390
32.10569 398
32.12581 373
32.14592 430
32.16604 429
32.18615 378
32.20626 407
32.22638 407
32.24649 392
32.2666 408
32.28672 413
32.30683 406
32.32694 412
32.34706 415
32.36717 383
32.38729 436
32.4074 429
32.42751 390
32.44763 368
32.46774 428
32.48785 417
32.50797 445
32.52808 425
32.5482 403
32.56831 417
32.58842 417
32.60854 403
32.62865 406
32.64876 429
32.66888 411
32.68899 429
32.7091 429
32.72922 421
32.74933 421
32.76945 401
32.78956 420
32.80967 423
32.82979 431
32.8499 418
32.87001 457
32.89013 451
32.91024 495
32.93036 479
32.95047 473
32.97058 462
32.9907 509
33.01081 515
33.03092 444
33.05104 518
33.07115 518
33.09127 521
33.11138 454
33.13149 545
33.15161 506
33.17172 530
33.19183 494
33.21195 480
33.23206 467
33.25217 478
33.27229 475
33.2924 484
33.31252 462
33.33263 481
33.35274 454
33.37286 427
33.39297 423
33.41308 446
33.4332 465
33.45331 435
33.47343 400
33.49354 430
33.51365 400
33.53377 456
33.55388 417
33.57399 391
33.59411 381
33.61422 443
33.63434 438
33.65445 457
33.67456 440
33.69468 431
33.71479 473
33.7349 522
33.75502 465
33.77513 484
33.79524 453
33.81536 438
33.83547 447
33.85559 472
33.8757 463
33.89581 490
33.91593 443
33.93604 503
33.95615 509
33.97627 522
33.99638 506
34.0165 515
34.03661 571
34.05672 507
34.07684 595
34.09695 568
34.11706 611
34.13718 615
34.15729 610
34.17741 603
34.19752 638
34.21763 652
34.23775 609
34.25786 600
34.27797 618
34.29809 613
34.3182 592
34.33831 595
34.35843 548
34.37854 536
34.39866 536
34.41877 529
34.43888 537
34.459 577
34.47911 584
34.49922 569
34.51934 499
34.53945 514
34.55957 519
34.57968 529
34.59979 583
34.61991 551
34.64002 567
34.66013 527
34.68025 574
34.70036 575
34.72047 619
34.74059 645
34.7607 641
34.78082 649
34.80093 669
34.82104 714
34.84116 640
34.86127 659
34.88138 688
34.9015 705
34.92161 661
34.94173 631
34.96184 679
34.98195 669
35.00207 603
35.02218 615
35.04229 572
35.06241 576
35.08252 603
35.10264 568
35.12275 566
35.14286 592
35.16298 595
35.18309 555
35.2032 556
35.22332 589
35.24343 600
35.26354 577
35.28366 542
35.30377 586
35.32389 600
35.344 613
35.36411 588
35.38423 637
35.40434 569
35.42445 629
35.44457 640
35.46468 635
35.4848 637
35.50491 635
35.52502 619
35.54514 656
35.56525 645
35.58536 609
35.60548 665
35.62559 615
35.64571 682
35.66582 688
35.68593 650
35.70605 626
35.72616 670
35.74627 665
35.76639 675
35.7865 688
35.80661 634
35.82673 641
35.84684 637
35.86696 692
35.88707 670
35.90718 620
35.9273 634
35.94741 600
35.96752 592
35.98764 557
36.00775 596
36.02787 636
36.04798 545
36.06809 552
36.08821 518
36.10832 522
36.12843 559
36.14855 580
36.16866 599
36.18878 539
36.20889 574
36.229 607
36.24912 616
36.26923 616
36.28934 635
36.30946 692
36.32957 734
36.34968 801
36.3698 864
36.38991 915
36.41003 945
36.43014 1052
36.45025 1076
36.47037 1075
36.49048 1011
36.51059 1038
36.53071 975
36.55082 842
36.57094 837
36.59105 689
36.61116 690
36.63128 650
36.65139 651
36.6715 569
36.69162 554
36.71173 539
36.73184 564
36.75196 532
36.77207 489
36.79219 546
36.8123 563
36.83241 526
36.85253 536
36.87264 541
36.89275 576
36.91287 521
36.93298 532
36.9531 531
36.97321 520
36.99332 545
37.01344 552
37.03355 530
37.05366 526
37.07378 558
37.09389 534
37.11401 529
37.13412 498
37.15423 512
37.17435 546
37.19446 497
37.21457 577
37.23469 563
37.2548 500
37.27491 530
37.29503 560
37.31514 521
37.33526 491
37.35537 498
37.37548 542
37.3956 518
37.41571 565
37.43582 534
37.45594 569
37.47605 518
37.49617 540
37.51628 532
37.53639 542
37.55651 562
37.57662 576
37.59673 572
37.61685 560
37.63696 526
37.65708 538
37.67719 543
37.6973 513
37.71742 540
37.73753 510
37.75764 512
37.77776 549
37.79787 494
37.81798 456
37.8381 528
37.85821 486
37.87833 470
37.89844 493
37.91855 452
37.93867 510
37.95878 522
37.97889 553
37.99901 540
38.01912 506
38.03924 520
38.05935 541
38.07946 537
38.09958 589
38.11969 547
38.1398 556
38.15992 548
38.18003 604
38.20015 535
38.22026 572
38.24037 554
38.26049 608
38.2806 551
38.30071 601
38.32083 644
38.34094 578
38.36105 617
38.38117 582
38.40128 612
38.4214 669
38.44151 634
38.46162 573
38.48174 583
38.50185 597
38.52196 548
38.54208 545
38.56219 573
38.58231 505
38.60242 517
38.62253 532
38.64265 510
38.66276 501
38.68287 514
38.70299 525
38.7231 495
38.74321 538
38.76333 505
38.78344 508
38.80356 530
38.82367 504
38.84378 515
38.8639 499
38.88401 531
38.90412 505
38.92424 550
38.94435 521
38.96447 526
38.98458 550
39.00469 517
39.02481 534
39.04492 611
39.06503 590
39.08515 587
39.10526 594
39.12538 627
39.14549 615
39.1656 602
39.18572 680
39.20583 756
39.22594 675
39.24606 729
39.26617 778
39.28628 847
39.3064 835
39.32651 901
39.34663 985
39.36674 1036
39.38685 931
39.40697 1012
39.42708 1010
39.44719 914
39.46731 855
39.48742 819
39.50754 679
39.52765 614
39.54776 615
39.56788 553
39.58799 533
39.6081 463
39.62822 501
39.64833 463
39.66845 467
39.68856 422
39.70867 479
39.72879 421
39.7489 427
39.76901 429
39.78913 461
39.80924 446
39.82935 421
39.84947 431
39.86958 521
39.8897 476
39.90981 459
39.92992 492
39.95004 460
39.97015 494
39.99026 532
40.01038 522
40.03049 531
40.05061 519
40.07072 583
40.09083 585
40.11095 555
40.13106 628
40.15117 583
40.17129 614
40.1914 655
40.21152 652
40.23163 697
40.25174 648
40.27186 639
40.29197 609
40.31208 576
40.3322 513
40.35231 494
40.37242 524
40.39254 486
40.41265 474
40.43277 454
40.45288 431
40.47299 441
40.49311 406
40.51322 444
40.53333 450
40.55345 463
40.57356 461
40.59368 430
40.61379 461
40.6339 445
40.65402 471
40.67413 435
40.69424 438
40.71436 417
40.73447 405
40.75458 443
40.7747 457
40.79481 440
40.81493 472
40.83504 451
40.85515 460
40.87527 487
40.89538 436
40.91549 462
40.93561 488
40.95572 455
40.97584 455
40.99595 448
41.01606 464
41.03618 434
41.05629 444
41.0764 455
41.09652 453
41.11663 455
41.13675 446
41.15686 464
41.17697 442
41.19709 435
41.2172 460
41.23731 419
41.25743 459
41.27754 439
41.29765 468
41.31777 470
41.33788 451
41.358 449
41.37811 468
41.39822 399
41.41834 455
41.43845 449
41.45856 453
41.47868 493
41.49879 476
41.51891 463
41.53902 433
41.55913 519
41.57925 458
41.59936 464
41.61947 488
41.63959 495
41.6597 467
41.67982 473
41.69993 481
41.72004 469
41.74016 446
41.76027 424
41.78038 429
41.8005 434
41.82061 432
41.84072 460
41.86084 450
41.88095 425
41.90107 413
41.92118 426
41.94129 420
41.96141 484
41.98152 419
42.00163 449
42.02175 408
42.04186 437
42.06198 425
42.08209 440
42.1022 435
42.12232 490
42.14243 492
42.16254 442
42.18266 535
42.20277 507
42.22289 531
42.243 588
42.26311 672
42.28323 669
42.30334 685
42.32345 735
42.34357 792
42.36368 762
42.38379 761
42.40391 706
42.42402 687
42.44414 635
42.46425 631
42.48436 549
42.50448 583
42.52459 462
42.5447 508
42.56482 484
42.58493 447
42.60505 426
42.62516 393
42.64527 376
42.66539 380
42.6855 394
42.70561 405
42.72573 376
42.74584 371
42.76595 359
42.78607 400
42.80618 459
42.8263 382
42.84641 365
42.86652 393
42.88664 373
42.90675 378
42.92686 391
42.94698 353
42.96709 367
42.98721 351
43.00732 366
43.02743 364
43.04755 348
43.06766 364
43.08777 397
43.10789 356
43.128 343
43.14812 357
43.16823 360
43.18834 360
43.20846 364
43.22857 345
43.24868 337
43.2688 348
43.28891 408
43.30902 391
43.32914 352
43.34925 355
43.36937 338
43.38948 381
43.40959 381
43.42971 317
43.44982 357
43.46993 349
43.49005 353
43.51016 386
43.53028 352
43.55039 384
43.5705 357
43.59062 384
43.61073 368
43.63084 357
43.65096 386
43.67107 363
43.69119 358
43.7113 383
43.73141 349
43.75153 360
43.77164 381
43.79175 364
43.81187 367
43.83198 343
43.85209 375
43.87221 364
43.89232 353
43.91244 371
43.93255 391
43.95266 360
43.97278 393
43.99289 373
44.013 414
44.03312 379
44.05323 396
44.07335 392
44.09346 398
44.11357 379
44.13369 396
44.1538 398
44.17391 392
44.19403 421
44.21414 391
44.23426 395
44.25437 396
44.27448 372
44.2946 386
44.31471 384
44.33482 351
44.35494 374
44.37505 356
44.39516 366
44.41528 395
44.43539 368
44.45551 397
44.47562 364
44.49573 398
44.51585 342
44.53596 355
44.55607 343
44.57619 347
44.5963 364
44.61642 413
44.63653 350
44.65664 380
44.67676 372
44.69687 414
44.71698 375
44.7371 399
44.75721 399
44.77732 383
44.79744 383
44.81755 374
44.83767 397
44.85778 428
44.87789 412
44.89801 421
44.91812 385
44.93823 406
44.95835 423
44.97846 418
44.99858 423
45.01869 393
45.0388 412
45.05892 430
45.07903 410
45.09914 453
45.11926 496
45.13937 432
45.15949 425
45.1796 455
45.19971 496
45.21983 453
45.23994 446
45.26005 467
45.28017 465
45.30028 497
45.32039 475
45.34051 494
45.36062 481
45.38074 479
45.40085 533
45.42096 517
45.44108 492
45.46119 500
45.4813 504
45.50142 557
45.52153 494
45.54165 534
45.56176 549
45.58187 566
45.60199 587
45.6221 582
45.64221 620
45.66233 620
45.68244 652
45.70256 660
45.72267 621
45.74278 647
45.7629 610
45.78301 602
45.80312 560
45.82324 603
45.84335 529
45.86346 496
45.88358 505
45.90369 502
45.92381 430
45.94392 424
45.96403 437
45.98415 400
46.00426 419
46.02437 406
46.04449 394
46.0646 381
46.08472 386
46.10483 372
46.12494 383
46.14506 379
46.16517 384
46.18528 375
46.2054 412
46.22551 356
46.24563 405
46.26574 375
46.28585 357
46.30597 357
46.32608 402
46.34619 411
46.36631 401
46.38642 404
46.40653 342
46.42665 419
46.44676 385
46.46688 405
46.48699 372
46.5071 372
46.52722 393
46.54733 345
46.56744 389
46.58756 382
46.60767 393
46.62779 344
46.6479 353
46.66801 351
46.68813 388
46.70824 368
46.72835 369
46.74847 336
46.76858 361
46.78869 343
46.80881 383
46.82892 350
46.84904 375
46.86915 369
46.88926 379
46.90938 370
46.92949 356
46.9496 385
46.96972 407
46.98983 374
47.00995 365
47.03006 391
47.05017 378
47.07029 386
47.0904 422
47.11051 368
47.13063 418
47.15074 380
47.17086 380
47.19097 397
47.21108 388
47.2312 379
47.25131 387
47.27142 394
47.29154 429
47.31165 380
47.33176 371
47.35188 419
47.37199 392
47.39211 343
47.41222 354
47.43233 376
47.45245 410
47.47256 379
47.49267 387
47.51279 355
47.5329 395
47.55302 380
47.57313 368
47.59324 379
47.61336 417
47.63347 388
47.65358 394
47.6737 394
47.69381 366
47.71393 357
47.73404 367
47.75415 373
47.77427 390
47.79438 370
47.81449 389
47.83461 377
47.85472 377
47.87483 363
47.89495 395
47.91506 381
47.93518 402
47.95529 365
47.9754 361
47.99552 345
48.01563 350
48.03574 396
48.05586 390
48.07597 350
48.09609 361
48.1162 381
48.13631 408
48.15643 384
48.17654 373
48.19665 351
48.21677 373
48.23688 360
48.257 373
48.27711 330
48.29722 366
48.31734 349
48.33745 376
48.35756 373
48.37768 372
48.39779 364
48.4179 381
48.43802 388
48.45813 384
48.47825 386
48.49836 336
48.51847 391
48.53859 384
48.5587 379
48.57881 343
48.59893 391
48.61904 404
48.63916 375
48.65927 369
48.67938 369
48.6995 366
48.71961 373
48.73972 381
48.75984 366
48.77995 361
48.80006 337
48.82018 380
48.84029 356
48.86041 386
48.88052 355
48.90063 348
48.92075 391
48.94086 372
48.96097 345
48.98109 368
49.0012 368
49.02132 400
49.04143 372
49.06154 367
49.08166 374
49.10177 385
49.12188 402
49.142 408
49.16211 399
49.18223 383
49.20234 376
49.22245 393
49.24257 391
49.26268 391
49.28279 378
49.30291 400
49.32302 411
49.34313 413
49.36325 423
49.38336 394
49.40348 376
49.42359 396
49.4437 404
49.46382 392
49.48393 435
49.50404 382
49.52416 440
49.54427 444
49.56439 432
49.5845 442
49.60461 431
49.62473 474
49.64484 454
49.66495 451
49.68507 450
49.70518 469
49.7253 470
49.74541 479
49.76552 532
49.78564 546
49.80575 551
49.82586 591
49.84598 630
49.86609 631
49.8862 699
49.90632 740
49.92643 858
49.94655 946
49.96666 952
49.98677 1084
50.00689 1092
50.027 1165
50.04711 1222
50.06723 1207
50.08734 1185
50.10746 1220
50.12757 1045
50.14768 1001
50.1678 877
50.18791 730
50.20802 758
50.22814 672
50.24825 650
50.26837 563
50.28848 520
50.30859 512
50.32871 452
50.34882 477
50.36893 431
50.38905 467
50.40916 426
50.42927 424
50.44939 431
50.4695 421
50.48962 434
50.50973 397
50.52984 429
50.54996 418
50.57007 390
50.59018 413
50.6103 442
50.63041 420
50.65053 415
50.67064 384
50.69075 391
50.71087 350
50.73098 417
50.75109 361
50.77121 354
50.79132 365
50.81143 378
50.83155 362
50.85166 393
50.87178 368
50.89189 383
50.912 363
50.93212 373
50.95223 343
50.97234 383
50.99246 335
51.01257 351
51.03269 357
51.0528 342
51.07291 368
51.09303 343
51.11314 353
51.13325 362
51.15337 334
51.17348 339
51.1936 336
51.21371 324
51.23382 377
51.25394 329
51.27405 313
51.29416 351
51.31428 360
51.33439 364
51.3545 348
51.37462 301
51.39473 349
51.41485 350
51.43496 321
51.45507 322
51.47519 330
51.4953 346
51.51541 324
51.53553 355
51.55564 337
51.57576 323
51.59587 320
51.61598 325
51.6361 378
51.65621 329
51.67632 347
51.69644 369
51.71655 354
51.73667 354
51.75678 332
51.77689 335
51.79701 346
51.81712 343
51.83723 338
51.85735 330
51.87746 321
51.89757 363
51.91769 364
51.9378 385
51.95792 357
51.97803 349
51.99814 356
52.01826 370
52.03837 371
52.05848 368
52.0786 345
52.09871 357
52.11883 370
52.13894 369
52.15905 350
52.17917 354
52.19928 343
52.21939 348
52.23951 355
52.25962 355
52.27974 376
52.29985 380
52.31996 376
52.34008 352
52.36019 314
52.3803 353
52.40042 345
52.42053 397
52.44064 319
52.46076 309
52.48087 357
52.50099 363
52.5211 355
52.54121 363
52.56133 293
52.58144 364
52.60155 345
52.62167 351
52.64178 330
52.6619 387
52.68201 340
52.70212 333
52.72224 355
52.74235 359
52.76246 344
52.78258 397
52.80269 392
52.8228 366
52.84292 379
52.86303 360
52.88315 348
52.90326 323
52.92337 368
52.94349 363
52.9636 335
52.98371 358
53.00383 336
53.02394 342
53.04406 360
53.06417 400
53.08428 373
53.1044 374
53.12451 386
53.14462 359
53.16474 356
53.18485 387
53.20497 362
53.22508 380
53.24519 368
53.26531 352
53.28542 387
53.30553 343
53.32565 352
53.34576 372
53.36587 376
53.38599 379
53.4061 376
53.42622 353
53.44633 387
53.46644 390
53.48656 398
53.50667 372
53.52678 370
53.5469 397
53.56701 342
53.58713 377
53.60724 404
53.62735 402
53.64747 423
53.66758 434
53.68769 396
53.70781 427
53.72792 415
53.74804 401
53.76815 429
53.78826 444
53.80838 440
53.82849 463
53.8486 428
53.86872 447
53.88883 483
53.90894 430
53.92906 463
53.94917 468
53.96929 513
53.9894 467
54.00951 483
54.02963 507
54.04974 477
54.06985 497
54.08997 471
54.11008 480
54.1302 510
54.15031 522
54.17042 493
54.19054 499
54.21065 483
54.23076 546
54.25088 461
54.27099 495
54.29111 500
54.31122 536
54.33133 478
54.35145 516
54.37156 499
54.39167 497
54.41179 491
54.4319 488
54.45201 550
54.47213 483
54.49224 515
54.51236 486
54.53247 550
54.55258 548
54.5727 493
54.59281 596
54.61292 584
54.63304 600
54.65315 654
54.67327 656
54.69338 697
54.71349 695
54.73361 729
54.75372 731
54.77383 683
54.79395 670
54.81406 729
54.83417 721
54.85429 673
54.8744 661
54.89452 617
54.91463 643
54.93474 643
54.95486 613
54.97497 609
54.99508 601
55.0152 574
55.03531 537
55.05543 562
55.07554 532
55.09565 544
55.11577 555
55.13588 553
55.15599 529
55.17611 586
55.19622 561
55.21634 591
55.23645 545
55.25656 539
55.27668 572
55.29679 529
55.3169 556
55.33702 497
55.35713 550
55.37724 476
55.39736 454
55.41747 500
55.43759 449
55.4577 460
55.47781 466
55.49793 471
55.51804 473
55.53815 419
55.55827 423
55.57838 409
55.5985 427
55.61861 431
55.63872 429
55.65884 437
55.67895 448
55.69906 377
55.71918 433
55.73929 430
55.75941 434
55.77952 419
55.79963 392
55.81975 405
55.83986 413
55.85997 417
55.88009 404
55.9002 372
55.92031 424
55.94043 394
55.96054 380
55.98066 402
56.00077 377
56.02088 403
56.041 377
56.06111 422
56.08122 433
56.10134 418
56.12145 416
56.14157 440
56.16168 396
56.18179 438
56.20191 391
56.22202 431
56.24213 435
56.26225 381
56.28236 411
56.30248 388
56.32259 413
56.3427 408
56.36282 387
56.38293 413
56.40304 431
56.42316 412
56.44327 409
56.46338 381
56.4835 407
56.50361 401
56.52373 422
56.54384 420
56.56395 397
56.58407 382
56.60418 385
56.62429 358
56.64441 393
56.66452 376
56.68464 378
56.70475 371
56.72486 406
56.74498 369
56.76509 397
56.7852 401
56.80532 371
56.82543 364
56.84554 380
56.86566 385
56.88577 378
56.90589 386
56.926 378
56.94611 374
56.96623 385
56.98634 385
57.00645 375
57.02657 388
57.04668 372
57.0668 378
57.08691 383
57.10702 376
57.12714 399
57.14725 420
57.16736 418
57.18748 390
57.20759 412
57.22771 390
57.24782 392
57.26793 400
57.28805 374
57.30816 376
57.32827 372
57.34839 380
57.3685 394
57.38861 383
57.40873 382
57.42884 376
57.44896 401
57.46907 414
57.48918 394
57.5093 375
57.52941 368
57.54952 356
57.56964 366
57.58975 366
57.60987 357
57.62998 339
57.65009 407
57.67021 360
57.69032 385
57.71043 376
57.73055 359
57.75066 375
57.77078 382
57.79089 371
57.811 373
57.83112 355
57.85123 374
57.87134 362
57.89146 380
57.91157 379
57.93168 359
57.9518 371
57.97191 351
57.99203 370
58.01214 344
58.03225 366
58.05237 393
58.07248 365
58.09259 359
58.11271 373
58.13282 355
58.15294 365
58.17305 374
58.19316 351
58.21328 367
58.23339 353
58.2535 355
58.27362 363
58.29373 400
58.31385 365
58.33396 335
58.35407 351
58.37419 345
58.3943 342
58.41441 385
58.43453 383
58.45464 367
58.47475 357
58.49487 368
58.51498 331
58.5351 367
58.55521 369
58.57532 360
58.59544 373
58.61555 371
58.63566 352
58.65578 359
58.67589 390
58.69601 393
58.71612 315
58.73623 320
58.75635 329
58.77646 359
58.79657 389
58.81669 332
58.8368 354
58.85691 389
58.87703 353
58.89714 367
58.91726 396
58.93737 338
58.95748 363
58.9776 380
58.99771 355
59.01782 353
59.03794 355
59.05805 356
59.07817 361
59.09828 405
59.11839 384
59.13851 359
59.15862 356
59.17873 378
59.19885 356
59.21896 372
59.23908 370
59.25919 381
59.2793 372
59.29942 389
59.31953 399
59.33964 383
59.35976 379
59.37987 401
59.39998 437
59.4201 392
59.44021 392
59.46033 401
59.48044 433
59.50055 442
59.52067 441
59.54078 465
59.56089 504
59.58101 455
59.60112 483
59.62124 513
59.64135 527
59.66146 572
59.68158 582
59.70169 642
59.7218 700
59.74192 699
59.76203 727
59.78215 780
59.80226 920
59.82237 904
59.84249 951
59.8626 945
59.88271 948
59.90283 939
59.92294 847
59.94305 805
59.96317 779
59.98328 738
60.0034 710
60.02351 683
60.04362 660
60.06374 625
60.08385 668
60.10396 574
60.12408 533
60.14419 575
60.16431 500
60.18442 498
60.20453 486
60.22465 503
60.24476 507
60.26487 515
60.28499 489
60.3051 436
60.32522 441
60.34533 462
60.36544 417
60.38556 497
60.40567 485
60.42578 429
60.4459 395
60.46601 437
60.48612 388
60.50624 414
60.52635 414
60.54647 387
60.56658 413
60.58669 360
60.60681 375
60.62692 393
60.64703 404
60.66715 399
60.68726 395
60.70738 362
60.72749 385
60.7476 368
60.76772 405
60.78783 368
60.80794 363
60.82806 383
60.84817 357
60.86828 368
60.8884 396
60.90851 396
60.92863 417
60.94874 382
60.96885 379
60.98897 423
61.00908 416
61.02919 345
61.04931 356
61.06942 384
61.08954 382
61.10965 393
61.12976 362
61.14988 375
61.16999 391
61.1901 393
61.21022 389
61.23033 389
61.25045 383
61.27056 410
61.29067 367
61.31079 414
61.3309 384
61.35101 370
61.37113 413
61.39124 390
61.41135 406
61.43147 349
61.45158 386
61.4717 385
61.49181 401
61.51192 407
61.53204 397
61.55215 394
61.57226 400
61.59238 429
61.61249 413
61.63261 371
61.65272 383
61.67283 396
61.69295 412
61.71306 374
61.73317 398
61.75329 402
61.7734 390
61.79352 401
61.81363 382
61.83374 431
61.85386 423
61.87397 430
61.89408 398
61.9142 455
61.93431 462
61.95442 433
61.97454 483
61.99465 460
62.01477 479
62.03488 470
62.05499 515
62.07511 541
62.09522 487
62.11533 442
62.13545 507
62.15556 502
62.17568 505
62.19579 508
62.2159 535
62.23602 496
62.25613 480
62.27624 516
62.29636 521
62.31647 508
62.33659 496
62.3567 513
62.37681 487
62.39693 470
62.41704 457
62.43715 485
62.45727 481
62.47738 451
62.49749 439
62.51761 415
62.53772 447
62.55784 445
62.57795 392
62.59806 397
62.61818 427
62.63829 414
62.6584 390
62.67852 410
62.69863 403
62.71875 376
62.73886 379
62.75897 412
62.77909 391
62.7992 388
62.81931 359
62.83943 380
62.85954 365
62.87965 378
62.89977 355
62.91988 388
62.94 368
62.96011 351
62.98022 356
63.00034 404
63.02045 354
63.04056 405
63.06068 393
63.08079 446
63.10091 373
63.12102 381
63.14113 368
63.16125 381
63.18136 345
63.20147 380
63.22159 367
63.2417 371
63.26182 404
63.28193 366
63.30204 374
63.32216 359
63.34227 378
63.36238 367
63.3825 391
63.40261 353
63.42272 376
63.44284 389
63.46295 419
63.48307 357
63.50318 383
63.52329 389
63.54341 397
63.56352 409
63.58363 385
63.60375 376
63.62386 388
63.64398 430
63.66409 423
63.6842 425
63.70432 418
63.72443 413
63.74454 427
63.76466 431
63.78477 472
63.80489 474
63.825 511
63.84511 508
63.86523 477
63.88534 531
63.90545 510
63.92557 506
63.94568 510
63.96579 506
63.98591 490
64.00602 460
64.02614 436
64.04625 449
64.06636 431
64.08648 413
64.10659 484
64.1267 427
64.14682 464
64.16693 419
64.18705 448
64.20716 385
64.22727 402
64.24739 378
64.2675 396
64.28761 386
64.30773 387
64.32784 369
64.34796 388
64.36807 386
64.38818 357
64.4083 349
64.42841 396
64.44852 361
64.46864 341
64.48875 350
64.50886 362
64.52898 377
64.54909 342
64.56921 364
64.58932 338
64.60943 369
64.62955 349
64.64966 363
64.66977 353
64.68989 375
64.71 341
64.73012 360
64.75023 386
64.77034 333
64.79046 351
64.81057 359
64.83068 323
64.8508 351
64.87091 353
64.89102 366
64.91114 340
64.93125 337
64.95137 353
64.97148 324
64.99159 349
65.01171 353
65.03182 356
65.05193 349
65.07205 356
65.09216 329
65.11228 353
65.13239 306
65.1525 330
65.17262 382
65.19273 357
65.21284 331
65.23296 337
65.25307 305
65.27319 313
65.2933 378
65.31341 339
65.33353 364
65.35364 372
65.37375 368
65.39387 334
65.41398 367
65.43409 346
65.45421 346
65.47432 332
65.49444 355
65.51455 370
65.53466 365
65.55478 335
65.57489 339
65.595 353
65.61512 354
65.63523 376
65.65535 351
65.67546 352
65.69557 336
65.71569 344
65.7358 359
65.75591 393
65.77603 327
65.79614 334
65.81626 360
65.83637 354
65.85648 394
65.8766 346
65.89671 360
65.91682 352
65.93694 370
65.95705 337
65.97716 352
65.99728 351
66.01739 331
66.03751 348
66.05762 375
66.07773 348
66.09785 340
66.11796 326
66.13807 349
66.15819 336
66.1783 359
66.19842 382
66.21853 354
66.23864 376
66.25876 350
66.27887 350
66.29898 323
66.3191 345
66.33921 348
66.35933 350
66.37944 355
66.39955 364
66.41967 381
66.43978 353
66.45989 349
66.48001 365
66.50012 348
66.52023 371
66.54035 334
66.56046 329
66.58058 350
66.60069 359
66.6208 373
66.64092 360
66.66103 347
66.68114 362
66.70126 348
66.72137 340
66.74149 364
66.7616 368
66.78171 360
66.80183 334
66.82194 390
66.84205 345
66.86217 378
66.88228 339
66.90239 376
66.92251 311
66.94262 394
66.96274 363
66.98285 358
67.00296 359
67.02308 373
67.04319 378
67.0633 362
67.08342 340
67.10353 361
67.12365 363
67.14376 393
67.16387 390
67.18399 379
67.2041 344
67.22421 381
67.24433 355
67.26444 371
67.28456 417
67.30467 402
67.32478 399
67.3449 395
67.36501 438
67.38512 452
67.40524 441
67.42535 475
67.44546 419
67.46558 479
67.48569 464
67.50581 559
67.52592 561
67.54603 564
67.56615 576
67.58626 655
67.60637 648
67.62649 671
67.6466 693
67.66672 672
67.68683 695
67.70694 666
67.72706 675
67.74717 645
67.76728 674
67.7874 655
67.80751 579
67.82763 556
67.84774 623
67.86785 631
67.88797 685
67.90808 670
67.92819 680
67.94831 726
67.96842 751
67.98853 766
68.00865 783
68.02876 772
68.04888 842
68.06899 822
68.0891 856
68.10922 810
68.12933 863
68.14944 768
68.16956 763
68.18967 720
68.20979 735
68.2299 742
68.25001 736
68.27013 714
68.29024 663
68.31035 601
68.33047 554
68.35058 529
68.3707 526
68.39081 496
68.41092 517
68.43104 434
68.45115 438
68.47126 438
68.49138 411
68.51149 413
68.5316 396
68.55172 365
68.57183 378
68.59195 365
68.61206 370
68.63217 363
68.65229 364
68.6724 340
68.69251 354
68.71263 348
68.73274 333
68.75286 343
68.77297 324
68.79308 330
68.8132 357
68.83331 397
68.85342 354
68.87354 389
68.89365 332
68.91376 367
68.93388 370
68.95399 369
68.97411 380
68.99422 354
69.01433 375
69.03445 327
69.05456 355
69.07467 336
69.09479 351
69.1149 333
69.13502 357
69.15513 362
69.17524 330
69.19536 362
69.21547 368
69.23558 363
69.2557 320
69.27581 332
69.29593 354
69.31604 359
69.33615 349
69.35627 347
69.37638 342
69.39649 337
69.41661 347
69.43672 346
69.45683 360
69.47695 311
69.49706 353
69.51718 343
69.53729 339
69.5574 324
69.57752 332
69.59763 352
69.61774 324
69.63786 351
69.65797 349
69.67809 356
69.6982 346
69.71831 302
69.73843 358
69.75854 317
69.77865 350
69.79877 354
69.81888 330
69.839 328
69.85911 376
69.87922 339
69.89934 330
69.91945 364
69.93956 353
69.95968 378
69.97979 321
69.9999 320
70.02002 325
70.04013 357
70.06025 352
70.08036 324
70.10047 343
70.12059 343
70.1407 369
70.16081 336
70.18093 325
70.20104 342
70.22116 347
70.24127 350
70.26138 342
70.2815 345
70.30161 296
70.32172 312
70.34184 348
70.36195 337
70.38207 300
70.40218 329
70.42229 349
70.44241 354
70.46252 321
70.48263 322
70.50275 317
70.52286 353
70.54297 334
70.56309 312
70.5832 314
70.60332 296
70.62343 341
70.64354 338
70.66366 333
70.68377 333
70.70388 335
70.724 343
70.74411 334
70.76423 348
70.78434 338
70.80445 314
70.82457 337
70.84468 349
70.86479 331
70.88491 325
70.90502 348
70.92513 347
70.94525 342
70.96536 330
70.98548 326
71.00559 367
71.0257 329
71.04582 318
71.06593 364
71.08604 333
71.10616 345
71.12627 324
71.14639 376
71.1665 357
71.18661 324
71.20673 344
71.22684 368
71.24695 325
71.26707 322
71.28718 320
71.3073 347
71.32741 344
71.34752 327
71.36764 312
71.38775 342
71.40786 333
71.42798 348
71.44809 376
71.4682 346
71.48832 365
71.50843 332
71.52855 384
71.54866 372
71.56877 343
71.58889 339
71.609 364
71.62911 312
71.64923 338
71.66934 355
71.68946 355
71.70957 346
71.72968 354
71.7498 372
71.76991 352
71.79002 354
71.81014 363
71.83025 363
71.85037 338
71.87048 351
71.89059 353
71.91071 347
71.93082 354
71.95093 340
71.97105 379
71.99116 363
72.01127 359
72.03139 339
72.0515 356
72.07162 365
72.09173 329
72.11184 361
72.13196 372
72.15207 349
72.17218 373
72.1923 346
72.21241 336
72.23253 352
72.25264 352
72.27275 380
72.29287 317
72.31298 363
72.33309 398
72.35321 347
72.37332 340
72.39344 325
72.41355 345
72.43366 320
72.45378 353
72.47389 348
72.494 367
72.51412 372
72.53423 333
72.55434 317
72.57446 350
72.59457 351
72.61469 345
72.6348 383
72.65491 355
72.67503 378
72.69514 352
72.71525 383
72.73537 322
72.75548 349
72.7756 349
72.79571 353
72.81582 377
72.83594 400
72.85605 351
72.87616 355
72.89628 348
72.91639 341
72.9365 394
72.95662 353
72.97673 387
72.99685 355
73.01696 366
73.03707 356
73.05719 395
73.0773 374
73.09741 365
73.11753 369
73.13764 367
73.15776 372
73.17787 384
73.19798 402
73.2181 409
73.23821 409
73.25832 403
73.27844 445
73.29855 448
73.31867 460
73.33878 439
73.35889 476
73.37901 480
73.39912 470
73.41923 449
73.43935 470
73.45946 404
73.47957 416
73.49969 419
73.5198 429
73.53992 399
73.56003 381
73.58014 388
73.60026 386
73.62037 380
73.64048 393
73.6606 356
73.68071 381
73.70083 364
73.72094 354
73.74105 369
73.76117 345
73.78128 334
73.80139 327
73.82151 350
73.84162 356
73.86174 316
73.88185 328
73.90196 345
73.92208 344
73.94219 285
73.9623 344
73.98242 337
74.00253 363
74.02264 324
74.04276 318
74.06287 342
74.08299 346
74.1031 291
74.12321 320
74.14333 331
74.16344 343
74.18355 321
74.20367 371
74.22378 297
74.2439 306
74.26401 339
74.28412 336
74.30424 356
74.32435 323
74.34446 319
74.36458 350
74.38469 326
74.40481 314
74.42492 330
74.44503 333
74.46515 316
74.48526 356
74.50537 338
74.52549 348
74.5456 335
74.56571 342
74.58583 328
74.60594 328
74.62606 328
74.64617 334
74.66628 321
74.6864 313
74.70651 326
74.72662 321
74.74674 319
74.76685 328
74.78697 355
74.80708 314
74.82719 364
74.84731 310
74.86742 332
74.88753 339
74.90765 363
74.92776 351
74.94787 336
74.96799 357
74.9881 365
75.00822 342
