3.00117 20012
3.02128 19487
3.0414 18800
3.06151 18577
3.08162 17680
3.10174 17653
3.12185 16893
3.14197 16331
3.16208 15982
3.18219 15319
3.20231 15404
3.22242 14592
3.24253 14105
3.26265 13919
3.28276 13265
3.30288 13070
3.32299 12316
3.3431 12269
3.36322 11673
3.38333 10994
3.40344 11268
3.42356 10523
3.44367 10424
3.46379 10000
3.4839 9619
3.50401 9442
3.52413 8936
3.54424 8688
3.56435 8387
3.58447 8052
3.60458 7935
3.62469 7450
3.64481 7422
3.66492 6851
3.68504 6713
3.70515 6404
3.72526 6114
3.74538 5825
3.76549 5855
3.7856 5341
3.80572 5259
3.82583 5190
3.84595 4964
3.86606 4629
3.88617 4440
3.90629 4313
3.9264 4056
3.94651 4015
3.96663 3723
3.98674 3543
4.00686 3641
4.02697 3261
4.04708 3242
4.0672 3074
4.08731 2931
4.10742 2881
4.12754 2877
4.14765 2575
4.16776 2504
4.18788 2379
4.20799 2285
4.22811 2189
4.24822 2198
4.26833 2038
4.28845 2067
4.30856 1992
4.32867 1947
4.34879 1770
4.3689 1800
4.38902 1633
4.40913 1818
4.42924 1753
4.44936 1636
4.46947 1539
4.48958 1597
4.5097 1588
4.52981 1507
4.54992 1475
4.57004 1441
4.59015 1349
4.61027 1447
4.63038 1411
4.65049 1263
4.67061 1280
4.69072 1289
4.71083 1222
4.73095 1152
4.75106 1139
4.77118 1178
4.79129 1192
4.8114 1116
4.83152 1209
4.85163 1057
4.87174 1112
4.89186 998
4.91197 985
4.93209 1096
4.9522 929
4.97231 1006
4.99243 1023
5.01254 923
5.03265 939
5.05277 920
5.07288 906
5.09299 909
5.11311 837
5.13322 888
5.15334 908
5.17345 832
5.19356 800
5.21368 774
5.23379 827
5.2539 783
5.27402 833
5.29413 739
5.31425 784
5.33436 786
5.35447 683
5.37459 722
5.3947 653
5.41481 690
5.43493 732
5.45504 657
5.47516 636
5.49527 624
5.51538 634
5.5355 671
5.55561 653
5.57572 603
5.59584 603
5.61595 621
5.63606 614
5.65618 606
5.67629 605
5.69641 594
5.71652 585
5.73663 530
5.75675 583
5.77686 561
5.79697 612
5.81709 549
5.8372 556
5.85732 569
5.87743 568
5.89754 568
5.91766 548
5.93777 485
5.95788 524
5.978 535
5.99811 511
6.01823 530
6.03834 503
6.05845 514
6.07857 521
6.09868 534
6.11879 522
6.13891 549
6.15902 512
6.17913 491
6.19925 545
6.21936 535
6.23948 484
6.25959 547
6.2797 479
6.29982 545
6.31993 508
6.34004 545
6.36016 519
6.38027 511
6.40039 512
6.4205 515
6.44061 464
6.46073 499
6.48084 472
6.50095 495
6.52107 517
6.54118 491
6.56129 489
6.58141 506
6.60152 499
6.62164 457
6.64175 490
6.66186 484
6.68198 437
6.70209 536
6.7222 454
6.74232 481
6.76243 457
6.78255 500
6.80266 501
6.82277 426
6.84289 494
6.863 484
6.88311 484
6.90323 488
6.92334 448
6.94346 476
6.96357 481
6.98368 467
7.0038 506
7.02391 458
7.04402 469
7.06414 493
7.08425 506
7.10436 497
7.12448 479
7.14459 444
7.16471 487
7.18482 486
7.20493 435
7.22505 471
7.24516 454
7.26527 478
7.28539 523
7.3055 470
7.32562 456
7.34573 494
7.36584 542
7.38596 440
7.40607 445
7.42618 466
7.4463 472
7.46641 485
7.48653 501
7.50664 492
7.52675 497
7.54687 497
7.56698 501
7.58709 464
7.60721 491
7.62732 472
7.64743 473
7.66755 479
7.68766 489
7.70778 460
7.72789 479
7.748 487
7.76812 472
7.78823 459
7.80834 499
7.82846 511
7.84857 510
7.86869 444
7.8888 487
7.90891 491
7.92903 449
7.94914 474
7.96925 486
7.98937 491
8.00948 513
8.0296 504
8.04971 452
8.06982 482
8.08994 517
8.11005 478
8.13016 460
8.15028 457
8.17039 482
8.1905 480
8.21062 519
8.23073 463
8.25085 483
8.27096 467
8.29107 459
8.31119 482
8.3313 477
8.35141 447
8.37153 498
8.39164 462
8.41176 487
8.43187 514
8.45198 498
8.4721 426
8.49221 501
8.51232 471
8.53244 454
8.55255 507
8.57266 481
8.59278 452
8.61289 450
8.63301 496
8.65312 464
8.67323 467
8.69335 432
8.71346 449
8.73357 455
8.75369 477
8.7738 458
8.79392 469
8.81403 452
8.83414 456
8.85426 475
8.87437 504
8.89448 479
8.9146 443
8.93471 516
8.95483 511
8.97494 500
8.99505 443
9.01517 514
9.03528 474
9.05539 466
9.07551 483
9.09562 491
9.11573 436
9.13585 467
9.15596 452
9.17608 456
9.19619 471
9.2163 490
9.23642 479
9.25653 464
9.27664 488
9.29676 439
9.31687 446
9.33699 466
9.3571 487
9.37721 494
9.39733 433
9.41744 474
9.43755 466
9.45767 489
9.47778 478
9.4979 520
9.51801 490
9.53812 471
9.55824 460
9.57835 513
9.59846 473
9.61858 471
9.63869 463
9.6588 459
9.67892 499
9.69903 471
9.71915 486
9.73926 474
9.75937 493
9.77949 516
9.7996 515
9.81971 461
9.83983 483
9.85994 467
9.88006 455
9.90017 487
9.92028 467
9.9404 478
9.96051 484
9.98062 483
10.00074 456
10.02085 464
10.04097 476
10.06108 508
10.08119 488
10.10131 451
10.12142 483
10.14153 481
10.16165 461
10.18176 476
10.20187 490
10.22199 486
10.2421 481
10.26222 486
10.28233 482
10.30244 476
10.32256 517
10.34267 424
10.36278 492
10.3829 459
10.40301 460
10.42313 477
10.44324 480
10.46335 474
10.48347 493
10.50358 528
10.52369 454
10.54381 459
10.56392 439
10.58403 483
10.60415 485
10.62426 505
10.64438 496
10.66449 498
10.6846 456
10.70472 482
10.72483 476
10.74494 531
10.76506 468
10.78517 472
10.80529 493
10.8254 501
10.84551 513
10.86563 512
10.88574 522
10.90585 509
10.92597 481
10.94608 474
10.9662 459
10.98631 457
11.00642 481
11.02654 459
11.04665 449
11.06676 509
11.08688 449
11.10699 499
11.1271 480
11.14722 456
11.16733 532
11.18745 487
11.20756 470
11.22767 507
11.24779 514
11.2679 480
11.28801 501
11.30813 501
11.32824 519
11.34836 517
11.36847 486
11.38858 473
11.4087 434
11.42881 529
11.44892 481
11.46904 554
11.48915 514
11.50927 551
11.52938 518
11.54949 520
11.56961 491
11.58972 553
11.60983 531
11.62995 531
11.65006 489
11.67017 547
11.69029 523
11.7104 560
11.73052 531
11.75063 577
11.77074 596
11.79086 603
11.81097 550
11.83108 576
11.8512 585
11.87131 569
11.89143 582
11.91154 679
11.93165 613
11.95177 670
11.97188 647
11.99199 701
12.01211 706
12.03222 685
12.05234 747
12.07245 715
12.09256 797
12.11268 809
12.13279 827
12.1529 866
12.17302 956
12.19313 861
12.21324 988
12.23336 975
12.25347 1029
12.27359 1010
12.2937 1042
12.31381 948
12.33393 981
12.35404 1004
12.37415 970
12.39427 965
12.41438 927
12.4345 878
12.45461 831
12.47472 774
12.49484 782
12.51495 717
12.53506 702
12.55518 682
12.57529 680
12.5954 647
12.61552 605
12.63563 612
12.65575 564
12.67586 555
12.69597 544
12.71609 566
12.7362 556
12.75631 571
12.77643 555
12.79654 502
12.81666 521
12.83677 570
12.85688 547
12.877 497
12.89711 501
12.91722 472
12.93734 513
12.95745 485
12.97757 476
12.99768 462
13.01779 484
13.03791 498
13.05802 501
13.07813 489
13.09825 478
13.11836 477
13.13847 499
13.15859 503
13.1787 468
13.19882 491
13.21893 509
13.23904 486
13.25916 483
13.27927 473
13.29938 442
13.3195 445
13.33961 455
13.35973 453
13.37984 454
13.39995 471
13.42007 454
13.44018 454
13.46029 440
13.48041 441
13.50052 432
13.52064 444
13.54075 454
13.56086 452
13.58098 452
13.60109 490
13.6212 455
13.64132 453
13.66143 458
13.68154 477
13.70166 462
13.72177 432
13.74189 460
13.762 407
13.78211 449
13.80223 432
13.82234 470
13.84245 462
13.86257 431
13.88268 468
13.9028 460
13.92291 455
13.94302 460
13.96314 435
13.98325 462
14.00336 466
14.02348 454
14.04359 435
14.06371 440
14.08382 459
14.10393 471
14.12405 473
14.14416 442
14.16427 485
14.18439 443
14.2045 448
14.22461 468
14.24473 473
14.26484 457
14.28496 459
14.30507 452
14.32518 440
14.3453 476
14.36541 463
14.38552 476
14.40564 464
14.42575 441
14.44587 453
14.46598 450
14.48609 441
14.50621 474
14.52632 441
14.54643 459
14.56655 460
14.58666 433
14.60677 461
14.62689 448
14.647 464
14.66712 482
14.68723 474
14.70734 482
14.72746 455
14.74757 426
14.76768 489
14.7878 444
14.80791 446
14.82803 472
14.84814 457
14.86825 480
14.88837 456
14.90848 492
14.92859 453
14.94871 451
14.96882 447
14.98894 504
15.00905 399
15.02916 421
15.04928 440
15.06939 442
15.0895 442
15.10962 454
15.12973 440
15.14984 411
15.16996 496
15.19007 478
15.21019 448
15.2303 424
15.25041 479
15.27053 450
15.29064 443
15.31075 426
15.33087 417
15.35098 438
15.3711 437
15.39121 449
15.41132 458
15.43144 448
15.45155 449
15.47166 409
15.49178 414
15.51189 435
15.53201 419
15.55212 477
15.57223 451
15.59235 473
15.61246 488
15.63257 415
15.65269 412
15.6728 482
15.69291 435
15.71303 431
15.73314 414
15.75326 441
15.77337 475
15.79348 479
15.8136 416
15.83371 394
15.85382 458
15.87394 442
15.89405 457
15.91417 410
15.93428 411
15.95439 452
15.97451 452
15.99462 448
16.01473 462
16.03485 444
16.05496 436
16.07508 446
16.09519 459
16.1153 431
16.13542 448
16.15553 407
16.17564 425
16.19576 392
16.21587 396
16.23598 420
16.2561 460
16.27621 424
16.29633 428
16.31644 412
16.33655 467
16.35667 471
16.37678 447
16.39689 430
16.41701 446
16.43712 429
16.45724 403
16.47735 422
16.49746 480
16.51758 449
16.53769 481
16.5578 443
16.57792 487
16.59803 468
16.61814 470
16.63826 457
16.65837 438
16.67849 427
16.6986 409
16.71871 432
16.73883 422
16.75894 424
16.77905 453
16.79917 442
16.81928 475
16.8394 462
16.85951 456
16.87962 405
16.89974 433
16.91985 387
16.93996 435
16.96008 450
16.98019 439
17.00031 482
17.02042 440
17.04053 451
17.06065 482
17.08076 465
17.10087 447
17.12099 439
17.1411 404
17.16121 459
17.18133 472
17.20144 430
17.22156 460
17.24167 431
17.26178 462
17.2819 430
17.30201 428
17.32212 455
17.34224 423
17.36235 414
17.38247 414
17.40258 490
17.42269 465
17.44281 426
17.46292 411
17.48303 431
17.50315 452
17.52326 432
17.54338 456
17.56349 442
17.5836 453
17.60372 413
17.62383 487
17.64394 473
17.66406 463
17.68417 481
17.70428 465
17.7244 416
17.74451 485
17.76463 426
17.78474 455
17.80485 459
17.82497 466
17.84508 455
17.86519 443
17.88531 421
17.90542 428
17.92554 496
17.94565 450
17.96576 464
17.98588 413
18.00599 436
18.0261 505
18.04622 423
18.06633 478
18.08645 486
18.10656 468
18.12667 472
18.14679 477
18.1669 472
18.18701 520
18.20713 499
18.22724 544
18.24735 558
18.26747 582
18.28758 566
18.3077 522
18.32781 540
18.34792 517
18.36804 446
18.38815 500
18.40826 454
18.42838 503
18.44849 467
18.46861 494
18.48872 443
18.50883 486
18.52895 495
18.54906 464
18.56917 475
18.58929 399
18.6094 492
18.62951 470
18.64963 437
18.66974 485
18.68986 440
18.70997 466
18.73008 497
18.7502 452
18.77031 462
18.79042 407
18.81054 424
18.83065 495
18.85077 447
18.87088 481
18.89099 430
18.91111 419
18.93122 454
18.95133 435
18.97145 468
18.99156 435
19.01168 431
19.03179 435
19.0519 490
19.07202 444
19.09213 434
19.11224 453
19.13236 460
19.15247 426
19.17258 469
19.1927 420
19.21281 461
19.23293 452
19.25304 504
19.27315 457
19.29327 468
19.31338 469
19.33349 445
19.35361 460
19.37372 491
19.39384 456
19.41395 473
19.43406 465
19.45418 438
19.47429 473
19.4944 482
19.51452 501
19.53463 525
19.55475 481
19.57486 476
19.59497 507
19.61509 508
19.6352 522
19.65531 542
19.67543 640
19.69554 651
19.71565 677
19.73577 690
19.75588 707
19.776 781
19.79611 727
19.81622 818
19.83634 849
19.85645 845
19.87656 862
19.89668 808
19.91679 912
19.93691 849
19.95702 819
19.97713 825
19.99725 869
20.01736 787
20.03747 831
20.05759 865
20.0777 749
20.09782 779
20.11793 805
20.13804 818
20.15816 785
20.17827 802
20.19838 805
20.2185 799
20.23861 815
20.25872 823
20.27884 813
20.29895 808
20.31907 876
20.33918 775
20.35929 824
20.37941 865
20.39952 822
20.41963 799
20.43975 792
20.45986 826
20.47998 801
20.50009 806
20.5202 820
20.54032 860
20.56043 839
20.58054 874
20.60066 901
20.62077 950
20.64088 1012
20.661 1095
20.68111 1168
20.70123 1375
20.72134 1610
20.74145 1954
20.76157 2259
20.78168 2422
20.80179 2493
20.82191 2559
20.84202 2444
20.86214 2008
20.88225 1687
20.90236 1436
20.92248 1197
20.94259 1079
20.9627 925
20.98282 892
21.00293 888
21.02305 729
21.04316 818
21.06327 807
21.08339 781
21.1035 791
21.12361 737
21.14373 733
21.16384 737
21.18395 739
21.20407 709
21.22418 767
21.2443 735
21.26441 747
21.28452 729
21.30464 748
21.32475 708
21.34486 717
21.36498 743
21.38509 680
21.40521 699
21.42532 737
21.44543 698
21.46555 696
21.48566 708
21.50577 678
21.52589 723
21.546 621
21.56612 686
21.58623 654
21.60634 637
21.62646 668
21.64657 626
21.66668 608
21.6868 647
21.70691 666
21.72702 651
21.74714 656
21.76725 722
21.78737 611
21.80748 674
21.82759 626
21.84771 630
21.86782 597
21.88793 615
21.90805 658
21.92816 658
21.94828 608
21.96839 633
21.9885 583
22.00862 647
22.02873 571
22.04884 578
22.06896 596
22.08907 624
22.10919 616
22.1293 577
22.14941 563
22.16953 622
22.18964 617
22.20975 609
22.22987 616
22.24998 595
22.27009 587
22.29021 606
22.31032 646
22.33044 573
22.35055 592
22.37066 586
22.39078 571
22.41089 676
22.431 597
22.45112 615
22.47123 564
22.49135 583
22.51146 540
22.53157 556
22.55169 606
22.5718 594
22.59191 579
22.61203 547
22.63214 588
22.65225 579
22.67237 530
22.69248 525
22.7126 552
22.73271 571
22.75282 562
22.77294 589
22.79305 585
22.81316 583
22.83328 585
22.85339 575
22.87351 565
22.89362 573
22.91373 557
22.93385 554
22.95396 545
22.97407 559
22.99419 572
23.0143 587
23.03442 537
23.05453 619
23.07464 584
23.09476 579
23.11487 588
23.13498 570
23.1551 510
23.17521 536
23.19532 553
23.21544 538
23.23555 528
23.25567 575
23.27578 543
23.29589 579
23.31601 585
23.33612 586
23.35623 559
23.37635 560
23.39646 550
23.41658 539
23.43669 571
23.4568 575
23.47692 565
23.49703 635
23.51714 564
23.53726 596
23.55737 507
23.57749 528
23.5976 622
23.61771 580
23.63783 592
23.65794 606
23.67805 673
23.69817 670
23.71828 694
23.73839 664
23.75851 681
23.77862 661
23.79874 687
23.81885 659
23.83896 642
23.85908 641
23.87919 665
23.8993 683
23.91942 655
23.93953 640
23.95965 644
23.97976 649
23.99987 634
24.01999 677
24.0401 696
24.06021 712
24.08033 700
24.10044 723
24.12056 714
24.14067 685
24.16078 699
24.1809 724
24.20101 679
24.22112 739
24.24124 679
24.26135 616
24.28146 694
24.30158 704
24.32169 647
24.34181 669
24.36192 679
24.38203 697
24.40215 721
24.42226 694
24.44237 643
24.46249 661
24.4826 714
24.50272 710
24.52283 751
24.54294 737
24.56306 752
24.58317 728
24.60328 728
24.6234 759
24.64351 797
24.66362 789
24.68374 835
24.70385 862
24.72397 871
24.74408 942
24.76419 922
24.78431 940
24.80442 926
24.82453 974
24.84465 923
24.86476 911
24.88488 952
24.90499 890
24.9251 854
24.94522 857
24.96533 791
24.98544 759
25.00556 738
25.02567 739
25.04579 787
25.0659 753
25.08601 767
25.10613 736
25.12624 674
25.14635 702
25.16647 679
25.18658 705
25.20669 716
25.22681 675
25.24692 682
25.26704 630
25.28715 660
25.30726 605
25.32738 579
25.34749 613
25.3676 602
25.38772 604
25.40783 576
25.42795 609
25.44806 593
25.46817 531
25.48829 608
25.5084 604
25.52851 537
25.54863 573
25.56874 621
25.58886 567
25.60897 618
25.62908 589
25.6492 624
25.66931 628
25.68942 613
25.70954 682
25.72965 643
25.74976 619
25.76988 615
25.78999 658
25.81011 647
25.83022 649
25.85033 654
25.87045 665
25.89056 650
25.91067 676
25.93079 609
25.9509 664
25.97102 646
25.99113 658
26.01124 691
26.03136 699
26.05147 749
26.07158 745
26.0917 731
26.11181 741
26.13193 770
26.15204 851
26.17215 795
26.19227 872
26.21238 967
26.23249 914
26.25261 1013
26.27272 962
26.29283 946
26.31295 1062
26.33306 1195
26.35318 1253
26.37329 1450
26.3934 1671
26.41352 2073
26.43363 2398
26.45374 3143
26.47386 3966
26.49397 5199
26.51409 6423
26.5342 7662
26.55431 8747
26.57443 9327
26.59454 9157
26.61465 8356
26.63477 7261
26.65488 6121
26.67499 4665
26.69511 3534
26.71522 2634
26.73534 1964
26.75545 1515
26.77556 1328
26.79568 1158
26.81579 978
26.8359 1009
26.85602 921
26.87613 916
26.89625 865
26.91636 846
26.93647 745
26.95659 788
26.9767 700
26.99681 681
27.01693 701
27.03704 674
27.05716 665
27.07727 615
27.09738 581
27.1175 604
27.13761 572
27.15772 618
27.17784 637
27.19795 583
27.21806 583
27.23818 598
27.25829 583
27.27841 571
27.29852 616
27.31863 570
27.33875 516
27.35886 567
27.37897 573
27.39909 576
27.4192 542
27.43932 534
27.45943 553
27.47954 570
27.49966 537
27.51977 544
27.53988 538
27.56 557
27.58011 531
27.60023 532
27.62034 525
27.64045 558
27.66057 538
27.68068 548
27.70079 516
27.72091 552
27.74102 501
27.76113 545
27.78125 493
27.80136 548
27.82148 551
27.84159 571
27.8617 531
27.88182 518
27.90193 514
27.92204 546
27.94216 538
27.96227 558
27.98239 494
28.0025 540
28.02261 520
28.04273 546
28.06284 576
28.08295 548
28.10307 517
28.12318 544
28.1433 480
28.16341 510
28.18352 523
28.20364 551
28.22375 517
28.24386 531
28.26398 495
28.28409 519
28.3042 510
28.32432 489
28.34443 503
28.36455 522
28.38466 474
28.40477 483
28.42489 513
28.445 508
28.46511 493
28.48523 474
28.50534 524
28.52546 491
28.54557 492
28.56568 467
28.5858 512
28.60591 512
28.62602 496
28.64614 487
28.66625 485
28.68636 490
28.70648 519
28.72659 514
28.74671 469
28.76682 518
28.78693 499
28.80705 482
28.82716 543
28.84727 516
28.86739 479
28.8875 531
28.90762 441
28.92773 528
28.94784 505
28.96796 494
28.98807 514
29.00818 495
29.0283 514
29.04841 488
29.06853 497
29.08864 526
29.10875 511
29.12887 475
29.14898 467
29.16909 494
29.18921 500
29.20932 484
29.22943 492
29.24955 488
29.26966 501
29.28978 467
29.30989 504
29.33 520
29.35012 460
29.37023 489
29.39034 499
29.41046 503
29.43057 528
29.45069 527
29.4708 495
29.49091 508
29.51103 508
29.53114 467
29.55125 486
29.57137 525
29.59148 485
29.6116 471
29.63171 516
29.65182 507
29.67194 476
29.69205 474
29.71216 488
29.73228 480
29.75239 477
29.7725 491
29.79262 480
29.81273 521
29.83285 523
29.85296 483
29.87307 462
29.89319 506
29.9133 462
29.93341 509
29.95353 515
29.97364 497
29.99376 561
30.01387 485
30.03398 500
30.0541 487
30.07421 528
30.09432 529
30.11444 535
30.13455 497
30.15467 505
30.17478 474
30.19489 485
30.21501 463
30.23512 497
30.25523 523
30.27535 499
30.29546 503
30.31557 527
30.33569 506
30.3558 508
30.37592 499
30.39603 509
30.41614 527
30.43626 485
30.45637 519
30.47648 471
30.4966 515
30.51671 465
30.53683 494
30.55694 500
30.57705 506
30.59717 488
30.61728 447
30.63739 493
30.65751 475
30.67762 462
30.69773 526
30.71785 478
30.73796 474
30.75808 459
30.77819 447
30.7983 436
30.81842 478
30.83853 493
30.85864 454
30.87876 458
30.89887 484
30.91899 442
30.9391 471
30.95921 495
30.97933 477
30.99944 476
31.01955 458
31.03967 461
31.05978 500
31.0799 485
31.10001 503
31.12012 482
31.14024 484
31.16035 453
31.18046 478
31.20058 510
31.22069 474
31.2408 512
31.26092 459
31.28103 457
31.30115 453
31.32126 452
31.34137 456
31.36149 506
31.3816 457
31.40171 435
31.42183 454
31.44194 474
31.46206 481
31.48217 467
31.50228 491
31.5224 488
31.54251 492
31.56262 472
31.58274 451
31.60285 469
31.62297 501
31.64308 455
31.66319 476
31.68331 502
31.70342 481
31.72353 506
31.74365 470
31.76376 531
31.78387 496
31.80399 520
31.8241 470
31.84422 455
31.86433 457
31.88444 462
31.90456 495
31.92467 459
31.94478 498
31.9649 520
31.98501 532
32.00513 508
32.02524 506
32.04535 505
32.06547 492
32.08558 510
32.10569 499
32.12581 527
32.14592 562
32.16604 532
32.18615 574
32.20626 525
32.22638 551
32.24649 542
32.2666 528
32.28672 582
32.30683 592
32.32694 561
32.34706 610
32.36717 636
32.38729 621
32.4074 641
32.42751 690
32.44763 682
32.46774 715
32.48785 691
32.50797 710
32.52808 735
32.5482 695
32.56831 706
32.58842 661
32.60854 698
32.62865 658
32.64876 682
32.66888 626
32.68899 601
32.7091 622
32.72922 626
32.74933 585
32.76945 612
32.78956 582
32.80967 658
32.82979 661
32.8499 651
32.87001 621
32.89013 677
32.91024 701
32.93036 731
32.95047 740
32.97058 770
32.9907 791
33.01081 764
33.03092 784
33.05104 851
33.07115 857
33.09127 785
33.11138 848
33.13149 823
33.15161 834
33.17172 792
33.19183 778
33.21195 789
33.23206 743
33.25217 757
33.27229 721
33.2924 710
33.31252 703
33.33263 678
33.35274 630
33.37286 635
33.39297 627
33.41308 613
33.4332 566
33.45331 628
33.47343 610
33.49354 534
33.51365 585
33.53377 580
33.55388 522
33.57399 531
33.59411 558
33.61422 548
33.63434 545
33.65445 506
33.67456 513
33.69468 541
33.71479 524
33.7349 521
33.75502 497
33.77513 518
33.79524 477
33.81536 505
33.83547 531
33.85559 528
33.8757 505
33.89581 482
33.91593 502
33.93604 493
33.95615 555
33.97627 467
33.99638 475
34.0165 499
34.03661 521
34.05672 485
34.07684 469
34.09695 483
34.11706 498
34.13718 446
34.15729 511
34.17741 513
34.19752 480
34.21763 482
34.23775 489
34.25786 497
34.27797 473
34.29809 484
34.3182 497
34.33831 498
34.35843 495
34.37854 564
34.39866 520
34.41877 510
34.43888 492
34.459 467
34.47911 510
34.49922 553
34.51934 544
34.53945 515
34.55957 550
34.57968 513
34.59979 569
34.61991 538
34.64002 568
34.66013 576
34.68025 564
34.70036 575
34.72047 599
34.74059 623
34.7607 633
34.78082 672
34.80093 678
34.82104 665
34.84116 641
34.86127 622
34.88138 711
34.9015 670
34.92161 693
34.94173 723
34.96184 735
34.98195 750
35.00207 679
35.02218 707
35.04229 703
35.06241 728
35.08252 731
35.10264 742
35.12275 721
35.14286 798
35.16298 761
35.18309 804
35.2032 840
35.22332 853
35.24343 849
35.26354 789
35.28366 820
35.30377 785
35.32389 846
35.344 796
35.36411 827
35.38423 798
35.40434 822
35.42445 897
35.44457 902
35.46468 884
35.4848 910
35.50491 960
35.52502 958
35.54514 988
35.56525 1030
35.58536 1043
35.60548 1052
35.62559 1046
35.64571 1039
35.66582 1048
35.68593 1058
35.70605 1001
35.72616 984
35.74627 919
35.76639 975
35.7865 957
35.80661 895
35.82673 920
35.84684 912
35.86696 752
35.88707 806
35.90718 758
35.9273 779
35.94741 762
35.96752 739
35.98764 731
36.00775 722
36.02787 715
36.04798 673
36.06809 657
36.08821 633
36.10832 672
36.12843 599
36.14855 630
36.16866 625
36.18878 666
36.20889 649
36.229 606
36.24912 672
36.26923 678
36.28934 716
36.30946 691
36.32957 741
36.34968 779
36.3698 797
36.38991 905
36.41003 989
36.43014 1051
36.45025 1095
36.47037 1115
36.49048 1103
36.51059 1032
36.53071 1026
36.55082 969
36.57094 877
36.59105 834
36.61116 767
36.63128 732
36.65139 667
36.6715 616
36.69162 599
36.71173 625
36.73184 603
36.75196 583
36.77207 609
36.79219 592
36.8123 577
36.83241 575
36.85253 552
36.87264 530
36.89275 542
36.91287 564
36.93298 579
36.9531 573
36.97321 563
36.99332 571
37.01344 531
37.03355 531
37.05366 559
37.07378 549
37.09389 590
37.11401 557
37.13412 570
37.15423 521
37.17435 548
37.19446 546
37.21457 534
37.23469 537
37.2548 523
37.27491 548
37.29503 532
37.31514 549
37.33526 540
37.35537 541
37.37548 574
37.3956 542
37.41571 545
37.43582 524
37.45594 526
37.47605 574
37.49617 566
37.51628 545
37.53639 618
37.55651 556
37.57662 614
37.59673 559
37.61685 594
37.63696 587
37.65708 582
37.67719 607
37.6973 603
37.71742 578
37.73753 605
37.75764 608
37.77776 578
37.79787 571
37.81798 579
37.8381 560
37.85821 586
37.87833 558
37.89844 580
37.91855 593
37.93867 613
37.95878 576
37.97889 573
37.99901 616
38.01912 622
38.03924 530
38.05935 599
38.07946 612
38.09958 606
38.11969 610
38.1398 650
38.15992 613
38.18003 650
38.20015 597
38.22026 664
38.24037 669
38.26049 632
38.2806 696
38.30071 650
38.32083 656
38.34094 676
38.36105 699
38.38117 694
38.40128 692
38.4214 735
38.44151 649
38.46162 633
38.48174 686
38.50185 663
38.52196 608
38.54208 663
38.56219 638
38.58231 610
38.60242 594
38.62253 611
38.64265 630
38.66276 639
38.68287 614
38.70299 609
38.7231 564
38.74321 635
38.76333 580
38.78344 649
38.80356 592
38.82367 543
38.84378 589
38.8639 611
38.88401 584
38.90412 646
38.92424 585
38.94435 619
38.96447 608
38.98458 613
39.00469 647
39.02481 629
39.04492 626
39.06503 653
39.08515 622
39.10526 612
39.12538 613
39.14549 626
39.1656 637
39.18572 658
39.20583 618
39.22594 675
39.24606 700
39.26617 731
39.28628 798
39.3064 842
39.32651 930
39.34663 959
39.36674 1086
39.38685 1028
39.40697 1038
39.42708 1044
39.44719 973
39.46731 939
39.48742 831
39.50754 803
39.52765 779
39.54776 689
39.56788 674
39.58799 600
39.6081 583
39.62822 531
39.64833 552
39.66845 576
39.68856 562
39.70867 483
39.72879 469
39.7489 521
39.76901 535
39.78913 505
39.80924 521
39.82935 534
39.84947 512
39.86958 491
39.8897 509
39.90981 508
39.92992 503
39.95004 518
39.97015 534
39.99026 543
40.01038 552
40.03049 553
40.05061 596
40.07072 572
40.09083 647
40.11095 605
40.13106 670
40.15117 692
40.17129 680
40.1914 769
40.21152 797
40.23163 803
40.25174 809
40.27186 775
40.29197 738
40.31208 684
40.3322 659
40.35231 648
40.37242 656
40.39254 599
40.41265 582
40.43277 530
40.45288 586
40.47299 571
40.49311 532
40.51322 552
40.53333 540
40.55345 554
40.57356 537
40.59368 566
40.61379 531
40.6339 575
40.65402 595
40.67413 598
40.69424 585
40.71436 534
40.73447 581
40.75458 591
40.7747 634
40.79481 622
40.81493 580
40.83504 611
40.85515 604
40.87527 644
40.89538 602
40.91549 643
40.93561 590
40.95572 588
40.97584 576
40.99595 544
41.01606 609
41.03618 606
41.05629 557
41.0764 576
41.09652 569
41.11663 563
41.13675 527
41.15686 522
41.17697 515
41.19709 516
41.2172 480
41.23731 509
41.25743 545
41.27754 495
41.29765 490
41.31777 520
41.33788 522
41.358 511
41.37811 490
41.39822 463
41.41834 530
41.43845 486
41.45856 516
41.47868 528
41.49879 532
41.51891 512
41.53902 472
41.55913 476
41.57925 489
41.59936 492
41.61947 467
41.63959 443
41.6597 456
41.67982 469
41.69993 475
41.72004 427
41.74016 492
41.76027 453
41.78038 528
41.8005 485
41.82061 479
41.84072 442
41.86084 455
41.88095 475
41.90107 512
41.92118 467
41.94129 487
41.96141 460
41.98152 449
42.00163 448
42.02175 499
42.04186 500
42.06198 481
42.08209 480
42.1022 496
42.12232 529
42.14243 492
42.16254 530
42.18266 543
42.20277 516
42.22289 577
42.243 590
42.26311 624
42.28323 677
42.30334 728
42.32345 744
42.34357 839
42.36368 830
42.38379 854
42.40391 796
42.42402 743
42.44414 729
42.46425 684
42.48436 670
42.50448 635
42.52459 614
42.5447 561
42.56482 500
42.58493 533
42.60505 507
42.62516 473
42.64527 505
42.66539 476
42.6855 494
42.70561 486
42.72573 497
42.74584 491
42.76595 499
42.78607 470
42.80618 491
42.8263 435
42.84641 488
42.86652 503
42.88664 470
42.90675 447
42.92686 472
42.94698 459
42.96709 467
42.98721 443
43.00732 471
43.02743 474
43.04755 456
43.06766 521
43.08777 443
43.10789 442
43.128 443
43.14812 494
43.16823 500
43.18834 470
43.20846 452
43.22857 456
43.24868 479
43.2688 497
43.28891 462
43.30902 463
43.32914 491
43.34925 468
43.36937 441
43.38948 441
43.40959 470
43.42971 464
43.44982 449
43.46993 445
43.49005 444
43.51016 539
43.53028 456
43.55039 509
43.5705 427
43.59062 470
43.61073 461
43.63084 483
43.65096 446
43.67107 460
43.69119 483
43.7113 447
43.73141 492
43.75153 454
43.77164 444
43.79175 472
43.81187 482
43.83198 463
43.85209 454
43.87221 451
43.89232 474
43.91244 449
43.93255 442
43.95266 468
43.97278 432
43.99289 454
44.013 498
44.03312 476
44.05323 466
44.07335 454
44.09346 438
44.11357 417
44.13369 480
44.1538 458
44.17391 496
44.19403 467
44.21414 474
44.23426 501
44.25437 469
44.27448 465
44.2946 472
44.31471 416
44.33482 457
44.35494 483
44.37505 487
44.39516 477
44.41528 461
44.43539 466
44.45551 464
44.47562 438
44.49573 410
44.51585 453
44.53596 465
44.55607 465
44.57619 460
44.5963 468
44.61642 463
44.63653 460
44.65664 446
44.67676 479
44.69687 490
44.71698 450
44.7371 428
44.75721 449
44.77732 433
44.79744 450
44.81755 477
44.83767 446
44.85778 472
44.87789 451
44.89801 462
44.91812 477
44.93823 479
44.95835 459
44.97846 461
44.99858 476
45.01869 438
45.0388 435
45.05892 490
45.07903 446
45.09914 470
45.11926 475
45.13937 513
45.15949 491
45.1796 484
45.19971 503
45.21983 496
45.23994 495
45.26005 487
45.28017 500
45.30028 527
45.32039 476
45.34051 505
45.36062 534
45.38074 481
45.40085 484
45.42096 536
45.44108 518
45.46119 534
45.4813 530
45.50142 508
45.52153 539
45.54165 546
45.56176 579
45.58187 565
45.60199 613
45.6221 590
45.64221 670
45.66233 692
45.68244 627
45.70256 687
45.72267 739
45.74278 708
45.7629 687
45.78301 637
45.80312 613
45.82324 573
45.84335 592
45.86346 632
45.88358 575
45.90369 531
45.92381 522
45.94392 465
45.96403 509
45.98415 494
46.00426 510
46.02437 510
46.04449 470
46.0646 491
46.08472 460
46.10483 480
46.12494 493
46.14506 476
46.16517 492
46.18528 504
46.2054 501
46.22551 426
46.24563 472
46.26574 480
46.28585 487
46.30597 489
46.32608 483
46.34619 489
46.36631 487
46.38642 450
46.40653 487
46.42665 474
46.44676 491
46.46688 428
46.48699 490
46.5071 527
46.52722 450
46.54733 494
46.56744 484
46.58756 492
46.60767 497
46.62779 483
46.6479 462
46.66801 491
46.68813 459
46.70824 480
46.72835 478
46.74847 463
46.76858 468
46.78869 483
46.80881 469
46.82892 466
46.84904 446
46.86915 490
46.88926 475
46.90938 508
46.92949 472
46.9496 473
46.96972 487
46.98983 440
47.00995 450
47.03006 477
47.05017 443
47.07029 480
47.0904 473
47.11051 512
47.13063 483
47.15074 466
47.17086 439
47.19097 435
47.21108 477
47.2312 453
47.25131 470
47.27142 497
47.29154 481
47.31165 467
47.33176 471
47.35188 488
47.37199 519
47.39211 466
47.41222 503
47.43233 500
47.45245 477
47.47256 422
47.49267 481
47.51279 459
47.5329 460
47.55302 447
47.57313 449
47.59324 434
47.61336 467
47.63347 477
47.65358 438
47.6737 463
47.69381 460
47.71393 481
47.73404 460
47.75415 454
47.77427 488
47.79438 509
47.81449 466
47.83461 449
47.85472 488
47.87483 492
47.89495 524
47.91506 507
47.93518 474
47.95529 445
47.9754 473
47.99552 506
48.01563 458
48.03574 457
48.05586 494
48.07597 519
48.09609 473
48.1162 437
48.13631 478
48.15643 470
48.17654 497
48.19665 485
48.21677 470
48.23688 460
48.257 501
48.27711 451
48.29722 460
48.31734 472
48.33745 465
48.35756 468
48.37768 464
48.39779 485
48.4179 451
48.43802 468
48.45813 504
48.47825 528
48.49836 464
48.51847 510
48.53859 501
48.5587 507
48.57881 511
48.59893 491
48.61904 542
48.63916 493
48.65927 496
48.67938 540
48.6995 522
48.71961 544
48.73972 447
48.75984 557
48.77995 528
48.80006 557
48.82018 513
48.84029 532
48.86041 483
48.88052 537
48.90063 519
48.92075 491
48.94086 546
48.96097 508
48.98109 537
49.0012 503
49.02132 523
49.04143 525
49.06154 495
49.08166 487
49.10177 545
49.12188 532
49.142 514
49.16211 530
49.18223 526
49.20234 477
49.22245 599
49.24257 554
49.26268 550
49.28279 538
49.30291 556
49.32302 575
49.34313 568
49.36325 576
49.38336 584
49.40348 614
49.42359 563
49.4437 583
49.46382 554
49.48393 566
49.50404 604
49.52416 598
49.54427 556
49.56439 594
49.5845 579
49.60461 604
49.62473 567
49.64484 599
49.66495 577
49.68507 577
49.70518 572
49.7253 543
49.74541 589
49.76552 601
49.78564 621
49.80575 586
49.82586 638
49.84598 694
49.86609 698
49.8862 679
49.90632 770
49.92643 800
49.94655 893
49.96666 975
49.98677 1127
50.00689 1212
50.027 1260
50.04711 1383
50.06723 1326
50.08734 1300
50.10746 1200
50.12757 1167
50.14768 1002
50.1678 969
50.18791 931
50.20802 861
50.22814 801
50.24825 727
50.26837 706
50.28848 601
50.30859 560
50.32871 550
50.34882 507
50.36893 539
50.38905 493
50.40916 488
50.42927 477
50.44939 486
50.4695 493
50.48962 506
50.50973 489
50.52984 539
50.54996 482
50.57007 526
50.59018 485
50.6103 486
50.63041 516
50.65053 533
50.67064 474
50.69075 490
50.71087 507
50.73098 479
50.75109 492
50.77121 449
50.79132 466
50.81143 463
50.83155 456
50.85166 435
50.87178 520
50.89189 454
50.912 477
50.93212 495
50.95223 484
50.97234 514
50.99246 478
51.01257 492
51.03269 484
51.0528 453
51.07291 480
51.09303 456
51.11314 469
51.13325 435
51.15337 485
51.17348 450
51.1936 483
51.21371 448
51.23382 457
51.25394 503
51.27405 447
51.29416 496
51.31428 444
51.33439 460
51.3545 422
51.37462 459
51.39473 441
51.41485 442
51.43496 449
51.45507 458
51.47519 439
51.4953 454
51.51541 409
51.53553 447
51.55564 470
51.57576 439
51.59587 450
51.61598 435
51.6361 462
51.65621 464
51.67632 426
51.69644 402
51.71655 440
51.73667 458
51.75678 448
51.77689 437
51.79701 437
51.81712 440
51.83723 481
51.85735 483
51.87746 426
51.89757 448
51.91769 448
51.9378 420
51.95792 442
51.97803 465
51.99814 414
52.01826 424
52.03837 487
52.05848 455
52.0786 479
52.09871 432
52.11883 438
52.13894 465
52.15905 473
52.17917 458
52.19928 466
52.21939 437
52.23951 431
52.25962 445
52.27974 451
52.29985 430
52.31996 468
52.34008 425
52.36019 442
52.3803 447
52.40042 451
52.42053 456
52.44064 456
52.46076 466
52.48087 472
52.50099 447
52.5211 459
52.54121 423
52.56133 470
52.58144 491
52.60155 460
52.62167 475
52.64178 477
52.6619 438
52.68201 461
52.70212 519
52.72224 447
52.74235 468
52.76246 477
52.78258 483
52.80269 455
52.8228 444
52.84292 484
52.86303 469
52.88315 503
52.90326 517
52.92337 511
52.94349 484
52.9636 523
52.98371 517
53.00383 486
53.02394 503
53.04406 546
53.06417 531
53.08428 567
53.1044 490
53.12451 538
53.14462 521
53.16474 510
53.18485 493
53.20497 530
53.22508 540
53.24519 515
53.26531 533
53.28542 500
53.30553 536
53.32565 501
53.34576 515
53.36587 519
53.38599 509
53.4061 517
53.42622 553
53.44633 489
53.46644 538
53.48656 504
53.50667 518
53.52678 524
53.5469 490
53.56701 514
53.58713 496
53.60724 517
53.62735 502
53.64747 554
53.66758 553
53.68769 544
53.70781 542
53.72792 575
53.74804 542
53.76815 622
53.78826 553
53.80838 555
53.82849 553
53.8486 573
53.86872 597
53.88883 639
53.90894 657
53.92906 612
53.94917 612
53.96929 646
53.9894 646
54.00951 646
54.02963 627
54.04974 643
54.06985 698
54.08997 762
54.11008 648
54.1302 651
54.15031 657
54.17042 647
54.19054 660
54.21065 700
54.23076 653
54.25088 665
54.27099 647
54.29111 632
54.31122 634
54.33133 625
54.35145 606
54.37156 644
54.39167 598
54.41179 600
54.4319 624
54.45201 598
54.47213 579
54.49224 571
54.51236 560
54.53247 602
54.55258 571
54.5727 571
54.59281 593
54.61292 592
54.63304 638
54.65315 644
54.67327 622
54.69338 679
54.71349 716
54.73361 748
54.75372 803
54.77383 798
54.79395 795
54.81406 728
54.83417 713
54.85429 684
54.8744 720
54.89452 729
54.91463 730
54.93474 686
54.95486 670
54.97497 641
54.99508 616
55.0152 567
55.03531 584
55.05543 573
55.07554 597
55.09565 602
55.11577 615
55.13588 629
55.15599 613
55.17611 637
55.19622 622
55.21634 619
55.23645 613
55.25656 635
55.27668 624
55.29679 633
55.3169 589
55.33702 597
55.35713 625
55.37724 603
55.39736 581
55.41747 528
55.43759 561
55.4577 537
55.47781 555
55.49793 519
55.51804 525
55.53815 538
55.55827 542
55.57838 498
55.5985 527
55.61861 521
55.63872 519
55.65884 502
55.67895 491
55.69906 442
55.71918 523
55.73929 513
55.75941 500
55.77952 525
55.79963 521
55.81975 496
55.83986 486
55.85997 502
55.88009 489
55.9002 494
55.92031 501
55.94043 509
55.96054 506
55.98066 471
56.00077 485
56.02088 482
56.041 515
56.06111 507
56.08122 480
56.10134 464
56.12145 497
56.14157 504
56.16168 500
56.18179 511
56.20191 502
56.22202 494
56.24213 467
56.26225 507
56.28236 512
56.30248 512
56.32259 508
56.3427 492
56.36282 484
56.38293 491
56.40304 486
56.42316 496
56.44327 501
56.46338 502
56.4835 498
56.50361 490
56.52373 484
56.54384 475
56.56395 499
56.58407 490
56.60418 472
56.62429 511
56.64441 518
56.66452 531
56.68464 514
56.70475 512
56.72486 468
56.74498 492
56.76509 515
56.7852 500
56.80532 488
56.82543 482
56.84554 487
56.86566 480
56.88577 465
56.90589 532
56.926 498
56.94611 489
56.96623 502
56.98634 484
57.00645 489
57.02657 464
57.04668 450
57.0668 496
57.08691 474
57.10702 500
57.12714 507
57.14725 476
57.16736 516
57.18748 479
57.20759 504
57.22771 464
57.24782 526
57.26793 488
57.28805 483
57.30816 484
57.32827 516
57.34839 472
57.3685 534
57.38861 510
57.40873 449
57.42884 498
57.44896 500
57.46907 488
57.48918 493
57.5093 494
57.52941 493
57.54952 526
57.56964 479
57.58975 460
57.60987 466
57.62998 482
57.65009 465
57.67021 483
57.69032 485
57.71043 502
57.73055 452
57.75066 494
57.77078 478
57.79089 458
57.811 499
57.83112 483
57.85123 482
57.87134 505
57.89146 435
57.91157 459
57.93168 485
57.9518 485
57.97191 474
57.99203 426
58.01214 468
58.03225 489
58.05237 448
58.07248 447
58.09259 441
58.11271 449
58.13282 485
58.15294 454
58.17305 448
58.19316 456
58.21328 465
58.23339 438
58.2535 469
58.27362 466
58.29373 418
58.31385 449
58.33396 429
58.35407 463
58.37419 433
58.3943 500
58.41441 454
58.43453 510
58.45464 441
58.47475 449
58.49487 455
58.51498 444
58.5351 474
58.55521 474
58.57532 447
58.59544 440
58.61555 425
58.63566 429
58.65578 457
58.67589 453
58.69601 455
58.71612 468
58.73623 440
58.75635 466
58.77646 446
58.79657 477
58.81669 438
58.8368 446
58.85691 431
58.87703 471
58.89714 477
58.91726 465
58.93737 475
58.95748 456
58.9776 439
58.99771 451
59.01782 439
59.03794 441
59.05805 476
59.07817 412
59.09828 451
59.11839 498
59.13851 484
59.15862 477
59.17873 426
59.19885 475
59.21896 439
59.23908 462
59.25919 494
59.2793 448
59.29942 468
59.31953 480
59.33964 494
59.35976 479
59.37987 487
59.39998 461
59.4201 465
59.44021 453
59.46033 466
59.48044 448
59.50055 525
59.52067 501
59.54078 503
59.56089 504
59.58101 515
59.60112 538
59.62124 514
59.64135 554
59.66146 560
59.68158 598
59.70169 577
59.7218 637
59.74192 695
59.76203 763
59.78215 810
59.80226 913
59.82237 925
59.84249 1005
59.8626 942
59.88271 950
59.90283 921
59.92294 908
59.94305 857
59.96317 819
59.98328 832
60.0034 728
60.02351 709
60.04362 736
60.06374 682
60.08385 630
60.10396 597
60.12408 608
60.14419 548
60.16431 500
60.18442 523
60.20453 526
60.22465 515
60.24476 516
60.26487 429
60.28499 463
60.3051 485
60.32522 481
60.34533 483
60.36544 466
60.38556 455
60.40567 457
60.42578 439
60.4459 459
60.46601 465
60.48612 465
60.50624 417
60.52635 479
60.54647 441
60.56658 472
60.58669 475
60.60681 444
60.62692 484
60.64703 472
60.66715 449
60.68726 450
60.70738 469
60.72749 458
60.7476 445
60.76772 399
60.78783 488
60.80794 447
60.82806 437
60.84817 408
60.86828 488
60.8884 464
60.90851 459
60.92863 489
60.94874 426
60.96885 463
60.98897 458
61.00908 434
61.02919 456
61.04931 448
61.06942 448
61.08954 451
61.10965 498
61.12976 447
61.14988 477
61.16999 488
61.1901 467
61.21022 470
61.23033 479
61.25045 433
61.27056 448
61.29067 453
61.31079 475
61.3309 477
61.35101 478
61.37113 474
61.39124 482
61.41135 475
61.43147 488
61.45158 486
61.4717 507
61.49181 487
61.51192 521
61.53204 458
61.55215 490
61.57226 507
61.59238 480
61.61249 479
61.63261 514
61.65272 501
61.67283 512
61.69295 471
61.71306 463
61.73317 482
61.75329 490
61.7734 485
61.79352 493
61.81363 500
61.83374 484
61.85386 495
61.87397 527
61.89408 502
61.9142 528
61.93431 525
61.95442 542
61.97454 588
61.99465 569
62.01477 568
62.03488 569
62.05499 599
62.07511 632
62.09522 634
62.11533 628
62.13545 637
62.15556 615
62.17568 657
62.19579 649
62.2159 649
62.23602 685
62.25613 666
62.27624 643
62.29636 644
62.31647 711
62.33659 693
62.3567 631
62.37681 626
62.39693 677
62.41704 666
62.43715 663
62.45727 652
62.47738 607
62.49749 649
62.51761 583
62.53772 595
62.55784 618
62.57795 608
62.59806 576
62.61818 602
62.63829 556
62.6584 583
62.67852 580
62.69863 542
62.71875 574
62.73886 551
62.75897 565
62.77909 530
62.7992 517
62.81931 538
62.83943 517
62.85954 517
62.87965 494
62.89977 495
62.91988 503
62.94 478
62.96011 493
62.98022 517
63.00034 515
63.02045 524
63.04056 501
63.06068 499
63.08079 481
63.10091 549
63.12102 538
63.14113 478
63.16125 505
63.18136 519
63.20147 506
63.22159 523
63.2417 498
63.26182 529
63.28193 516
63.30204 555
63.32216 509
63.34227 527
63.36238 520
63.3825 467
63.40261 540
63.42272 491
63.44284 465
63.46295 532
63.48307 517
63.50318 491
63.52329 553
63.54341 508
63.56352 476
63.58363 518
63.60375 526
63.62386 502
63.64398 529
63.66409 519
63.6842 541
63.70432 526
63.72443 514
63.74454 546
63.76466 571
63.78477 563
63.80489 562
63.825 580
63.84511 540
63.86523 598
63.88534 658
63.90545 664
63.92557 656
63.94568 661
63.96579 642
63.98591 653
64.00602 636
64.02614 636
64.04625 623
64.06636 608
64.08648 634
64.10659 601
64.1267 613
64.14682 609
64.16693 580
64.18705 577
64.20716 569
64.22727 577
64.24739 576
64.2675 527
64.28761 512
64.30773 501
64.32784 555
64.34796 532
64.36807 529
64.38818 502
64.4083 516
64.42841 489
64.44852 489
64.46864 475
64.48875 499
64.50886 494
64.52898 464
64.54909 472
64.56921 482
64.58932 460
64.60943 477
64.62955 473
64.64966 459
64.66977 524
64.68989 467
64.71 458
64.73012 457
64.75023 466
64.77034 462
64.79046 440
64.81057 454
64.83068 453
64.8508 456
64.87091 496
64.89102 439
64.91114 453
64.93125 429
64.95137 462
64.97148 446
64.99159 446
65.01171 435
65.03182 440
65.05193 423
65.07205 425
65.09216 404
65.11228 416
65.13239 459
65.1525 459
65.17262 436
65.19273 452
65.21284 440
65.23296 432
65.25307 408
65.27319 485
65.2933 437
65.31341 455
65.33353 433
65.35364 426
65.37375 454
65.39387 475
65.41398 473
65.43409 464
65.45421 398
65.47432 425
65.49444 438
65.51455 461
65.53466 445
65.55478 431
65.57489 423
65.595 443
65.61512 451
65.63523 485
65.65535 465
65.67546 448
65.69557 463
65.71569 441
65.7358 452
65.75591 428
65.77603 459
65.79614 451
65.81626 434
65.83637 458
65.85648 457
65.8766 441
65.89671 463
65.91682 424
65.93694 463
65.95705 424
65.97716 440
65.99728 430
66.01739 440
66.03751 413
66.05762 450
66.07773 441
66.09785 446
66.11796 458
66.13807 407
66.15819 394
66.1783 427
66.19842 448
66.21853 447
66.23864 456
66.25876 441
66.27887 454
66.29898 428
66.3191 413
66.33921 430
66.35933 433
66.37944 431
66.39955 443
66.41967 432
66.43978 425
66.45989 444
66.48001 433
66.50012 480
66.52023 460
66.54035 428
66.56046 435
66.58058 436
66.60069 444
66.6208 481
66.64092 426
66.66103 436
66.68114 457
66.70126 421
66.72137 420
66.74149 384
66.7616 431
66.78171 415
66.80183 447
66.82194 415
66.84205 395
66.86217 402
66.88228 428
66.90239 451
66.92251 440
66.94262 446
66.96274 440
66.98285 459
67.00296 437
67.02308 448
67.04319 473
67.0633 438
67.08342 444
67.10353 418
67.12365 441
67.14376 449
67.16387 489
67.18399 447
67.2041 446
67.22421 452
67.24433 487
67.26444 454
67.28456 492
67.30467 488
67.32478 475
67.3449 483
67.36501 492
67.38512 501
67.40524 512
67.42535 484
67.44546 512
67.46558 534
67.48569 516
67.50581 549
67.52592 593
67.54603 632
67.56615 645
67.58626 710
67.60637 751
67.62649 708
67.6466 790
67.66672 769
67.68683 766
67.70694 701
67.72706 726
67.74717 642
67.76728 677
67.7874 691
67.80751 669
67.82763 692
67.84774 694
67.86785 704
67.88797 701
67.90808 710
67.92819 695
67.94831 732
67.96842 752
67.98853 806
68.00865 814
68.02876 917
68.04888 922
68.06899 881
68.0891 886
68.10922 874
68.12933 846
68.14944 868
68.16956 807
68.18967 794
68.20979 851
68.2299 859
68.25001 827
68.27013 792
68.29024 748
68.31035 700
68.33047 646
68.35058 622
68.3707 617
68.39081 594
68.41092 598
68.43104 564
68.45115 560
68.47126 516
68.49138 531
68.51149 490
68.5316 453
68.55172 463
68.57183 463
68.59195 471
68.61206 435
68.63217 464
68.65229 495
68.6724 429
68.69251 442
68.71263 483
68.73274 441
68.75286 451
68.77297 451
68.79308 427
68.8132 418
68.83331 445
68.85342 448
68.87354 434
68.89365 458
68.91376 450
68.93388 432
68.95399 452
68.97411 437
68.99422 427
69.01433 431
69.03445 422
69.05456 452
69.07467 437
69.09479 413
69.1149 451
69.13502 427
69.15513 416
69.17524 484
69.19536 434
69.21547 463
69.23558 437
69.2557 450
69.27581 434
69.29593 404
69.31604 422
69.33615 437
69.35627 422
69.37638 460
69.39649 448
69.41661 440
69.43672 447
69.45683 438
69.47695 432
69.49706 420
69.51718 419
69.53729 409
69.5574 437
69.57752 435
69.59763 444
69.61774 432
69.63786 395
69.65797 431
69.67809 424
69.6982 405
69.71831 459
69.73843 411
69.75854 447
69.77865 434
69.79877 400
69.81888 442
69.839 451
69.85911 437
69.87922 417
69.89934 447
69.91945 427
69.93956 444
69.95968 420
69.97979 421
69.9999 466
70.02002 434
70.04013 454
70.06025 439
70.08036 429
70.10047 398
70.12059 456
70.1407 471
70.16081 448
70.18093 476
70.20104 432
70.22116 436
70.24127 462
70.26138 444
70.2815 437
70.30161 423
70.32172 428
70.34184 403
70.36195 407
70.38207 392
70.40218 423
70.42229 452
70.44241 428
70.46252 470
70.48263 401
70.50275 440
70.52286 421
70.54297 422
70.56309 432
70.5832 414
70.60332 382
70.62343 399
70.64354 427
70.66366 446
70.68377 426
70.70388 409
70.724 423
70.74411 437
70.76423 447
70.78434 400
70.80445 392
70.82457 408
70.84468 444
70.86479 428
70.88491 427
70.90502 425
70.92513 414
70.94525 419
70.96536 427
70.98548 390
71.00559 444
71.0257 422
71.04582 430
71.06593 419
71.08604 413
71.10616 412
71.12627 402
71.14639 422
71.1665 453
71.18661 413
71.20673 431
71.22684 412
71.24695 434
71.26707 411
71.28718 416
71.3073 433
71.32741 439
71.34752 427
71.36764 414
71.38775 401
71.40786 389
71.42798 445
71.44809 441
71.4682 436
71.48832 457
71.50843 425
71.52855 398
71.54866 408
71.56877 407
71.58889 446
71.609 427
71.62911 431
71.64923 421
71.66934 425
71.68946 426
71.70957 407
71.72968 440
71.7498 427
71.76991 450
71.79002 477
71.81014 463
71.83025 443
71.85037 438
71.87048 403
71.89059 476
71.91071 464
71.93082 438
71.95093 446
71.97105 461
71.99116 461
72.01127 450
72.03139 442
72.0515 474
72.07162 433
72.09173 481
72.11184 437
72.13196 437
72.15207 480
72.17218 472
72.1923 466
72.21241 474
72.23253 447
72.25264 447
72.27275 475
72.29287 465
72.31298 472
72.33309 411
72.35321 443
72.37332 405
72.39344 437
72.41355 427
72.43366 408
72.45378 404
72.47389 442
72.494 442
72.51412 461
72.53423 412
72.55434 437
72.57446 469
72.59457 425
72.61469 437
72.6348 449
72.65491 403
72.67503 432
72.69514 444
72.71525 401
72.73537 418
72.75548 433
72.7756 436
72.79571 419
72.81582 432
72.83594 414
72.85605 450
72.87616 407
72.89628 391
72.91639 417
72.9365 413
72.95662 436
72.97673 404
72.99685 432
73.01696 459
73.03707 447
73.05719 437
73.0773 424
73.09741 429
73.11753 438
73.13764 482
73.15776 446
73.17787 449
73.19798 421
73.2181 471
73.23821 484
73.25832 474
73.27844 462
73.29855 495
73.31867 497
73.33878 540
73.35889 519
73.37901 521
73.39912 529
73.41923 566
73.43935 509
73.45946 532
73.47957 487
73.49969 496
73.5198 473
73.53992 494
73.56003 506
73.58014 501
73.60026 507
73.62037 423
73.64048 518
73.6606 416
73.68071 448
73.70083 455
73.72094 473
73.74105 452
73.76117 444
73.78128 417
73.80139 393
73.82151 414
73.84162 442
73.86174 431
73.88185 418
73.90196 474
73.92208 447
73.94219 422
73.9623 449
73.98242 420
74.00253 415
74.02264 420
74.04276 391
74.06287 478
74.08299 405
74.1031 393
74.12321 402
74.14333 405
74.16344 402
74.18355 411
74.20367 450
74.22378 429
74.2439 408
74.26401 417
74.28412 430
74.30424 426
74.32435 453
74.34446 434
74.36458 417
74.38469 448
74.40481 409
74.42492 411
74.44503 410
74.46515 469
74.48526 440
74.50537 408
74.52549 427
74.5456 413
74.56571 447
74.58583 413
74.60594 402
74.62606 412
74.64617 436
74.66628 418
74.6864 415
74.70651 426
74.72662 408
74.74674 444
74.76685 394
74.78697 437
74.80708 404
74.82719 428
74.84731 402
74.86742 464
74.88753 392
74.90765 430
74.92776 396
74.94787 413
74.96799 418
74.9881 460
75.00822 407
