3.00117 21395
3.02128 20896
3.0414 20163
3.06151 19755
3.08162 19117
3.10174 18811
3.12185 18358
3.14197 17752
3.16208 17502
3.18219 16701
3.20231 16251
3.22242 15682
3.24253 15373
3.26265 15013
3.28276 14615
3.30288 14125
3.32299 13602
3.3431 13171
3.36322 12956
3.38333 12420
3.40344 11876
3.42356 11611
3.44367 11231
3.46379 11373
3.4839 10383
3.50401 10099
3.52413 10076
3.54424 9566
3.56435 9521
3.58447 8715
3.60458 8656
3.62469 8441
3.64481 8044
3.66492 8009
3.68504 7344
3.70515 7159
3.72526 6876
3.74538 6588
3.76549 6461
3.7856 6110
3.80572 6027
3.82583 5710
3.84595 5520
3.86606 5369
3.88617 5109
3.90629 4995
3.9264 4762
3.94651 4604
3.96663 4515
3.98674 4116
4.00686 4061
4.02697 4032
4.04708 3875
4.0672 3773
4.08731 3485
4.10742 3305
4.12754 3340
4.14765 3244
4.16776 3142
4.18788 2855
4.20799 2822
4.22811 2790
4.24822 2635
4.26833 2665
4.28845 2452
4.30856 2488
4.32867 2488
4.34879 2365
4.3689 2410
4.38902 2228
4.40913 2260
4.42924 2272
4.44936 2206
4.46947 2074
4.48958 2053
4.5097 2004
4.52981 1936
4.54992 1952
4.57004 1905
4.59015 1887
4.61027 1893
4.63038 1888
4.65049 1816
4.67061 1822
4.69072 1640
4.71083 1725
4.73095 1736
4.75106 1597
4.77118 1575
4.79129 1637
4.8114 1542
4.83152 1603
4.85163 1572
4.87174 1476
4.89186 1485
4.91197 1510
4.93209 1440
4.9522 1481
4.97231 1411
4.99243 1377
5.01254 1333
5.03265 1372
5.05277 1372
5.07288 1309
5.09299 1287
5.11311 1325
5.13322 1247
5.15334 1348
5.17345 1164
5.19356 1236
5.21368 1255
5.23379 1221
5.2539 1147
5.27402 1232
5.29413 1157
5.31425 1117
5.33436 1196
5.35447 1153
5.37459 1118
5.3947 1079
5.41481 1165
5.43493 1045
5.45504 1182
5.47516 1109
5.49527 1065
5.51538 1015
5.5355 1073
5.55561 1035
5.57572 1029
5.59584 964
5.61595 977
5.63606 971
5.65618 980
5.67629 953
5.69641 983
5.71652 959
5.73663 926
5.75675 967
5.77686 927
5.79697 1026
5.81709 974
5.8372 930
5.85732 995
5.87743 914
5.89754 939
5.91766 912
5.93777 960
5.95788 942
5.978 961
5.99811 904
6.01823 933
6.03834 924
6.05845 919
6.07857 908
6.09868 875
6.11879 921
6.13891 912
6.15902 869
6.17913 913
6.19925 903
6.21936 882
6.23948 867
6.25959 870
6.2797 890
6.29982 798
6.31993 870
6.34004 880
6.36016 844
6.38027 861
6.40039 893
6.4205 852
6.44061 879
6.46073 847
6.48084 921
6.50095 905
6.52107 914
6.54118 921
6.56129 828
6.58141 912
6.60152 859
6.62164 909
6.64175 848
6.66186 903
6.68198 842
6.70209 873
6.7222 866
6.74232 848
6.76243 828
6.78255 853
6.80266 893
6.82277 826
6.84289 853
6.863 842
6.88311 869
6.90323 846
6.92334 800
6.94346 875
6.96357 849
6.98368 902
7.0038 788
7.02391 809
7.04402 741
7.06414 817
7.08425 809
7.10436 738
7.12448 795
7.14459 853
7.16471 852
7.18482 828
7.20493 765
7.22505 852
7.24516 851
7.26527 805
7.28539 797
7.3055 738
7.32562 798
7.34573 758
7.36584 798
7.38596 749
7.40607 775
7.42618 768
7.4463 750
7.46641 781
7.48653 769
7.50664 757
7.52675 778
7.54687 779
7.56698 743
7.58709 744
7.60721 752
7.62732 697
7.64743 710
7.66755 708
7.68766 698
7.70778 719
7.72789 714
7.748 789
7.76812 727
7.78823 717
7.80834 774
7.82846 738
7.84857 693
7.86869 732
7.8888 711
7.90891 689
7.92903 698
7.94914 663
7.96925 684
7.98937 672
8.00948 706
8.0296 701
8.04971 667
8.06982 655
8.08994 667
8.11005 718
8.13016 648
8.15028 740
8.17039 722
8.1905 677
8.21062 693
8.23073 677
8.25085 647
8.27096 706
8.29107 634
8.31119 720
8.3313 656
8.35141 668
8.37153 689
8.39164 668
8.41176 648
8.43187 687
8.45198 670
8.4721 770
8.49221 686
8.51232 714
8.53244 660
8.55255 710
8.57266 692
8.59278 786
8.61289 775
8.63301 786
8.65312 720
8.67323 736
8.69335 740
8.71346 819
8.73357 795
8.75369 791
8.7738 783
8.79392 837
8.81403 788
8.83414 776
8.85426 711
8.87437 799
8.89448 638
8.9146 716
8.93471 693
8.95483 680
8.97494 643
8.99505 624
9.01517 644
9.03528 594
9.05539 586
9.07551 624
9.09562 588
9.11573 602
9.13585 567
9.15596 563
9.17608 562
9.19619 613
9.2163 577
9.23642 574
9.25653 534
9.27664 578
9.29676 556
9.31687 555
9.33699 568
9.3571 583
9.37721 469
9.39733 557
9.41744 557
9.43755 527
9.45767 508
9.47778 529
9.4979 520
9.51801 518
9.53812 544
9.55824 560
9.57835 535
9.59846 498
9.61858 494
9.63869 532
9.6588 541
9.67892 493
9.69903 550
9.71915 537
9.73926 528
9.75937 519
9.77949 516
9.7996 584
9.81971 505
9.83983 477
9.85994 501
9.88006 515
9.90017 518
9.92028 505
9.9404 495
9.96051 527
9.98062 543
10.00074 503
10.02085 509
10.04097 526
10.06108 522
10.08119 488
10.10131 471
10.12142 433
10.14153 462
10.16165 508
10.18176 502
10.20187 478
10.22199 491
10.2421 495
10.26222 542
10.28233 537
10.30244 498
10.32256 512
10.34267 461
10.36278 471
10.3829 493
10.40301 458
10.42313 476
10.44324 515
10.46335 525
10.48347 465
10.50358 472
10.52369 452
10.54381 502
10.56392 524
10.58403 479
10.60415 475
10.62426 488
10.64438 470
10.66449 499
10.6846 519
10.70472 514
10.72483 513
10.74494 477
10.76506 511
10.78517 564
10.80529 467
10.8254 482
10.84551 488
10.86563 482
10.88574 451
10.90585 526
10.92597 530
10.94608 494
10.9662 459
10.98631 503
11.00642 527
11.02654 489
11.04665 560
11.06676 480
11.08688 479
11.10699 538
11.1271 482
11.14722 493
11.16733 469
11.18745 457
11.20756 495
11.22767 485
11.24779 501
11.2679 522
11.28801 524
11.30813 515
11.32824 454
11.34836 480
11.36847 492
11.38858 526
11.4087 545
11.42881 526
11.44892 506
11.46904 475
11.48915 480
11.50927 507
11.52938 546
11.54949 520
11.56961 567
11.58972 544
11.60983 552
11.62995 505
11.65006 518
11.67017 542
11.69029 581
11.7104 505
11.73052 535
11.75063 480
11.77074 472
11.79086 520
11.81097 531
11.83108 480
11.8512 518
11.87131 554
11.89143 569
11.91154 535
11.93165 540
11.95177 541
11.97188 563
11.99199 589
12.01211 551
12.03222 591
12.05234 595
12.07245 595
12.09256 540
12.11268 574
12.13279 535
12.1529 580
12.17302 592
12.19313 567
12.21324 592
12.23336 626
12.25347 562
12.27359 586
12.2937 610
12.31381 614
12.33393 618
12.35404 595
12.37415 572
12.39427 596
12.41438 577
12.4345 553
12.45461 570
12.47472 485
12.49484 552
12.51495 523
12.53506 510
12.55518 494
12.57529 507
12.5954 514
12.61552 486
12.63563 463
12.65575 457
12.67586 493
12.69597 488
12.71609 473
12.7362 514
12.75631 481
12.77643 403
12.79654 516
12.81666 488
12.83677 439
12.85688 490
12.877 479
12.89711 456
12.91722 466
12.93734 492
12.95745 451
12.97757 444
12.99768 458
13.01779 438
13.03791 427
13.05802 417
13.07813 451
13.09825 421
13.11836 490
13.13847 459
13.15859 467
13.1787 439
13.19882 476
13.21893 435
13.23904 428
13.25916 422
13.27927 432
13.29938 478
13.3195 429
13.33961 442
13.35973 425
13.37984 482
13.39995 459
13.42007 451
13.44018 468
13.46029 442
13.48041 444
13.50052 430
13.52064 433
13.54075 468
13.56086 436
13.58098 470
13.60109 471
13.6212 461
13.64132 454
13.66143 470
13.68154 470
13.70166 451
13.72177 478
13.74189 463
13.762 421
13.78211 460
13.80223 460
13.82234 456
13.84245 482
13.86257 462
13.88268 433
13.9028 455
13.92291 430
13.94302 437
13.96314 457
13.98325 450
14.00336 461
14.02348 446
14.04359 425
14.06371 457
14.08382 453
14.10393 468
14.12405 442
14.14416 429
14.16427 466
14.18439 482
14.2045 412
14.22461 439
14.24473 436
14.26484 461
14.28496 477
14.30507 410
14.32518 439
14.3453 429
14.36541 461
14.38552 429
14.40564 428
14.42575 433
14.44587 407
14.46598 409
14.48609 434
14.50621 445
14.52632 428
14.54643 435
14.56655 405
14.58666 449
14.60677 448
14.62689 419
14.647 465
14.66712 426
14.68723 478
14.70734 443
14.72746 444
14.74757 434
14.76768 423
14.7878 452
14.80791 419
14.82803 450
14.84814 410
14.86825 439
14.88837 416
14.90848 430
14.92859 465
14.94871 452
14.96882 393
14.98894 455
15.00905 437
15.02916 454
15.04928 421
15.06939 419
15.0895 419
15.10962 468
15.12973 435
15.14984 431
15.16996 452
15.19007 464
15.21019 400
15.2303 420
15.25041 461
15.27053 427
15.29064 410
15.31075 484
15.33087 432
15.35098 426
15.3711 459
15.39121 416
15.41132 447
15.43144 435
15.45155 444
15.47166 408
15.49178 397
15.51189 433
15.53201 430
15.55212 461
15.57223 440
15.59235 403
15.61246 425
15.63257 402
15.65269 426
15.6728 397
15.69291 428
15.71303 439
15.73314 440
15.75326 439
15.77337 433
15.79348 414
15.8136 446
15.83371 438
15.85382 462
15.87394 407
15.89405 452
15.91417 438
15.93428 393
15.95439 435
15.97451 447
15.99462 417
16.01473 449
16.03485 428
16.05496 418
16.07508 464
16.09519 432
16.1153 440
16.13542 493
16.15553 417
16.17564 427
16.19576 416
16.21587 430
16.23598 432
16.2561 430
16.27621 473
16.29633 455
16.31644 488
16.33655 446
16.35667 415
16.37678 469
16.39689 441
16.41701 427
16.43712 453
16.45724 419
16.47735 428
16.49746 423
16.51758 444
16.53769 416
16.5578 419
16.57792 437
16.59803 432
16.61814 468
16.63826 429
16.65837 473
16.67849 464
16.6986 433
16.71871 459
16.73883 456
16.75894 447
16.77905 437
16.79917 437
16.81928 405
16.8394 437
16.85951 443
16.87962 479
16.89974 429
16.91985 431
16.93996 422
16.96008 487
16.98019 442
17.00031 482
17.02042 449
17.04053 451
17.06065 415
17.08076 464
17.10087 444
17.12099 460
17.1411 410
17.16121 442
17.18133 420
17.20144 462
17.22156 416
17.24167 451
17.26178 452
17.2819 459
17.30201 419
17.32212 487
17.34224 476
17.36235 429
17.38247 417
17.40258 461
17.42269 466
17.44281 442
17.46292 442
17.48303 438
17.50315 450
17.52326 469
17.54338 479
17.56349 471
17.5836 482
17.60372 450
17.62383 461
17.64394 464
17.66406 485
17.68417 431
17.70428 491
17.7244 507
17.74451 499
17.76463 463
17.78474 516
17.80485 483
17.82497 531
17.84508 488
17.86519 502
17.88531 456
17.90542 486
17.92554 449
17.94565 442
17.96576 440
17.98588 442
18.00599 484
18.0261 449
18.04622 455
18.06633 455
18.08645 451
18.10656 424
18.12667 481
18.14679 437
18.1669 466
18.18701 474
18.20713 428
18.22724 471
18.24735 501
18.26747 457
18.28758 465
18.3077 468
18.32781 474
18.34792 447
18.36804 459
18.38815 457
18.40826 452
18.42838 503
18.44849 441
18.46861 469
18.48872 464
18.50883 454
18.52895 465
18.54906 463
18.56917 463
18.58929 437
18.6094 458
18.62951 467
18.64963 464
18.66974 490
18.68986 443
18.70997 479
18.73008 470
18.7502 453
18.77031 495
18.79042 431
18.81054 511
18.83065 487
18.85077 450
18.87088 482
18.89099 466
18.91111 471
18.93122 449
18.95133 531
18.97145 490
18.99156 491
19.01168 495
19.03179 464
19.0519 479
19.07202 479
19.09213 544
19.11224 521
19.13236 481
19.15247 534
19.17258 490
19.1927 539
19.21281 489
19.23293 530
19.25304 570
19.27315 551
19.29327 566
19.31338 597
19.33349 604
19.35361 599
19.37372 616
19.39384 688
19.41395 692
19.43406 702
19.45418 729
19.47429 699
19.4944 771
19.51452 796
19.53463 848
19.55475 916
19.57486 857
19.59497 980
19.61509 951
19.6352 961
19.65531 1064
19.67543 1088
19.69554 1111
19.71565 1105
19.73577 1170
19.75588 1153
19.776 1212
19.79611 1202
19.81622 1128
19.83634 1182
19.85645 1182
19.87656 1162
19.89668 1065
19.91679 1055
19.93691 1106
19.95702 1013
19.97713 992
19.99725 949
20.01736 930
20.03747 908
20.05759 986
20.0777 930
20.09782 910
20.11793 897
20.13804 935
20.15816 907
20.17827 876
20.19838 887
20.2185 907
20.23861 849
20.25872 869
20.27884 803
20.29895 919
20.31907 815
20.33918 867
20.35929 877
20.37941 827
20.39952 882
20.41963 802
20.43975 853
20.45986 877
20.47998 824
20.50009 800
20.5202 819
20.54032 852
20.56043 822
20.58054 875
20.60066 806
20.62077 864
20.64088 860
20.661 936
20.68111 907
20.70123 939
20.72134 1006
20.74145 1054
20.76157 1109
20.78168 1164
20.80179 1209
20.82191 1187
20.84202 1167
20.86214 1144
20.88225 1009
20.90236 972
20.92248 922
20.94259 921
20.9627 933
20.98282 883
21.00293 918
21.02305 853
21.04316 901
21.06327 859
21.08339 837
21.1035 874
21.12361 892
21.14373 869
21.16384 869
21.18395 881
21.20407 836
21.22418 826
21.2443 844
21.26441 793
21.28452 796
21.30464 824
21.32475 827
21.34486 831
21.36498 829
21.38509 796
21.40521 793
21.42532 756
21.44543 785
21.46555 758
21.48566 718
21.50577 773
21.52589 707
21.546 756
21.56612 768
21.58623 781
21.60634 737
21.62646 682
21.64657 709
21.66668 633
21.6868 692
21.70691 660
21.72702 675
21.74714 662
21.76725 685
21.78737 702
21.80748 688
21.82759 664
21.84771 679
21.86782 683
21.88793 672
21.90805 717
21.92816 722
21.94828 688
21.96839 768
21.9885 768
22.00862 747
22.02873 725
22.04884 699
22.06896 715
22.08907 663
22.10919 676
22.1293 694
22.14941 632
22.16953 646
22.18964 682
22.20975 697
22.22987 643
22.24998 673
22.27009 658
22.29021 646
22.31032 696
22.33044 659
22.35055 653
22.37066 708
22.39078 638
22.41089 644
22.431 640
22.45112 652
22.47123 637
22.49135 673
22.51146 624
22.53157 592
22.55169 617
22.5718 641
22.59191 662
22.61203 673
22.63214 617
22.65225 654
22.67237 622
22.69248 606
22.7126 643
22.73271 670
22.75282 615
22.77294 692
22.79305 640
22.81316 639
22.83328 677
22.85339 653
22.87351 666
22.89362 618
22.91373 678
22.93385 636
22.95396 602
22.97407 645
22.99419 637
23.0143 624
23.03442 684
23.05453 683
23.07464 686
23.09476 657
23.11487 635
23.13498 597
23.1551 621
23.17521 611
23.19532 661
23.21544 603
23.23555 650
23.25567 687
23.27578 637
23.29589 630
23.31601 648
23.33612 652
23.35623 630
23.37635 653
23.39646 689
23.41658 656
23.43669 649
23.4568 621
23.47692 658
23.49703 697
23.51714 677
23.53726 617
23.55737 680
23.57749 681
23.5976 666
23.61771 652
23.63783 656
23.65794 656
23.67805 649
23.69817 609
23.71828 648
23.73839 647
23.75851 633
23.77862 650
23.79874 651
23.81885 656
23.83896 660
23.85908 603
23.87919 642
23.8993 683
23.91942 625
23.93953 650
23.95965 681
23.97976 594
23.99987 665
24.01999 664
24.0401 641
24.06021 680
24.08033 667
24.10044 648
24.12056 689
24.14067 712
24.16078 694
24.1809 663
24.20101 699
24.22112 731
24.24124 653
24.26135 700
24.28146 722
24.30158 731
24.32169 698
24.34181 682
24.36192 619
24.38203 669
24.40215 628
24.42226 683
24.44237 657
24.46249 615
24.4826 622
24.50272 622
24.52283 672
24.54294 669
24.56306 683
24.58317 659
24.60328 649
24.6234 693
24.64351 701
24.66362 729
24.68374 680
24.70385 672
24.72397 687
24.74408 687
24.76419 714
24.78431 715
24.80442 705
24.82453 766
24.84465 726
24.86476 686
24.88488 689
24.90499 728
24.9251 720
24.94522 761
24.96533 702
24.98544 691
25.00556 711
25.02567 654
25.04579 719
25.0659 704
25.08601 723
25.10613 794
25.12624 668
25.14635 735
25.16647 794
25.18658 707
25.20669 741
25.22681 752
25.24692 726
25.26704 727
25.28715 760
25.30726 703
25.32738 695
25.34749 729
25.3676 754
25.38772 712
25.40783 678
25.42795 791
25.44806 712
25.46817 727
25.48829 780
25.5084 693
25.52851 729
25.54863 691
25.56874 716
25.58886 698
25.60897 712
25.62908 733
25.6492 699
25.66931 694
25.68942 645
25.70954 680
25.72965 668
25.74976 618
25.76988 666
25.78999 666
25.81011 647
25.83022 642
25.85033 683
25.87045 702
25.89056 624
25.91067 646
25.93079 647
25.9509 652
25.97102 679
25.99113 655
26.01124 646
26.03136 655
26.05147 658
26.07158 716
26.0917 702
26.11181 682
26.13193 692
26.15204 699
26.17215 673
26.19227 707
26.21238 750
26.23249 722
26.25261 712
26.27272 766
26.29283 780
26.31295 833
26.33306 854
26.35318 911
26.37329 875
26.3934 927
26.41352 1028
26.43363 1169
26.45374 1323
26.47386 1477
26.49397 1655
26.51409 1969
26.5342 2090
26.55431 2496
26.57443 2512
26.59454 2596
26.61465 2385
26.63477 2149
26.65488 1873
26.67499 1630
26.69511 1345
26.71522 1227
26.73534 1041
26.75545 886
26.77556 896
26.79568 884
26.81579 793
26.8359 836
26.85602 752
26.87613 780
26.89625 748
26.91636 808
26.93647 753
26.95659 751
26.9767 723
26.99681 758
27.01693 775
27.03704 726
27.05716 712
27.07727 733
27.09738 749
27.1175 669
27.13761 704
27.15772 649
27.17784 721
27.19795 730
27.21806 714
27.23818 753
27.25829 700
27.27841 795
27.29852 810
27.31863 755
27.33875 757
27.35886 773
27.37897 772
27.39909 813
27.4192 797
27.43932 788
27.45943 750
27.47954 744
27.49966 748
27.51977 717
27.53988 716
27.56 727
27.58011 725
27.60023 675
27.62034 708
27.64045 694
27.66057 789
27.68068 722
27.70079 726
27.72091 795
27.74102 780
27.76113 795
27.78125 759
27.80136 826
27.82148 800
27.84159 784
27.8617 785
27.88182 789
27.90193 757
27.92204 793
27.94216 705
27.96227 706
27.98239 761
28.0025 747
28.02261 652
28.04273 661
28.06284 672
28.08295 662
28.10307 664
28.12318 664
28.1433 667
28.16341 691
28.18352 650
28.20364 639
28.22375 636
28.24386 665
28.26398 632
28.28409 585
28.3042 632
28.32432 604
28.34443 631
28.36455 617
28.38466 618
28.40477 647
28.42489 593
28.445 599
28.46511 629
28.48523 600
28.50534 587
28.52546 632
28.54557 610
28.56568 614
28.5858 560
28.60591 606
28.62602 578
28.64614 600
28.66625 596
28.68636 554
28.70648 581
28.72659 560
28.74671 601
28.76682 586
28.78693 606
28.80705 596
28.82716 591
28.84727 582
28.86739 540
28.8875 530
28.90762 616
28.92773 586
28.94784 574
28.96796 554
28.98807 586
29.00818 534
29.0283 562
29.04841 570
29.06853 551
29.08864 609
29.10875 608
29.12887 566
29.14898 589
29.16909 555
29.18921 555
29.20932 572
29.22943 577
29.24955 571
29.26966 540
29.28978 564
29.30989 563
29.33 570
29.35012 551
29.37023 581
29.39034 585
29.41046 562
29.43057 569
29.45069 523
29.4708 570
29.49091 587
29.51103 561
29.53114 598
29.55125 552
29.57137 589
29.59148 578
29.6116 553
29.63171 570
29.65182 581
29.67194 601
29.69205 527
29.71216 618
29.73228 584
29.75239 591
29.7725 567
29.79262 608
29.81273 590
29.83285 643
29.85296 611
29.87307 529
29.89319 591
29.9133 545
29.93341 617
29.95353 625
29.97364 609
29.99376 562
30.01387 554
30.03398 545
30.0541 492
30.07421 584
30.09432 565
30.11444 566
30.13455 596
30.15467 529
30.17478 568
30.19489 522
30.21501 557
30.23512 575
30.25523 529
30.27535 540
30.29546 519
30.31557 607
30.33569 542
30.3558 545
30.37592 566
30.39603 562
30.41614 560
30.43626 605
30.45637 576
30.47648 558
30.4966 535
30.51671 553
30.53683 560
30.55694 560
30.57705 569
30.59717 560
30.61728 567
30.63739 497
30.65751 591
30.67762 600
30.69773 563
30.71785 535
30.73796 545
30.75808 580
30.77819 552
30.7983 563
30.81842 538
30.83853 534
30.85864 537
30.87876 545
30.89887 585
30.91899 544
30.9391 524
30.95921 578
30.97933 577
30.99944 553
31.01955 631
31.03967 492
31.05978 521
31.0799 519
31.10001 546
31.12012 560
31.14024 539
31.16035 578
31.18046 552
31.20058 520
31.22069 552
31.2408 542
31.26092 576
31.28103 570
31.30115 510
31.32126 562
31.34137 528
31.36149 531
31.3816 552
31.40171 544
31.42183 569
31.44194 540
31.46206 610
31.48217 607
31.50228 649
31.5224 720
31.54251 775
31.56262 820
31.58274 821
31.60285 969
31.62297 967
31.64308 962
31.66319 914
31.68331 926
31.70342 800
31.72353 759
31.74365 700
31.76376 637
31.78387 614
31.80399 617
31.8241 536
31.84422 555
31.86433 547
31.88444 526
31.90456 549
31.92467 572
31.94478 506
31.9649 557
31.98501 514
32.00513 502
32.02524 573
32.04535 518
32.06547 499
32.08558 507
32.10569 484
32.12581 503
32.14592 508
32.16604 464
32.18615 527
32.20626 492
32.22638 489
32.24649 508
32.2666 546
32.28672 486
32.30683 501
32.32694 513
32.34706 492
32.36717 457
32.38729 499
32.4074 530
32.42751 573
32.44763 518
32.46774 466
32.48785 507
32.50797 522
32.52808 503
32.5482 494
32.56831 495
32.58842 450
32.60854 499
32.62865 511
32.64876 467
32.66888 519
32.68899 521
32.7091 505
32.72922 506
32.74933 527
32.76945 466
32.78956 501
32.80967 546
32.82979 471
32.8499 535
32.87001 516
32.89013 491
32.91024 538
32.93036 527
32.95047 501
32.97058 550
32.9907 507
33.01081 568
33.03092 540
33.05104 529
33.07115 559
33.09127 596
33.11138 531
33.13149 515
33.15161 511
33.17172 531
33.19183 540
33.21195 564
33.23206 578
33.25217 573
33.27229 570
33.2924 524
33.31252 563
33.33263 529
33.35274 567
33.37286 513
33.39297 505
33.41308 536
33.4332 537
33.45331 500
33.47343 529
33.49354 523
33.51365 507
33.53377 522
33.55388 488
33.57399 530
33.59411 497
33.61422 515
33.63434 480
33.65445 501
33.67456 534
33.69468 517
33.71479 535
33.7349 534
33.75502 503
33.77513 536
33.79524 550
33.81536 517
33.83547 500
33.85559 553
33.8757 569
33.89581 567
33.91593 532
33.93604 572
33.95615 551
33.97627 576
33.99638 540
34.0165 575
34.03661 577
34.05672 622
34.07684 612
34.09695 621
34.11706 609
34.13718 645
34.15729 700
34.17741 673
34.19752 695
34.21763 694
34.23775 687
34.25786 667
34.27797 710
34.29809 697
34.3182 708
34.33831 722
34.35843 675
34.37854 669
34.39866 680
34.41877 703
34.43888 716
34.459 706
34.47911 713
34.49922 753
34.51934 712
34.53945 763
34.55957 756
34.57968 737
34.59979 724
34.61991 791
34.64002 755
34.66013 767
34.68025 778
34.70036 857
34.72047 788
34.74059 810
34.7607 865
34.78082 785
34.80093 819
34.82104 894
34.84116 874
34.86127 865
34.88138 874
34.9015 900
34.92161 797
34.94173 855
34.96184 876
34.98195 819
35.00207 806
35.02218 788
35.04229 830
35.06241 736
35.08252 718
35.10264 751
35.12275 730
35.14286 691
35.16298 703
35.18309 715
35.2032 747
35.22332 709
35.24343 719
35.26354 712
35.28366 719
35.30377 704
35.32389 647
35.344 705
35.36411 698
35.38423 701
35.40434 710
35.42445 693
35.44457 707
35.46468 667
35.4848 662
35.50491 667
35.52502 651
35.54514 697
35.56525 693
35.58536 635
35.60548 696
35.62559 690
35.64571 716
35.66582 658
35.68593 632
35.70605 673
35.72616 709
35.74627 669
35.76639 709
35.7865 654
35.80661 717
35.82673 705
35.84684 661
35.86696 702
35.88707 690
35.90718 672
35.9273 644
35.94741 688
35.96752 683
35.98764 652
36.00775 704
36.02787 620
36.04798 668
36.06809 698
36.08821 703
36.10832 662
36.12843 645
36.14855 751
36.16866 633
36.18878 676
36.20889 614
36.229 697
36.24912 667
36.26923 672
36.28934 695
36.30946 618
36.32957 699
36.34968 714
36.3698 739
36.38991 772
36.41003 791
36.43014 751
36.45025 806
36.47037 811
36.49048 722
36.51059 780
36.53071 793
36.55082 829
36.57094 780
36.59105 779
36.61116 777
36.63128 781
36.65139 756
36.6715 697
36.69162 834
36.71173 749
36.73184 812
36.75196 788
36.77207 688
36.79219 783
36.8123 724
36.83241 725
36.85253 691
36.87264 690
36.89275 680
36.91287 712
36.93298 697
36.9531 704
36.97321 764
36.99332 687
37.01344 688
37.03355 687
37.05366 693
37.07378 649
37.09389 628
37.11401 642
37.13412 628
37.15423 619
37.17435 657
37.19446 613
37.21457 592
37.23469 582
37.2548 627
37.27491 610
37.29503 624
37.31514 622
37.33526 616
37.35537 636
37.37548 630
37.3956 658
37.41571 577
37.43582 645
37.45594 636
37.47605 632
37.49617 602
37.51628 590
37.53639 595
37.55651 625
37.57662 616
37.59673 614
37.61685 615
37.63696 691
37.65708 582
37.67719 629
37.6973 642
37.71742 596
37.73753 633
37.75764 598
37.77776 603
37.79787 621
37.81798 611
37.8381 633
37.85821 562
37.87833 609
37.89844 567
37.91855 607
37.93867 589
37.95878 626
37.97889 570
37.99901 562
38.01912 576
38.03924 570
38.05935 573
38.07946 588
38.09958 571
38.11969 577
38.1398 559
38.15992 573
38.18003 588
38.20015 575
38.22026 571
38.24037 604
38.26049 598
38.2806 623
38.30071 664
38.32083 591
38.34094 590
38.36105 595
38.38117 608
38.40128 646
38.4214 620
38.44151 616
38.46162 587
38.48174 578
38.50185 567
38.52196 613
38.54208 578
38.56219 544
38.58231 537
38.60242 552
38.62253 572
38.64265 590
38.66276 551
38.68287 547
38.70299 588
38.7231 555
38.74321 527
38.76333 546
38.78344 554
38.80356 553
38.82367 535
38.84378 545
38.8639 579
38.88401 591
38.90412 553
38.92424 517
38.94435 556
38.96447 561
38.98458 511
39.00469 563
39.02481 564
39.04492 558
39.06503 549
39.08515 541
39.10526 556
39.12538 559
39.14549 566
39.1656 542
39.18572 600
39.20583 547
39.22594 572
39.24606 602
39.26617 571
39.28628 575
39.3064 586
39.32651 616
39.34663 657
39.36674 634
39.38685 625
39.40697 631
39.42708 636
39.44719 563
39.46731 611
39.48742 600
39.50754 538
39.52765 603
39.54776 548
39.56788 581
39.58799 580
39.6081 509
39.62822 522
39.64833 544
39.66845 538
39.68856 525
39.70867 549
39.72879 537
39.7489 562
39.76901 562
39.78913 527
39.80924 581
39.82935 576
39.84947 586
39.86958 553
39.8897 601
39.90981 580
39.92992 553
39.95004 556
39.97015 593
39.99026 562
40.01038 557
40.03049 607
40.05061 567
40.07072 555
40.09083 578
40.11095 587
40.13106 609
40.15117 597
40.17129 556
40.1914 623
40.21152 613
40.23163 585
40.25174 567
40.27186 553
40.29197 520
40.31208 534
40.3322 553
40.35231 514
40.37242 539
40.39254 514
40.41265 529
40.43277 524
40.45288 538
40.47299 538
40.49311 533
40.51322 541
40.53333 553
40.55345 529
40.57356 498
40.59368 550
40.61379 546
40.6339 513
40.65402 520
40.67413 540
40.69424 537
40.71436 525
40.73447 500
40.75458 549
40.7747 540
40.79481 522
40.81493 538
40.83504 521
40.85515 540
40.87527 568
40.89538 570
40.91549 499
40.93561 568
40.95572 504
40.97584 547
40.99595 510
41.01606 549
41.03618 531
41.05629 543
41.0764 509
41.09652 579
41.11663 570
41.13675 533
41.15686 529
41.17697 529
41.19709 556
41.2172 551
41.23731 576
41.25743 514
41.27754 579
41.29765 529
41.31777 502
41.33788 536
41.358 535
41.37811 527
41.39822 543
41.41834 523
41.43845 508
41.45856 489
41.47868 528
41.49879 534
41.51891 542
41.53902 542
41.55913 545
41.57925 516
41.59936 533
41.61947 530
41.63959 541
41.6597 533
41.67982 583
41.69993 583
41.72004 513
41.74016 526
41.76027 549
41.78038 483
41.8005 511
41.82061 531
41.84072 533
41.86084 508
41.88095 494
41.90107 518
41.92118 532
41.94129 503
41.96141 481
41.98152 512
42.00163 488
42.02175 492
42.04186 498
42.06198 521
42.08209 518
42.1022 546
42.12232 508
42.14243 530
42.16254 473
42.18266 522
42.20277 507
42.22289 559
42.243 508
42.26311 550
42.28323 565
42.30334 545
42.32345 639
42.34357 554
42.36368 555
42.38379 579
42.40391 569
42.42402 541
42.44414 564
42.46425 525
42.48436 559
42.50448 485
42.52459 536
42.5447 527
42.56482 512
42.58493 534
42.60505 510
42.62516 508
42.64527 495
42.66539 491
42.6855 518
42.70561 478
42.72573 466
42.74584 488
42.76595 451
42.78607 439
42.80618 511
42.8263 443
42.84641 452
42.86652 476
42.88664 464
42.90675 458
42.92686 460
42.94698 450
42.96709 425
42.98721 481
43.00732 464
43.02743 468
43.04755 461
43.06766 458
43.08777 452
43.10789 443
43.128 444
43.14812 442
43.16823 435
43.18834 487
43.20846 473
43.22857 446
43.24868 458
43.2688 468
43.28891 484
43.30902 474
43.32914 474
43.34925 471
43.36937 476
43.38948 507
43.40959 470
43.42971 474
43.44982 452
43.46993 477
43.49005 482
43.51016 464
43.53028 470
43.55039 477
43.5705 454
43.59062 456
43.61073 447
43.63084 483
43.65096 452
43.67107 488
43.69119 483
43.7113 499
43.73141 494
43.75153 474
43.77164 486
43.79175 497
43.81187 441
43.83198 452
43.85209 491
43.87221 463
43.89232 480
43.91244 516
43.93255 457
43.95266 472
43.97278 506
43.99289 449
44.013 466
44.03312 429
44.05323 448
44.07335 481
44.09346 428
44.11357 453
44.13369 437
44.1538 488
44.17391 460
44.19403 436
44.21414 462
44.23426 482
44.25437 463
44.27448 462
44.2946 461
44.31471 460
44.33482 530
44.35494 475
44.37505 470
44.39516 472
44.41528 462
44.43539 482
44.45551 479
44.47562 483
44.49573 466
44.51585 446
44.53596 476
44.55607 452
44.57619 487
44.5963 445
44.61642 475
44.63653 500
44.65664 440
44.67676 450
44.69687 497
44.71698 484
44.7371 485
44.75721 532
44.77732 450
44.79744 455
44.81755 497
44.83767 527
44.85778 495
44.87789 474
44.89801 461
44.91812 470
44.93823 494
44.95835 525
44.97846 489
44.99858 493
45.01869 500
45.0388 518
45.05892 524
45.07903 532
45.09914 530
45.11926 567
45.13937 551
45.15949 578
45.1796 586
45.19971 585
45.21983 561
45.23994 609
45.26005 626
45.28017 633
45.30028 722
45.32039 735
45.34051 736
45.36062 783
45.38074 746
45.40085 744
45.42096 706
45.44108 676
45.46119 647
45.4813 634
45.50142 642
45.52153 565
45.54165 575
45.56176 589
45.58187 562
45.60199 531
45.6221 530
45.64221 504
45.66233 559
45.68244 569
45.70256 515
45.72267 531
45.74278 515
45.7629 545
45.78301 542
45.80312 530
45.82324 489
45.84335 524
45.86346 485
45.88358 509
45.90369 458
45.92381 476
45.94392 527
45.96403 476
45.98415 463
46.00426 524
46.02437 504
46.04449 487
46.0646 440
46.08472 436
46.10483 448
46.12494 461
46.14506 468
46.16517 481
46.18528 460
46.2054 426
46.22551 444
46.24563 479
46.26574 478
46.28585 461
46.30597 443
46.32608 451
46.34619 450
46.36631 467
46.38642 437
46.40653 456
46.42665 467
46.44676 462
46.46688 478
46.48699 471
46.5071 461
46.52722 426
46.54733 466
46.56744 447
46.58756 498
46.60767 446
46.62779 454
46.6479 438
46.66801 464
46.68813 457
46.70824 459
46.72835 484
46.74847 465
46.76858 471
46.78869 432
46.80881 447
46.82892 429
46.84904 485
46.86915 436
46.88926 444
46.90938 444
46.92949 451
46.9496 460
46.96972 471
46.98983 481
47.00995 420
47.03006 447
47.05017 452
47.07029 472
47.0904 460
47.11051 431
47.13063 473
47.15074 462
47.17086 467
47.19097 454
47.21108 474
47.2312 447
47.25131 401
47.27142 509
47.29154 477
47.31165 441
47.33176 446
47.35188 495
47.37199 470
47.39211 461
47.41222 493
47.43233 463
47.45245 450
47.47256 454
47.49267 449
47.51279 479
47.5329 454
47.55302 461
47.57313 449
47.59324 472
47.61336 435
47.63347 496
47.65358 447
47.6737 447
47.69381 453
47.71393 443
47.73404 494
47.75415 477
47.77427 440
47.79438 423
47.81449 486
47.83461 444
47.85472 433
47.87483 460
47.89495 467
47.91506 451
47.93518 488
47.95529 478
47.9754 460
47.99552 450
48.01563 448
48.03574 436
48.05586 459
48.07597 447
48.09609 454
48.1162 445
48.13631 472
48.15643 461
48.17654 432
48.19665 413
48.21677 420
48.23688 431
48.257 433
48.27711 452
48.29722 402
48.31734 397
48.33745 437
48.35756 461
48.37768 462
48.39779 431
48.4179 401
48.43802 390
48.45813 444
48.47825 403
48.49836 447
48.51847 439
48.53859 471
48.5587 421
48.57881 437
48.59893 454
48.61904 439
48.63916 455
48.65927 422
48.67938 441
48.6995 437
48.71961 430
48.73972 407
48.75984 407
48.77995 408
48.80006 447
48.82018 416
48.84029 407
48.86041 437
48.88052 419
48.90063 453
48.92075 407
48.94086 468
48.96097 442
48.98109 420
49.0012 435
49.02132 409
49.04143 432
49.06154 441
49.08166 432
49.10177 433
49.12188 426
49.142 464
49.16211 432
49.18223 440
49.20234 452
49.22245 421
49.24257 462
49.26268 399
49.28279 420
49.30291 428
49.32302 439
49.34313 433
49.36325 417
49.38336 434
49.40348 393
49.42359 417
49.4437 401
49.46382 425
49.48393 462
49.50404 461
49.52416 389
49.54427 428
49.56439 439
49.5845 419
49.60461 418
49.62473 440
49.64484 460
49.66495 427
49.68507 471
49.70518 462
49.7253 470
49.74541 433
49.76552 464
49.78564 451
49.80575 453
49.82586 478
49.84598 505
49.86609 478
49.8862 447
49.90632 487
49.92643 515
49.94655 564
49.96666 531
49.98677 564
50.00689 580
50.027 653
50.04711 570
50.06723 609
50.08734 585
50.10746 564
50.12757 569
50.14768 574
50.1678 550
50.18791 542
50.20802 505
50.22814 476
50.24825 471
50.26837 461
50.28848 459
50.30859 444
50.32871 442
50.34882 464
50.36893 441
50.38905 445
50.40916 456
50.42927 470
50.44939 420
50.4695 478
50.48962 439
50.50973 472
50.52984 464
50.54996 490
50.57007 482
50.59018 450
50.6103 459
50.63041 434
50.65053 414
50.67064 453
50.69075 407
50.71087 422
50.73098 460
50.75109 458
50.77121 421
50.79132 430
50.81143 432
50.83155 420
50.85166 428
50.87178 419
50.89189 422
50.912 416
50.93212 407
50.95223 431
50.97234 436
50.99246 381
51.01257 431
51.03269 414
51.0528 425
51.07291 443
51.09303 450
51.11314 432
51.13325 465
51.15337 420
51.17348 459
51.1936 391
51.21371 414
51.23382 454
51.25394 451
51.27405 418
51.29416 463
51.31428 433
51.33439 416
51.3545 447
51.37462 426
51.39473 400
51.41485 432
51.43496 418
51.45507 385
51.47519 447
51.4953 435
51.51541 424
51.53553 426
51.55564 467
51.57576 417
51.59587 411
51.61598 445
51.6361 395
51.65621 406
51.67632 444
51.69644 384
51.71655 418
51.73667 429
51.75678 432
51.77689 409
51.79701 410
51.81712 352
51.83723 437
51.85735 421
51.87746 446
51.89757 402
51.91769 403
51.9378 443
51.95792 408
51.97803 422
51.99814 432
52.01826 424
52.03837 429
52.05848 414
52.0786 393
52.09871 452
52.11883 423
52.13894 430
52.15905 400
52.17917 449
52.19928 413
52.21939 409
52.23951 469
52.25962 421
52.27974 439
52.29985 426
52.31996 421
52.34008 375
52.36019 438
52.3803 427
52.40042 433
52.42053 421
52.44064 439
52.46076 451
52.48087 422
52.50099 454
52.5211 432
52.54121 421
52.56133 417
52.58144 412
52.60155 388
52.62167 454
52.64178 447
52.6619 436
52.68201 421
52.70212 445
52.72224 416
52.74235 407
52.76246 466
52.78258 429
52.80269 438
52.8228 438
52.84292 500
52.86303 458
52.88315 474
52.90326 451
52.92337 444
52.94349 460
52.9636 469
52.98371 516
53.00383 473
53.02394 468
53.04406 472
53.06417 456
53.08428 497
53.1044 466
53.12451 512
53.14462 465
53.16474 515
53.18485 462
53.20497 497
53.22508 518
53.24519 489
53.26531 470
53.28542 492
53.30553 502
53.32565 501
53.34576 472
53.36587 522
53.38599 502
53.4061 487
53.42622 522
53.44633 481
53.46644 504
53.48656 474
53.50667 516
53.52678 505
53.5469 517
53.56701 499
53.58713 501
53.60724 501
53.62735 516
53.64747 471
53.66758 445
53.68769 500
53.70781 509
53.72792 476
53.74804 478
53.76815 493
53.78826 512
53.80838 498
53.82849 506
53.8486 488
53.86872 486
53.88883 498
53.90894 488
53.92906 500
53.94917 495
53.96929 544
53.9894 507
54.00951 513
54.02963 486
54.04974 541
54.06985 517
54.08997 506
54.11008 521
54.1302 523
54.15031 521
54.17042 512
54.19054 514
54.21065 562
54.23076 516
54.25088 517
54.27099 502
54.29111 486
54.31122 518
54.33133 533
54.35145 502
54.37156 508
54.39167 484
54.41179 562
54.4319 524
54.45201 519
54.47213 504
54.49224 503
54.51236 504
54.53247 488
54.55258 476
54.5727 508
54.59281 553
54.61292 503
54.63304 555
54.65315 534
54.67327 533
54.69338 535
54.71349 533
54.73361 563
54.75372 602
54.77383 559
54.79395 571
54.81406 605
54.83417 547
54.85429 555
54.8744 564
54.89452 572
54.91463 567
54.93474 519
54.95486 546
54.97497 536
54.99508 534
55.0152 568
55.03531 517
55.05543 548
55.07554 537
55.09565 538
55.11577 506
55.13588 541
55.15599 514
55.17611 530
55.19622 546
55.21634 525
55.23645 478
55.25656 539
55.27668 539
55.29679 513
55.3169 506
55.33702 472
55.35713 526
55.37724 506
55.39736 510
55.41747 518
55.43759 523
55.4577 505
55.47781 546
55.49793 472
55.51804 507
55.53815 514
55.55827 452
55.57838 543
55.5985 510
55.61861 498
55.63872 488
55.65884 509
55.67895 481
55.69906 486
55.71918 459
55.73929 515
55.75941 491
55.77952 502
55.79963 482
55.81975 482
55.83986 477
55.85997 500
55.88009 506
55.9002 501
55.92031 478
55.94043 492
55.96054 465
55.98066 490
56.00077 501
56.02088 466
56.041 455
56.06111 516
56.08122 471
56.10134 507
56.12145 528
56.14157 450
56.16168 518
56.18179 549
56.20191 470
56.22202 510
56.24213 496
56.26225 462
56.28236 539
56.30248 537
56.32259 560
56.3427 540
56.36282 529
56.38293 536
56.40304 500
56.42316 498
56.44327 477
56.46338 524
56.4835 472
56.50361 487
56.52373 475
56.54384 488
56.56395 519
56.58407 487
56.60418 472
56.62429 496
56.64441 450
56.66452 438
56.68464 445
56.70475 455
56.72486 426
56.74498 429
56.76509 473
56.7852 467
56.80532 450
56.82543 465
56.84554 463
56.86566 456
56.88577 439
56.90589 469
56.926 424
56.94611 461
56.96623 498
56.98634 456
57.00645 446
57.02657 406
57.04668 390
57.0668 421
57.08691 425
57.10702 451
57.12714 426
57.14725 464
57.16736 436
57.18748 446
57.20759 404
57.22771 448
57.24782 439
57.26793 417
57.28805 437
57.30816 425
57.32827 447
57.34839 426
57.3685 420
57.38861 437
57.40873 465
57.42884 455
57.44896 428
57.46907 431
57.48918 427
57.5093 427
57.52941 464
57.54952 401
57.56964 402
57.58975 433
57.60987 464
57.62998 427
57.65009 421
57.67021 469
57.69032 464
57.71043 435
57.73055 433
57.75066 441
57.77078 465
57.79089 425
57.811 425
57.83112 418
57.85123 436
57.87134 450
57.89146 416
57.91157 408
57.93168 423
57.9518 451
57.97191 421
57.99203 410
58.01214 437
58.03225 447
58.05237 413
58.07248 478
58.09259 392
58.11271 415
58.13282 425
58.15294 402
58.17305 427
58.19316 419
58.21328 416
58.23339 450
58.2535 445
58.27362 452
58.29373 453
58.31385 398
58.33396 443
58.35407 445
58.37419 451
58.3943 448
58.41441 471
58.43453 466
58.45464 409
58.47475 451
58.49487 437
58.51498 417
58.5351 391
58.55521 433
58.57532 444
58.59544 440
58.61555 451
58.63566 458
58.65578 424
58.67589 433
58.69601 418
58.71612 473
58.73623 449
58.75635 433
58.77646 463
58.79657 434
58.81669 416
58.8368 431
58.85691 444
58.87703 458
58.89714 436
58.91726 420
58.93737 447
58.95748 462
58.9776 445
58.99771 447
59.01782 443
59.03794 467
59.05805 452
59.07817 454
59.09828 487
59.11839 420
59.13851 417
59.15862 424
59.17873 445
59.19885 444
59.21896 429
59.23908 438
59.25919 444
59.2793 415
59.29942 445
59.31953 445
59.33964 432
59.35976 422
59.37987 449
59.39998 461
59.4201 430
59.44021 406
59.46033 452
59.48044 452
59.50055 462
59.52067 441
59.54078 422
59.56089 467
59.58101 434
59.60112 415
59.62124 487
59.64135 441
59.66146 476
59.68158 449
59.70169 462
59.7218 446
59.74192 470
59.76203 468
59.78215 489
59.80226 503
59.82237 539
59.84249 529
59.8626 575
59.88271 529
59.90283 532
59.92294 528
59.94305 477
59.96317 491
59.98328 465
60.0034 515
60.02351 507
60.04362 494
60.06374 474
60.08385 455
60.10396 476
60.12408 509
60.14419 501
60.16431 474
60.18442 461
60.20453 469
60.22465 433
60.24476 471
60.26487 454
60.28499 478
60.3051 496
60.32522 453
60.34533 491
60.36544 463
60.38556 465
60.40567 486
60.42578 467
60.4459 459
60.46601 454
60.48612 460
60.50624 464
60.52635 485
60.54647 439
60.56658 476
60.58669 459
60.60681 484
60.62692 442
60.64703 417
60.66715 467
60.68726 430
60.70738 447
60.72749 405
60.7476 472
60.76772 424
60.78783 447
60.80794 463
60.82806 457
60.84817 494
60.86828 502
60.8884 459
60.90851 487
60.92863 472
60.94874 506
60.96885 458
60.98897 446
61.00908 475
61.02919 492
61.04931 505
61.06942 510
61.08954 450
61.10965 481
61.12976 483
61.14988 525
61.16999 480
61.1901 512
61.21022 503
61.23033 487
61.25045 501
61.27056 473
61.29067 506
61.31079 513
61.3309 513
61.35101 533
61.37113 572
61.39124 542
61.41135 605
61.43147 579
61.45158 578
61.4717 540
61.49181 561
61.51192 572
61.53204 578
61.55215 549
61.57226 552
61.59238 610
61.61249 557
61.63261 611
61.65272 550
61.67283 559
61.69295 536
61.71306 533
61.73317 542
61.75329 570
61.7734 555
61.79352 537
61.81363 573
61.83374 574
61.85386 552
61.87397 576
61.89408 555
61.9142 559
61.93431 524
61.95442 550
61.97454 560
61.99465 509
62.01477 521
62.03488 537
62.05499 542
62.07511 527
62.09522 534
62.11533 554
62.13545 513
62.15556 566
62.17568 536
62.19579 529
62.2159 519
62.23602 529
62.25613 505
62.27624 538
62.29636 501
62.31647 536
62.33659 495
62.3567 473
62.37681 499
62.39693 503
62.41704 474
62.43715 492
62.45727 488
62.47738 465
62.49749 468
62.51761 515
62.53772 454
62.55784 429
62.57795 469
62.59806 446
62.61818 436
62.63829 452
62.6584 445
62.67852 456
62.69863 480
62.71875 413
62.73886 405
62.75897 442
62.77909 411
62.7992 416
62.81931 438
62.83943 437
62.85954 451
62.87965 412
62.89977 440
62.91988 453
62.94 396
62.96011 422
62.98022 410
63.00034 433
63.02045 448
63.04056 428
63.06068 447
63.08079 429
63.10091 409
63.12102 453
63.14113 426
63.16125 467
63.18136 434
63.20147 426
63.22159 461
63.2417 398
63.26182 404
63.28193 423
63.30204 450
63.32216 427
63.34227 389
63.36238 424
63.3825 432
63.40261 400
63.42272 375
63.44284 416
63.46295 444
63.48307 416
63.50318 428
63.52329 438
63.54341 449
63.56352 446
63.58363 403
63.60375 442
63.62386 426
63.64398 423
63.66409 397
63.6842 426
63.70432 382
63.72443 431
63.74454 439
63.76466 368
63.78477 413
63.80489 454
63.825 455
63.84511 399
63.86523 470
63.88534 396
63.90545 446
63.92557 419
63.94568 425
63.96579 478
63.98591 414
64.00602 417
64.02614 443
64.04625 444
64.06636 420
64.08648 411
64.10659 410
64.1267 431
64.14682 447
64.16693 401
64.18705 406
64.20716 409
64.22727 394
64.24739 412
64.2675 379
64.28761 404
64.30773 411
64.32784 387
64.34796 418
64.36807 431
64.38818 403
64.4083 410
64.42841 398
64.44852 405
64.46864 417
64.48875 392
64.50886 413
64.52898 405
64.54909 386
64.56921 423
64.58932 369
64.60943 402
64.62955 409
64.64966 399
64.66977 415
64.68989 420
64.71 394
64.73012 398
64.75023 399
64.77034 396
64.79046 402
64.81057 410
64.83068 401
64.8508 409
64.87091 432
64.89102 373
64.91114 391
64.93125 416
64.95137 417
64.97148 387
64.99159 372
65.01171 384
65.03182 395
65.05193 393
65.07205 353
65.09216 426
65.11228 401
65.13239 409
65.1525 390
65.17262 399
65.19273 442
65.21284 397
65.23296 368
65.25307 408
65.27319 373
65.2933 402
65.31341 387
65.33353 357
65.35364 404
65.37375 420
65.39387 393
65.41398 384
65.43409 403
65.45421 368
65.47432 379
65.49444 397
65.51455 389
65.53466 412
65.55478 360
65.57489 421
65.595 407
65.61512 410
65.63523 398
65.65535 401
65.67546 392
65.69557 378
65.71569 392
65.7358 416
65.75591 397
65.77603 380
65.79614 386
65.81626 399
65.83637 398
65.85648 365
65.8766 425
65.89671 411
65.91682 379
65.93694 428
65.95705 380
65.97716 404
65.99728 386
66.01739 400
66.03751 444
66.05762 386
66.07773 430
66.09785 501
66.11796 428
66.13807 448
66.15819 412
66.1783 419
66.19842 410
66.21853 367
66.23864 427
66.25876 421
66.27887 412
66.29898 400
66.3191 392
66.33921 408
66.35933 387
66.37944 397
66.39955 381
66.41967 397
66.43978 375
66.45989 406
66.48001 362
66.50012 348
66.52023 336
66.54035 389
66.56046 394
66.58058 354
66.60069 382
66.6208 423
66.64092 411
66.66103 376
66.68114 391
66.70126 388
66.72137 419
66.74149 381
66.7616 353
66.78171 397
66.80183 408
66.82194 364
66.84205 375
66.86217 388
66.88228 385
66.90239 415
66.92251 417
66.94262 380
66.96274 399
66.98285 379
67.00296 391
67.02308 367
67.04319 399
67.0633 389
67.08342 394
67.10353 399
67.12365 389
67.14376 376
67.16387 438
67.18399 413
67.2041 385
67.22421 403
67.24433 398
67.26444 401
67.28456 393
67.30467 420
67.32478 421
67.3449 367
67.36501 387
67.38512 410
67.40524 408
67.42535 384
67.44546 393
67.46558 384
67.48569 411
67.50581 411
67.52592 418
67.54603 408
67.56615 460
67.58626 464
67.60637 441
67.62649 439
67.6466 459
67.66672 441
67.68683 411
67.70694 453
67.72706 442
67.74717 483
67.76728 421
67.7874 427
67.80751 448
67.82763 459
67.84774 405
67.86785 443
67.88797 472
67.90808 445
67.92819 433
67.94831 454
67.96842 436
67.98853 511
68.00865 474
68.02876 458
68.04888 465
68.06899 449
68.0891 477
68.10922 465
68.12933 484
68.14944 473
68.16956 508
68.18967 496
68.20979 531
68.2299 492
68.25001 443
68.27013 424
68.29024 463
68.31035 438
68.33047 481
68.35058 431
68.3707 411
68.39081 430
68.41092 381
68.43104 403
68.45115 417
68.47126 413
68.49138 415
68.51149 417
68.5316 414
68.55172 402
68.57183 360
68.59195 397
68.61206 398
68.63217 422
68.65229 424
68.6724 357
68.69251 427
68.71263 388
68.73274 364
68.75286 404
68.77297 419
68.79308 390
68.8132 386
68.83331 410
68.85342 379
68.87354 404
68.89365 407
68.91376 419
68.93388 398
68.95399 393
68.97411 369
68.99422 421
69.01433 378
69.03445 400
69.05456 371
69.07467 397
69.09479 385
69.1149 387
69.13502 378
69.15513 382
69.17524 414
69.19536 394
69.21547 417
69.23558 383
69.2557 377
69.27581 403
69.29593 397
69.31604 361
69.33615 398
69.35627 401
69.37638 404
69.39649 425
69.41661 435
69.43672 413
69.45683 389
69.47695 386
69.49706 386
69.51718 413
69.53729 389
69.5574 400
69.57752 393
69.59763 372
69.61774 384
69.63786 399
69.65797 348
69.67809 395
69.6982 402
69.71831 382
69.73843 382
69.75854 366
69.77865 404
69.79877 354
69.81888 380
69.839 423
69.85911 357
69.87922 375
69.89934 363
69.91945 378
69.93956 384
69.95968 411
69.97979 346
69.9999 371
70.02002 373
70.04013 379
70.06025 412
70.08036 367
70.10047 379
70.12059 373
70.1407 375
70.16081 369
70.18093 377
70.20104 419
70.22116 419
70.24127 348
70.26138 390
70.2815 380
70.30161 345
70.32172 390
70.34184 351
70.36195 375
70.38207 402
70.40218 376
70.42229 379
70.44241 352
70.46252 399
70.48263 371
70.50275 354
70.52286 387
70.54297 379
70.56309 363
70.5832 353
70.60332 366
70.62343 384
70.64354 381
70.66366 411
70.68377 361
70.70388 369
70.724 384
70.74411 354
70.76423 379
70.78434 392
70.80445 400
70.82457 378
70.84468 371
70.86479 355
70.88491 362
70.90502 399
70.92513 376
70.94525 396
70.96536 429
70.98548 394
71.00559 408
71.0257 375
71.04582 399
71.06593 384
71.08604 389
71.10616 407
71.12627 390
71.14639 376
71.1665 381
71.18661 378
71.20673 370
71.22684 411
71.24695 343
71.26707 387
71.28718 401
71.3073 386
71.32741 412
71.34752 407
71.36764 394
71.38775 404
71.40786 393
71.42798 415
71.44809 376
71.4682 372
71.48832 379
71.50843 420
71.52855 359
71.54866 366
71.56877 391
71.58889 406
71.609 369
71.62911 385
71.64923 371
71.66934 375
71.68946 363
71.70957 370
71.72968 378
71.7498 374
71.76991 399
71.79002 391
71.81014 424
71.83025 416
71.85037 387
71.87048 371
71.89059 390
71.91071 379
71.93082 414
71.95093 362
71.97105 392
71.99116 370
72.01127 371
72.03139 386
72.0515 393
72.07162 384
72.09173 395
72.11184 404
72.13196 404
72.15207 396
72.17218 380
72.1923 367
72.21241 396
72.23253 424
72.25264 400
72.27275 382
72.29287 400
72.31298 436
72.33309 398
72.35321 390
72.37332 413
72.39344 416
72.41355 422
72.43366 391
72.45378 419
72.47389 419
72.494 392
72.51412 379
72.53423 412
72.55434 424
72.57446 397
72.59457 392
72.61469 391
72.6348 390
72.65491 408
72.67503 411
72.69514 399
72.71525 411
72.73537 430
72.75548 381
72.7756 406
72.79571 385
72.81582 448
72.83594 420
72.85605 431
72.87616 400
72.89628 398
72.91639 432
72.9365 410
72.95662 450
72.97673 407
72.99685 404
73.01696 401
73.03707 416
73.05719 415
73.0773 379
73.09741 414
73.11753 405
73.13764 386
73.15776 409
73.17787 401
73.19798 425
73.2181 418
73.23821 436
73.25832 411
73.27844 429
73.29855 416
73.31867 414
73.33878 436
73.35889 412
73.37901 435
73.39912 411
73.41923 462
73.43935 419
73.45946 429
73.47957 428
73.49969 396
73.5198 418
73.53992 409
73.56003 399
73.58014 419
73.60026 421
73.62037 405
73.64048 400
73.6606 371
73.68071 376
73.70083 411
73.72094 406
73.74105 387
73.76117 389
73.78128 381
73.80139 378
73.82151 360
73.84162 385
73.86174 382
73.88185 395
73.90196 382
73.92208 368
73.94219 375
73.9623 397
73.98242 355
74.00253 369
74.02264 402
74.04276 371
74.06287 364
74.08299 405
74.1031 384
74.12321 384
74.14333 390
74.16344 375
74.18355 359
74.20367 399
74.22378 392
74.2439 359
74.26401 395
74.28412 381
74.30424 352
74.32435 381
74.34446 394
74.36458 410
74.38469 384
74.40481 411
74.42492 344
74.44503 350
74.46515 366
74.48526 389
74.50537 341
74.52549 354
74.5456 374
74.56571 352
74.58583 395
74.60594 392
74.62606 377
74.64617 428
74.66628 390
74.6864 368
74.70651 370
74.72662 405
74.74674 373
74.76685 391
74.78697 370
74.80708 404
74.82719 401
74.84731 362
74.86742 360
74.88753 380
74.90765 370
74.92776 404
74.94787 405
74.96799 381
74.9881 391
75.00822 419
