3.00117 20443
3.02128 20333
3.0414 19862
3.06151 19216
3.08162 18922
3.10174 17928
3.12185 17932
3.14197 16980
3.16208 16764
3.18219 16679
3.20231 15997
3.22242 15399
3.24253 14933
3.26265 14483
3.28276 14182
3.30288 13461
3.32299 13281
3.3431 12552
3.36322 12292
3.38333 12218
3.40344 11484
3.42356 11561
3.44367 10827
3.46379 10516
3.4839 10200
3.50401 9816
3.52413 9717
3.54424 9356
3.56435 8931
3.58447 8706
3.60458 8221
3.62469 7960
3.64481 7738
3.66492 7513
3.68504 7350
3.70515 7103
3.72526 6946
3.74538 6429
3.76549 6134
3.7856 6107
3.80572 5849
3.82583 5723
3.84595 5272
3.86606 5221
3.88617 5120
3.90629 4741
3.9264 4774
3.94651 4378
3.96663 4156
3.98674 4024
4.00686 3919
4.02697 3806
4.04708 3540
4.0672 3540
4.08731 3506
4.10742 3443
4.12754 3257
4.14765 3072
4.16776 3003
4.18788 3000
4.20799 2823
4.22811 2711
4.24822 2667
4.26833 2569
4.28845 2686
4.30856 2431
4.32867 2504
4.34879 2340
4.3689 2336
4.38902 2338
4.40913 2345
4.42924 2348
4.44936 2086
4.46947 2158
4.48958 2062
4.5097 2112
4.52981 1882
4.54992 2027
4.57004 1878
4.59015 1891
4.61027 1959
4.63038 1831
4.65049 1912
4.67061 1896
4.69072 1743
4.71083 1725
4.73095 1694
4.75106 1790
4.77118 1648
4.79129 1685
4.8114 1706
4.83152 1673
4.85163 1621
4.87174 1577
4.89186 1579
4.91197 1588
4.93209 1507
4.9522 1552
4.97231 1460
4.99243 1534
5.01254 1533
5.03265 1448
5.05277 1429
5.07288 1381
5.09299 1412
5.11311 1376
5.13322 1346
5.15334 1455
5.17345 1396
5.19356 1369
5.21368 1349
5.23379 1332
5.2539 1297
5.27402 1307
5.29413 1269
5.31425 1350
5.33436 1290
5.35447 1242
5.37459 1271
5.3947 1248
5.41481 1177
5.43493 1176
5.45504 1198
5.47516 1132
5.49527 1247
5.51538 1236
5.5355 1138
5.55561 1179
5.57572 1126
5.59584 1208
5.61595 1174
5.63606 1173
5.65618 1093
5.67629 1158
5.69641 1110
5.71652 1134
5.73663 1075
5.75675 1049
5.77686 1060
5.79697 1073
5.81709 1028
5.8372 1050
5.85732 1028
5.87743 1066
5.89754 1039
5.91766 975
5.93777 1024
5.95788 977
5.978 985
5.99811 977
6.01823 973
6.03834 927
6.05845 976
6.07857 983
6.09868 1024
6.11879 935
6.13891 917
6.15902 857
6.17913 973
6.19925 876
6.21936 889
6.23948 834
6.25959 838
6.2797 896
6.29982 824
6.31993 876
6.34004 853
6.36016 881
6.38027 827
6.40039 768
6.4205 798
6.44061 802
6.46073 818
6.48084 797
6.50095 787
6.52107 787
6.54118 770
6.56129 785
6.58141 740
6.60152 756
6.62164 715
6.64175 727
6.66186 800
6.68198 735
6.70209 731
6.7222 777
6.74232 678
6.76243 716
6.78255 719
6.80266 679
6.82277 707
6.84289 691
6.863 743
6.88311 658
6.90323 667
6.92334 703
6.94346 660
6.96357 686
6.98368 714
7.0038 670
7.02391 657
7.04402 737
7.06414 626
7.08425 686
7.10436 629
7.12448 620
7.14459 645
7.16471 625
7.18482 647
7.20493 560
7.22505 622
7.24516 617
7.26527 665
7.28539 616
7.3055 628
7.32562 560
7.34573 627
7.36584 525
7.38596 580
7.40607 586
7.42618 623
7.4463 619
7.46641 608
7.48653 643
7.50664 590
7.52675 537
7.54687 565
7.56698 539
7.58709 586
7.60721 550
7.62732 541
7.64743 637
7.66755 548
7.68766 506
7.70778 526
7.72789 512
7.748 517
7.76812 543
7.78823 559
7.80834 488
7.82846 569
7.84857 559
7.86869 539
7.8888 515
7.90891 511
7.92903 552
7.94914 540
7.96925 531
7.98937 515
8.00948 461
8.0296 541
8.04971 552
8.06982 530
8.08994 509
8.11005 475
8.13016 492
8.15028 512
8.17039 490
8.1905 488
8.21062 537
8.23073 530
8.25085 520
8.27096 502
8.29107 477
8.31119 520
8.3313 496
8.35141 519
8.37153 512
8.39164 484
8.41176 497
8.43187 479
8.45198 481
8.4721 542
8.49221 495
8.51232 515
8.53244 481
8.55255 530
8.57266 510
8.59278 492
8.61289 552
8.63301 492
8.65312 515
8.67323 528
8.69335 499
8.71346 509
8.73357 513
8.75369 494
8.7738 505
8.79392 494
8.81403 482
8.83414 512
8.85426 475
8.87437 465
8.89448 464
8.9146 495
8.93471 482
8.95483 462
8.97494 470
8.99505 437
9.01517 421
9.03528 449
9.05539 483
9.07551 442
9.09562 489
9.11573 436
9.13585 439
9.15596 468
9.17608 444
9.19619 404
9.2163 406
9.23642 429
9.25653 478
9.27664 435
9.29676 425
9.31687 407
9.33699 460
9.3571 445
9.37721 447
9.39733 443
9.41744 451
9.43755 431
9.45767 391
9.47778 465
9.4979 443
9.51801 404
9.53812 455
9.55824 439
9.57835 429
9.59846 435
9.61858 435
9.63869 421
9.6588 410
9.67892 412
9.69903 434
9.71915 473
9.73926 430
9.75937 426
9.77949 436
9.7996 438
9.81971 407
9.83983 436
9.85994 411
9.88006 412
9.90017 398
9.92028 406
9.9404 440
9.96051 464
9.98062 403
10.00074 411
10.02085 398
10.04097 438
10.06108 462
10.08119 438
10.10131 458
10.12142 410
10.14153 418
10.16165 400
10.18176 423
10.20187 426
10.22199 435
10.2421 440
10.26222 384
10.28233 412
10.30244 376
10.32256 396
10.34267 407
10.36278 412
10.3829 476
10.40301 428
10.42313 394
10.44324 407
10.46335 421
10.48347 454
10.50358 426
10.52369 412
10.54381 440
10.56392 439
10.58403 407
10.60415 379
10.62426 420
10.64438 451
10.66449 405
10.6846 438
10.70472 417
10.72483 399
10.74494 397
10.76506 415
10.78517 388
10.80529 395
10.8254 370
10.84551 466
10.86563 374
10.88574 398
10.90585 408
10.92597 461
10.94608 397
10.9662 407
10.98631 454
11.00642 464
11.02654 416
11.04665 441
11.06676 435
11.08688 435
11.10699 435
11.1271 415
11.14722 400
11.16733 453
11.18745 451
11.20756 388
11.22767 458
11.24779 450
11.2679 448
11.28801 457
11.30813 406
11.32824 469
11.34836 464
11.36847 431
11.38858 461
11.4087 452
11.42881 460
11.44892 511
11.46904 460
11.48915 469
11.50927 475
11.52938 480
11.54949 514
11.56961 481
11.58972 433
11.60983 524
11.62995 471
11.65006 489
11.67017 474
11.69029 470
11.7104 479
11.73052 461
11.75063 540
11.77074 440
11.79086 516
11.81097 528
11.83108 526
11.8512 527
11.87131 446
11.89143 551
11.91154 515
11.93165 534
11.95177 533
11.97188 553
11.99199 527
12.01211 522
12.03222 556
12.05234 520
12.07245 621
12.09256 622
12.11268 589
12.13279 582
12.1529 622
12.17302 592
12.19313 659
12.21324 577
12.23336 543
12.25347 563
12.27359 575
12.2937 592
12.31381 594
12.33393 545
12.35404 564
12.37415 513
12.39427 490
12.41438 518
12.4345 508
12.45461 555
12.47472 482
12.49484 508
12.51495 470
12.53506 471
12.55518 486
12.57529 421
12.5954 508
12.61552 446
12.63563 435
12.65575 499
12.67586 400
12.69597 427
12.71609 403
12.7362 387
12.75631 392
12.77643 430
12.79654 397
12.81666 389
12.83677 414
12.85688 394
12.877 381
12.89711 380
12.91722 378
12.93734 381
12.95745 357
12.97757 368
12.99768 360
13.01779 399
13.03791 367
13.05802 333
13.07813 388
13.09825 433
13.11836 404
13.13847 349
13.15859 339
13.1787 365
13.19882 324
13.21893 358
13.23904 364
13.25916 339
13.27927 375
13.29938 370
13.3195 365
13.33961 322
13.35973 390
13.37984 307
13.39995 318
13.42007 365
13.44018 324
13.46029 317
13.48041 386
13.50052 371
13.52064 348
13.54075 363
13.56086 365
13.58098 332
13.60109 329
13.6212 313
13.64132 321
13.66143 320
13.68154 336
13.70166 323
13.72177 348
13.74189 296
13.762 387
13.78211 341
13.80223 344
13.82234 345
13.84245 345
13.86257 321
13.88268 332
13.9028 317
13.92291 338
13.94302 377
13.96314 344
13.98325 331
14.00336 335
14.02348 353
14.04359 300
14.06371 323
14.08382 365
14.10393 338
14.12405 304
14.14416 361
14.16427 313
14.18439 315
14.2045 332
14.22461 335
14.24473 302
14.26484 330
14.28496 319
14.30507 311
14.32518 336
14.3453 303
14.36541 302
14.38552 281
14.40564 317
14.42575 372
14.44587 326
14.46598 332
14.48609 301
14.50621 341
14.52632 320
14.54643 337
14.56655 359
14.58666 334
14.60677 309
14.62689 355
14.647 312
14.66712 322
14.68723 303
14.70734 308
14.72746 336
14.74757 311
14.76768 291
14.7878 319
14.80791 328
14.82803 286
14.84814 306
14.86825 334
14.88837 297
14.90848 321
14.92859 293
14.94871 337
14.96882 346
14.98894 317
15.00905 333
15.02916 334
15.04928 331
15.06939 290
15.0895 307
15.10962 331
15.12973 310
15.14984 340
15.16996 340
15.19007 321
15.21019 324
15.2303 339
15.25041 284
15.27053 273
15.29064 328
15.31075 290
15.33087 323
15.35098 307
15.3711 294
15.39121 289
15.41132 315
15.43144 326
15.45155 314
15.47166 319
15.49178 316
15.51189 270
15.53201 313
15.55212 333
15.57223 323
15.59235 311
15.61246 297
15.63257 346
15.65269 306
15.6728 319
15.69291 345
15.71303 328
15.73314 313
15.75326 318
15.77337 318
15.79348 326
15.8136 294
15.83371 334
15.85382 300
15.87394 318
15.89405 297
15.91417 307
15.93428 313
15.95439 338
15.97451 326
15.99462 324
16.01473 326
16.03485 291
16.05496 315
16.07508 324
16.09519 298
16.1153 286
16.13542 295
16.15553 304
16.17564 331
16.19576 329
16.21587 318
16.23598 317
16.2561 335
16.27621 271
16.29633 295
16.31644 347
16.33655 309
16.35667 297
16.37678 360
16.39689 315
16.41701 298
16.43712 324
16.45724 313
16.47735 348
16.49746 344
16.51758 300
16.53769 311
16.5578 325
16.57792 297
16.59803 310
16.61814 342
16.63826 293
16.65837 288
16.67849 308
16.6986 300
16.71871 307
16.73883 310
16.75894 321
16.77905 315
16.79917 333
16.81928 350
16.8394 286
16.85951 315
16.87962 329
16.89974 331
16.91985 338
16.93996 309
16.96008 306
16.98019 310
17.00031 331
17.02042 301
17.04053 310
17.06065 307
17.08076 345
17.10087 344
17.12099 327
17.1411 334
17.16121 331
17.18133 324
17.20144 338
17.22156 343
17.24167 327
17.26178 344
17.2819 310
17.30201 334
17.32212 333
17.34224 326
17.36235 352
17.38247 300
17.40258 347
17.42269 317
17.44281 301
17.46292 311
17.48303 324
17.50315 334
17.52326 344
17.54338 304
17.56349 317
17.5836 326
17.60372 309
17.62383 335
17.64394 339
17.66406 333
17.68417 357
17.70428 352
17.7244 327
17.74451 347
17.76463 366
17.78474 318
17.80485 369
17.82497 332
17.84508 320
17.86519 347
17.88531 373
17.90542 315
17.92554 332
17.94565 320
17.96576 324
17.98588 329
18.00599 337
18.0261 342
18.04622 348
18.06633 349
18.08645 344
18.10656 332
18.12667 329
18.14679 348
18.1669 330
18.18701 308
18.20713 337
18.22724 276
18.24735 297
18.26747 323
18.28758 306
18.3077 362
18.32781 351
18.34792 326
18.36804 327
18.38815 318
18.40826 374
18.42838 302
18.44849 345
18.46861 336
18.48872 310
18.50883 321
18.52895 335
18.54906 299
18.56917 327
18.58929 323
18.6094 341
18.62951 352
18.64963 336
18.66974 344
18.68986 326
18.70997 358
18.73008 333
18.7502 342
18.77031 313
18.79042 329
18.81054 380
18.83065 332
18.85077 319
18.87088 362
18.89099 347
18.91111 374
18.93122 342
18.95133 344
18.97145 370
18.99156 326
19.01168 373
19.03179 351
19.0519 371
19.07202 396
19.09213 346
19.11224 372
19.13236 395
19.15247 397
19.17258 370
19.1927 419
19.21281 372
19.23293 452
19.25304 409
19.27315 409
19.29327 478
19.31338 455
19.33349 469
19.35361 461
19.37372 468
19.39384 490
19.41395 499
19.43406 541
19.45418 544
19.47429 569
19.4944 556
19.51452 634
19.53463 631
19.55475 704
19.57486 705
19.59497 777
19.61509 880
19.6352 922
19.65531 944
19.67543 1040
19.69554 1000
19.71565 1114
19.73577 1143
19.75588 1176
19.776 1302
19.79611 1238
19.81622 1256
19.83634 1251
19.85645 1282
19.87656 1242
19.89668 1246
19.91679 1116
19.93691 1149
19.95702 1105
19.97713 1185
19.99725 1047
20.01736 1029
20.03747 1022
20.05759 971
20.0777 1004
20.09782 986
20.11793 945
20.13804 906
20.15816 944
20.17827 952
20.19838 900
20.2185 967
20.23861 892
20.25872 959
20.27884 902
20.29895 883
20.31907 881
20.33918 929
20.35929 877
20.37941 850
20.39952 848
20.41963 832
20.43975 879
20.45986 902
20.47998 889
20.50009 900
20.5202 846
20.54032 849
20.56043 876
20.58054 889
20.60066 948
20.62077 954
20.64088 1011
20.661 1030
20.68111 1159
20.70123 1318
20.72134 1497
20.74145 1706
20.76157 2145
20.78168 2319
20.80179 2594
20.82191 2676
20.84202 2446
20.86214 2170
20.88225 1895
20.90236 1540
20.92248 1269
20.94259 1072
20.9627 1010
20.98282 919
21.00293 854
21.02305 867
21.04316 848
21.06327 748
21.08339 784
21.1035 723
21.12361 750
21.14373 767
21.16384 691
21.18395 709
21.20407 741
21.22418 686
21.2443 742
21.26441 686
21.28452 675
21.30464 667
21.32475 701
21.34486 749
21.36498 769
21.38509 705
21.40521 665
21.42532 665
21.44543 689
21.46555 658
21.48566 644
21.50577 678
21.52589 668
21.546 710
21.56612 680
21.58623 618
21.60634 598
21.62646 617
21.64657 612
21.66668 636
21.6868 611
21.70691 599
21.72702 584
21.74714 625
21.76725 609
21.78737 632
21.80748 600
21.82759 622
21.84771 642
21.86782 579
21.88793 635
21.90805 629
21.92816 600
21.94828 611
21.96839 653
21.9885 625
22.00862 614
22.02873 600
22.04884 625
22.06896 589
22.08907 587
22.10919 610
22.1293 552
22.14941 596
22.16953 610
22.18964 575
22.20975 572
22.22987 600
22.24998 605
22.27009 560
22.29021 606
22.31032 587
22.33044 577
22.35055 574
22.37066 580
22.39078 571
22.41089 598
22.431 496
22.45112 549
22.47123 537
22.49135 567
22.51146 569
22.53157 616
22.55169 570
22.5718 558
22.59191 598
22.61203 528
22.63214 608
22.65225 545
22.67237 545
22.69248 569
22.7126 557
22.73271 555
22.75282 544
22.77294 560
22.79305 534
22.81316 552
22.83328 635
22.85339 545
22.87351 583
22.89362 582
22.91373 525
22.93385 516
22.95396 528
22.97407 533
22.99419 486
23.0143 568
23.03442 556
23.05453 526
23.07464 550
23.09476 548
23.11487 594
23.13498 578
23.1551 509
23.17521 536
23.19532 567
23.21544 556
23.23555 531
23.25567 520
23.27578 554
23.29589 540
23.31601 572
23.33612 578
23.35623 535
23.37635 546
23.39646 535
23.41658 560
23.43669 523
23.4568 572
23.47692 567
23.49703 569
23.51714 533
23.53726 576
23.55737 509
23.57749 559
23.5976 528
23.61771 526
23.63783 608
23.65794 561
23.67805 592
23.69817 571
23.71828 534
23.73839 572
23.75851 572
23.77862 559
23.79874 506
23.81885 529
23.83896 564
23.85908 563
23.87919 531
23.8993 604
23.91942 557
23.93953 598
23.95965 549
23.97976 549
23.99987 566
24.01999 530
24.0401 543
24.06021 520
24.08033 560
24.10044 559
24.12056 566
24.14067 535
24.16078 563
24.1809 605
24.20101 505
24.22112 608
24.24124 575
24.26135 577
24.28146 560
24.30158 559
24.32169 547
24.34181 577
24.36192 530
24.38203 580
24.40215 538
24.42226 582
24.44237 572
24.46249 553
24.4826 530
24.50272 623
24.52283 566
24.54294 603
24.56306 583
24.58317 643
24.60328 597
24.6234 558
24.64351 660
24.66362 618
24.68374 619
24.70385 658
24.72397 653
24.74408 647
24.76419 702
24.78431 699
24.80442 685
24.82453 735
24.84465 648
24.86476 698
24.88488 712
24.90499 707
24.9251 687
24.94522 677
24.96533 680
24.98544 679
25.00556 656
25.02567 679
25.04579 673
25.0659 719
25.08601 710
25.10613 683
25.12624 735
25.14635 736
25.16647 749
25.18658 743
25.20669 740
25.22681 725
25.24692 709
25.26704 713
25.28715 700
25.30726 695
25.32738 695
25.34749 617
25.3676 643
25.38772 699
25.40783 669
25.42795 687
25.44806 687
25.46817 671
25.48829 689
25.5084 669
25.52851 670
25.54863 663
25.56874 666
25.58886 662
25.60897 672
25.62908 660
25.6492 668
25.66931 644
25.68942 650
25.70954 656
25.72965 590
25.74976 603
25.76988 607
25.78999 608
25.81011 576
25.83022 620
25.85033 557
25.87045 613
25.89056 586
25.91067 571
25.93079 617
25.9509 596
25.97102 555
25.99113 589
26.01124 634
26.03136 616
26.05147 631
26.07158 648
26.0917 660
26.11181 693
26.13193 646
26.15204 736
26.17215 695
26.19227 724
26.21238 781
26.23249 787
26.25261 765
26.27272 870
26.29283 892
26.31295 989
26.33306 1038
26.35318 1136
26.37329 1358
26.3934 1528
26.41352 1783
26.43363 2210
26.45374 2807
26.47386 3533
26.49397 4710
26.51409 5724
26.5342 6932
26.55431 8151
26.57443 8818
26.59454 8917
26.61465 8434
26.63477 7363
26.65488 6102
26.67499 4831
26.69511 3520
26.71522 2580
26.73534 1794
26.75545 1450
26.77556 1198
26.79568 1007
26.81579 957
26.8359 884
26.85602 920
26.87613 888
26.89625 804
26.91636 786
26.93647 795
26.95659 714
26.9767 730
26.99681 746
27.01693 711
27.03704 720
27.05716 704
27.07727 696
27.09738 648
27.1175 602
27.13761 618
27.15772 580
27.17784 597
27.19795 584
27.21806 556
27.23818 616
27.25829 592
27.27841 658
27.29852 645
27.31863 680
27.33875 688
27.35886 664
27.37897 714
27.39909 753
27.4192 760
27.43932 750
27.45943 628
27.47954 655
27.49966 614
27.51977 618
27.53988 604
27.56 599
27.58011 581
27.60023 545
27.62034 577
27.64045 540
27.66057 589
27.68068 580
27.70079 555
27.72091 565
27.74102 602
27.76113 592
27.78125 586
27.80136 561
27.82148 572
27.84159 565
27.8617 597
27.88182 615
27.90193 564
27.92204 602
27.94216 541
27.96227 578
27.98239 550
28.0025 548
28.02261 540
28.04273 487
28.06284 469
28.08295 509
28.10307 472
28.12318 487
28.1433 460
28.16341 482
28.18352 470
28.20364 518
28.22375 467
28.24386 476
28.26398 455
28.28409 455
28.3042 438
28.32432 489
28.34443 488
28.36455 435
28.38466 484
28.40477 459
28.42489 461
28.445 434
28.46511 446
28.48523 449
28.50534 483
28.52546 440
28.54557 414
28.56568 442
28.5858 436
28.60591 453
28.62602 441
28.64614 458
28.66625 405
28.68636 446
28.70648 450
28.72659 425
28.74671 441
28.76682 423
28.78693 446
28.80705 457
28.82716 415
28.84727 443
28.86739 432
28.8875 430
28.90762 440
28.92773 408
28.94784 410
28.96796 461
28.98807 392
29.00818 446
29.0283 446
29.04841 426
29.06853 404
29.08864 437
29.10875 439
29.12887 416
29.14898 426
29.16909 427
29.18921 443
29.20932 374
29.22943 419
29.24955 409
29.26966 377
29.28978 445
29.30989 440
29.33 434
29.35012 433
29.37023 456
29.39034 454
29.41046 432
29.43057 459
29.45069 448
29.4708 438
29.49091 428
29.51103 429
29.53114 410
29.55125 409
29.57137 481
29.59148 428
29.6116 393
29.63171 458
29.65182 429
29.67194 470
29.69205 460
29.71216 473
29.73228 455
29.75239 470
29.7725 459
29.79262 467
29.81273 488
29.83285 477
29.85296 432
29.87307 486
29.89319 440
29.9133 449
29.93341 415
29.95353 456
29.97364 474
29.99376 478
30.01387 464
30.03398 423
30.0541 488
30.07421 464
30.09432 476
30.11444 414
30.13455 433
30.15467 448
30.17478 402
30.19489 448
30.21501 413
30.23512 461
30.25523 451
30.27535 383
30.29546 401
30.31557 474
30.33569 392
30.3558 362
30.37592 436
30.39603 433
30.41614 389
30.43626 437
30.45637 432
30.47648 420
30.4966 402
30.51671 391
30.53683 397
30.55694 405
30.57705 418
30.59717 415
30.61728 414
30.63739 440
30.65751 430
30.67762 435
30.69773 480
30.71785 440
30.73796 407
30.75808 445
30.77819 450
30.7983 404
30.81842 391
30.83853 408
30.85864 405
30.87876 420
30.89887 389
30.91899 389
30.9391 372
30.95921 402
30.97933 380
30.99944 441
31.01955 375
31.03967 404
31.05978 425
31.0799 405
31.10001 420
31.12012 399
31.14024 391
31.16035 409
31.18046 383
31.20058 414
31.22069 402
31.2408 399
31.26092 407
31.28103 377
31.30115 428
31.32126 385
31.34137 391
31.36149 339
31.3816 381
31.40171 361
31.42183 392
31.44194 403
31.46206 372
31.48217 395
31.50228 414
31.5224 392
31.54251 410
31.56262 376
31.58274 362
31.60285 386
31.62297 375
31.64308 376
31.66319 363
31.68331 357
31.70342 392
31.72353 402
31.74365 371
31.76376 385
31.78387 369
31.80399 368
31.8241 380
31.84422 369
31.86433 385
31.88444 353
31.90456 399
31.92467 390
31.94478 336
31.9649 356
31.98501 381
32.00513 384
32.02524 354
32.04535 384
32.06547 373
32.08558 389
32.10569 351
32.12581 340
32.14592 394
32.16604 377
32.18615 366
32.20626 345
32.22638 366
32.24649 355
32.2666 354
32.28672 349
32.30683 384
32.32694 376
32.34706 369
32.36717 365
32.38729 348
32.4074 345
32.42751 385
32.44763 362
32.46774 373
32.48785 350
32.50797 343
32.52808 347
32.5482 385
32.56831 405
32.58842 372
32.60854 327
32.62865 339
32.64876 358
32.66888 333
32.68899 335
32.7091 327
32.72922 362
32.74933 372
32.76945 375
32.78956 320
32.80967 356
32.82979 354
32.8499 373
32.87001 353
32.89013 321
32.91024 324
32.93036 333
32.95047 365
32.97058 324
32.9907 349
33.01081 326
33.03092 337
33.05104 342
33.07115 364
33.09127 348
33.11138 303
33.13149 341
33.15161 323
33.17172 371
33.19183 325
33.21195 349
33.23206 330
33.25217 354
33.27229 319
33.2924 309
33.31252 312
33.33263 330
33.35274 325
33.37286 356
33.39297 337
33.41308 334
33.4332 363
33.45331 325
33.47343 366
33.49354 332
33.51365 372
33.53377 315
33.55388 368
33.57399 339
33.59411 317
33.61422 329
33.63434 364
33.65445 380
33.67456 315
33.69468 341
33.71479 381
33.7349 363
33.75502 344
33.77513 353
33.79524 353
33.81536 353
33.83547 383
33.85559 370
33.8757 351
33.89581 373
33.91593 361
33.93604 365
33.95615 357
33.97627 353
33.99638 369
34.0165 411
34.03661 417
34.05672 370
34.07684 394
34.09695 371
34.11706 404
34.13718 431
34.15729 375
34.17741 436
34.19752 440
34.21763 415
34.23775 437
34.25786 446
34.27797 438
34.29809 480
34.3182 447
34.33831 462
34.35843 522
34.37854 521
34.39866 504
34.41877 530
34.43888 494
34.459 572
34.47911 551
34.49922 585
34.51934 575
34.53945 581
34.55957 585
34.57968 613
34.59979 633
34.61991 627
34.64002 651
34.66013 612
34.68025 701
34.70036 684
34.72047 677
34.74059 699
34.7607 723
34.78082 694
34.80093 750
34.82104 786
34.84116 771
34.86127 790
34.88138 825
34.9015 800
34.92161 811
34.94173 751
34.96184 814
34.98195 747
35.00207 716
35.02218 707
35.04229 666
35.06241 649
35.08252 631
35.10264 682
35.12275 688
35.14286 606
35.16298 599
35.18309 642
35.2032 606
35.22332 634
35.24343 618
35.26354 566
35.28366 593
35.30377 623
35.32389 624
35.344 588
35.36411 603
35.38423 594
35.40434 630
35.42445 621
35.44457 646
35.46468 559
35.4848 589
35.50491 626
35.52502 618
35.54514 617
35.56525 585
35.58536 595
35.60548 606
35.62559 615
35.64571 589
35.66582 580
35.68593 592
35.70605 588
35.72616 599
35.74627 624
35.76639 594
35.7865 569
35.80661 571
35.82673 550
35.84684 605
35.86696 599
35.88707 587
35.90718 599
35.9273 586
35.94741 561
35.96752 617
35.98764 543
36.00775 603
36.02787 610
36.04798 591
36.06809 606
36.08821 533
36.10832 527
36.12843 529
36.14855 525
36.16866 578
36.18878 504
36.20889 536
36.229 558
36.24912 553
36.26923 589
36.28934 567
36.30946 613
36.32957 641
36.34968 641
36.3698 738
36.38991 771
36.41003 881
36.43014 912
36.45025 1007
36.47037 1029
36.49048 1061
36.51059 982
36.53071 943
36.55082 891
36.57094 827
36.59105 707
36.61116 719
36.63128 637
36.65139 606
36.6715 599
36.69162 559
36.71173 554
36.73184 511
36.75196 522
36.77207 513
36.79219 555
36.8123 503
36.83241 533
36.85253 474
36.87264 542
36.89275 528
36.91287 525
36.93298 526
36.9531 526
36.97321 478
36.99332 515
37.01344 551
37.03355 455
37.05366 496
37.07378 501
37.09389 505
37.11401 474
37.13412 495
37.15423 482
37.17435 492
37.19446 525
37.21457 521
37.23469 525
37.2548 489
37.27491 537
37.29503 503
37.31514 469
37.33526 513
37.35537 472
37.37548 555
37.3956 512
37.41571 499
37.43582 494
37.45594 547
37.47605 541
37.49617 535
37.51628 554
37.53639 575
37.55651 583
37.57662 549
37.59673 554
37.61685 542
37.63696 588
37.65708 564
37.67719 548
37.6973 552
37.71742 576
37.73753 530
37.75764 567
37.77776 510
37.79787 566
37.81798 552
37.8381 543
37.85821 496
37.87833 532
37.89844 540
37.91855 549
37.93867 532
37.95878 515
37.97889 501
37.99901 534
38.01912 512
38.03924 527
38.05935 478
38.07946 520
38.09958 564
38.11969 538
38.1398 542
38.15992 559
38.18003 533
38.20015 569
38.22026 559
38.24037 534
38.26049 566
38.2806 584
38.30071 557
38.32083 552
38.34094 568
38.36105 528
38.38117 530
38.40128 554
38.4214 539
38.44151 598
38.46162 538
38.48174 539
38.50185 501
38.52196 542
38.54208 551
38.56219 553
38.58231 527
38.60242 515
38.62253 532
38.64265 495
38.66276 467
38.68287 518
38.70299 451
38.7231 521
38.74321 490
38.76333 465
38.78344 512
38.80356 494
38.82367 486
38.84378 508
38.8639 475
38.88401 490
38.90412 499
38.92424 461
38.94435 484
38.96447 504
38.98458 540
39.00469 468
39.02481 492
39.04492 480
39.06503 479
39.08515 481
39.10526 478
39.12538 475
39.14549 479
39.1656 510
39.18572 511
39.20583 539
39.22594 553
39.24606 562
39.26617 613
39.28628 622
39.3064 668
39.32651 779
39.34663 813
39.36674 863
39.38685 881
39.40697 904
39.42708 948
39.44719 812
39.46731 770
39.48742 717
39.50754 643
39.52765 653
39.54776 609
39.56788 523
39.58799 466
39.6081 473
39.62822 473
39.64833 419
39.66845 402
39.68856 435
39.70867 437
39.72879 434
39.7489 412
39.76901 448
39.78913 427
39.80924 411
39.82935 387
39.84947 439
39.86958 420
39.8897 406
39.90981 407
39.92992 435
39.95004 441
39.97015 412
39.99026 396
40.01038 461
40.03049 496
40.05061 458
40.07072 464
40.09083 471
40.11095 544
40.13106 579
40.15117 587
40.17129 606
40.1914 662
40.21152 645
40.23163 664
40.25174 633
40.27186 599
40.29197 541
40.31208 542
40.3322 571
40.35231 499
40.37242 487
40.39254 462
40.41265 449
40.43277 393
40.45288 437
40.47299 427
40.49311 445
40.51322 409
40.53333 423
40.55345 395
40.57356 424
40.59368 384
40.61379 411
40.6339 362
40.65402 408
40.67413 373
40.69424 385
40.71436 389
40.73447 391
40.75458 396
40.7747 426
40.79481 395
40.81493 400
40.83504 401
40.85515 404
40.87527 369
40.89538 403
40.91549 402
40.93561 419
40.95572 426
40.97584 432
40.99595 388
41.01606 370
41.03618 390
41.05629 401
41.0764 408
41.09652 400
41.11663 391
41.13675 400
41.15686 363
41.17697 384
41.19709 411
41.2172 410
41.23731 396
41.25743 378
41.27754 406
41.29765 384
41.31777 372
41.33788 382
41.358 382
41.37811 411
41.39822 360
41.41834 354
41.43845 366
41.45856 336
41.47868 379
41.49879 376
41.51891 358
41.53902 387
41.55913 373
41.57925 390
41.59936 385
41.61947 392
41.63959 429
41.6597 414
41.67982 438
41.69993 424
41.72004 434
41.74016 435
41.76027 384
41.78038 425
41.8005 416
41.82061 382
41.84072 396
41.86084 398
41.88095 429
41.90107 442
41.92118 378
41.94129 395
41.96141 360
41.98152 378
42.00163 430
42.02175 413
42.04186 389
42.06198 393
42.08209 451
42.1022 400
42.12232 429
42.14243 409
42.16254 440
42.18266 481
42.20277 417
42.22289 447
42.243 537
42.26311 541
42.28323 574
42.30334 610
42.32345 647
42.34357 664
42.36368 748
42.38379 711
42.40391 731
42.42402 683
42.44414 672
42.46425 611
42.48436 596
42.50448 515
42.52459 542
42.5447 473
42.56482 423
42.58493 401
42.60505 412
42.62516 393
42.64527 393
42.66539 391
42.6855 426
42.70561 358
42.72573 410
42.74584 386
42.76595 351
42.78607 338
42.80618 383
42.8263 405
42.84641 365
42.86652 351
42.88664 337
42.90675 382
42.92686 338
42.94698 358
42.96709 359
42.98721 326
43.00732 337
43.02743 367
43.04755 345
43.06766 363
43.08777 359
43.10789 357
43.128 293
43.14812 336
43.16823 350
43.18834 371
43.20846 369
43.22857 344
43.24868 341
43.2688 331
43.28891 364
43.30902 368
43.32914 355
43.34925 322
43.36937 358
43.38948 362
43.40959 373
43.42971 334
43.44982 329
43.46993 325
43.49005 329
43.51016 296
43.53028 408
43.55039 327
43.5705 338
43.59062 364
43.61073 332
43.63084 309
43.65096 358
43.67107 340
43.69119 377
43.7113 307
43.73141 329
43.75153 347
43.77164 319
43.79175 353
43.81187 324
43.83198 364
43.85209 341
43.87221 348
43.89232 332
43.91244 394
43.93255 333
43.95266 347
43.97278 390
43.99289 343
44.013 349
44.03312 319
44.05323 348
44.07335 334
44.09346 347
44.11357 336
44.13369 340
44.1538 331
44.17391 313
44.19403 355
44.21414 364
44.23426 342
44.25437 332
44.27448 326
44.2946 317
44.31471 338
44.33482 323
44.35494 373
44.37505 350
44.39516 334
44.41528 339
44.43539 334
44.45551 320
44.47562 390
44.49573 358
44.51585 343
44.53596 342
44.55607 387
44.57619 370
44.5963 368
44.61642 336
44.63653 357
44.65664 325
44.67676 374
44.69687 359
44.71698 351
44.7371 319
44.75721 350
44.77732 330
44.79744 367
44.81755 335
44.83767 389
44.85778 385
44.87789 359
44.89801 374
44.91812 349
44.93823 341
44.95835 342
44.97846 383
44.99858 361
45.01869 375
45.0388 375
45.05892 347
45.07903 394
45.09914 385
45.11926 347
45.13937 363
45.15949 388
45.1796 375
45.19971 395
45.21983 389
45.23994 396
45.26005 356
45.28017 404
45.30028 365
45.32039 379
45.34051 411
45.36062 401
45.38074 392
45.40085 408
45.42096 413
45.44108 404
45.46119 413
45.4813 390
45.50142 402
45.52153 438
45.54165 442
45.56176 445
45.58187 469
45.60199 470
45.6221 484
45.64221 545
45.66233 539
45.68244 579
45.70256 619
45.72267 621
45.74278 595
45.7629 599
45.78301 556
45.80312 551
45.82324 473
45.84335 503
45.86346 489
45.88358 457
45.90369 456
45.92381 396
45.94392 408
45.96403 385
45.98415 351
46.00426 371
46.02437 389
46.04449 372
46.0646 373
46.08472 362
46.10483 364
46.12494 407
46.14506 362
46.16517 372
46.18528 350
46.2054 380
46.22551 359
46.24563 347
46.26574 370
46.28585 364
46.30597 336
46.32608 378
46.34619 330
46.36631 369
46.38642 338
46.40653 356
46.42665 366
46.44676 344
46.46688 328
46.48699 365
46.5071 368
46.52722 338
46.54733 339
46.56744 316
46.58756 366
46.60767 327
46.62779 346
46.6479 385
46.66801 341
46.68813 353
46.70824 354
46.72835 348
46.74847 359
46.76858 322
46.78869 335
46.80881 330
46.82892 349
46.84904 367
46.86915 337
46.88926 329
46.90938 368
46.92949 356
46.9496 332
46.96972 355
46.98983 309
47.00995 347
47.03006 384
47.05017 363
47.07029 342
47.0904 330
47.11051 352
47.13063 344
47.15074 320
47.17086 323
47.19097 368
47.21108 351
47.2312 333
47.25131 360
47.27142 360
47.29154 369
47.31165 349
47.33176 349
47.35188 360
47.37199 327
47.39211 339
47.41222 339
47.43233 323
47.45245 351
47.47256 343
47.49267 338
47.51279 382
47.5329 372
47.55302 346
47.57313 342
47.59324 349
47.61336 356
47.63347 364
47.65358 325
47.6737 361
47.69381 324
47.71393 384
47.73404 343
47.75415 317
47.77427 361
47.79438 360
47.81449 337
47.83461 359
47.85472 371
47.87483 362
47.89495 365
47.91506 381
47.93518 335
47.95529 332
47.9754 354
47.99552 351
48.01563 360
48.03574 333
48.05586 351
48.07597 329
48.09609 363
48.1162 347
48.13631 326
48.15643 350
48.17654 322
48.19665 333
48.21677 343
48.23688 333
48.257 333
48.27711 379
48.29722 341
48.31734 298
48.33745 331
48.35756 369
48.37768 347
48.39779 352
48.4179 310
48.43802 353
48.45813 346
48.47825 350
48.49836 330
48.51847 311
48.53859 326
48.5587 316
48.57881 295
48.59893 283
48.61904 308
48.63916 346
48.65927 332
48.67938 324
48.6995 303
48.71961 335
48.73972 322
48.75984 326
48.77995 334
48.80006 321
48.82018 343
48.84029 344
48.86041 358
48.88052 310
48.90063 321
48.92075 305
48.94086 309
48.96097 323
48.98109 352
49.0012 339
49.02132 315
49.04143 326
49.06154 332
49.08166 332
49.10177 330
49.12188 347
49.142 319
49.16211 330
49.18223 307
49.20234 329
49.22245 311
49.24257 319
49.26268 324
49.28279 300
49.30291 311
49.32302 320
49.34313 320
49.36325 334
49.38336 339
49.40348 327
49.42359 298
49.4437 323
49.46382 313
49.48393 329
49.50404 316
49.52416 348
49.54427 304
49.56439 320
49.5845 327
49.60461 347
49.62473 355
49.64484 392
49.66495 367
49.68507 328
49.70518 367
49.7253 356
49.74541 361
49.76552 394
49.78564 402
49.80575 404
49.82586 431
49.84598 489
49.86609 485
49.8862 487
49.90632 578
49.92643 564
49.94655 664
49.96666 768
49.98677 833
50.00689 931
50.027 1064
50.04711 1108
50.06723 1182
50.08734 1063
50.10746 1077
50.12757 927
50.14768 870
50.1678 764
50.18791 743
50.20802 685
50.22814 681
50.24825 572
50.26837 480
50.28848 460
50.30859 410
50.32871 393
50.34882 375
50.36893 367
50.38905 400
50.40916 354
50.42927 360
50.44939 389
50.4695 352
50.48962 370
50.50973 386
50.52984 376
50.54996 370
50.57007 387
50.59018 403
50.6103 324
50.63041 381
50.65053 324
50.67064 375
50.69075 349
50.71087 341
50.73098 333
50.75109 317
50.77121 318
50.79132 298
50.81143 316
50.83155 310
50.85166 311
50.87178 313
50.89189 328
50.912 319
50.93212 320
50.95223 322
50.97234 316
50.99246 332
51.01257 316
51.03269 330
51.0528 317
51.07291 328
51.09303 282
51.11314 290
51.13325 318
51.15337 316
51.17348 307
51.1936 325
51.21371 305
51.23382 290
51.25394 315
51.27405 302
51.29416 300
51.31428 305
51.33439 315
51.3545 263
51.37462 284
51.39473 308
51.41485 306
51.43496 292
51.45507 301
51.47519 281
51.4953 311
51.51541 285
51.53553 272
51.55564 299
51.57576 303
51.59587 318
51.61598 289
51.6361 305
51.65621 292
51.67632 293
51.69644 315
51.71655 289
51.73667 263
51.75678 285
51.77689 291
51.79701 268
51.81712 305
51.83723 306
51.85735 312
51.87746 304
51.89757 300
51.91769 294
51.9378 303
51.95792 307
51.97803 299
51.99814 297
52.01826 289
52.03837 284
52.05848 319
52.0786 316
52.09871 298
52.11883 319
52.13894 314
52.15905 306
52.17917 314
52.19928 286
52.21939 292
52.23951 316
52.25962 321
52.27974 302
52.29985 318
52.31996 329
52.34008 288
52.36019 280
52.3803 330
52.40042 309
52.42053 278
52.44064 310
52.46076 294
52.48087 315
52.50099 293
52.5211 290
52.54121 304
52.56133 298
52.58144 271
52.60155 307
52.62167 302
52.64178 336
52.6619 319
52.68201 324
52.70212 310
52.72224 306
52.74235 293
52.76246 330
52.78258 306
52.80269 283
52.8228 281
52.84292 339
52.86303 305
52.88315 340
52.90326 318
52.92337 311
52.94349 310
52.9636 316
52.98371 278
53.00383 325
53.02394 294
53.04406 301
53.06417 324
53.08428 330
53.1044 335
53.12451 291
53.14462 357
53.16474 333
53.18485 349
53.20497 290
53.22508 314
53.24519 326
53.26531 337
53.28542 352
53.30553 326
53.32565 314
53.34576 340
53.36587 346
53.38599 336
53.4061 365
53.42622 345
53.44633 404
53.46644 355
53.48656 350
53.50667 337
53.52678 301
53.5469 316
53.56701 345
53.58713 373
53.60724 354
53.62735 354
53.64747 339
53.66758 379
53.68769 346
53.70781 410
53.72792 377
53.74804 396
53.76815 390
53.78826 384
53.80838 405
53.82849 399
53.8486 403
53.86872 382
53.88883 415
53.90894 389
53.92906 360
53.94917 419
53.96929 385
53.9894 423
54.00951 415
54.02963 385
54.04974 388
54.06985 387
54.08997 381
54.11008 446
54.1302 433
54.15031 425
54.17042 416
54.19054 418
54.21065 445
54.23076 415
54.25088 418
54.27099 414
54.29111 419
54.31122 399
54.33133 425
54.35145 410
54.37156 437
54.39167 440
54.41179 417
54.4319 420
54.45201 408
54.47213 428
54.49224 448
54.51236 470
54.53247 423
54.55258 417
54.5727 443
54.59281 458
54.61292 443
54.63304 467
54.65315 522
54.67327 530
54.69338 561
54.71349 568
54.73361 596
54.75372 616
54.77383 660
54.79395 665
54.81406 637
54.83417 623
54.85429 643
54.8744 582
54.89452 597
54.91463 570
54.93474 572
54.95486 543
54.97497 529
54.99508 515
55.0152 494
55.03531 460
55.05543 415
55.07554 458
55.09565 485
55.11577 499
55.13588 455
55.15599 490
55.17611 501
55.19622 488
55.21634 514
55.23645 524
55.25656 518
55.27668 517
55.29679 505
55.3169 492
55.33702 491
55.35713 466
55.37724 446
55.39736 485
55.41747 425
55.43759 432
55.4577 427
55.47781 406
55.49793 414
55.51804 418
55.53815 381
55.55827 390
55.57838 425
55.5985 399
55.61861 376
55.63872 438
55.65884 413
55.67895 426
55.69906 367
55.71918 406
55.73929 410
55.75941 364
55.77952 384
55.79963 400
55.81975 376
55.83986 397
55.85997 378
55.88009 390
55.9002 375
55.92031 383
55.94043 388
55.96054 409
55.98066 361
56.00077 394
56.02088 377
56.041 377
56.06111 383
56.08122 391
56.10134 385
56.12145 368
56.14157 356
56.16168 396
56.18179 391
56.20191 364
56.22202 362
56.24213 397
56.26225 360
56.28236 363
56.30248 365
56.32259 347
56.3427 353
56.36282 371
56.38293 361
56.40304 330
56.42316 350
56.44327 387
56.46338 352
56.4835 334
56.50361 348
56.52373 348
56.54384 331
56.56395 382
56.58407 352
56.60418 355
56.62429 351
56.64441 354
56.66452 338
56.68464 381
56.70475 356
56.72486 325
56.74498 378
56.76509 345
56.7852 349
56.80532 375
56.82543 338
56.84554 373
56.86566 355
56.88577 363
56.90589 358
56.926 383
56.94611 328
56.96623 322
56.98634 331
57.00645 326
57.02657 334
57.04668 341
57.0668 352
57.08691 336
57.10702 340
57.12714 383
57.14725 363
57.16736 333
57.18748 350
57.20759 348
57.22771 325
57.24782 342
57.26793 379
57.28805 335
57.30816 332
57.32827 356
57.34839 298
57.3685 331
57.38861 326
57.40873 336
57.42884 354
57.44896 342
57.46907 304
57.48918 326
57.5093 339
57.52941 336
57.54952 340
57.56964 342
57.58975 336
57.60987 311
57.62998 349
57.65009 329
57.67021 356
57.69032 343
57.71043 341
57.73055 319
57.75066 315
57.77078 316
57.79089 320
57.811 311
57.83112 284
57.85123 290
57.87134 302
57.89146 295
57.91157 329
57.93168 314
57.9518 342
57.97191 334
57.99203 306
58.01214 350
58.03225 329
58.05237 314
58.07248 328
58.09259 343
58.11271 303
58.13282 332
58.15294 319
58.17305 311
58.19316 327
58.21328 310
58.23339 305
58.2535 302
58.27362 310
58.29373 337
58.31385 321
58.33396 303
58.35407 302
58.37419 325
58.3943 290
58.41441 312
58.43453 303
58.45464 321
58.47475 316
58.49487 289
58.51498 323
58.5351 317
58.55521 324
58.57532 332
58.59544 308
58.61555 313
58.63566 312
58.65578 319
58.67589 325
58.69601 288
58.71612 322
58.73623 324
58.75635 299
58.77646 327
58.79657 316
58.81669 344
58.8368 316
58.85691 304
58.87703 315
58.89714 335
58.91726 294
58.93737 309
58.95748 312
58.9776 313
58.99771 310
59.01782 299
59.03794 339
59.05805 322
59.07817 342
59.09828 301
59.11839 322
59.13851 346
59.15862 329
59.17873 314
59.19885 318
59.21896 319
59.23908 334
59.25919 335
59.2793 350
59.29942 304
59.31953 332
59.33964 310
59.35976 328
59.37987 316
59.39998 318
59.4201 361
59.44021 351
59.46033 339
59.48044 324
59.50055 331
59.52067 386
59.54078 369
59.56089 355
59.58101 378
59.60112 363
59.62124 376
59.64135 428
59.66146 437
59.68158 444
59.70169 446
59.7218 490
59.74192 537
59.76203 621
59.78215 605
59.80226 680
59.82237 717
59.84249 757
59.8626 871
59.88271 862
59.90283 871
59.92294 744
59.94305 669
59.96317 652
59.98328 638
60.0034 607
60.02351 586
60.04362 575
60.06374 567
60.08385 514
60.10396 501
60.12408 429
60.14419 413
60.16431 389
60.18442 380
60.20453 378
60.22465 355
60.24476 351
60.26487 371
60.28499 357
60.3051 389
60.32522 356
60.34533 329
60.36544 341
60.38556 362
60.40567 325
60.42578 358
60.4459 348
60.46601 357
60.48612 360
60.50624 339
60.52635 313
60.54647 337
60.56658 329
60.58669 355
60.60681 355
60.62692 339
60.64703 321
60.66715 321
60.68726 319
60.70738 351
60.72749 335
60.7476 345
60.76772 345
60.78783 335
60.80794 353
60.82806 371
60.84817 332
60.86828 331
60.8884 361
60.90851 313
60.92863 378
60.94874 347
60.96885 362
60.98897 392
61.00908 393
61.02919 366
61.04931 382
61.06942 345
61.08954 377
61.10965 379
61.12976 398
61.14988 391
61.16999 366
61.1901 397
61.21022 411
61.23033 415
61.25045 412
61.27056 397
61.29067 382
61.31079 392
61.3309 442
61.35101 440
61.37113 443
61.39124 381
61.41135 472
61.43147 434
61.45158 469
61.4717 446
61.49181 458
61.51192 444
61.53204 449
61.55215 476
61.57226 441
61.59238 439
61.61249 462
61.63261 488
61.65272 455
61.67283 498
61.69295 479
61.71306 505
61.73317 493
61.75329 464
61.7734 480
61.79352 506
61.81363 478
61.83374 454
61.85386 492
61.87397 475
61.89408 541
61.9142 516
61.93431 481
61.95442 574
61.97454 478
61.99465 478
62.01477 458
62.03488 483
62.05499 510
62.07511 527
62.09522 526
62.11533 480
62.13545 507
62.15556 512
62.17568 498
62.19579 473
62.2159 463
62.23602 457
62.25613 477
62.27624 465
62.29636 477
62.31647 421
62.33659 423
62.3567 459
62.37681 421
62.39693 415
62.41704 396
62.43715 415
62.45727 421
62.47738 374
62.49749 419
62.51761 404
62.53772 388
62.55784 389
62.57795 362
62.59806 371
62.61818 380
62.63829 364
62.6584 387
62.67852 365
62.69863 356
62.71875 346
62.73886 340
62.75897 346
62.77909 354
62.7992 374
62.81931 328
62.83943 319
62.85954 319
62.87965 346
62.89977 332
62.91988 339
62.94 330
62.96011 301
62.98022 327
63.00034 390
63.02045 334
63.04056 338
63.06068 319
63.08079 329
63.10091 346
63.12102 323
63.14113 317
63.16125 336
63.18136 332
63.20147 344
63.22159 330
63.2417 312
63.26182 362
63.28193 322
63.30204 325
63.32216 312
63.34227 330
63.36238 332
63.3825 341
63.40261 340
63.42272 321
63.44284 323
63.46295 306
63.48307 308
63.50318 326
63.52329 310
63.54341 347
63.56352 348
63.58363 317
63.60375 344
63.62386 308
63.64398 343
63.66409 354
63.6842 312
63.70432 363
63.72443 390
63.74454 343
63.76466 336
63.78477 379
63.80489 380
63.825 347
63.84511 374
63.86523 412
63.88534 372
63.90545 398
63.92557 413
63.94568 408
63.96579 436
63.98591 407
64.00602 407
64.02614 362
64.04625 361
64.06636 406
64.08648 338
64.10659 342
64.1267 357
64.14682 342
64.16693 343
64.18705 320
64.20716 327
64.22727 307
64.24739 340
64.2675 351
64.28761 339
64.30773 314
64.32784 317
64.34796 303
64.36807 317
64.38818 293
64.4083 270
64.42841 292
64.44852 304
64.46864 281
64.48875 305
64.50886 322
64.52898 310
64.54909 328
64.56921 286
64.58932 282
64.60943 288
64.62955 304
64.64966 264
64.66977 316
64.68989 292
64.71 279
64.73012 293
64.75023 285
64.77034 295
64.79046 283
64.81057 302
64.83068 299
64.8508 309
64.87091 304
64.89102 313
64.91114 271
64.93125 287
64.95137 305
64.97148 296
64.99159 304
65.01171 296
65.03182 298
65.05193 288
65.07205 324
65.09216 288
65.11228 300
65.13239 315
65.1525 303
65.17262 290
65.19273 300
65.21284 305
65.23296 295
65.25307 289
65.27319 276
65.2933 275
65.31341 264
65.33353 307
65.35364 290
65.37375 314
65.39387 301
65.41398 305
65.43409 306
65.45421 292
65.47432 302
65.49444 310
65.51455 321
65.53466 308
65.55478 311
65.57489 280
65.595 297
65.61512 295
65.63523 303
65.65535 286
65.67546 311
65.69557 317
65.71569 294
65.7358 286
65.75591 327
65.77603 283
65.79614 286
65.81626 332
65.83637 287
65.85648 335
65.8766 290
65.89671 313
65.91682 302
65.93694 306
65.95705 290
65.97716 292
65.99728 317
66.01739 321
66.03751 268
66.05762 303
66.07773 296
66.09785 304
66.11796 306
66.13807 294
66.15819 294
66.1783 287
66.19842 292
66.21853 290
66.23864 302
66.25876 306
66.27887 305
66.29898 281
66.3191 299
66.33921 283
66.35933 275
66.37944 275
66.39955 287
66.41967 276
66.43978 298
66.45989 298
66.48001 270
66.50012 315
66.52023 283
66.54035 286
66.56046 301
66.58058 283
66.60069 310
66.6208 274
66.64092 283
66.66103 294
66.68114 295
66.70126 317
66.72137 263
66.74149 270
66.7616 274
66.78171 294
66.80183 267
66.82194 296
66.84205 326
66.86217 307
66.88228 292
66.90239 253
66.92251 313
66.94262 287
66.96274 294
66.98285 292
67.00296 309
67.02308 301
67.04319 321
67.0633 298
67.08342 294
67.10353 307
67.12365 312
67.14376 284
67.16387 302
67.18399 285
67.2041 307
67.22421 312
67.24433 297
67.26444 346
67.28456 314
67.30467 311
67.32478 332
67.3449 346
67.36501 340
67.38512 354
67.40524 334
67.42535 319
67.44546 371
67.46558 391
67.48569 409
67.50581 403
67.52592 413
67.54603 446
67.56615 511
67.58626 521
67.60637 557
67.62649 620
67.6466 597
67.66672 617
67.68683 566
67.70694 587
67.72706 551
67.74717 536
67.76728 469
67.7874 548
67.80751 516
67.82763 480
67.84774 557
67.86785 558
67.88797 522
67.90808 534
67.92819 585
67.94831 585
67.96842 560
67.98853 611
68.00865 667
68.02876 687
68.04888 725
68.06899 736
68.0891 735
68.10922 724
68.12933 713
68.14944 646
68.16956 659
68.18967 697
68.20979 696
68.2299 681
68.25001 669
68.27013 648
68.29024 599
68.31035 522
68.33047 505
68.35058 498
68.3707 461
68.39081 475
68.41092 421
68.43104 419
68.45115 410
68.47126 353
68.49138 372
68.51149 331
68.5316 347
68.55172 312
68.57183 324
68.59195 322
68.61206 324
68.63217 307
68.65229 298
68.6724 337
68.69251 323
68.71263 334
68.73274 265
68.75286 313
68.77297 332
68.79308 343
68.8132 291
68.83331 299
68.85342 323
68.87354 305
68.89365 306
68.91376 293
68.93388 314
68.95399 308
68.97411 302
68.99422 323
69.01433 332
69.03445 302
69.05456 283
69.07467 295
69.09479 314
69.1149 302
69.13502 274
69.15513 291
69.17524 326
69.19536 299
69.21547 300
69.23558 310
69.2557 281
69.27581 280
69.29593 298
69.31604 289
69.33615 283
69.35627 325
69.37638 284
69.39649 300
69.41661 290
69.43672 315
69.45683 283
69.47695 305
69.49706 285
69.51718 305
69.53729 285
69.5574 311
69.57752 312
69.59763 303
69.61774 310
69.63786 290
69.65797 322
69.67809 297
69.6982 306
69.71831 298
69.73843 291
69.75854 297
69.77865 289
69.79877 298
69.81888 335
69.839 278
69.85911 310
69.87922 285
69.89934 291
69.91945 309
69.93956 278
69.95968 265
69.97979 287
69.9999 302
70.02002 274
70.04013 316
70.06025 289
70.08036 304
70.10047 276
70.12059 305
70.1407 280
70.16081 289
70.18093 290
70.20104 285
70.22116 313
70.24127 307
70.26138 303
70.2815 287
70.30161 296
70.32172 308
70.34184 278
70.36195 312
70.38207 296
70.40218 290
70.42229 271
70.44241 296
70.46252 287
70.48263 290
70.50275 301
70.52286 296
70.54297 265
70.56309 292
70.5832 288
70.60332 264
70.62343 269
70.64354 304
70.66366 308
70.68377 264
70.70388 298
70.724 276
70.74411 316
70.76423 262
70.78434 310
70.80445 271
70.82457 298
70.84468 295
70.86479 272
70.88491 238
70.90502 269
70.92513 278
70.94525 273
70.96536 314
70.98548 268
71.00559 289
71.0257 251
71.04582 282
71.06593 279
71.08604 285
71.10616 282
71.12627 290
71.14639 298
71.1665 304
71.18661 301
71.20673 286
71.22684 269
71.24695 276
71.26707 285
71.28718 298
71.3073 286
71.32741 271
71.34752 307
71.36764 297
71.38775 310
71.40786 270
71.42798 311
71.44809 299
71.4682 270
71.48832 277
71.50843 277
71.52855 296
71.54866 302
71.56877 278
71.58889 302
71.609 285
71.62911 264
71.64923 301
71.66934 305
71.68946 283
71.70957 291
71.72968 278
71.7498 268
71.76991 281
71.79002 294
71.81014 313
71.83025 290
71.85037 291
71.87048 270
71.89059 273
71.91071 278
71.93082 283
71.95093 291
71.97105 275
71.99116 281
72.01127 301
72.03139 278
72.0515 287
72.07162 283
72.09173 285
72.11184 284
72.13196 283
72.15207 303
72.17218 309
72.1923 284
72.21241 312
72.23253 309
72.25264 305
72.27275 295
72.29287 320
72.31298 271
72.33309 309
72.35321 312
72.37332 321
72.39344 296
72.41355 331
72.43366 319
72.45378 279
72.47389 272
72.494 331
72.51412 340
72.53423 304
72.55434 301
72.57446 312
72.59457 329
72.61469 316
72.6348 328
72.65491 289
72.67503 319
72.69514 345
72.71525 323
72.73537 337
72.75548 336
72.7756 338
72.79571 328
72.81582 314
72.83594 327
72.85605 315
72.87616 322
72.89628 307
72.91639 336
72.9365 340
72.95662 330
72.97673 345
72.99685 363
73.01696 357
73.03707 392
73.05719 305
73.0773 360
73.09741 315
73.11753 352
73.13764 332
73.15776 362
73.17787 370
73.19798 341
73.2181 395
73.23821 339
73.25832 394
73.27844 389
73.29855 418
73.31867 417
73.33878 410
73.35889 470
73.37901 429
73.39912 410
73.41923 469
73.43935 391
73.45946 374
73.47957 384
73.49969 370
73.5198 381
73.53992 376
73.56003 366
73.58014 371
73.60026 402
73.62037 432
73.64048 391
73.6606 344
73.68071 334
73.70083 332
73.72094 334
73.74105 300
73.76117 282
73.78128 342
73.80139 325
73.82151 331
73.84162 320
73.86174 320
73.88185 311
73.90196 323
73.92208 332
73.94219 335
73.9623 311
73.98242 323
74.00253 297
74.02264 280
74.04276 306
74.06287 296
74.08299 288
74.1031 321
74.12321 293
74.14333 316
74.16344 321
74.18355 303
74.20367 319
74.22378 320
74.2439 298
74.26401 297
74.28412 314
74.30424 284
74.32435 289
74.34446 289
74.36458 309
74.38469 312
74.40481 295
74.42492 306
74.44503 309
74.46515 296
74.48526 318
74.50537 304
74.52549 275
74.5456 337
74.56571 291
74.58583 311
74.60594 286
74.62606 311
74.64617 302
74.66628 322
74.6864 303
74.70651 310
74.72662 302
74.74674 314
74.76685 305
74.78697 290
74.80708 317
74.82719 293
74.84731 282
74.86742 315
74.88753 256
74.90765 323
74.92776 313
74.94787 295
74.96799 291
74.9881 313
75.00822 302
