3.00117 21274
3.02128 21205
3.0414 19981
3.06151 19681
3.08162 19087
3.10174 18551
3.12185 18210
3.14197 17132
3.16208 17225
3.18219 16352
3.20231 16135
3.22242 15812
3.24253 15088
3.26265 14992
3.28276 14219
3.30288 13835
3.32299 13584
3.3431 12736
3.36322 12737
3.38333 12135
3.40344 11895
3.42356 11497
3.44367 11144
3.46379 10659
3.4839 10250
3.50401 10087
3.52413 9694
3.54424 9233
3.56435 8889
3.58447 8535
3.60458 8316
3.62469 8254
3.64481 7624
3.66492 7712
3.68504 7247
3.70515 7035
3.72526 6852
3.74538 6355
3.76549 6240
3.7856 5878
3.80572 5758
3.82583 5616
3.84595 5014
3.86606 5018
3.88617 4733
3.90629 4702
3.9264 4471
3.94651 4153
3.96663 3998
3.98674 3899
4.00686 3794
4.02697 3835
4.04708 3313
4.0672 3221
4.08731 3103
4.10742 3090
4.12754 2925
4.14765 2585
4.16776 2629
4.18788 2573
4.20799 2523
4.22811 2505
4.24822 2193
4.26833 2202
4.28845 2197
4.30856 2030
4.32867 2132
4.34879 1814
4.3689 1850
4.38902 1825
4.40913 1726
4.42924 1862
4.44936 1655
4.46947 1758
4.48958 1606
4.5097 1618
4.52981 1553
4.54992 1470
4.57004 1549
4.59015 1494
4.61027 1421
4.63038 1476
4.65049 1381
4.67061 1266
4.69072 1380
4.71083 1262
4.73095 1249
4.75106 1133
4.77118 1210
4.79129 1280
4.8114 1147
4.83152 1138
4.85163 1098
4.87174 1076
4.89186 1158
4.91197 1012
4.93209 1015
4.9522 970
4.97231 1015
4.99243 1004
5.01254 915
5.03265 978
5.05277 920
5.07288 884
5.09299 879
5.11311 855
5.13322 911
5.15334 779
5.17345 852
5.19356 796
5.21368 802
5.23379 799
5.2539 787
5.27402 724
5.29413 803
5.31425 748
5.33436 722
5.35447 692
5.37459 689
5.3947 652
5.41481 700
5.43493 645
5.45504 699
5.47516 635
5.49527 702
5.51538 657
5.5355 576
5.55561 631
5.57572 639
5.59584 621
5.61595 589
5.63606 626
5.65618 568
5.67629 586
5.69641 556
5.71652 569
5.73663 563
5.75675 532
5.77686 589
5.79697 587
5.81709 559
5.8372 533
5.85732 517
5.87743 547
5.89754 533
5.91766 559
5.93777 515
5.95788 551
5.978 536
5.99811 517
6.01823 500
6.03834 479
6.05845 477
6.07857 536
6.09868 544
6.11879 507
6.13891 506
6.15902 521
6.17913 484
6.19925 441
6.21936 546
6.23948 513
6.25959 495
6.2797 490
6.29982 452
6.31993 456
6.34004 512
6.36016 472
6.38027 498
6.40039 500
6.4205 472
6.44061 490
6.46073 479
6.48084 482
6.50095 428
6.52107 497
6.54118 468
6.56129 438
6.58141 442
6.60152 456
6.62164 441
6.64175 433
6.66186 489
6.68198 458
6.70209 480
6.7222 464
6.74232 491
6.76243 438
6.78255 430
6.80266 457
6.82277 458
6.84289 437
6.863 465
6.88311 472
6.90323 478
6.92334 407
6.94346 428
6.96357 460
6.98368 463
7.0038 451
7.02391 414
7.04402 440
7.06414 413
7.08425 450
7.10436 468
7.12448 420
7.14459 399
7.16471 429
7.18482 412
7.20493 411
7.22505 398
7.24516 400
7.26527 459
7.28539 455
7.3055 471
7.32562 463
7.34573 433
7.36584 440
7.38596 439
7.40607 424
7.42618 432
7.4463 414
7.46641 459
7.48653 416
7.50664 415
7.52675 379
7.54687 398
7.56698 461
7.58709 408
7.60721 443
7.62732 408
7.64743 404
7.66755 413
7.68766 382
7.70778 440
7.72789 421
7.748 443
7.76812 394
7.78823 396
7.80834 388
7.82846 419
7.84857 456
7.86869 441
7.8888 423
7.90891 405
7.92903 447
7.94914 428
7.96925 405
7.98937 397
8.00948 436
8.0296 410
8.04971 432
8.06982 394
8.08994 379
8.11005 449
8.13016 454
8.15028 443
8.17039 454
8.1905 457
8.21062 450
8.23073 391
8.25085 446
8.27096 439
8.29107 393
8.31119 418
8.3313 432
8.35141 399
8.37153 447
8.39164 430
8.41176 386
8.43187 392
8.45198 432
8.4721 417
8.49221 406
8.51232 382
8.53244 432
8.55255 401
8.57266 422
8.59278 378
8.61289 383
8.63301 388
8.65312 431
8.67323 442
8.69335 423
8.71346 405
8.73357 422
8.75369 424
8.7738 415
8.79392 406
8.81403 423
8.83414 422
8.85426 395
8.87437 417
8.89448 432
8.9146 433
8.93471 432
8.95483 420
8.97494 411
8.99505 406
9.01517 409
9.03528 465
9.05539 405
9.07551 382
9.09562 409
9.11573 422
9.13585 400
9.15596 451
9.17608 406
9.19619 414
9.2163 406
9.23642 424
9.25653 432
9.27664 444
9.29676 421
9.31687 407
9.33699 424
9.3571 401
9.37721 428
9.39733 474
9.41744 451
9.43755 398
9.45767 418
9.47778 442
9.4979 446
9.51801 408
9.53812 457
9.55824 434
9.57835 441
9.59846 427
9.61858 432
9.63869 446
9.6588 420
9.67892 435
9.69903 413
9.71915 452
9.73926 417
9.75937 437
9.77949 390
9.7996 386
9.81971 404
9.83983 440
9.85994 414
9.88006 412
9.90017 437
9.92028 401
9.9404 472
9.96051 444
9.98062 423
10.00074 417
10.02085 427
10.04097 407
10.06108 441
10.08119 381
10.10131 396
10.12142 382
10.14153 436
10.16165 382
10.18176 433
10.20187 418
10.22199 413
10.2421 406
10.26222 411
10.28233 431
10.30244 422
10.32256 446
10.34267 436
10.36278 442
10.3829 447
10.40301 407
10.42313 461
10.44324 385
10.46335 400
10.48347 414
10.50358 426
10.52369 458
10.54381 415
10.56392 461
10.58403 428
10.60415 417
10.62426 432
10.64438 425
10.66449 422
10.6846 442
10.70472 414
10.72483 396
10.74494 416
10.76506 420
10.78517 456
10.80529 438
10.8254 488
10.84551 433
10.86563 456
10.88574 424
10.90585 425
10.92597 389
10.94608 408
10.9662 450
10.98631 411
11.00642 402
11.02654 400
11.04665 432
11.06676 448
11.08688 427
11.10699 427
11.1271 401
11.14722 397
11.16733 446
11.18745 474
11.20756 467
11.22767 386
11.24779 386
11.2679 451
11.28801 471
11.30813 420
11.32824 457
11.34836 485
11.36847 453
11.38858 442
11.4087 456
11.42881 451
11.44892 450
11.46904 450
11.48915 458
11.50927 467
11.52938 436
11.54949 443
11.56961 462
11.58972 513
11.60983 487
11.62995 449
11.65006 486
11.67017 467
11.69029 523
11.7104 482
11.73052 531
11.75063 507
11.77074 505
11.79086 534
11.81097 505
11.83108 529
11.8512 570
11.87131 526
11.89143 551
11.91154 622
11.93165 582
11.95177 588
11.97188 548
11.99199 569
12.01211 585
12.03222 658
12.05234 668
12.07245 666
12.09256 722
12.11268 677
12.13279 747
12.1529 848
12.17302 847
12.19313 833
12.21324 930
12.23336 937
12.25347 1098
12.27359 1001
12.2937 1158
12.31381 1131
12.33393 1151
12.35404 1087
12.37415 1028
12.39427 1018
12.41438 965
12.4345 865
12.45461 838
12.47472 715
12.49484 727
12.51495 708
12.53506 640
12.55518 658
12.57529 569
12.5954 535
12.61552 489
12.63563 584
12.65575 545
12.67586 496
12.69597 477
12.71609 467
12.7362 456
12.75631 472
12.77643 477
12.79654 472
12.81666 481
12.83677 438
12.85688 417
12.877 438
12.89711 478
12.91722 456
12.93734 444
12.95745 408
12.97757 427
12.99768 452
13.01779 412
13.03791 431
13.05802 382
13.07813 419
13.09825 397
13.11836 406
13.13847 408
13.15859 428
13.1787 405
13.19882 429
13.21893 398
13.23904 432
13.25916 398
13.27927 401
13.29938 376
13.3195 375
13.33961 406
13.35973 426
13.37984 404
13.39995 406
13.42007 402
13.44018 420
13.46029 385
13.48041 387
13.50052 422
13.52064 412
13.54075 404
13.56086 398
13.58098 368
13.60109 398
13.6212 393
13.64132 410
13.66143 403
13.68154 347
13.70166 385
13.72177 387
13.74189 403
13.762 367
13.78211 416
13.80223 405
13.82234 388
13.84245 411
13.86257 388
13.88268 410
13.9028 374
13.92291 401
13.94302 420
13.96314 368
13.98325 369
14.00336 388
14.02348 417
14.04359 361
14.06371 386
14.08382 411
14.10393 418
14.12405 402
14.14416 393
14.16427 374
14.18439 390
14.2045 398
14.22461 385
14.24473 396
14.26484 393
14.28496 438
14.30507 404
14.32518 397
14.3453 358
14.36541 354
14.38552 380
14.40564 373
14.42575 408
14.44587 360
14.46598 349
14.48609 391
14.50621 394
14.52632 406
14.54643 385
14.56655 386
14.58666 380
14.60677 384
14.62689 396
14.647 376
14.66712 399
14.68723 385
14.70734 418
14.72746 444
14.74757 385
14.76768 367
14.7878 394
14.80791 367
14.82803 397
14.84814 405
14.86825 379
14.88837 399
14.90848 362
14.92859 365
14.94871 361
14.96882 368
14.98894 381
15.00905 331
15.02916 358
15.04928 348
15.06939 380
15.0895 357
15.10962 351
15.12973 378
15.14984 380
15.16996 388
15.19007 421
15.21019 377
15.2303 362
15.25041 381
15.27053 366
15.29064 380
15.31075 386
15.33087 373
15.35098 399
15.3711 358
15.39121 388
15.41132 370
15.43144 380
15.45155 350
15.47166 353
15.49178 414
15.51189 359
15.53201 374
15.55212 377
15.57223 360
15.59235 391
15.61246 378
15.63257 337
15.65269 344
15.6728 377
15.69291 401
15.71303 402
15.73314 344
15.75326 397
15.77337 360
15.79348 347
15.8136 396
15.83371 396
15.85382 374
15.87394 354
15.89405 373
15.91417 318
15.93428 374
15.95439 394
15.97451 368
15.99462 385
16.01473 372
16.03485 368
16.05496 369
16.07508 384
16.09519 386
16.1153 349
16.13542 388
16.15553 319
16.17564 380
16.19576 390
16.21587 378
16.23598 374
16.2561 373
16.27621 404
16.29633 351
16.31644 354
16.33655 351
16.35667 358
16.37678 365
16.39689 364
16.41701 388
16.43712 367
16.45724 394
16.47735 419
16.49746 378
16.51758 357
16.53769 370
16.5578 351
16.57792 378
16.59803 373
16.61814 351
16.63826 346
16.65837 377
16.67849 420
16.6986 361
16.71871 395
16.73883 350
16.75894 354
16.77905 338
16.79917 371
16.81928 393
16.8394 355
16.85951 378
16.87962 390
16.89974 391
16.91985 369
16.93996 384
16.96008 414
16.98019 373
17.00031 374
17.02042 386
17.04053 374
17.06065 396
17.08076 387
17.10087 374
17.12099 363
17.1411 371
17.16121 364
17.18133 383
17.20144 335
17.22156 398
17.24167 367
17.26178 375
17.2819 328
17.30201 367
17.32212 371
17.34224 413
17.36235 367
17.38247 372
17.40258 405
17.42269 391
17.44281 390
17.46292 365
17.48303 362
17.50315 371
17.52326 380
17.54338 387
17.56349 391
17.5836 397
17.60372 399
17.62383 338
17.64394 430
17.66406 407
17.68417 379
17.70428 415
17.7244 413
17.74451 399
17.76463 394
17.78474 394
17.80485 416
17.82497 402
17.84508 399
17.86519 389
17.88531 408
17.90542 388
17.92554 423
17.94565 405
17.96576 436
17.98588 426
18.00599 404
18.0261 442
18.04622 448
18.06633 426
18.08645 383
18.10656 390
18.12667 374
18.14679 432
18.1669 376
18.18701 378
18.20713 351
18.22724 381
18.24735 369
18.26747 392
18.28758 415
18.3077 399
18.32781 393
18.34792 396
18.36804 407
18.38815 372
18.40826 407
18.42838 411
18.44849 425
18.46861 387
18.48872 360
18.50883 396
18.52895 386
18.54906 405
18.56917 378
18.58929 373
18.6094 391
18.62951 401
18.64963 426
18.66974 396
18.68986 368
18.70997 377
18.73008 368
18.7502 376
18.77031 400
18.79042 386
18.81054 402
18.83065 416
18.85077 374
18.87088 392
18.89099 422
18.91111 414
18.93122 408
18.95133 414
18.97145 434
18.99156 357
19.01168 378
19.03179 396
19.0519 365
19.07202 429
19.09213 393
19.11224 403
19.13236 411
19.15247 371
19.17258 375
19.1927 385
19.21281 403
19.23293 350
19.25304 387
19.27315 376
19.29327 406
19.31338 423
19.33349 431
19.35361 389
19.37372 443
19.39384 459
19.41395 392
19.43406 412
19.45418 408
19.47429 434
19.4944 439
19.51452 425
19.53463 432
19.55475 434
19.57486 468
19.59497 474
19.61509 533
19.6352 517
19.65531 524
19.67543 566
19.69554 602
19.71565 584
19.73577 662
19.75588 701
19.776 696
19.79611 823
19.81622 795
19.83634 827
19.85645 865
19.87656 787
19.89668 877
19.91679 809
19.93691 850
19.95702 851
19.97713 834
19.99725 741
20.01736 767
20.03747 794
20.05759 741
20.0777 780
20.09782 777
20.11793 796
20.13804 791
20.15816 727
20.17827 811
20.19838 782
20.2185 787
20.23861 816
20.25872 749
20.27884 780
20.29895 821
20.31907 801
20.33918 823
20.35929 805
20.37941 808
20.39952 839
20.41963 815
20.43975 843
20.45986 799
20.47998 730
20.50009 828
20.5202 816
20.54032 849
20.56043 897
20.58054 891
20.60066 924
20.62077 949
20.64088 1087
20.661 1117
20.68111 1223
20.70123 1523
20.72134 1834
20.74145 2185
20.76157 2566
20.78168 2922
20.80179 3270
20.82191 3304
20.84202 3209
20.86214 2835
20.88225 2421
20.90236 1860
20.92248 1524
20.94259 1234
20.9627 1062
20.98282 882
21.00293 870
21.02305 885
21.04316 866
21.06327 824
21.08339 856
21.1035 882
21.12361 910
21.14373 879
21.16384 850
21.18395 855
21.20407 847
21.22418 867
21.2443 859
21.26441 926
21.28452 918
21.30464 885
21.32475 943
21.34486 924
21.36498 870
21.38509 920
21.40521 905
21.42532 822
21.44543 882
21.46555 840
21.48566 814
21.50577 792
21.52589 808
21.546 760
21.56612 791
21.58623 718
21.60634 753
21.62646 707
21.64657 725
21.66668 691
21.6868 692
21.70691 614
21.72702 655
21.74714 649
21.76725 654
21.78737 637
21.80748 632
21.82759 636
21.84771 649
21.86782 650
21.88793 635
21.90805 602
21.92816 585
21.94828 591
21.96839 665
21.9885 562
22.00862 577
22.02873 562
22.04884 551
22.06896 514
22.08907 638
22.10919 603
22.1293 539
22.14941 564
22.16953 553
22.18964 556
22.20975 564
22.22987 570
22.24998 583
22.27009 594
22.29021 566
22.31032 569
22.33044 562
22.35055 531
22.37066 569
22.39078 555
22.41089 525
22.431 527
22.45112 558
22.47123 546
22.49135 537
22.51146 585
22.53157 543
22.55169 555
22.5718 545
22.59191 550
22.61203 526
22.63214 531
22.65225 544
22.67237 494
22.69248 555
22.7126 548
22.73271 506
22.75282 497
22.77294 511
22.79305 521
22.81316 493
22.83328 508
22.85339 508
22.87351 482
22.89362 534
22.91373 481
22.93385 534
22.95396 485
22.97407 531
22.99419 497
23.0143 476
23.03442 524
23.05453 513
23.07464 503
23.09476 487
23.11487 479
23.13498 523
23.1551 548
23.17521 541
23.19532 548
23.21544 514
23.23555 497
23.25567 481
23.27578 474
23.29589 472
23.31601 504
23.33612 503
23.35623 516
23.37635 511
23.39646 493
23.41658 502
23.43669 492
23.4568 476
23.47692 540
23.49703 493
23.51714 480
23.53726 524
23.55737 500
23.57749 478
23.5976 479
23.61771 508
23.63783 511
23.65794 497
23.67805 521
23.69817 516
23.71828 547
23.73839 528
23.75851 503
23.77862 505
23.79874 514
23.81885 511
23.83896 495
23.85908 514
23.87919 569
23.8993 543
23.91942 566
23.93953 556
23.95965 535
23.97976 576
23.99987 552
24.01999 565
24.0401 531
24.06021 604
24.08033 528
24.10044 542
24.12056 591
24.14067 527
24.16078 585
24.1809 551
24.20101 595
24.22112 547
24.24124 555
24.26135 575
24.28146 506
24.30158 551
24.32169 554
24.34181 544
24.36192 544
24.38203 576
24.40215 550
24.42226 596
24.44237 607
24.46249 617
24.4826 580
24.50272 616
24.52283 541
24.54294 632
24.56306 640
24.58317 635
24.60328 674
24.6234 725
24.64351 732
24.66362 756
24.68374 764
24.70385 842
24.72397 918
24.74408 931
24.76419 970
24.78431 1019
24.80442 984
24.82453 996
24.84465 969
24.86476 1021
24.88488 958
24.90499 885
24.9251 867
24.94522 856
24.96533 777
24.98544 784
25.00556 748
25.02567 738
25.04579 694
25.0659 744
25.08601 671
25.10613 667
25.12624 670
25.14635 652
25.16647 656
25.18658 647
25.20669 660
25.22681 661
25.24692 627
25.26704 643
25.28715 609
25.30726 609
25.32738 626
25.34749 531
25.3676 579
25.38772 568
25.40783 580
25.42795 587
25.44806 548
25.46817 512
25.48829 547
25.5084 523
25.52851 535
25.54863 517
25.56874 528
25.58886 523
25.60897 555
25.62908 551
25.6492 582
25.66931 568
25.68942 608
25.70954 584
25.72965 611
25.74976 568
25.76988 588
25.78999 580
25.81011 607
25.83022 595
25.85033 555
25.87045 601
25.89056 593
25.91067 624
25.93079 618
25.9509 576
25.97102 634
25.99113 607
26.01124 649
26.03136 675
26.05147 645
26.07158 632
26.0917 723
26.11181 718
26.13193 753
26.15204 771
26.17215 769
26.19227 797
26.21238 880
26.23249 895
26.25261 904
26.27272 1041
26.29283 1114
26.31295 1126
26.33306 1326
26.35318 1390
26.37329 1661
26.3934 1849
26.41352 2352
26.43363 2961
26.45374 3744
26.47386 4674
26.49397 6036
26.51409 7549
26.5342 9501
26.55431 11275
26.57443 12673
26.59454 12977
26.61465 12425
26.63477 10914
26.65488 8849
26.67499 6945
26.69511 5111
26.71522 3531
26.73534 2487
26.75545 1754
26.77556 1441
26.79568 1225
26.81579 1149
26.8359 966
26.85602 952
26.87613 891
26.89625 846
26.91636 798
26.93647 749
26.95659 720
26.9767 683
26.99681 716
27.01693 651
27.03704 632
27.05716 622
27.07727 586
27.09738 556
27.1175 586
27.13761 587
27.15772 561
27.17784 615
27.19795 571
27.21806 552
27.23818 537
27.25829 549
27.27841 518
27.29852 537
27.31863 529
27.33875 493
27.35886 479
27.37897 521
27.39909 535
27.4192 508
27.43932 503
27.45943 546
27.47954 546
27.49966 475
27.51977 442
27.53988 493
27.56 471
27.58011 521
27.60023 476
27.62034 484
27.64045 479
27.66057 494
27.68068 513
27.70079 510
27.72091 488
27.74102 477
27.76113 453
27.78125 486
27.80136 493
27.82148 471
27.84159 454
27.8617 436
27.88182 483
27.90193 493
27.92204 458
27.94216 447
27.96227 459
27.98239 447
28.0025 417
28.02261 448
28.04273 472
28.06284 471
28.08295 418
28.10307 457
28.12318 455
28.1433 409
28.16341 463
28.18352 441
28.20364 449
28.22375 461
28.24386 444
28.26398 430
28.28409 450
28.3042 435
28.32432 449
28.34443 431
28.36455 407
28.38466 438
28.40477 443
28.42489 422
28.445 424
28.46511 428
28.48523 475
28.50534 420
28.52546 447
28.54557 444
28.56568 434
28.5858 451
28.60591 421
28.62602 434
28.64614 427
28.66625 445
28.68636 442
28.70648 430
28.72659 460
28.74671 481
28.76682 485
28.78693 430
28.80705 414
28.82716 455
28.84727 472
28.86739 431
28.8875 466
28.90762 422
28.92773 427
28.94784 455
28.96796 450
28.98807 378
29.00818 460
29.0283 405
29.04841 442
29.06853 458
29.08864 444
29.10875 433
29.12887 438
29.14898 439
29.16909 415
29.18921 457
29.20932 418
29.22943 433
29.24955 425
29.26966 409
29.28978 414
29.30989 374
29.33 433
29.35012 400
29.37023 457
29.39034 403
29.41046 395
29.43057 443
29.45069 421
29.4708 424
29.49091 424
29.51103 428
29.53114 406
29.55125 431
29.57137 406
29.59148 436
29.6116 419
29.63171 388
29.65182 447
29.67194 408
29.69205 410
29.71216 454
29.73228 407
29.75239 462
29.7725 386
29.79262 419
29.81273 413
29.83285 407
29.85296 392
29.87307 448
29.89319 439
29.9133 407
29.93341 390
29.95353 398
29.97364 431
29.99376 407
30.01387 445
30.03398 417
30.0541 411
30.07421 396
30.09432 430
30.11444 426
30.13455 396
30.15467 442
30.17478 423
30.19489 415
30.21501 415
30.23512 396
30.25523 425
30.27535 410
30.29546 403
30.31557 397
30.33569 430
30.3558 405
30.37592 385
30.39603 402
30.41614 411
30.43626 417
30.45637 444
30.47648 407
30.4966 396
30.51671 366
30.53683 422
30.55694 405
30.57705 393
30.59717 444
30.61728 414
30.63739 397
30.65751 418
30.67762 410
30.69773 394
30.71785 433
30.73796 425
30.75808 403
30.77819 402
30.7983 433
30.81842 412
30.83853 398
30.85864 415
30.87876 410
30.89887 402
30.91899 415
30.9391 432
30.95921 411
30.97933 384
30.99944 411
31.01955 397
31.03967 419
31.05978 421
31.0799 432
31.10001 397
31.12012 421
31.14024 426
31.16035 440
31.18046 399
31.20058 374
31.22069 377
31.2408 444
31.26092 413
31.28103 410
31.30115 403
31.32126 414
31.34137 397
31.36149 423
31.3816 393
31.40171 406
31.42183 417
31.44194 415
31.46206 445
31.48217 394
31.50228 404
31.5224 406
31.54251 399
31.56262 403
31.58274 428
31.60285 423
31.62297 425
31.64308 425
31.66319 414
31.68331 371
31.70342 405
31.72353 400
31.74365 382
31.76376 398
31.78387 424
31.80399 418
31.8241 414
31.84422 389
31.86433 410
31.88444 383
31.90456 381
31.92467 421
31.94478 409
31.9649 400
31.98501 418
32.00513 435
32.02524 437
32.04535 397
32.06547 418
32.08558 384
32.10569 373
32.12581 401
32.14592 393
32.16604 388
32.18615 413
32.20626 426
32.22638 419
32.24649 421
32.2666 440
32.28672 390
32.30683 411
32.32694 408
32.34706 420
32.36717 415
32.38729 434
32.4074 432
32.42751 413
32.44763 411
32.46774 434
32.48785 425
32.50797 435
32.52808 413
32.5482 451
32.56831 433
32.58842 413
32.60854 423
32.62865 445
32.64876 452
32.66888 445
32.68899 451
32.7091 440
32.72922 478
32.74933 464
32.76945 436
32.78956 468
32.80967 491
32.82979 432
32.8499 456
32.87001 466
32.89013 446
32.91024 436
32.93036 548
32.95047 476
32.97058 521
32.9907 542
33.01081 591
33.03092 561
33.05104 544
33.07115 543
33.09127 551
33.11138 570
33.13149 562
33.15161 556
33.17172 551
33.19183 596
33.21195 617
33.23206 516
33.25217 536
33.27229 536
33.2924 539
33.31252 512
33.33263 543
33.35274 486
33.37286 481
33.39297 538
33.41308 519
33.4332 515
33.45331 524
33.47343 520
33.49354 498
33.51365 482
33.53377 517
33.55388 551
33.57399 483
33.59411 482
33.61422 483
33.63434 451
33.65445 494
33.67456 503
33.69468 443
33.71479 471
33.7349 403
33.75502 505
33.77513 461
33.79524 427
33.81536 448
33.83547 465
33.85559 487
33.8757 428
33.89581 434
33.91593 403
33.93604 427
33.95615 422
33.97627 435
33.99638 455
34.0165 447
34.03661 427
34.05672 433
34.07684 426
34.09695 415
34.11706 443
34.13718 475
34.15729 440
34.17741 441
34.19752 415
34.21763 415
34.23775 471
34.25786 424
34.27797 415
34.29809 441
34.3182 453
34.33831 413
34.35843 424
34.37854 448
34.39866 457
34.41877 419
34.43888 439
34.459 425
34.47911 452
34.49922 445
34.51934 435
34.53945 459
34.55957 520
34.57968 462
34.59979 488
34.61991 501
34.64002 482
34.66013 484
34.68025 506
34.70036 518
34.72047 521
34.74059 516
34.7607 604
34.78082 573
34.80093 540
34.82104 610
34.84116 614
34.86127 642
34.88138 643
34.9015 687
34.92161 676
34.94173 661
34.96184 678
34.98195 696
35.00207 642
35.02218 667
35.04229 604
35.06241 606
35.08252 558
35.10264 585
35.12275 583
35.14286 603
35.16298 595
35.18309 570
35.2032 567
35.22332 588
35.24343 600
35.26354 588
35.28366 595
35.30377 593
35.32389 629
35.344 634
35.36411 631
35.38423 635
35.40434 614
35.42445 645
35.44457 663
35.46468 655
35.4848 652
35.50491 632
35.52502 652
35.54514 676
35.56525 664
35.58536 714
35.60548 703
35.62559 699
35.64571 731
35.66582 696
35.68593 708
35.70605 749
35.72616 726
35.74627 699
35.76639 713
35.7865 697
35.80661 706
35.82673 720
35.84684 701
35.86696 698
35.88707 703
35.90718 689
35.9273 707
35.94741 675
35.96752 722
35.98764 651
36.00775 674
36.02787 652
36.04798 617
36.06809 613
36.08821 595
36.10832 549
36.12843 578
36.14855 564
36.16866 606
36.18878 584
36.20889 569
36.229 596
36.24912 605
36.26923 613
36.28934 622
36.30946 721
36.32957 715
36.34968 780
36.3698 780
36.38991 910
36.41003 1009
36.43014 1148
36.45025 1296
36.47037 1222
36.49048 1356
36.51059 1235
36.53071 1217
36.55082 1058
36.57094 1048
36.59105 915
36.61116 871
36.63128 754
36.65139 750
36.6715 646
36.69162 583
36.71173 612
36.73184 576
36.75196 575
36.77207 600
36.79219 549
36.8123 612
36.83241 551
36.85253 586
36.87264 637
36.89275 566
36.91287 588
36.93298 580
36.9531 623
36.97321 599
36.99332 619
37.01344 647
37.03355 575
37.05366 568
37.07378 557
37.09389 618
37.11401 607
37.13412 599
37.15423 559
37.17435 583
37.19446 590
37.21457 527
37.23469 549
37.2548 564
37.27491 550
37.29503 515
37.31514 565
37.33526 544
37.35537 515
37.37548 551
37.3956 518
37.41571 547
37.43582 540
37.45594 551
37.47605 516
37.49617 559
37.51628 524
37.53639 525
37.55651 502
37.57662 542
37.59673 526
37.61685 557
37.63696 512
37.65708 531
37.67719 517
37.6973 525
37.71742 521
37.73753 513
37.75764 511
37.77776 541
37.79787 558
37.81798 561
37.8381 485
37.85821 490
37.87833 548
37.89844 498
37.91855 535
37.93867 560
37.95878 505
37.97889 531
37.99901 529
38.01912 512
38.03924 586
38.05935 542
38.07946 598
38.09958 557
38.11969 592
38.1398 600
38.15992 601
38.18003 588
38.20015 645
38.22026 633
38.24037 632
38.26049 681
38.2806 709
38.30071 684
38.32083 697
38.34094 704
38.36105 702
38.38117 696
38.40128 758
38.4214 757
38.44151 717
38.46162 654
38.48174 676
38.50185 667
38.52196 640
38.54208 680
38.56219 585
38.58231 645
38.60242 586
38.62253 562
38.64265 583
38.66276 531
38.68287 563
38.70299 524
38.7231 556
38.74321 510
38.76333 540
38.78344 534
38.80356 607
38.82367 546
38.84378 527
38.8639 537
38.88401 567
38.90412 536
38.92424 567
38.94435 512
38.96447 492
38.98458 565
39.00469 619
39.02481 594
39.04492 549
39.06503 595
39.08515 594
39.10526 605
39.12538 619
39.14549 654
39.1656 631
39.18572 693
39.20583 723
39.22594 706
39.24606 735
39.26617 745
39.28628 858
39.3064 861
39.32651 958
39.34663 1080
39.36674 1072
39.38685 1237
39.40697 1228
39.42708 1222
39.44719 1191
39.46731 1057
39.48742 987
39.50754 857
39.52765 747
39.54776 721
39.56788 612
39.58799 556
39.6081 524
39.62822 506
39.64833 514
39.66845 476
39.68856 484
39.70867 462
39.72879 469
39.7489 487
39.76901 465
39.78913 457
39.80924 466
39.82935 487
39.84947 465
39.86958 417
39.8897 476
39.90981 483
39.92992 480
39.95004 500
39.97015 521
39.99026 485
40.01038 506
40.03049 524
40.05061 512
40.07072 539
40.09083 572
40.11095 623
40.13106 631
40.15117 687
40.17129 705
40.1914 767
40.21152 772
40.23163 828
40.25174 784
40.27186 827
40.29197 730
40.31208 716
40.3322 622
40.35231 652
40.37242 573
40.39254 556
40.41265 555
40.43277 551
40.45288 479
40.47299 497
40.49311 486
40.51322 468
40.53333 440
40.55345 430
40.57356 481
40.59368 492
40.61379 515
40.6339 498
40.65402 494
40.67413 523
40.69424 458
40.71436 449
40.73447 475
40.75458 509
40.7747 481
40.79481 488
40.81493 469
40.83504 504
40.85515 496
40.87527 491
40.89538 522
40.91549 485
40.93561 499
40.95572 477
40.97584 486
40.99595 504
41.01606 518
41.03618 493
41.05629 497
41.0764 496
41.09652 485
41.11663 432
41.13675 456
41.15686 401
41.17697 450
41.19709 425
41.2172 473
41.23731 496
41.25743 479
41.27754 438
41.29765 452
41.31777 463
41.33788 459
41.358 443
41.37811 450
41.39822 423
41.41834 453
41.43845 446
41.45856 421
41.47868 434
41.49879 453
41.51891 427
41.53902 463
41.55913 480
41.57925 480
41.59936 450
41.61947 444
41.63959 458
41.6597 420
41.67982 449
41.69993 428
41.72004 453
41.74016 463
41.76027 454
41.78038 451
41.8005 461
41.82061 407
41.84072 440
41.86084 421
41.88095 412
41.90107 429
41.92118 402
41.94129 423
41.96141 420
41.98152 424
42.00163 389
42.02175 443
42.04186 430
42.06198 439
42.08209 444
42.1022 471
42.12232 473
42.14243 436
42.16254 482
42.18266 484
42.20277 538
42.22289 530
42.243 558
42.26311 613
42.28323 669
42.30334 726
42.32345 777
42.34357 839
42.36368 940
42.38379 919
42.40391 930
42.42402 872
42.44414 841
42.46425 740
42.48436 671
42.50448 610
42.52459 625
42.5447 586
42.56482 493
42.58493 477
42.60505 430
42.62516 425
42.64527 409
42.66539 388
42.6855 436
42.70561 442
42.72573 391
42.74584 440
42.76595 430
42.78607 394
42.80618 399
42.8263 375
42.84641 355
42.86652 409
42.88664 380
42.90675 416
42.92686 401
42.94698 412
42.96709 407
42.98721 405
43.00732 433
43.02743 363
43.04755 389
43.06766 398
43.08777 355
43.10789 354
43.128 388
43.14812 417
43.16823 407
43.18834 381
43.20846 370
43.22857 376
43.24868 363
43.2688 371
43.28891 368
43.30902 359
43.32914 401
43.34925 410
43.36937 407
43.38948 377
43.40959 393
43.42971 345
43.44982 376
43.46993 379
43.49005 402
43.51016 406
43.53028 418
43.55039 366
43.5705 403
43.59062 413
43.61073 406
43.63084 400
43.65096 409
43.67107 380
43.69119 383
43.7113 391
43.73141 372
43.75153 370
43.77164 393
43.79175 403
43.81187 392
43.83198 364
43.85209 392
43.87221 418
43.89232 372
43.91244 386
43.93255 383
43.95266 405
43.97278 401
43.99289 396
44.013 390
44.03312 359
44.05323 368
44.07335 415
44.09346 388
44.11357 408
44.13369 364
44.1538 412
44.17391 396
44.19403 389
44.21414 406
44.23426 342
44.25437 388
44.27448 361
44.2946 395
44.31471 383
44.33482 400
44.35494 430
44.37505 409
44.39516 403
44.41528 372
44.43539 390
44.45551 388
44.47562 418
44.49573 382
44.51585 419
44.53596 398
44.55607 366
44.57619 377
44.5963 324
44.61642 428
44.63653 419
44.65664 398
44.67676 371
44.69687 385
44.71698 391
44.7371 395
44.75721 398
44.77732 418
44.79744 393
44.81755 387
44.83767 396
44.85778 366
44.87789 386
44.89801 409
44.91812 371
44.93823 381
44.95835 366
44.97846 407
44.99858 435
45.01869 420
45.0388 396
45.05892 408
45.07903 410
45.09914 451
45.11926 420
45.13937 400
45.15949 441
45.1796 444
45.19971 470
45.21983 478
45.23994 449
45.26005 457
45.28017 452
45.30028 460
45.32039 443
45.34051 483
45.36062 497
45.38074 476
45.40085 502
45.42096 515
45.44108 498
45.46119 514
45.4813 484
45.50142 534
45.52153 504
45.54165 494
45.56176 546
45.58187 533
45.60199 584
45.6221 598
45.64221 708
45.66233 655
45.68244 715
45.70256 724
45.72267 722
45.74278 780
45.7629 798
45.78301 702
45.80312 629
45.82324 607
45.84335 635
45.86346 553
45.88358 532
45.90369 499
45.92381 464
45.94392 465
45.96403 477
45.98415 464
46.00426 422
46.02437 446
46.04449 434
46.0646 489
46.08472 386
46.10483 426
46.12494 430
46.14506 424
46.16517 390
46.18528 394
46.2054 411
46.22551 419
46.24563 390
46.26574 386
46.28585 431
46.30597 401
46.32608 361
46.34619 410
46.36631 409
46.38642 446
46.40653 389
46.42665 427
46.44676 415
46.46688 418
46.48699 420
46.5071 411
46.52722 424
46.54733 411
46.56744 442
46.58756 427
46.60767 405
46.62779 423
46.6479 408
46.66801 411
46.68813 426
46.70824 414
46.72835 415
46.74847 417
46.76858 410
46.78869 430
46.80881 409
46.82892 403
46.84904 406
46.86915 380
46.88926 422
46.90938 440
46.92949 407
46.9496 400
46.96972 389
46.98983 410
47.00995 407
47.03006 387
47.05017 421
47.07029 428
47.0904 413
47.11051 403
47.13063 438
47.15074 375
47.17086 396
47.19097 407
47.21108 411
47.2312 434
47.25131 358
47.27142 398
47.29154 419
47.31165 424
47.33176 390
47.35188 421
47.37199 384
47.39211 404
47.41222 389
47.43233 469
47.45245 373
47.47256 409
47.49267 389
47.51279 362
47.5329 435
47.55302 426
47.57313 402
47.59324 374
47.61336 408
47.63347 434
47.65358 404
47.6737 418
47.69381 392
47.71393 424
47.73404 418
47.75415 391
47.77427 417
47.79438 421
47.81449 415
47.83461 441
47.85472 404
47.87483 431
47.89495 420
47.91506 422
47.93518 444
47.95529 461
47.9754 419
47.99552 402
48.01563 367
48.03574 449
48.05586 373
48.07597 423
48.09609 409
48.1162 447
48.13631 415
48.15643 386
48.17654 405
48.19665 393
48.21677 402
48.23688 401
48.257 411
48.27711 396
48.29722 364
48.31734 384
48.33745 449
48.35756 426
48.37768 399
48.39779 424
48.4179 395
48.43802 405
48.45813 414
48.47825 354
48.49836 379
48.51847 375
48.53859 410
48.5587 413
48.57881 383
48.59893 394
48.61904 387
48.63916 387
48.65927 383
48.67938 426
48.6995 416
48.71961 416
48.73972 364
48.75984 410
48.77995 423
48.80006 403
48.82018 411
48.84029 415
48.86041 384
48.88052 397
48.90063 443
48.92075 400
48.94086 420
48.96097 406
48.98109 398
49.0012 433
49.02132 424
49.04143 412
49.06154 415
49.08166 402
49.10177 438
49.12188 383
49.142 410
49.16211 416
49.18223 446
49.20234 436
49.22245 430
49.24257 419
49.26268 478
49.28279 459
49.30291 442
49.32302 433
49.34313 477
49.36325 481
49.38336 436
49.40348 475
49.42359 456
49.4437 490
49.46382 452
49.48393 459
49.50404 411
49.52416 456
49.54427 429
49.56439 430
49.5845 473
49.60461 471
49.62473 435
49.64484 525
49.66495 479
49.68507 449
49.70518 509
49.7253 456
49.74541 553
49.76552 474
49.78564 516
49.80575 552
49.82586 546
49.84598 575
49.86609 645
49.8862 691
49.90632 810
49.92643 767
49.94655 968
49.96666 960
49.98677 1172
50.00689 1338
50.027 1424
50.04711 1645
50.06723 1667
50.08734 1587
50.10746 1451
50.12757 1274
50.14768 1164
50.1678 1097
50.18791 1050
50.20802 914
50.22814 885
50.24825 772
50.26837 710
50.28848 606
50.30859 546
50.32871 490
50.34882 465
50.36893 440
50.38905 455
50.40916 443
50.42927 459
50.44939 461
50.4695 421
50.48962 433
50.50973 432
50.52984 449
50.54996 461
50.57007 456
50.59018 471
50.6103 399
50.63041 440
50.65053 403
50.67064 404
50.69075 423
50.71087 399
50.73098 412
50.75109 411
50.77121 401
50.79132 431
50.81143 384
50.83155 424
50.85166 430
50.87178 406
50.89189 403
50.912 403
50.93212 416
50.95223 428
50.97234 446
50.99246 422
51.01257 442
51.03269 421
51.0528 426
51.07291 412
51.09303 388
51.11314 378
51.13325 398
51.15337 401
51.17348 401
51.1936 381
51.21371 368
51.23382 401
51.25394 404
51.27405 371
51.29416 379
51.31428 379
51.33439 422
51.3545 379
51.37462 340
51.39473 404
51.41485 363
51.43496 371
51.45507 364
51.47519 373
51.4953 379
51.51541 372
51.53553 391
51.55564 383
51.57576 364
51.59587 373
51.61598 378
51.6361 395
51.65621 368
51.67632 368
51.69644 359
51.71655 368
51.73667 406
51.75678 365
51.77689 376
51.79701 366
51.81712 345
51.83723 387
51.85735 392
51.87746 425
51.89757 359
51.91769 413
51.9378 387
51.95792 416
51.97803 352
51.99814 403
52.01826 393
52.03837 371
52.05848 353
52.0786 398
52.09871 331
52.11883 365
52.13894 390
52.15905 400
52.17917 393
52.19928 367
52.21939 360
52.23951 384
52.25962 379
52.27974 356
52.29985 383
52.31996 392
52.34008 359
52.36019 362
52.3803 404
52.40042 369
52.42053 378
52.44064 387
52.46076 381
52.48087 365
52.50099 372
52.5211 359
52.54121 368
52.56133 378
52.58144 392
52.60155 415
52.62167 372
52.64178 368
52.6619 356
52.68201 397
52.70212 372
52.72224 359
52.74235 371
52.76246 424
52.78258 350
52.80269 366
52.8228 378
52.84292 390
52.86303 385
52.88315 393
52.90326 374
52.92337 368
52.94349 384
52.9636 409
52.98371 376
53.00383 427
53.02394 401
53.04406 383
53.06417 397
53.08428 391
53.1044 407
53.12451 402
53.14462 448
53.16474 391
53.18485 404
53.20497 421
53.22508 435
53.24519 387
53.26531 410
53.28542 434
53.30553 419
53.32565 453
53.34576 484
53.36587 466
53.38599 450
53.4061 444
53.42622 432
53.44633 458
53.46644 447
53.48656 454
53.50667 452
53.52678 414
53.5469 460
53.56701 475
53.58713 489
53.60724 454
53.62735 444
53.64747 470
53.66758 485
53.68769 461
53.70781 467
53.72792 472
53.74804 502
53.76815 490
53.78826 510
53.80838 515
53.82849 541
53.8486 525
53.86872 492
53.88883 475
53.90894 519
53.92906 533
53.94917 514
53.96929 512
53.9894 523
54.00951 501
54.02963 514
54.04974 535
54.06985 553
54.08997 555
54.11008 528
54.1302 509
54.15031 499
54.17042 548
54.19054 494
54.21065 537
54.23076 523
54.25088 527
54.27099 552
54.29111 510
54.31122 526
54.33133 518
54.35145 537
54.37156 516
54.39167 462
54.41179 470
54.4319 519
54.45201 514
54.47213 548
54.49224 549
54.51236 544
54.53247 565
54.55258 530
54.5727 557
54.59281 517
54.61292 568
54.63304 600
54.65315 593
54.67327 607
54.69338 702
54.71349 738
54.73361 743
54.75372 773
54.77383 868
54.79395 830
54.81406 847
54.83417 813
54.85429 802
54.8744 738
54.89452 737
54.91463 702
54.93474 670
54.95486 701
54.97497 672
54.99508 661
55.0152 558
55.03531 618
55.05543 555
55.07554 587
55.09565 524
55.11577 554
55.13588 601
55.15599 572
55.17611 613
55.19622 631
55.21634 616
55.23645 647
55.25656 645
55.27668 563
55.29679 574
55.3169 615
55.33702 574
55.35713 544
55.37724 576
55.39736 555
55.41747 549
55.43759 562
55.4577 565
55.47781 471
55.49793 499
55.51804 481
55.53815 430
55.55827 466
55.57838 495
55.5985 462
55.61861 457
55.63872 419
55.65884 492
55.67895 417
55.69906 445
55.71918 430
55.73929 432
55.75941 406
55.77952 465
55.79963 444
55.81975 433
55.83986 432
55.85997 410
55.88009 418
55.9002 446
55.92031 434
55.94043 418
55.96054 408
55.98066 425
56.00077 399
56.02088 424
56.041 450
56.06111 417
56.08122 421
56.10134 438
56.12145 435
56.14157 406
56.16168 409
56.18179 454
56.20191 399
56.22202 417
56.24213 396
56.26225 391
56.28236 408
56.30248 407
56.32259 411
56.3427 426
56.36282 421
56.38293 442
56.40304 430
56.42316 437
56.44327 399
56.46338 422
56.4835 454
56.50361 411
56.52373 396
56.54384 412
56.56395 432
56.58407 449
56.60418 430
56.62429 392
56.64441 433
56.66452 450
56.68464 438
56.70475 406
56.72486 396
56.74498 428
56.76509 430
56.7852 399
56.80532 439
56.82543 383
56.84554 442
56.86566 429
56.88577 439
56.90589 439
56.926 403
56.94611 425
56.96623 403
56.98634 423
57.00645 443
57.02657 419
57.04668 384
57.0668 410
57.08691 407
57.10702 420
57.12714 405
57.14725 436
57.16736 398
57.18748 397
57.20759 419
57.22771 417
57.24782 388
57.26793 431
57.28805 391
57.30816 430
57.32827 404
57.34839 373
57.3685 424
57.38861 385
57.40873 421
57.42884 426
57.44896 425
57.46907 401
57.48918 398
57.5093 395
57.52941 414
57.54952 373
57.56964 388
57.58975 423
57.60987 392
57.62998 391
57.65009 459
57.67021 361
57.69032 436
57.71043 420
57.73055 386
57.75066 406
57.77078 399
57.79089 404
57.811 414
57.83112 383
57.85123 374
57.87134 441
57.89146 378
57.91157 370
57.93168 431
57.9518 376
57.97191 381
57.99203 410
58.01214 430
58.03225 410
58.05237 381
58.07248 415
58.09259 382
58.11271 426
58.13282 376
58.15294 373
58.17305 384
58.19316 429
58.21328 381
58.23339 356
58.2535 367
58.27362 367
58.29373 452
58.31385 399
58.33396 405
58.35407 391
58.37419 364
58.3943 383
58.41441 373
58.43453 351
58.45464 394
58.47475 373
58.49487 390
58.51498 351
58.5351 374
58.55521 368
58.57532 370
58.59544 410
58.61555 372
58.63566 364
58.65578 376
58.67589 389
58.69601 369
58.71612 383
58.73623 383
58.75635 412
58.77646 368
58.79657 416
58.81669 395
58.8368 368
58.85691 405
58.87703 380
58.89714 408
58.91726 372
58.93737 417
58.95748 414
58.9776 384
58.99771 410
59.01782 386
59.03794 400
59.05805 405
59.07817 379
59.09828 397
59.11839 417
59.13851 383
59.15862 386
59.17873 383
59.19885 393
59.21896 403
59.23908 427
59.25919 396
59.2793 469
59.29942 400
59.31953 452
59.33964 425
59.35976 402
59.37987 469
59.39998 431
59.4201 429
59.44021 424
59.46033 407
59.48044 438
59.50055 457
59.52067 446
59.54078 509
59.56089 454
59.58101 510
59.60112 511
59.62124 514
59.64135 535
59.66146 582
59.68158 563
59.70169 610
59.7218 634
59.74192 743
59.76203 787
59.78215 872
59.80226 993
59.82237 983
59.84249 1162
59.8626 1180
59.88271 1209
59.90283 1149
59.92294 1100
59.94305 993
59.96317 875
59.98328 840
60.0034 818
60.02351 784
60.04362 782
60.06374 781
60.08385 678
60.10396 673
60.12408 578
60.14419 503
60.16431 484
60.18442 485
60.20453 448
60.22465 419
60.24476 450
60.26487 426
60.28499 417
60.3051 440
60.32522 401
60.34533 409
60.36544 396
60.38556 426
60.40567 402
60.42578 374
60.4459 404
60.46601 371
60.48612 389
60.50624 385
60.52635 403
60.54647 363
60.56658 385
60.58669 369
60.60681 411
60.62692 367
60.64703 363
60.66715 399
60.68726 406
60.70738 361
60.72749 404
60.7476 381
60.76772 412
60.78783 395
60.80794 420
60.82806 366
60.84817 368
60.86828 370
60.8884 375
60.90851 374
60.92863 384
60.94874 388
60.96885 412
60.98897 360
61.00908 372
61.02919 368
61.04931 342
61.06942 389
61.08954 399
61.10965 404
61.12976 407
61.14988 408
61.16999 409
61.1901 387
61.21022 349
61.23033 429
61.25045 397
61.27056 396
61.29067 368
61.31079 408
61.3309 425
61.35101 384
61.37113 350
61.39124 369
61.41135 398
61.43147 389
61.45158 409
61.4717 373
61.49181 383
61.51192 430
61.53204 370
61.55215 436
61.57226 406
61.59238 400
61.61249 384
61.63261 402
61.65272 429
61.67283 414
61.69295 389
61.71306 399
61.73317 372
61.75329 427
61.7734 433
61.79352 427
61.81363 432
61.83374 427
61.85386 443
61.87397 459
61.89408 450
61.9142 468
61.93431 472
61.95442 478
61.97454 476
61.99465 559
62.01477 509
62.03488 491
62.05499 542
62.07511 536
62.09522 583
62.11533 601
62.13545 645
62.15556 593
62.17568 582
62.19579 628
62.2159 591
62.23602 638
62.25613 582
62.27624 566
62.29636 600
62.31647 569
62.33659 583
62.3567 580
62.37681 573
62.39693 578
62.41704 508
62.43715 508
62.45727 526
62.47738 506
62.49749 518
62.51761 512
62.53772 472
62.55784 524
62.57795 463
62.59806 483
62.61818 467
62.63829 425
62.6584 456
62.67852 414
62.69863 407
62.71875 403
62.73886 469
62.75897 428
62.77909 424
62.7992 396
62.81931 394
62.83943 398
62.85954 408
62.87965 406
62.89977 404
62.91988 362
62.94 409
62.96011 395
62.98022 395
63.00034 390
63.02045 390
63.04056 391
63.06068 388
63.08079 376
63.10091 399
63.12102 419
63.14113 400
63.16125 417
63.18136 362
63.20147 392
63.22159 404
63.2417 398
63.26182 387
63.28193 432
63.30204 425
63.32216 414
63.34227 396
63.36238 400
63.3825 415
63.40261 392
63.42272 417
63.44284 358
63.46295 381
63.48307 409
63.50318 421
63.52329 383
63.54341 382
63.56352 425
63.58363 431
63.60375 392
63.62386 403
63.64398 421
63.66409 436
63.6842 421
63.70432 403
63.72443 413
63.74454 446
63.76466 465
63.78477 425
63.80489 493
63.825 490
63.84511 481
63.86523 517
63.88534 503
63.90545 556
63.92557 519
63.94568 598
63.96579 538
63.98591 565
64.00602 514
64.02614 544
64.04625 507
64.06636 522
64.08648 513
64.10659 515
64.1267 495
64.14682 477
64.16693 470
64.18705 465
64.20716 448
64.22727 456
64.24739 404
64.2675 464
64.28761 434
64.30773 443
64.32784 386
64.34796 399
64.36807 422
64.38818 376
64.4083 420
64.42841 403
64.44852 435
64.46864 384
64.48875 384
64.50886 383
64.52898 374
64.54909 385
64.56921 401
64.58932 392
64.60943 356
64.62955 388
64.64966 412
64.66977 393
64.68989 400
64.71 381
64.73012 394
64.75023 371
64.77034 379
64.79046 408
64.81057 411
64.83068 374
64.8508 383
64.87091 371
64.89102 389
64.91114 369
64.93125 366
64.95137 374
64.97148 415
64.99159 378
65.01171 362
65.03182 392
65.05193 348
65.07205 398
65.09216 386
65.11228 361
65.13239 419
65.1525 363
65.17262 377
65.19273 388
65.21284 407
65.23296 400
65.25307 380
65.27319 368
65.2933 382
65.31341 366
65.33353 354
65.35364 373
65.37375 381
65.39387 384
65.41398 365
65.43409 396
65.45421 389
65.47432 366
65.49444 350
65.51455 395
65.53466 401
65.55478 384
65.57489 379
65.595 371
65.61512 367
65.63523 366
65.65535 398
65.67546 405
65.69557 358
65.71569 392
65.7358 403
65.75591 367
65.77603 373
65.79614 356
65.81626 383
65.83637 379
65.85648 362
65.8766 357
65.89671 374
65.91682 379
65.93694 366
65.95705 373
65.97716 376
65.99728 388
66.01739 345
66.03751 345
66.05762 382
66.07773 387
66.09785 375
66.11796 360
66.13807 332
66.15819 334
66.1783 364
66.19842 389
66.21853 360
66.23864 372
66.25876 386
66.27887 361
66.29898 385
66.3191 374
66.33921 367
66.35933 371
66.37944 358
66.39955 323
66.41967 373
66.43978 391
66.45989 378
66.48001 355
66.50012 375
66.52023 368
66.54035 371
66.56046 356
66.58058 357
66.60069 364
66.6208 380
66.64092 350
66.66103 363
66.68114 357
66.70126 397
66.72137 361
66.74149 392
66.7616 378
66.78171 362
66.80183 351
66.82194 334
66.84205 385
66.86217 385
66.88228 356
66.90239 374
66.92251 366
66.94262 401
66.96274 353
66.98285 385
67.00296 405
67.02308 389
67.04319 386
67.0633 394
67.08342 392
67.10353 392
67.12365 396
67.14376 417
67.16387 384
67.18399 389
67.2041 389
67.22421 434
67.24433 419
67.26444 416
67.28456 378
67.30467 379
67.32478 421
67.3449 402
67.36501 404
67.38512 422
67.40524 464
67.42535 477
67.44546 501
67.46558 484
67.48569 484
67.50581 544
67.52592 536
67.54603 595
67.56615 628
67.58626 646
67.60637 721
67.62649 822
67.6466 888
67.66672 859
67.68683 853
67.70694 724
67.72706 725
67.74717 730
67.76728 655
67.7874 631
67.80751 668
67.82763 712
67.84774 737
67.86785 768
67.88797 775
67.90808 729
67.92819 700
67.94831 768
67.96842 775
67.98853 854
68.00865 892
68.02876 1001
68.04888 1021
68.06899 1014
68.0891 1024
68.10922 969
68.12933 948
68.14944 922
68.16956 947
68.18967 884
68.20979 935
68.2299 864
68.25001 941
68.27013 878
68.29024 863
68.31035 776
68.33047 653
68.35058 659
68.3707 560
68.39081 572
68.41092 549
68.43104 524
68.45115 528
68.47126 484
68.49138 476
68.51149 485
68.5316 440
68.55172 418
68.57183 391
68.59195 408
68.61206 383
68.63217 391
68.65229 373
68.6724 425
68.69251 393
68.71263 380
68.73274 405
68.75286 374
68.77297 347
68.79308 365
68.8132 359
68.83331 374
68.85342 388
68.87354 388
68.89365 359
68.91376 401
68.93388 360
68.95399 373
68.97411 380
68.99422 368
69.01433 344
69.03445 401
69.05456 381
69.07467 344
69.09479 375
69.1149 372
69.13502 367
69.15513 368
69.17524 404
69.19536 343
69.21547 394
69.23558 352
69.2557 378
69.27581 354
69.29593 360
69.31604 354
69.33615 360
69.35627 344
69.37638 361
69.39649 368
69.41661 369
69.43672 355
69.45683 375
69.47695 371
69.49706 349
69.51718 379
69.53729 369
69.5574 366
69.57752 397
69.59763 359
69.61774 351
69.63786 392
69.65797 330
69.67809 339
69.6982 376
69.71831 349
69.73843 395
69.75854 367
69.77865 367
69.79877 384
69.81888 333
69.839 378
69.85911 374
69.87922 379
69.89934 341
69.91945 360
69.93956 374
69.95968 348
69.97979 359
69.9999 340
70.02002 351
70.04013 370
70.06025 370
70.08036 372
70.10047 352
70.12059 360
70.1407 356
70.16081 375
70.18093 365
70.20104 351
70.22116 365
70.24127 373
70.26138 350
70.2815 357
70.30161 350
70.32172 347
70.34184 358
70.36195 371
70.38207 357
70.40218 341
70.42229 349
70.44241 337
70.46252 337
70.48263 332
70.50275 328
70.52286 372
70.54297 366
70.56309 346
70.5832 338
70.60332 346
70.62343 335
70.64354 356
70.66366 328
70.68377 329
70.70388 345
70.724 347
70.74411 386
70.76423 382
70.78434 364
70.80445 337
70.82457 333
70.84468 372
70.86479 355
70.88491 348
70.90502 347
70.92513 331
70.94525 345
70.96536 346
70.98548 324
71.00559 370
71.0257 343
71.04582 353
71.06593 340
71.08604 388
71.10616 311
71.12627 372
71.14639 353
71.1665 363
71.18661 340
71.20673 344
71.22684 356
71.24695 354
71.26707 339
71.28718 349
71.3073 364
71.32741 320
71.34752 331
71.36764 336
71.38775 356
71.40786 340
71.42798 349
71.44809 356
71.4682 338
71.48832 346
71.50843 366
71.52855 391
71.54866 358
71.56877 337
71.58889 330
71.609 335
71.62911 322
71.64923 358
71.66934 355
71.68946 357
71.70957 353
71.72968 371
71.7498 382
71.76991 353
71.79002 390
71.81014 387
71.83025 385
71.85037 358
71.87048 351
71.89059 363
71.91071 378
71.93082 386
71.95093 373
71.97105 372
71.99116 375
72.01127 372
72.03139 349
72.0515 387
72.07162 344
72.09173 358
72.11184 380
72.13196 368
72.15207 391
72.17218 355
72.1923 393
72.21241 410
72.23253 389
72.25264 414
72.27275 359
72.29287 363
72.31298 368
72.33309 356
72.35321 335
72.37332 377
72.39344 379
72.41355 340
72.43366 363
72.45378 382
72.47389 357
72.494 358
72.51412 355
72.53423 350
72.55434 328
72.57446 377
72.59457 352
72.61469 361
72.6348 366
72.65491 382
72.67503 360
72.69514 348
72.71525 345
72.73537 380
72.75548 331
72.7756 319
72.79571 358
72.81582 345
72.83594 354
72.85605 371
72.87616 377
72.89628 380
72.91639 367
72.9365 340
72.95662 358
72.97673 354
72.99685 353
73.01696 356
73.03707 361
73.05719 372
73.0773 389
73.09741 351
73.11753 379
73.13764 420
73.15776 376
73.17787 428
73.19798 377
73.2181 433
73.23821 439
73.25832 427
73.27844 442
73.29855 470
73.31867 504
73.33878 465
73.35889 540
73.37901 514
73.39912 527
73.41923 504
73.43935 452
73.45946 449
73.47957 478
73.49969 461
73.5198 449
73.53992 459
73.56003 451
73.58014 448
73.60026 419
73.62037 434
73.64048 387
73.6606 416
73.68071 449
73.70083 400
73.72094 398
73.74105 372
73.76117 362
73.78128 366
73.80139 382
73.82151 335
73.84162 386
73.86174 359
73.88185 373
73.90196 362
73.92208 383
73.94219 351
73.9623 342
73.98242 340
74.00253 339
74.02264 313
74.04276 373
74.06287 364
74.08299 347
74.1031 340
74.12321 323
74.14333 352
74.16344 356
74.18355 370
74.20367 358
74.22378 356
74.2439 320
74.26401 355
74.28412 326
74.30424 365
74.32435 351
74.34446 366
74.36458 329
74.38469 340
74.40481 372
74.42492 364
74.44503 332
74.46515 350
74.48526 349
74.50537 364
74.52549 353
74.5456 349
74.56571 341
74.58583 377
74.60594 327
74.62606 341
74.64617 379
74.66628 354
74.6864 356
74.70651 365
74.72662 367
74.74674 350
74.76685 353
74.78697 314
74.80708 332
74.82719 361
74.84731 365
74.86742 326
74.88753 371
74.90765 363
74.92776 349
74.94787 331
74.96799 338
74.9881 367
75.00822 344
