3.00117 18050
3.02128 17366
3.0414 17011
3.06151 16442
3.08162 15805
3.10174 15324
3.12185 14968
3.14197 14956
3.16208 14129
3.18219 13957
3.20231 13509
3.22242 13109
3.24253 12809
3.26265 12386
3.28276 11752
3.30288 11691
3.32299 11243
3.3431 11053
3.36322 10524
3.38333 10256
3.40344 10054
3.42356 9470
3.44367 9616
3.46379 8712
3.4839 8612
3.50401 8465
3.52413 7897
3.54424 7890
3.56435 7355
3.58447 7312
3.60458 6898
3.62469 6625
3.64481 6691
3.66492 5957
3.68504 5974
3.70515 5683
3.72526 5214
3.74538 5384
3.76549 4986
3.7856 4828
3.80572 4776
3.82583 4323
3.84595 4320
3.86606 3973
3.88617 3891
3.90629 3661
3.9264 3580
3.94651 3506
3.96663 3090
3.98674 3063
4.00686 3011
4.02697 2789
4.04708 2718
4.0672 2526
4.08731 2528
4.10742 2370
4.12754 2252
4.14765 2100
4.16776 1998
4.18788 1922
4.20799 1982
4.22811 1892
4.24822 1847
4.26833 1623
4.28845 1660
4.30856 1624
4.32867 1542
4.34879 1556
4.3689 1319
4.38902 1329
4.40913 1369
4.42924 1437
4.44936 1344
4.46947 1182
4.48958 1149
4.5097 1203
4.52981 1204
4.54992 1154
4.57004 1011
4.59015 981
4.61027 1077
4.63038 1035
4.65049 955
4.67061 968
4.69072 973
4.71083 858
4.73095 873
4.75106 890
4.77118 800
4.79129 807
4.8114 808
4.83152 815
4.85163 732
4.87174 740
4.89186 683
4.91197 760
4.93209 665
4.9522 664
4.97231 667
4.99243 623
5.01254 647
5.03265 642
5.05277 561
5.07288 568
5.09299 594
5.11311 599
5.13322 581
5.15334 482
5.17345 550
5.19356 497
5.21368 510
5.23379 467
5.2539 453
5.27402 463
5.29413 417
5.31425 433
5.33436 427
5.35447 388
5.37459 411
5.3947 388
5.41481 326
5.43493 386
5.45504 321
5.47516 358
5.49527 332
5.51538 368
5.5355 331
5.55561 319
5.57572 313
5.59584 309
5.61595 308
5.63606 286
5.65618 274
5.67629 292
5.69641 258
5.71652 293
5.73663 290
5.75675 243
5.77686 257
5.79697 253
5.81709 231
5.8372 255
5.85732 254
5.87743 251
5.89754 233
5.91766 268
5.93777 249
5.95788 216
5.978 227
5.99811 214
6.01823 231
6.03834 204
6.05845 233
6.07857 203
6.09868 230
6.11879 232
6.13891 200
6.15902 183
6.17913 209
6.19925 216
6.21936 233
6.23948 204
6.25959 194
6.2797 218
6.29982 213
6.31993 208
6.34004 182
6.36016 201
6.38027 193
6.40039 187
6.4205 179
6.44061 169
6.46073 196
6.48084 185
6.50095 157
6.52107 192
6.54118 208
6.56129 189
6.58141 188
6.60152 205
6.62164 174
6.64175 182
6.66186 165
6.68198 179
6.70209 170
6.7222 179
6.74232 164
6.76243 175
6.78255 153
6.80266 175
6.82277 193
6.84289 161
6.863 176
6.88311 209
6.90323 195
6.92334 185
6.94346 185
6.96357 197
6.98368 192
7.0038 194
7.02391 179
7.04402 192
7.06414 159
7.08425 183
7.10436 171
7.12448 164
7.14459 151
7.16471 162
7.18482 189
7.20493 168
7.22505 168
7.24516 167
7.26527 161
7.28539 179
7.3055 186
7.32562 194
7.34573 177
7.36584 161
7.38596 179
7.40607 187
7.42618 190
7.4463 194
7.46641 189
7.48653 194
7.50664 167
7.52675 188
7.54687 195
7.56698 179
7.58709 153
7.60721 173
7.62732 195
7.64743 183
7.66755 204
7.68766 191
7.70778 192
7.72789 184
7.748 181
7.76812 205
7.78823 198
7.80834 160
7.82846 183
7.84857 198
7.86869 203
7.8888 206
7.90891 203
7.92903 201
7.94914 165
7.96925 153
7.98937 206
8.00948 201
8.0296 179
8.04971 195
8.06982 204
8.08994 179
8.11005 200
8.13016 197
8.15028 203
8.17039 151
8.1905 184
8.21062 193
8.23073 200
8.25085 211
8.27096 165
8.29107 213
8.31119 192
8.3313 205
8.35141 222
8.37153 192
8.39164 184
8.41176 201
8.43187 197
8.45198 223
8.4721 196
8.49221 208
8.51232 225
8.53244 224
8.55255 207
8.57266 198
8.59278 218
8.61289 217
8.63301 206
8.65312 232
8.67323 227
8.69335 227
8.71346 244
8.73357 210
8.75369 250
8.7738 235
8.79392 223
8.81403 251
8.83414 256
8.85426 280
8.87437 260
8.89448 255
8.9146 244
8.93471 267
8.95483 184
8.97494 209
8.99505 211
9.01517 208
9.03528 186
9.05539 216
9.07551 209
9.09562 236
9.11573 211
9.13585 196
9.15596 207
9.17608 224
9.19619 254
9.2163 196
9.23642 175
9.25653 194
9.27664 225
9.29676 232
9.31687 207
9.33699 224
9.3571 209
9.37721 212
9.39733 223
9.41744 224
9.43755 209
9.45767 183
9.47778 191
9.4979 234
9.51801 207
9.53812 211
9.55824 190
9.57835 190
9.59846 206
9.61858 237
9.63869 184
9.6588 182
9.67892 168
9.69903 219
9.71915 221
9.73926 211
9.75937 213
9.77949 205
9.7996 212
9.81971 193
9.83983 232
9.85994 203
9.88006 215
9.90017 224
9.92028 232
9.9404 201
9.96051 227
9.98062 211
10.00074 209
10.02085 179
10.04097 188
10.06108 228
10.08119 213
10.10131 182
10.12142 198
10.14153 235
10.16165 224
10.18176 186
10.20187 194
10.22199 218
10.2421 195
10.26222 205
10.28233 215
10.30244 218
10.32256 201
10.34267 206
10.36278 195
10.3829 221
10.40301 186
10.42313 202
10.44324 194
10.46335 211
10.48347 206
10.50358 216
10.52369 219
10.54381 215
10.56392 210
10.58403 215
10.60415 230
10.62426 212
10.64438 218
10.66449 213
10.6846 210
10.70472 193
10.72483 180
10.74494 188
10.76506 193
10.78517 210
10.80529 198
10.8254 186
10.84551 211
10.86563 211
10.88574 199
10.90585 199
10.92597 220
10.94608 196
10.9662 225
10.98631 213
11.00642 193
11.02654 234
11.04665 215
11.06676 237
11.08688 212
11.10699 238
11.1271 204
11.14722 210
11.16733 192
11.18745 227
11.20756 193
11.22767 206
11.24779 206
11.2679 232
11.28801 187
11.30813 218
11.32824 198
11.34836 204
11.36847 208
11.38858 207
11.4087 200
11.42881 211
11.44892 215
11.46904 197
11.48915 224
11.50927 239
11.52938 200
11.54949 223
11.56961 219
11.58972 211
11.60983 229
11.62995 179
11.65006 211
11.67017 221
11.69029 226
11.7104 208
11.73052 206
11.75063 202
11.77074 205
11.79086 205
11.81097 196
11.83108 208
11.8512 219
11.87131 214
11.89143 197
11.91154 201
11.93165 207
11.95177 213
11.97188 219
11.99199 214
12.01211 202
12.03222 220
12.05234 212
12.07245 207
12.09256 247
12.11268 211
12.13279 205
12.1529 233
12.17302 221
12.19313 224
12.21324 204
12.23336 226
12.25347 224
12.27359 251
12.2937 202
12.31381 225
12.33393 214
12.35404 208
12.37415 218
12.39427 212
12.41438 221
12.4345 207
12.45461 248
12.47472 211
12.49484 257
12.51495 196
12.53506 256
12.55518 207
12.57529 211
12.5954 197
12.61552 219
12.63563 212
12.65575 221
12.67586 193
12.69597 211
12.71609 180
12.7362 188
12.75631 203
12.77643 214
12.79654 214
12.81666 223
12.83677 215
12.85688 221
12.877 182
12.89711 215
12.91722 178
12.93734 194
12.95745 205
12.97757 182
12.99768 212
13.01779 206
13.03791 244
13.05802 212
13.07813 269
13.09825 211
13.11836 241
13.13847 266
13.15859 230
13.1787 222
13.19882 206
13.21893 201
13.23904 231
13.25916 214
13.27927 193
13.29938 195
13.3195 182
13.33961 220
13.35973 218
13.37984 198
13.39995 191
13.42007 184
13.44018 201
13.46029 212
13.48041 189
13.50052 179
13.52064 181
13.54075 238
13.56086 249
13.58098 246
13.60109 219
13.6212 281
13.64132 289
13.66143 225
13.68154 238
13.70166 256
13.72177 220
13.74189 220
13.762 260
13.78211 197
13.80223 202
13.82234 224
13.84245 200
13.86257 197
13.88268 205
13.9028 213
13.92291 211
13.94302 181
13.96314 173
13.98325 171
14.00336 177
14.02348 190
14.04359 191
14.06371 197
14.08382 179
14.10393 176
14.12405 172
14.14416 169
14.16427 180
14.18439 203
14.2045 181
14.22461 177
14.24473 167
14.26484 201
14.28496 171
14.30507 146
14.32518 169
14.3453 191
14.36541 176
14.38552 184
14.40564 158
14.42575 186
14.44587 182
14.46598 193
14.48609 157
14.50621 168
14.52632 169
14.54643 174
14.56655 195
14.58666 172
14.60677 153
14.62689 167
14.647 137
14.66712 162
14.68723 196
14.70734 177
14.72746 182
14.74757 184
14.76768 177
14.7878 153
14.80791 177
14.82803 197
14.84814 234
14.86825 227
14.88837 230
14.90848 244
14.92859 218
14.94871 208
14.96882 203
14.98894 207
15.00905 201
15.02916 208
15.04928 178
15.06939 190
15.0895 204
15.10962 205
15.12973 185
15.14984 182
15.16996 191
15.19007 192
15.21019 192
15.2303 201
15.25041 186
15.27053 173
15.29064 179
15.31075 163
15.33087 186
15.35098 182
15.3711 165
15.39121 184
15.41132 182
15.43144 178
15.45155 188
15.47166 199
15.49178 186
15.51189 179
15.53201 178
15.55212 189
15.57223 155
15.59235 159
15.61246 146
15.63257 170
15.65269 193
15.6728 157
15.69291 155
15.71303 184
15.73314 170
15.75326 164
15.77337 168
15.79348 181
15.8136 172
15.83371 175
15.85382 178
15.87394 156
15.89405 162
15.91417 147
15.93428 153
15.95439 163
15.97451 179
15.99462 181
16.01473 193
16.03485 179
16.05496 150
16.07508 149
16.09519 158
16.1153 148
16.13542 166
16.15553 147
16.17564 151
16.19576 143
16.21587 147
16.23598 191
16.2561 173
16.27621 138
16.29633 169
16.31644 173
16.33655 188
16.35667 198
16.37678 159
16.39689 174
16.41701 149
16.43712 158
16.45724 141
16.47735 158
16.49746 148
16.51758 151
16.53769 160
16.5578 155
16.57792 141
16.59803 183
16.61814 156
16.63826 179
16.65837 152
16.67849 174
16.6986 169
16.71871 164
16.73883 170
16.75894 138
16.77905 178
16.79917 178
16.81928 167
16.8394 171
16.85951 156
16.87962 162
16.89974 183
16.91985 157
16.93996 148
16.96008 168
16.98019 190
17.00031 175
17.02042 174
17.04053 147
17.06065 175
17.08076 156
17.10087 147
17.12099 164
17.1411 171
17.16121 169
17.18133 165
17.20144 170
17.22156 176
17.24167 158
17.26178 155
17.2819 193
17.30201 156
17.32212 161
17.34224 152
17.36235 167
17.38247 142
17.40258 149
17.42269 168
17.44281 176
17.46292 151
17.48303 193
17.50315 153
17.52326 155
17.54338 169
17.56349 183
17.5836 162
17.60372 137
17.62383 182
17.64394 200
17.66406 183
17.68417 170
17.70428 167
17.7244 169
17.74451 155
17.76463 160
17.78474 155
17.80485 158
17.82497 154
17.84508 156
17.86519 145
17.88531 181
17.90542 173
17.92554 154
17.94565 164
17.96576 182
17.98588 163
18.00599 167
18.0261 156
18.04622 177
18.06633 180
18.08645 146
18.10656 173
18.12667 143
18.14679 145
18.1669 129
18.18701 165
18.20713 178
18.22724 167
18.24735 174
18.26747 165
18.28758 169
18.3077 156
18.32781 150
18.34792 153
18.36804 144
18.38815 145
18.40826 141
18.42838 150
18.44849 162
18.46861 142
18.48872 149
18.50883 168
18.52895 173
18.54906 145
18.56917 155
18.58929 182
18.6094 142
18.62951 161
18.64963 177
18.66974 176
18.68986 148
18.70997 171
18.73008 178
18.7502 173
18.77031 147
18.79042 179
18.81054 168
18.83065 161
18.85077 171
18.87088 176
18.89099 160
18.91111 131
18.93122 179
18.95133 156
18.97145 152
18.99156 180
19.01168 161
19.03179 158
19.0519 183
19.07202 155
19.09213 164
19.11224 152
19.13236 171
19.15247 171
19.17258 180
19.1927 159
19.21281 164
19.23293 179
19.25304 161
19.27315 165
19.29327 187
19.31338 167
19.33349 167
19.35361 157
19.37372 191
19.39384 169
19.41395 168
19.43406 173
19.45418 177
19.47429 167
19.4944 175
19.51452 201
19.53463 162
19.55475 203
19.57486 168
19.59497 213
19.61509 223
19.6352 195
19.65531 219
19.67543 241
19.69554 219
19.71565 228
19.73577 271
19.75588 255
19.776 244
19.79611 259
19.81622 268
19.83634 276
19.85645 266
19.87656 259
19.89668 262
19.91679 255
19.93691 254
19.95702 286
19.97713 238
19.99725 262
20.01736 243
20.03747 227
20.05759 250
20.0777 221
20.09782 234
20.11793 224
20.13804 249
20.15816 239
20.17827 271
20.19838 241
20.2185 257
20.23861 249
20.25872 240
20.27884 249
20.29895 235
20.31907 272
20.33918 273
20.35929 275
20.37941 276
20.39952 318
20.41963 257
20.43975 294
20.45986 319
20.47998 306
20.50009 341
20.5202 374
20.54032 394
20.56043 409
20.58054 464
20.60066 545
20.62077 659
20.64088 776
20.661 995
20.68111 1277
20.70123 1613
20.72134 2065
20.74145 2599
20.76157 3065
20.78168 3741
20.80179 4317
20.82191 4682
20.84202 4837
20.86214 4814
20.88225 4180
20.90236 3627
20.92248 2966
20.94259 2241
20.9627 1762
20.98282 1404
21.00293 1110
21.02305 899
21.04316 851
21.06327 716
21.08339 611
21.1035 528
21.12361 458
21.14373 415
21.16384 363
21.18395 292
21.20407 320
21.22418 254
21.2443 264
21.26441 253
21.28452 248
21.30464 247
21.32475 245
21.34486 214
21.36498 208
21.38509 263
21.40521 230
21.42532 212
21.44543 241
21.46555 207
21.48566 225
21.50577 233
21.52589 226
21.546 223
21.56612 222
21.58623 219
21.60634 213
21.62646 232
21.64657 200
21.66668 232
21.6868 217
21.70691 221
21.72702 221
21.74714 218
21.76725 220
21.78737 216
21.80748 214
21.82759 222
21.84771 219
21.86782 215
21.88793 279
21.90805 254
21.92816 236
21.94828 240
21.96839 277
21.9885 242
22.00862 230
22.02873 247
22.04884 263
22.06896 284
22.08907 261
22.10919 278
22.1293 243
22.14941 258
22.16953 271
22.18964 267
22.20975 240
22.22987 253
22.24998 300
22.27009 323
22.29021 290
22.31032 300
22.33044 296
22.35055 259
22.37066 275
22.39078 230
22.41089 233
22.431 233
22.45112 214
22.47123 223
22.49135 242
22.51146 226
22.53157 234
22.55169 240
22.5718 229
22.59191 239
22.61203 235
22.63214 252
22.65225 217
22.67237 233
22.69248 221
22.7126 237
22.73271 221
22.75282 222
22.77294 220
22.79305 222
22.81316 221
22.83328 231
22.85339 247
22.87351 216
22.89362 266
22.91373 239
22.93385 238
22.95396 292
22.97407 264
22.99419 289
23.0143 299
23.03442 334
23.05453 317
23.07464 354
23.09476 377
23.11487 412
23.13498 409
23.1551 431
23.17521 457
23.19532 437
23.21544 416
23.23555 379
23.25567 362
23.27578 304
23.29589 279
23.31601 286
23.33612 234
23.35623 231
23.37635 206
23.39646 267
23.41658 239
23.43669 260
23.4568 234
23.47692 269
23.49703 226
23.51714 247
23.53726 232
23.55737 246
23.57749 249
23.5976 248
23.61771 251
23.63783 258
23.65794 247
23.67805 256
23.69817 261
23.71828 243
23.73839 254
23.75851 251
23.77862 255
23.79874 278
23.81885 318
23.83896 325
23.85908 350
23.87919 393
23.8993 444
23.91942 420
23.93953 490
23.95965 481
23.97976 483
23.99987 457
24.01999 500
24.0401 430
24.06021 383
24.08033 388
24.10044 323
24.12056 305
24.14067 294
24.16078 252
24.1809 280
24.20101 292
24.22112 308
24.24124 291
24.26135 289
24.28146 281
24.30158 299
24.32169 294
24.34181 284
24.36192 306
24.38203 251
24.40215 237
24.42226 220
24.44237 239
24.46249 238
24.4826 225
24.50272 221
24.52283 224
24.54294 241
24.56306 261
24.58317 255
24.60328 271
24.6234 273
24.64351 269
24.66362 315
24.68374 292
24.70385 271
24.72397 260
24.74408 262
24.76419 243
24.78431 260
24.80442 257
24.82453 245
24.84465 266
24.86476 254
24.88488 265
24.90499 250
24.9251 242
24.94522 228
24.96533 236
24.98544 226
25.00556 202
25.02567 218
25.04579 227
25.0659 230
25.08601 250
25.10613 223
25.12624 222
25.14635 239
25.16647 205
25.18658 235
25.20669 270
25.22681 256
25.24692 230
25.26704 257
25.28715 296
25.30726 283
25.32738 316
25.34749 339
25.3676 359
25.38772 341
25.40783 439
25.42795 454
25.44806 489
25.46817 503
25.48829 548
25.5084 506
25.52851 572
25.54863 547
25.56874 512
25.58886 610
25.60897 554
25.62908 574
25.6492 509
25.66931 558
25.68942 514
25.70954 494
25.72965 484
25.74976 429
25.76988 422
25.78999 410
25.81011 377
25.83022 395
25.85033 447
25.87045 378
25.89056 366
25.91067 383
25.93079 405
25.9509 404
25.97102 413
25.99113 409
26.01124 470
26.03136 498
26.05147 463
26.07158 496
26.0917 494
26.11181 594
26.13193 659
26.15204 686
26.17215 663
26.19227 817
26.21238 863
26.23249 926
26.25261 1108
26.27272 1159
26.29283 1379
26.31295 1665
26.33306 1952
26.35318 2297
26.37329 2741
26.3934 3407
26.41352 4410
26.43363 5502
26.45374 6747
26.47386 8554
26.49397 10664
26.51409 12916
26.5342 15413
26.55431 17576
26.57443 19947
26.59454 21289
26.61465 21818
26.63477 21046
26.65488 19250
26.67499 15956
26.69511 12602
26.71522 9715
26.73534 7042
26.75545 4839
26.77556 3327
26.79568 2359
26.81579 1814
26.8359 1410
26.85602 1337
26.87613 1164
26.89625 1081
26.91636 1019
26.93647 931
26.95659 996
26.9767 965
26.99681 934
27.01693 875
27.03704 905
27.05716 899
27.07727 839
27.09738 839
27.1175 746
27.13761 684
27.15772 658
27.17784 652
27.19795 664
27.21806 668
27.23818 691
27.25829 707
27.27841 832
27.29852 944
27.31863 1043
27.33875 1019
27.35886 1099
27.37897 1172
27.39909 1229
27.4192 1287
27.43932 1222
27.45943 1175
27.47954 1097
27.49966 1024
27.51977 900
27.53988 789
27.56 733
27.58011 613
27.60023 494
27.62034 508
27.64045 474
27.66057 450
27.68068 379
27.70079 376
27.72091 403
27.74102 420
27.76113 374
27.78125 398
27.80136 398
27.82148 440
27.84159 381
27.8617 412
27.88182 409
27.90193 394
27.92204 393
27.94216 376
27.96227 350
27.98239 360
28.0025 337
28.02261 338
28.04273 304
28.06284 311
28.08295 306
28.10307 296
28.12318 285
28.1433 257
28.16341 286
28.18352 257
28.20364 261
28.22375 287
28.24386 263
28.26398 286
28.28409 232
28.3042 282
28.32432 256
28.34443 266
28.36455 256
28.38466 249
28.40477 247
28.42489 263
28.445 239
28.46511 251
28.48523 215
28.50534 232
28.52546 248
28.54557 228
28.56568 251
28.5858 229
28.60591 212
28.62602 215
28.64614 241
28.66625 238
28.68636 199
28.70648 208
28.72659 217
28.74671 231
28.76682 241
28.78693 199
28.80705 228
28.82716 219
28.84727 207
28.86739 219
28.8875 235
28.90762 217
28.92773 236
28.94784 201
28.96796 237
28.98807 239
29.00818 228
29.0283 203
29.04841 231
29.06853 214
29.08864 225
29.10875 214
29.12887 220
29.14898 225
29.16909 243
29.18921 231
29.20932 261
29.22943 243
29.24955 238
29.26966 299
29.28978 315
29.30989 303
29.33 322
29.35012 334
29.37023 348
29.39034 346
29.41046 354
29.43057 337
29.45069 330
29.4708 337
29.49091 299
29.51103 286
29.53114 250
29.55125 280
29.57137 233
29.59148 218
29.6116 257
29.63171 249
29.65182 220
29.67194 222
29.69205 222
29.71216 263
29.73228 237
29.75239 229
29.7725 266
29.79262 266
29.81273 261
29.83285 265
29.85296 249
29.87307 242
29.89319 247
29.9133 249
29.93341 238
29.95353 273
29.97364 297
29.99376 282
30.01387 340
30.03398 331
30.0541 321
30.07421 361
30.09432 360
30.11444 348
30.13455 414
30.15467 391
30.17478 426
30.19489 396
30.21501 402
30.23512 437
30.25523 349
30.27535 361
30.29546 340
30.31557 317
30.33569 284
30.3558 265
30.37592 247
30.39603 252
30.41614 255
30.43626 236
30.45637 218
30.47648 245
30.4966 239
30.51671 261
30.53683 272
30.55694 264
30.57705 277
30.59717 285
30.61728 299
30.63739 315
30.65751 357
30.67762 354
30.69773 372
30.71785 336
30.73796 380
30.75808 382
30.77819 335
30.7983 339
30.81842 368
30.83853 341
30.85864 308
30.87876 284
30.89887 272
30.91899 272
30.9391 243
30.95921 252
30.97933 228
30.99944 226
31.01955 202
31.03967 207
31.05978 218
31.0799 220
31.10001 208
31.12012 187
31.14024 200
31.16035 190
31.18046 230
31.20058 212
31.22069 204
31.2408 210
31.26092 159
31.28103 190
31.30115 179
31.32126 201
31.34137 187
31.36149 166
31.3816 171
31.40171 186
31.42183 179
31.44194 173
31.46206 192
31.48217 195
31.50228 183
31.5224 177
31.54251 168
31.56262 150
31.58274 162
31.60285 187
31.62297 166
31.64308 173
31.66319 177
31.68331 158
31.70342 185
31.72353 176
31.74365 171
31.76376 182
31.78387 169
31.80399 170
31.8241 184
31.84422 175
31.86433 203
31.88444 176
31.90456 199
31.92467 190
31.94478 204
31.9649 187
31.98501 219
32.00513 206
32.02524 214
32.04535 220
32.06547 226
32.08558 239
32.10569 207
32.12581 229
32.14592 211
32.16604 223
32.18615 208
32.20626 205
32.22638 207
32.24649 191
32.2666 216
32.28672 206
32.30683 221
32.32694 233
32.34706 239
32.36717 238
32.38729 240
32.4074 235
32.42751 215
32.44763 263
32.46774 248
32.48785 235
32.50797 192
32.52808 227
32.5482 229
32.56831 174
32.58842 159
32.60854 182
32.62865 176
32.64876 165
32.66888 159
32.68899 173
32.7091 139
32.72922 160
32.74933 145
32.76945 137
32.78956 153
32.80967 187
32.82979 173
32.8499 162
32.87001 157
32.89013 167
32.91024 142
32.93036 152
32.95047 171
32.97058 150
32.9907 150
33.01081 181
33.03092 157
33.05104 164
33.07115 158
33.09127 167
33.11138 153
33.13149 168
33.15161 179
33.17172 172
33.19183 172
33.21195 175
33.23206 174
33.25217 164
33.27229 169
33.2924 141
33.31252 155
33.33263 136
33.35274 176
33.37286 143
33.39297 140
33.41308 156
33.4332 148
33.45331 144
33.47343 172
33.49354 148
33.51365 165
33.53377 156
33.55388 144
33.57399 140
33.59411 113
33.61422 146
33.63434 150
33.65445 159
33.67456 153
33.69468 138
33.71479 134
33.7349 142
33.75502 154
33.77513 166
33.79524 166
33.81536 169
33.83547 171
33.85559 162
33.8757 178
33.89581 210
33.91593 206
33.93604 168
33.95615 175
33.97627 192
33.99638 174
34.0165 199
34.03661 230
34.05672 227
34.07684 236
34.09695 276
34.11706 299
34.13718 321
34.15729 276
34.17741 314
34.19752 272
34.21763 291
34.23775 280
34.25786 258
34.27797 224
34.29809 270
34.3182 228
34.33831 248
34.35843 193
34.37854 190
34.39866 221
34.41877 225
34.43888 201
34.459 244
34.47911 199
34.49922 253
34.51934 250
34.53945 254
34.55957 230
34.57968 289
34.59979 274
34.61991 292
34.64002 258
34.66013 235
34.68025 259
34.70036 270
34.72047 230
34.74059 280
34.7607 276
34.78082 266
34.80093 270
34.82104 275
34.84116 300
34.86127 288
34.88138 303
34.9015 308
34.92161 272
34.94173 285
34.96184 304
34.98195 261
35.00207 262
35.02218 256
35.04229 267
35.06241 259
35.08252 228
35.10264 250
35.12275 240
35.14286 242
35.16298 232
35.18309 243
35.2032 278
35.22332 247
35.24343 255
35.26354 241
35.28366 238
35.30377 210
35.32389 259
35.344 247
35.36411 266
35.38423 271
35.40434 273
35.42445 263
35.44457 277
35.46468 294
35.4848 312
35.50491 298
35.52502 311
35.54514 323
35.56525 285
35.58536 263
35.60548 266
35.62559 286
35.64571 267
35.66582 232
35.68593 250
35.70605 229
35.72616 225
35.74627 233
35.76639 228
35.7865 212
35.80661 233
35.82673 220
35.84684 210
35.86696 209
35.88707 204
35.90718 202
35.9273 211
35.94741 196
35.96752 215
35.98764 222
36.00775 195
36.02787 212
36.04798 211
36.06809 186
36.08821 207
36.10832 201
36.12843 267
36.14855 214
36.16866 262
36.18878 281
36.20889 297
36.229 338
36.24912 335
36.26923 434
36.28934 478
36.30946 530
36.32957 594
36.34968 661
36.3698 845
36.38991 968
36.41003 1093
36.43014 1202
36.45025 1431
36.47037 1541
36.49048 1616
36.51059 1543
36.53071 1444
36.55082 1439
36.57094 1265
36.59105 1058
36.61116 917
36.63128 769
36.65139 640
36.6715 539
36.69162 442
36.71173 374
36.73184 302
36.75196 288
36.77207 288
36.79219 269
36.8123 240
36.83241 283
36.85253 266
36.87264 268
36.89275 285
36.91287 257
36.93298 261
36.9531 258
36.97321 252
36.99332 230
37.01344 223
37.03355 227
37.05366 223
37.07378 236
37.09389 211
37.11401 193
37.13412 185
37.15423 180
37.17435 173
37.19446 194
37.21457 183
37.23469 183
37.2548 190
37.27491 209
37.29503 175
37.31514 152
37.33526 186
37.35537 161
37.37548 182
37.3956 166
37.41571 156
37.43582 179
37.45594 190
37.47605 178
37.49617 177
37.51628 185
37.53639 225
37.55651 199
37.57662 185
37.59673 200
37.61685 209
37.63696 197
37.65708 189
37.67719 189
37.6973 186
37.71742 182
37.73753 195
37.75764 172
37.77776 180
37.79787 179
37.81798 198
37.8381 197
37.85821 181
37.87833 184
37.89844 179
37.91855 160
37.93867 165
37.95878 161
37.97889 155
37.99901 193
38.01912 171
38.03924 179
38.05935 172
38.07946 183
38.09958 183
38.11969 152
38.1398 185
38.15992 170
38.18003 197
38.20015 170
38.22026 171
38.24037 168
38.26049 190
38.2806 188
38.30071 187
38.32083 226
38.34094 200
38.36105 195
38.38117 208
38.40128 209
38.4214 225
38.44151 245
38.46162 232
38.48174 240
38.50185 250
38.52196 234
38.54208 216
38.56219 229
38.58231 226
38.60242 202
38.62253 175
38.64265 175
38.66276 207
38.68287 193
38.70299 185
38.7231 174
38.74321 177
38.76333 163
38.78344 162
38.80356 177
38.82367 157
38.84378 173
38.8639 186
38.88401 190
38.90412 194
38.92424 218
38.94435 204
38.96447 189
38.98458 205
39.00469 206
39.02481 181
39.04492 208
39.06503 235
39.08515 258
39.10526 276
39.12538 288
39.14549 316
39.1656 341
39.18572 375
39.20583 451
39.22594 487
39.24606 561
39.26617 698
39.28628 767
39.3064 888
39.32651 1069
39.34663 1163
39.36674 1245
39.38685 1317
39.40697 1434
39.42708 1460
39.44719 1402
39.46731 1354
39.48742 1231
39.50754 1115
39.52765 922
39.54776 766
39.56788 675
39.58799 550
39.6081 412
39.62822 340
39.64833 286
39.66845 254
39.68856 217
39.70867 234
39.72879 200
39.7489 226
39.76901 212
39.78913 185
39.80924 228
39.82935 197
39.84947 201
39.86958 214
39.8897 191
39.90981 262
39.92992 214
39.95004 218
39.97015 238
39.99026 278
40.01038 283
40.03049 297
40.05061 345
40.07072 378
40.09083 440
40.11095 462
40.13106 501
40.15117 542
40.17129 626
40.1914 663
40.21152 740
40.23163 806
40.25174 840
40.27186 729
40.29197 704
40.31208 695
40.3322 574
40.35231 496
40.37242 452
40.39254 437
40.41265 393
40.43277 303
40.45288 246
40.47299 227
40.49311 204
40.51322 240
40.53333 207
40.55345 212
40.57356 147
40.59368 195
40.61379 174
40.6339 181
40.65402 166
40.67413 195
40.69424 152
40.71436 156
40.73447 171
40.75458 197
40.7747 150
40.79481 163
40.81493 171
40.83504 180
40.85515 196
40.87527 188
40.89538 184
40.91549 171
40.93561 185
40.95572 161
40.97584 187
40.99595 187
41.01606 159
41.03618 172
41.05629 161
41.0764 163
41.09652 181
41.11663 156
41.13675 193
41.15686 162
41.17697 197
41.19709 186
41.2172 173
41.23731 188
41.25743 183
41.27754 184
41.29765 163
41.31777 167
41.33788 164
41.358 186
41.37811 167
41.39822 182
41.41834 188
41.43845 184
41.45856 217
41.47868 195
41.49879 188
41.51891 200
41.53902 227
41.55913 224
41.57925 238
41.59936 274
41.61947 265
41.63959 304
41.6597 334
41.67982 353
41.69993 331
41.72004 347
41.74016 322
41.76027 319
41.78038 349
41.8005 340
41.82061 347
41.84072 323
41.86084 298
41.88095 288
41.90107 277
41.92118 243
41.94129 233
41.96141 210
41.98152 202
42.00163 237
42.02175 203
42.04186 222
42.06198 242
42.08209 274
42.1022 230
42.12232 292
42.14243 312
42.16254 334
42.18266 335
42.20277 401
42.22289 454
42.243 516
42.26311 559
42.28323 671
42.30334 788
42.32345 883
42.34357 965
42.36368 1004
42.38379 1103
42.40391 1043
42.42402 1076
42.44414 1041
42.46425 906
42.48436 861
42.50448 727
42.52459 633
42.5447 549
42.56482 499
42.58493 424
42.60505 367
42.62516 300
42.64527 239
42.66539 259
42.6855 216
42.70561 213
42.72573 180
42.74584 225
42.76595 220
42.78607 232
42.80618 200
42.8263 192
42.84641 183
42.86652 188
42.88664 174
42.90675 172
42.92686 171
42.94698 168
42.96709 174
42.98721 162
43.00732 171
43.02743 145
43.04755 182
43.06766 150
43.08777 176
43.10789 177
43.128 173
43.14812 170
43.16823 194
43.18834 162
43.20846 180
43.22857 182
43.24868 150
43.2688 172
43.28891 162
43.30902 166
43.32914 180
43.34925 172
43.36937 156
43.38948 156
43.40959 167
43.42971 175
43.44982 193
43.46993 158
43.49005 173
43.51016 156
43.53028 186
43.55039 168
43.5705 138
43.59062 160
43.61073 171
43.63084 183
43.65096 169
43.67107 157
43.69119 154
43.7113 173
43.73141 163
43.75153 171
43.77164 168
43.79175 162
43.81187 137
43.83198 142
43.85209 144
43.87221 163
43.89232 173
43.91244 160
43.93255 182
43.95266 147
43.97278 173
43.99289 162
44.013 155
44.03312 183
44.05323 183
44.07335 171
44.09346 157
44.11357 151
44.13369 190
44.1538 175
44.17391 156
44.19403 185
44.21414 175
44.23426 167
44.25437 161
44.27448 186
44.2946 151
44.31471 177
44.33482 136
44.35494 171
44.37505 146
44.39516 158
44.41528 168
44.43539 174
44.45551 164
44.47562 171
44.49573 173
44.51585 181
44.53596 206
44.55607 162
44.57619 161
44.5963 178
44.61642 148
44.63653 169
44.65664 158
44.67676 155
44.69687 160
44.71698 158
44.7371 148
44.75721 167
44.77732 160
44.79744 173
44.81755 177
44.83767 148
44.85778 153
44.87789 150
44.89801 161
44.91812 160
44.93823 164
44.95835 153
44.97846 158
44.99858 149
45.01869 179
45.0388 146
45.05892 153
45.07903 157
45.09914 160
45.11926 157
45.13937 148
45.15949 164
45.1796 160
45.19971 183
45.21983 184
45.23994 183
45.26005 183
45.28017 200
45.30028 205
45.32039 192
45.34051 202
45.36062 217
45.38074 209
45.40085 241
45.42096 246
45.44108 286
45.46119 275
45.4813 318
45.50142 360
45.52153 364
45.54165 392
45.56176 379
45.58187 485
45.60199 508
45.6221 569
45.64221 629
45.66233 636
45.68244 702
45.70256 729
45.72267 780
45.74278 794
45.7629 784
45.78301 783
45.80312 706
45.82324 613
45.84335 548
45.86346 481
45.88358 425
45.90369 420
45.92381 354
45.94392 297
45.96403 239
45.98415 241
46.00426 189
46.02437 218
46.04449 171
46.0646 184
46.08472 181
46.10483 166
46.12494 199
46.14506 184
46.16517 160
46.18528 191
46.2054 169
46.22551 176
46.24563 182
46.26574 162
46.28585 161
46.30597 186
46.32608 171
46.34619 164
46.36631 155
46.38642 169
46.40653 170
46.42665 175
46.44676 155
46.46688 145
46.48699 120
46.5071 148
46.52722 149
46.54733 134
46.56744 141
46.58756 153
46.60767 135
46.62779 154
46.6479 139
46.66801 167
46.68813 165
46.70824 135
46.72835 159
46.74847 147
46.76858 150
46.78869 134
46.80881 149
46.82892 136
46.84904 147
46.86915 157
46.88926 175
46.90938 147
46.92949 155
46.9496 214
46.96972 178
46.98983 189
47.00995 192
47.03006 202
47.05017 206
47.07029 185
47.0904 174
47.11051 183
47.13063 175
47.15074 196
47.17086 168
47.19097 189
47.21108 151
47.2312 174
47.25131 158
47.27142 172
47.29154 193
47.31165 164
47.33176 169
47.35188 188
47.37199 164
47.39211 192
47.41222 159
47.43233 181
47.45245 166
47.47256 174
47.49267 173
47.51279 165
47.5329 151
47.55302 161
47.57313 158
47.59324 149
47.61336 150
47.63347 147
47.65358 137
47.6737 131
47.69381 148
47.71393 138
47.73404 138
47.75415 138
47.77427 132
47.79438 131
47.81449 149
47.83461 135
47.85472 144
47.87483 148
47.89495 153
47.91506 144
47.93518 145
47.95529 149
47.9754 129
47.99552 139
48.01563 166
48.03574 134
48.05586 144
48.07597 164
48.09609 159
48.1162 155
48.13631 139
48.15643 141
48.17654 144
48.19665 169
48.21677 157
48.23688 151
48.257 138
48.27711 140
48.29722 133
48.31734 142
48.33745 148
48.35756 143
48.37768 158
48.39779 162
48.4179 145
48.43802 143
48.45813 160
48.47825 156
48.49836 169
48.51847 155
48.53859 173
48.5587 148
48.57881 172
48.59893 166
48.61904 159
48.63916 196
48.65927 171
48.67938 185
48.6995 184
48.71961 173
48.73972 206
48.75984 190
48.77995 204
48.80006 207
48.82018 192
48.84029 194
48.86041 180
48.88052 193
48.90063 175
48.92075 196
48.94086 194
48.96097 203
48.98109 174
49.0012 198
49.02132 194
49.04143 206
49.06154 189
49.08166 201
49.10177 177
49.12188 160
49.142 173
49.16211 175
49.18223 165
49.20234 180
49.22245 154
49.24257 166
49.26268 163
49.28279 181
49.30291 172
49.32302 187
49.34313 152
49.36325 184
49.38336 180
49.40348 142
49.42359 150
49.4437 170
49.46382 172
49.48393 169
49.50404 166
49.52416 186
49.54427 201
49.56439 187
49.5845 198
49.60461 216
49.62473 236
49.64484 238
49.66495 218
49.68507 274
49.70518 291
49.7253 309
49.74541 331
49.76552 415
49.78564 411
49.80575 506
49.82586 526
49.84598 622
49.86609 681
49.8862 826
49.90632 969
49.92643 1079
49.94655 1274
49.96666 1414
49.98677 1643
50.00689 1878
50.027 2071
50.04711 2222
50.06723 2327
50.08734 2358
50.10746 2344
50.12757 2175
50.14768 1987
50.1678 1897
50.18791 1578
50.20802 1354
50.22814 1197
50.24825 1100
50.26837 929
50.28848 825
50.30859 638
50.32871 511
50.34882 458
50.36893 429
50.38905 401
50.40916 396
50.42927 403
50.44939 406
50.4695 377
50.48962 418
50.50973 382
50.52984 390
50.54996 408
50.57007 378
50.59018 377
50.6103 358
50.63041 334
50.65053 298
50.67064 287
50.69075 274
50.71087 282
50.73098 242
50.75109 264
50.77121 235
50.79132 234
50.81143 213
50.83155 220
50.85166 194
50.87178 204
50.89189 211
50.912 211
50.93212 176
50.95223 215
50.97234 201
50.99246 208
51.01257 200
51.03269 192
51.0528 171
51.07291 168
51.09303 161
51.11314 155
51.13325 164
51.15337 166
51.17348 152
51.1936 161
51.21371 153
51.23382 169
51.25394 161
51.27405 164
51.29416 151
51.31428 134
51.33439 157
51.3545 145
51.37462 143
51.39473 146
51.41485 166
51.43496 131
51.45507 139
51.47519 148
51.4953 145
51.51541 138
51.53553 141
51.55564 124
51.57576 150
51.59587 147
51.61598 145
51.6361 136
51.65621 141
51.67632 151
51.69644 135
51.71655 155
51.73667 122
51.75678 129
51.77689 161
51.79701 148
51.81712 126
51.83723 130
51.85735 137
51.87746 143
51.89757 128
51.91769 127
51.9378 120
51.95792 125
51.97803 141
51.99814 113
52.01826 146
52.03837 138
52.05848 127
52.0786 134
52.09871 139
52.11883 128
52.13894 148
52.15905 162
52.17917 142
52.19928 143
52.21939 127
52.23951 134
52.25962 135
52.27974 127
52.29985 145
52.31996 141
52.34008 132
52.36019 148
52.3803 155
52.40042 130
52.42053 154
52.44064 154
52.46076 158
52.48087 142
52.50099 155
52.5211 166
52.54121 156
52.56133 162
52.58144 132
52.60155 149
52.62167 132
52.64178 161
52.6619 134
52.68201 146
52.70212 134
52.72224 157
52.74235 140
52.76246 151
52.78258 142
52.80269 144
52.8228 151
52.84292 150
52.86303 159
52.88315 161
52.90326 145
52.92337 142
52.94349 129
52.9636 161
52.98371 154
53.00383 144
53.02394 130
53.04406 162
53.06417 145
53.08428 147
53.1044 159
53.12451 151
53.14462 156
53.16474 161
53.18485 171
53.20497 134
53.22508 162
53.24519 126
53.26531 138
53.28542 138
53.30553 153
53.32565 155
53.34576 145
53.36587 149
53.38599 129
53.4061 140
53.42622 144
53.44633 135
53.46644 156
53.48656 158
53.50667 129
53.52678 140
53.5469 153
53.56701 133
53.58713 146
53.60724 124
53.62735 138
53.64747 132
53.66758 166
53.68769 142
53.70781 141
53.72792 149
53.74804 167
53.76815 136
53.78826 149
53.80838 146
53.82849 172
53.8486 200
53.86872 175
53.88883 143
53.90894 156
53.92906 193
53.94917 170
53.96929 163
53.9894 168
54.00951 160
54.02963 173
54.04974 157
54.06985 175
54.08997 172
54.11008 137
54.1302 149
54.15031 159
54.17042 174
54.19054 175
54.21065 157
54.23076 173
54.25088 182
54.27099 154
54.29111 172
54.31122 170
54.33133 195
54.35145 178
54.37156 180
54.39167 200
54.41179 214
54.4319 202
54.45201 209
54.47213 189
54.49224 219
54.51236 215
54.53247 246
54.55258 242
54.5727 278
54.59281 317
54.61292 348
54.63304 356
54.65315 410
54.67327 459
54.69338 531
54.71349 520
54.73361 629
54.75372 723
54.77383 700
54.79395 739
54.81406 754
54.83417 753
54.85429 755
54.8744 715
54.89452 675
54.91463 629
54.93474 554
54.95486 473
54.97497 424
54.99508 472
55.0152 437
55.03531 422
55.05543 376
55.07554 321
55.09565 307
55.11577 350
55.13588 316
55.15599 342
55.17611 359
55.19622 415
55.21634 430
55.23645 413
55.25656 437
55.27668 438
55.29679 428
55.3169 448
55.33702 435
55.35713 364
55.37724 341
55.39736 341
55.41747 278
55.43759 323
55.4577 280
55.47781 261
55.49793 248
55.51804 225
55.53815 228
55.55827 195
55.57838 193
55.5985 212
55.61861 163
55.63872 165
55.65884 175
55.67895 150
55.69906 171
55.71918 153
55.73929 175
55.75941 172
55.77952 179
55.79963 172
55.81975 154
55.83986 165
55.85997 150
55.88009 132
55.9002 163
55.92031 138
55.94043 148
55.96054 147
55.98066 150
56.00077 150
56.02088 161
56.041 148
56.06111 147
56.08122 151
56.10134 135
56.12145 148
56.14157 145
56.16168 153
56.18179 141
56.20191 151
56.22202 149
56.24213 143
56.26225 153
56.28236 138
56.30248 131
56.32259 130
56.3427 150
56.36282 135
56.38293 142
56.40304 124
56.42316 143
56.44327 147
56.46338 132
56.4835 140
56.50361 133
56.52373 145
56.54384 115
56.56395 145
56.58407 113
56.60418 147
56.62429 146
56.64441 148
56.66452 146
56.68464 147
56.70475 164
56.72486 139
56.74498 173
56.76509 156
56.7852 161
56.80532 144
56.82543 149
56.84554 142
56.86566 164
56.88577 171
56.90589 149
56.926 179
56.94611 160
56.96623 152
56.98634 153
57.00645 169
57.02657 141
57.04668 169
57.0668 153
57.08691 154
57.10702 172
57.12714 181
57.14725 180
57.16736 182
57.18748 203
57.20759 180
57.22771 188
57.24782 183
57.26793 175
57.28805 161
57.30816 172
57.32827 190
57.34839 181
57.3685 173
57.38861 173
57.40873 160
57.42884 168
57.44896 151
57.46907 151
57.48918 151
57.5093 152
57.52941 139
57.54952 142
57.56964 143
57.58975 147
57.60987 131
57.62998 135
57.65009 122
57.67021 131
57.69032 157
57.71043 137
57.73055 134
57.75066 122
57.77078 131
57.79089 132
57.811 143
57.83112 121
57.85123 169
57.87134 130
57.89146 128
57.91157 146
57.93168 131
57.9518 136
57.97191 163
57.99203 153
58.01214 129
58.03225 158
58.05237 154
58.07248 156
58.09259 153
58.11271 145
58.13282 149
58.15294 151
58.17305 145
58.19316 152
58.21328 132
58.23339 150
58.2535 153
58.27362 148
58.29373 142
58.31385 130
58.33396 151
58.35407 145
58.37419 147
58.3943 175
58.41441 178
58.43453 162
58.45464 167
58.47475 154
58.49487 156
58.51498 144
58.5351 164
58.55521 156
58.57532 157
58.59544 152
58.61555 160
58.63566 152
58.65578 171
58.67589 150
58.69601 164
58.71612 147
58.73623 153
58.75635 170
58.77646 155
58.79657 146
58.81669 130
58.8368 127
58.85691 137
58.87703 162
58.89714 137
58.91726 145
58.93737 142
58.95748 145
58.9776 158
58.99771 150
59.01782 145
59.03794 139
59.05805 152
59.07817 158
59.09828 153
59.11839 169
59.13851 131
59.15862 152
59.17873 153
59.19885 154
59.21896 136
59.23908 161
59.25919 168
59.2793 164
59.29942 187
59.31953 169
59.33964 185
59.35976 192
59.37987 211
59.39998 215
59.4201 225
59.44021 233
59.46033 211
59.48044 254
59.50055 257
59.52067 253
59.54078 276
59.56089 327
59.58101 369
59.60112 373
59.62124 421
59.64135 444
59.66146 498
59.68158 537
59.70169 600
59.7218 722
59.74192 795
59.76203 945
59.78215 1052
59.80226 1158
59.82237 1300
59.84249 1456
59.8626 1523
59.88271 1496
59.90283 1641
59.92294 1487
59.94305 1444
59.96317 1251
59.98328 1196
60.0034 1016
60.02351 913
60.04362 943
60.06374 778
60.08385 731
60.10396 668
60.12408 611
60.14419 452
60.16431 368
60.18442 331
60.20453 265
60.22465 247
60.24476 224
60.26487 209
60.28499 205
60.3051 186
60.32522 192
60.34533 190
60.36544 176
60.38556 177
60.40567 144
60.42578 170
60.4459 183
60.46601 177
60.48612 158
60.50624 168
60.52635 150
60.54647 153
60.56658 152
60.58669 153
60.60681 187
60.62692 169
60.64703 169
60.66715 128
60.68726 153
60.70738 156
60.72749 152
60.7476 143
60.76772 180
60.78783 146
60.80794 171
60.82806 164
60.84817 157
60.86828 181
60.8884 156
60.90851 168
60.92863 153
60.94874 174
60.96885 158
60.98897 183
61.00908 194
61.02919 174
61.04931 207
61.06942 214
61.08954 198
61.10965 184
61.12976 216
61.14988 172
61.16999 194
61.1901 199
61.21022 182
61.23033 189
61.25045 185
61.27056 206
61.29067 184
61.31079 182
61.3309 149
61.35101 180
61.37113 167
61.39124 158
61.41135 151
61.43147 159
61.45158 140
61.4717 170
61.49181 146
61.51192 169
61.53204 158
61.55215 159
61.57226 148
61.59238 152
61.61249 139
61.63261 155
61.65272 153
61.67283 181
61.69295 149
61.71306 155
61.73317 147
61.75329 160
61.7734 179
61.79352 155
61.81363 144
61.83374 153
61.85386 147
61.87397 159
61.89408 168
61.9142 148
61.93431 153
61.95442 150
61.97454 147
61.99465 157
62.01477 151
62.03488 153
62.05499 161
62.07511 161
62.09522 162
62.11533 175
62.13545 163
62.15556 155
62.17568 150
62.19579 147
62.2159 167
62.23602 177
62.25613 148
62.27624 133
62.29636 183
62.31647 171
62.33659 154
62.3567 150
62.37681 161
62.39693 158
62.41704 135
62.43715 142
62.45727 153
62.47738 163
62.49749 146
62.51761 147
62.53772 152
62.55784 172
62.57795 143
62.59806 147
62.61818 165
62.63829 156
62.6584 176
62.67852 156
62.69863 154
62.71875 149
62.73886 159
62.75897 176
62.77909 177
62.7992 153
62.81931 167
62.83943 153
62.85954 162
62.87965 143
62.89977 174
62.91988 172
62.94 190
62.96011 185
62.98022 193
63.00034 182
63.02045 182
63.04056 202
63.06068 185
63.08079 182
63.10091 190
63.12102 189
63.14113 193
63.16125 186
63.18136 171
63.20147 162
63.22159 152
63.2417 178
63.26182 161
63.28193 167
63.30204 190
63.32216 155
63.34227 150
63.36238 150
63.3825 169
63.40261 140
63.42272 154
63.44284 127
63.46295 162
63.48307 150
63.50318 147
63.52329 155
63.54341 153
63.56352 165
63.58363 194
63.60375 194
63.62386 189
63.64398 209
63.66409 213
63.6842 226
63.70432 202
63.72443 228
63.74454 237
63.76466 253
63.78477 273
63.80489 303
63.825 305
63.84511 329
63.86523 345
63.88534 388
63.90545 471
63.92557 449
63.94568 424
63.96579 463
63.98591 459
64.00602 386
64.02614 388
64.04625 376
64.06636 347
64.08648 317
64.10659 333
64.1267 284
64.14682 280
64.16693 269
64.18705 250
64.20716 229
64.22727 195
64.24739 188
64.2675 163
64.28761 163
64.30773 159
64.32784 158
64.34796 134
64.36807 143
64.38818 141
64.4083 142
64.42841 140
64.44852 129
64.46864 138
64.48875 122
64.50886 141
64.52898 127
64.54909 146
64.56921 117
64.58932 118
64.60943 156
64.62955 121
64.64966 128
64.66977 145
64.68989 150
64.71 134
64.73012 145
64.75023 135
64.77034 152
64.79046 141
64.81057 144
64.83068 160
64.8508 147
64.87091 128
64.89102 145
64.91114 153
64.93125 136
64.95137 155
64.97148 153
64.99159 144
65.01171 171
65.03182 158
65.05193 146
65.07205 161
65.09216 158
65.11228 163
65.13239 165
65.1525 182
65.17262 174
65.19273 164
65.21284 183
65.23296 147
65.25307 163
65.27319 167
65.2933 163
65.31341 176
65.33353 170
65.35364 194
65.37375 165
65.39387 152
65.41398 169
65.43409 164
65.45421 164
65.47432 160
65.49444 148
65.51455 162
65.53466 172
65.55478 161
65.57489 186
65.595 158
65.61512 171
65.63523 165
65.65535 184
65.67546 201
65.69557 183
65.71569 182
65.7358 203
65.75591 185
65.77603 181
65.79614 188
65.81626 191
65.83637 160
65.85648 164
65.8766 155
65.89671 167
65.91682 182
65.93694 165
65.95705 167
65.97716 165
65.99728 162
66.01739 157
66.03751 164
66.05762 151
66.07773 194
66.09785 173
66.11796 171
66.13807 173
66.15819 185
66.1783 178
66.19842 165
66.21853 162
66.23864 156
66.25876 169
66.27887 162
66.29898 162
66.3191 147
66.33921 194
66.35933 150
66.37944 174
66.39955 152
66.41967 172
66.43978 162
66.45989 162
66.48001 162
66.50012 163
66.52023 170
66.54035 152
66.56046 124
66.58058 141
66.60069 124
66.6208 152
66.64092 142
66.66103 125
66.68114 146
66.70126 145
66.72137 141
66.74149 145
66.7616 142
66.78171 117
66.80183 152
66.82194 144
66.84205 150
66.86217 148
66.88228 149
66.90239 185
66.92251 156
66.94262 172
66.96274 169
66.98285 157
67.00296 153
67.02308 182
67.04319 178
67.0633 175
67.08342 170
67.10353 178
67.12365 194
67.14376 189
67.16387 179
67.18399 173
67.2041 198
67.22421 202
67.24433 179
67.26444 229
67.28456 219
67.30467 249
67.32478 234
67.3449 272
67.36501 260
67.38512 281
67.40524 330
67.42535 331
67.44546 384
67.46558 416
67.48569 444
67.50581 513
67.52592 570
67.54603 638
67.56615 712
67.58626 786
67.60637 897
67.62649 956
67.6466 1038
67.66672 1034
67.68683 1060
67.70694 994
67.72706 946
67.74717 935
67.76728 883
67.7874 877
67.80751 849
67.82763 832
67.84774 878
67.86785 919
67.88797 912
67.90808 899
67.92819 954
67.94831 963
67.96842 1109
67.98853 1165
68.00865 1161
68.02876 1253
68.04888 1407
68.06899 1437
68.0891 1513
68.10922 1486
68.12933 1472
68.14944 1330
68.16956 1268
68.18967 1304
68.20979 1252
68.2299 1218
68.25001 1289
68.27013 1208
68.29024 1165
68.31035 973
68.33047 931
68.35058 832
68.3707 691
68.39081 597
68.41092 537
68.43104 518
68.45115 453
68.47126 451
68.49138 384
68.51149 351
68.5316 310
68.55172 274
68.57183 250
68.59195 209
68.61206 206
68.63217 182
68.65229 191
68.6724 196
68.69251 165
68.71263 169
68.73274 182
68.75286 161
68.77297 172
68.79308 163
68.8132 162
68.83331 153
68.85342 159
68.87354 149
68.89365 159
68.91376 152
68.93388 129
68.95399 151
68.97411 171
68.99422 159
69.01433 163
69.03445 147
69.05456 135
69.07467 133
69.09479 159
69.1149 165
69.13502 157
69.15513 164
69.17524 148
69.19536 155
69.21547 122
69.23558 148
69.2557 118
69.27581 146
69.29593 153
69.31604 159
69.33615 149
69.35627 139
69.37638 132
69.39649 137
69.41661 139
69.43672 166
69.45683 142
69.47695 147
69.49706 130
69.51718 150
69.53729 135
69.5574 123
69.57752 141
69.59763 139
69.61774 136
69.63786 138
69.65797 145
69.67809 134
69.6982 128
69.71831 135
69.73843 122
69.75854 123
69.77865 140
69.79877 149
69.81888 145
69.839 141
69.85911 141
69.87922 132
69.89934 140
69.91945 139
69.93956 144
69.95968 140
69.97979 130
69.9999 154
70.02002 130
70.04013 137
70.06025 137
70.08036 143
70.10047 150
70.12059 142
70.1407 141
70.16081 128
70.18093 140
70.20104 146
70.22116 153
70.24127 144
70.26138 145
70.2815 138
70.30161 129
70.32172 128
70.34184 132
70.36195 107
70.38207 119
70.40218 124
70.42229 118
70.44241 119
70.46252 138
70.48263 147
70.50275 141
70.52286 127
70.54297 132
70.56309 164
70.5832 150
70.60332 131
70.62343 140
70.64354 140
70.66366 121
70.68377 121
70.70388 149
70.724 158
70.74411 156
70.76423 154
70.78434 162
70.80445 162
70.82457 146
70.84468 127
70.86479 137
70.88491 148
70.90502 122
70.92513 142
70.94525 141
70.96536 127
70.98548 143
71.00559 144
71.0257 143
71.04582 145
71.06593 133
71.08604 131
71.10616 134
71.12627 113
71.14639 128
71.1665 138
71.18661 123
71.20673 132
71.22684 132
71.24695 129
71.26707 138
71.28718 120
71.3073 137
71.32741 136
71.34752 140
71.36764 149
71.38775 146
71.40786 150
71.42798 155
71.44809 131
71.4682 136
71.48832 150
71.50843 130
71.52855 137
71.54866 151
71.56877 149
71.58889 160
71.609 160
71.62911 147
71.64923 133
71.66934 156
71.68946 134
71.70957 142
71.72968 144
71.7498 154
71.76991 143
71.79002 149
71.81014 126
71.83025 145
71.85037 143
71.87048 145
71.89059 139
71.91071 148
71.93082 139
71.95093 148
71.97105 153
71.99116 155
72.01127 164
72.03139 149
72.0515 147
72.07162 150
72.09173 159
72.11184 181
72.13196 154
72.15207 156
72.17218 157
72.1923 152
72.21241 175
72.23253 159
72.25264 160
72.27275 166
72.29287 160
72.31298 142
72.33309 154
72.35321 152
72.37332 147
72.39344 142
72.41355 118
72.43366 167
72.45378 157
72.47389 168
72.494 154
72.51412 130
72.53423 144
72.55434 136
72.57446 141
72.59457 135
72.61469 139
72.6348 138
72.65491 171
72.67503 130
72.69514 148
72.71525 159
72.73537 152
72.75548 142
72.7756 134
72.79571 143
72.81582 178
72.83594 154
72.85605 140
72.87616 166
72.89628 153
72.91639 172
72.9365 152
72.95662 175
72.97673 167
72.99685 197
73.01696 191
73.03707 182
73.05719 201
73.0773 196
73.09741 211
73.11753 218
73.13764 206
73.15776 239
73.17787 243
73.19798 235
73.2181 262
73.23821 274
73.25832 308
73.27844 312
73.29855 338
73.31867 383
73.33878 437
73.35889 398
73.37901 417
73.39912 449
73.41923 434
73.43935 423
73.45946 392
73.47957 343
73.49969 361
73.5198 296
73.53992 260
73.56003 299
73.58014 287
73.60026 316
73.62037 282
73.64048 267
73.6606 257
73.68071 243
73.70083 213
73.72094 207
73.74105 167
73.76117 170
73.78128 158
73.80139 158
73.82151 151
73.84162 138
73.86174 152
73.88185 154
73.90196 149
73.92208 155
73.94219 131
73.9623 130
73.98242 132
74.00253 158
74.02264 136
74.04276 147
74.06287 129
74.08299 125
74.1031 151
74.12321 128
74.14333 144
74.16344 142
74.18355 120
74.20367 145
74.22378 126
74.2439 142
74.26401 143
74.28412 128
74.30424 142
74.32435 151
74.34446 135
74.36458 136
74.38469 126
74.40481 155
74.42492 135
74.44503 155
74.46515 147
74.48526 148
74.50537 144
74.52549 151
74.5456 168
74.56571 152
74.58583 136
74.60594 155
74.62606 139
74.64617 152
74.66628 152
74.6864 131
74.70651 179
74.72662 165
74.74674 133
74.76685 161
74.78697 144
74.80708 138
74.82719 132
74.84731 146
74.86742 163
74.88753 147
74.90765 155
74.92776 156
74.94787 163
74.96799 149
74.9881 160
75.00822 132
