3.00117 20244
3.02128 19735
3.0414 19360
3.06151 18477
3.08162 18107
3.10174 17614
3.12185 17001
3.14197 16528
3.16208 15964
3.18219 15924
3.20231 15438
3.22242 14740
3.24253 14459
3.26265 13821
3.28276 13362
3.30288 13121
3.32299 12326
3.3431 12020
3.36322 11586
3.38333 11483
3.40344 11013
3.42356 10572
3.44367 10434
3.46379 9752
3.4839 9536
3.50401 9050
3.52413 8847
3.54424 8597
3.56435 8346
3.58447 7924
3.60458 7613
3.62469 7409
3.64481 6929
3.66492 6701
3.68504 6622
3.70515 6228
3.72526 5987
3.74538 5871
3.76549 5422
3.7856 5289
3.80572 4996
3.82583 4792
3.84595 4721
3.86606 4436
3.88617 4134
3.90629 4083
3.9264 3802
3.94651 3693
3.96663 3427
3.98674 3394
4.00686 3288
4.02697 3014
4.04708 2894
4.0672 2682
4.08731 2624
4.10742 2576
4.12754 2349
4.14765 2196
4.16776 2111
4.18788 2176
4.20799 2229
4.22811 1989
4.24822 1910
4.26833 1812
4.28845 1765
4.30856 1809
4.32867 1607
4.34879 1647
4.3689 1507
4.38902 1474
4.40913 1468
4.42924 1380
4.44936 1297
4.46947 1305
4.48958 1300
4.5097 1324
4.52981 1143
4.54992 1233
4.57004 1111
4.59015 1137
4.61027 1261
4.63038 1049
4.65049 1003
4.67061 964
4.69072 985
4.71083 1045
4.73095 846
4.75106 923
4.77118 903
4.79129 909
4.8114 867
4.83152 760
4.85163 812
4.87174 776
4.89186 740
4.91197 747
4.93209 706
4.9522 715
4.97231 667
4.99243 673
5.01254 721
5.03265 630
5.05277 543
5.07288 652
5.09299 558
5.11311 613
5.13322 564
5.15334 542
5.17345 528
5.19356 476
5.21368 531
5.23379 448
5.2539 503
5.27402 457
5.29413 477
5.31425 475
5.33436 397
5.35447 424
5.37459 411
5.3947 430
5.41481 379
5.43493 363
5.45504 350
5.47516 335
5.49527 345
5.51538 343
5.5355 321
5.55561 318
5.57572 315
5.59584 328
5.61595 285
5.63606 326
5.65618 269
5.67629 240
5.69641 272
5.71652 235
5.73663 286
5.75675 223
5.77686 255
5.79697 241
5.81709 278
5.8372 250
5.85732 205
5.87743 245
5.89754 226
5.91766 230
5.93777 221
5.95788 242
5.978 242
5.99811 232
6.01823 191
6.03834 234
6.05845 184
6.07857 188
6.09868 191
6.11879 213
6.13891 210
6.15902 192
6.17913 204
6.19925 196
6.21936 190
6.23948 191
6.25959 177
6.2797 196
6.29982 172
6.31993 176
6.34004 185
6.36016 203
6.38027 197
6.40039 184
6.4205 199
6.44061 188
6.46073 188
6.48084 180
6.50095 183
6.52107 171
6.54118 200
6.56129 187
6.58141 189
6.60152 159
6.62164 168
6.64175 163
6.66186 188
6.68198 151
6.70209 161
6.7222 164
6.74232 157
6.76243 170
6.78255 162
6.80266 145
6.82277 169
6.84289 177
6.863 165
6.88311 174
6.90323 179
6.92334 170
6.94346 177
6.96357 158
6.98368 170
7.0038 176
7.02391 148
7.04402 179
7.06414 184
7.08425 204
7.10436 207
7.12448 190
7.14459 162
7.16471 156
7.18482 171
7.20493 173
7.22505 180
7.24516 179
7.26527 186
7.28539 184
7.3055 197
7.32562 161
7.34573 183
7.36584 148
7.38596 174
7.40607 152
7.42618 206
7.4463 151
7.46641 160
7.48653 187
7.50664 195
7.52675 179
7.54687 200
7.56698 179
7.58709 178
7.60721 194
7.62732 172
7.64743 177
7.66755 219
7.68766 175
7.70778 189
7.72789 167
7.748 183
7.76812 202
7.78823 189
7.80834 173
7.82846 204
7.84857 186
7.86869 179
7.8888 216
7.90891 174
7.92903 190
7.94914 187
7.96925 205
7.98937 199
8.00948 192
8.0296 193
8.04971 181
8.06982 221
8.08994 190
8.11005 232
8.13016 189
8.15028 216
8.17039 194
8.1905 185
8.21062 169
8.23073 181
8.25085 180
8.27096 183
8.29107 183
8.31119 177
8.3313 189
8.35141 209
8.37153 203
8.39164 209
8.41176 187
8.43187 182
8.45198 192
8.4721 249
8.49221 212
8.51232 204
8.53244 197
8.55255 192
8.57266 184
8.59278 209
8.61289 166
8.63301 207
8.65312 207
8.67323 218
8.69335 211
8.71346 199
8.73357 203
8.75369 205
8.7738 179
8.79392 200
8.81403 211
8.83414 222
8.85426 214
8.87437 193
8.89448 229
8.9146 176
8.93471 217
8.95483 222
8.97494 221
8.99505 202
9.01517 191
9.03528 215
9.05539 184
9.07551 177
9.09562 206
9.11573 205
9.13585 208
9.15596 214
9.17608 211
9.19619 212
9.2163 215
9.23642 201
9.25653 228
9.27664 225
9.29676 218
9.31687 202
9.33699 185
9.3571 259
9.37721 214
9.39733 215
9.41744 195
9.43755 190
9.45767 203
9.47778 210
9.4979 230
9.51801 213
9.53812 208
9.55824 201
9.57835 223
9.59846 197
9.61858 213
9.63869 191
9.6588 212
9.67892 225
9.69903 230
9.71915 186
9.73926 196
9.75937 223
9.77949 203
9.7996 197
9.81971 207
9.83983 211
9.85994 224
9.88006 223
9.90017 221
9.92028 208
9.9404 211
9.96051 205
9.98062 241
10.00074 169
10.02085 195
10.04097 227
10.06108 200
10.08119 219
10.10131 214
10.12142 230
10.14153 196
10.16165 203
10.18176 211
10.20187 177
10.22199 203
10.2421 199
10.26222 226
10.28233 209
10.30244 214
10.32256 217
10.34267 220
10.36278 248
10.3829 207
10.40301 222
10.42313 224
10.44324 186
10.46335 222
10.48347 257
10.50358 205
10.52369 222
10.54381 218
10.56392 205
10.58403 213
10.60415 206
10.62426 239
10.64438 213
10.66449 217
10.6846 224
10.70472 189
10.72483 209
10.74494 201
10.76506 203
10.78517 210
10.80529 206
10.8254 214
10.84551 220
10.86563 201
10.88574 233
10.90585 198
10.92597 223
10.94608 221
10.9662 192
10.98631 211
11.00642 232
11.02654 200
11.04665 214
11.06676 230
11.08688 220
11.10699 230
11.1271 202
11.14722 224
11.16733 214
11.18745 188
11.20756 184
11.22767 193
11.24779 211
11.2679 223
11.28801 206
11.30813 243
11.32824 197
11.34836 198
11.36847 227
11.38858 219
11.4087 249
11.42881 205
11.44892 241
11.46904 239
11.48915 201
11.50927 216
11.52938 188
11.54949 217
11.56961 196
11.58972 220
11.60983 199
11.62995 208
11.65006 215
11.67017 214
11.69029 216
11.7104 235
11.73052 243
11.75063 212
11.77074 237
11.79086 229
11.81097 227
11.83108 242
11.8512 233
11.87131 232
11.89143 204
11.91154 226
11.93165 239
11.95177 221
11.97188 227
11.99199 229
12.01211 232
12.03222 225
12.05234 252
12.07245 237
12.09256 240
12.11268 237
12.13279 275
12.1529 260
12.17302 233
12.19313 243
12.21324 263
12.23336 281
12.25347 236
12.27359 249
12.2937 271
12.31381 270
12.33393 263
12.35404 266
12.37415 268
12.39427 251
12.41438 245
12.4345 269
12.45461 240
12.47472 230
12.49484 228
12.51495 233
12.53506 231
12.55518 211
12.57529 243
12.5954 234
12.61552 195
12.63563 220
12.65575 206
12.67586 202
12.69597 218
12.71609 188
12.7362 204
12.75631 189
12.77643 202
12.79654 184
12.81666 191
12.83677 208
12.85688 183
12.877 218
12.89711 230
12.91722 185
12.93734 209
12.95745 191
12.97757 195
12.99768 153
13.01779 209
13.03791 197
13.05802 178
13.07813 206
13.09825 222
13.11836 205
13.13847 215
13.15859 200
13.1787 204
13.19882 196
13.21893 207
13.23904 190
13.25916 192
13.27927 192
13.29938 189
13.3195 189
13.33961 181
13.35973 192
13.37984 199
13.39995 221
13.42007 207
13.44018 192
13.46029 205
13.48041 214
13.50052 180
13.52064 216
13.54075 192
13.56086 201
13.58098 185
13.60109 200
13.6212 192
13.64132 214
13.66143 208
13.68154 200
13.70166 245
13.72177 201
13.74189 197
13.762 208
13.78211 178
13.80223 186
13.82234 178
13.84245 165
13.86257 201
13.88268 179
13.9028 170
13.92291 190
13.94302 189
13.96314 185
13.98325 179
14.00336 193
14.02348 178
14.04359 177
14.06371 204
14.08382 162
14.10393 167
14.12405 163
14.14416 178
14.16427 176
14.18439 181
14.2045 164
14.22461 164
14.24473 204
14.26484 168
14.28496 179
14.30507 169
14.32518 177
14.3453 177
14.36541 194
14.38552 181
14.40564 173
14.42575 165
14.44587 178
14.46598 183
14.48609 166
14.50621 188
14.52632 185
14.54643 183
14.56655 183
14.58666 171
14.60677 173
14.62689 209
14.647 181
14.66712 157
14.68723 155
14.70734 178
14.72746 168
14.74757 174
14.76768 151
14.7878 193
14.80791 169
14.82803 165
14.84814 175
14.86825 186
14.88837 176
14.90848 193
14.92859 184
14.94871 193
14.96882 179
14.98894 163
15.00905 170
15.02916 176
15.04928 166
15.06939 200
15.0895 170
15.10962 176
15.12973 192
15.14984 193
15.16996 166
15.19007 164
15.21019 168
15.2303 186
15.25041 155
15.27053 168
15.29064 197
15.31075 194
15.33087 180
15.35098 164
15.3711 190
15.39121 146
15.41132 165
15.43144 185
15.45155 169
15.47166 167
15.49178 167
15.51189 195
15.53201 171
15.55212 170
15.57223 171
15.59235 198
15.61246 175
15.63257 156
15.65269 173
15.6728 153
15.69291 147
15.71303 164
15.73314 146
15.75326 142
15.77337 179
15.79348 169
15.8136 156
15.83371 196
15.85382 188
15.87394 154
15.89405 211
15.91417 179
15.93428 177
15.95439 194
15.97451 195
15.99462 177
16.01473 170
16.03485 181
16.05496 183
16.07508 177
16.09519 168
16.1153 147
16.13542 158
16.15553 166
16.17564 162
16.19576 179
16.21587 160
16.23598 146
16.2561 157
16.27621 139
16.29633 159
16.31644 186
16.33655 167
16.35667 153
16.37678 172
16.39689 155
16.41701 158
16.43712 172
16.45724 167
16.47735 182
16.49746 172
16.51758 148
16.53769 150
16.5578 180
16.57792 159
16.59803 142
16.61814 146
16.63826 158
16.65837 160
16.67849 159
16.6986 159
16.71871 166
16.73883 150
16.75894 127
16.77905 129
16.79917 164
16.81928 164
16.8394 143
16.85951 170
16.87962 148
16.89974 196
16.91985 141
16.93996 152
16.96008 147
16.98019 137
17.00031 150
17.02042 149
17.04053 163
17.06065 126
17.08076 160
17.10087 189
17.12099 164
17.1411 141
17.16121 169
17.18133 161
17.20144 161
17.22156 156
17.24167 149
17.26178 146
17.2819 149
17.30201 137
17.32212 158
17.34224 151
17.36235 158
17.38247 161
17.40258 143
17.42269 125
17.44281 164
17.46292 165
17.48303 162
17.50315 150
17.52326 132
17.54338 157
17.56349 147
17.5836 168
17.60372 137
17.62383 125
17.64394 152
17.66406 157
17.68417 191
17.70428 159
17.7244 142
17.74451 182
17.76463 148
17.78474 144
17.80485 137
17.82497 147
17.84508 178
17.86519 157
17.88531 167
17.90542 155
17.92554 162
17.94565 152
17.96576 144
17.98588 153
18.00599 169
18.0261 157
18.04622 157
18.06633 160
18.08645 165
18.10656 155
18.12667 143
18.14679 151
18.1669 154
18.18701 166
18.20713 137
18.22724 169
18.24735 138
18.26747 163
18.28758 158
18.3077 133
18.32781 163
18.34792 153
18.36804 133
18.38815 159
18.40826 162
18.42838 171
18.44849 155
18.46861 157
18.48872 162
18.50883 161
18.52895 158
18.54906 159
18.56917 158
18.58929 147
18.6094 159
18.62951 144
18.64963 169
18.66974 145
18.68986 173
18.70997 179
18.73008 170
18.7502 163
18.77031 155
18.79042 190
18.81054 174
18.83065 155
18.85077 186
18.87088 164
18.89099 153
18.91111 157
18.93122 140
18.95133 147
18.97145 162
18.99156 170
19.01168 180
19.03179 169
19.0519 159
19.07202 153
19.09213 170
19.11224 150
19.13236 175
19.15247 156
19.17258 146
19.1927 136
19.21281 160
19.23293 153
19.25304 159
19.27315 184
19.29327 187
19.31338 159
19.33349 158
19.35361 130
19.37372 165
19.39384 162
19.41395 157
19.43406 184
19.45418 189
19.47429 166
19.4944 205
19.51452 170
19.53463 202
19.55475 188
19.57486 201
19.59497 186
19.61509 188
19.6352 202
19.65531 191
19.67543 191
19.69554 183
19.71565 173
19.73577 205
19.75588 250
19.776 215
19.79611 239
19.81622 224
19.83634 216
19.85645 267
19.87656 274
19.89668 247
19.91679 271
19.93691 240
19.95702 250
19.97713 236
19.99725 242
20.01736 236
20.03747 230
20.05759 227
20.0777 261
20.09782 245
20.11793 277
20.13804 226
20.15816 263
20.17827 304
20.19838 312
20.2185 286
20.23861 288
20.25872 303
20.27884 294
20.29895 271
20.31907 306
20.33918 308
20.35929 313
20.37941 289
20.39952 323
20.41963 306
20.43975 322
20.45986 356
20.47998 406
20.50009 407
20.5202 372
20.54032 402
20.56043 416
20.58054 480
20.60066 474
20.62077 590
20.64088 663
20.661 752
20.68111 927
20.70123 1264
20.72134 1775
20.74145 2551
20.76157 3503
20.78168 4745
20.80179 6270
20.82191 7614
20.84202 8412
20.86214 8145
20.88225 7182
20.90236 5275
20.92248 3695
20.94259 2272
20.9627 1367
20.98282 976
21.00293 765
21.02305 673
21.04316 630
21.06327 585
21.08339 521
21.1035 462
21.12361 416
21.14373 370
21.16384 363
21.18395 352
21.20407 291
21.22418 316
21.2443 297
21.26441 310
21.28452 271
21.30464 275
21.32475 225
21.34486 229
21.36498 260
21.38509 259
21.40521 250
21.42532 255
21.44543 219
21.46555 235
21.48566 234
21.50577 258
21.52589 247
21.546 245
21.56612 205
21.58623 266
21.60634 243
21.62646 206
21.64657 239
21.66668 240
21.6868 235
21.70691 270
21.72702 227
21.74714 225
21.76725 221
21.78737 231
21.80748 185
21.82759 229
21.84771 223
21.86782 217
21.88793 226
21.90805 239
21.92816 226
21.94828 240
21.96839 232
21.9885 220
22.00862 221
22.02873 207
22.04884 224
22.06896 218
22.08907 238
22.10919 208
22.1293 218
22.14941 212
22.16953 219
22.18964 238
22.20975 217
22.22987 270
22.24998 214
22.27009 232
22.29021 225
22.31032 247
22.33044 234
22.35055 210
22.37066 234
22.39078 207
22.41089 202
22.431 204
22.45112 208
22.47123 214
22.49135 222
22.51146 211
22.53157 226
22.55169 216
22.5718 226
22.59191 236
22.61203 244
22.63214 218
22.65225 225
22.67237 244
22.69248 221
22.7126 212
22.73271 207
22.75282 197
22.77294 204
22.79305 193
22.81316 202
22.83328 195
22.85339 205
22.87351 203
22.89362 185
22.91373 212
22.93385 191
22.95396 177
22.97407 189
22.99419 192
23.0143 218
23.03442 256
23.05453 239
23.07464 236
23.09476 240
23.11487 264
23.13498 254
23.1551 280
23.17521 253
23.19532 265
23.21544 239
23.23555 219
23.25567 251
23.27578 201
23.29589 210
23.31601 205
23.33612 217
23.35623 210
23.37635 229
23.39646 211
23.41658 175
23.43669 211
23.4568 214
23.47692 229
23.49703 201
23.51714 241
23.53726 216
23.55737 225
23.57749 188
23.5976 207
23.61771 224
23.63783 218
23.65794 204
23.67805 220
23.69817 217
23.71828 210
23.73839 231
23.75851 201
23.77862 247
23.79874 214
23.81885 264
23.83896 234
23.85908 240
23.87919 258
23.8993 244
23.91942 304
23.93953 286
23.95965 342
23.97976 354
23.99987 348
24.01999 305
24.0401 319
24.06021 250
24.08033 252
24.10044 241
24.12056 222
24.14067 177
24.16078 211
24.1809 226
24.20101 208
24.22112 227
24.24124 171
24.26135 206
24.28146 241
24.30158 235
24.32169 259
24.34181 227
24.36192 215
24.38203 220
24.40215 232
24.42226 201
24.44237 256
24.46249 245
24.4826 243
24.50272 233
24.52283 226
24.54294 240
24.56306 240
24.58317 230
24.60328 268
24.6234 218
24.64351 242
24.66362 261
24.68374 262
24.70385 224
24.72397 272
24.74408 268
24.76419 212
24.78431 254
24.80442 238
24.82453 270
24.84465 259
24.86476 273
24.88488 247
24.90499 240
24.9251 268
24.94522 255
24.96533 272
24.98544 236
25.00556 221
25.02567 241
25.04579 225
25.0659 229
25.08601 219
25.10613 234
25.12624 208
25.14635 215
25.16647 240
25.18658 261
25.20669 264
25.22681 241
25.24692 222
25.26704 239
25.28715 240
25.30726 231
25.32738 249
25.34749 216
25.3676 213
25.38772 222
25.40783 248
25.42795 238
25.44806 256
25.46817 296
25.48829 369
25.5084 325
25.52851 409
25.54863 405
25.56874 359
25.58886 346
25.60897 374
25.62908 380
25.6492 412
25.66931 447
25.68942 378
25.70954 423
25.72965 472
25.74976 435
25.76988 445
25.78999 423
25.81011 447
25.83022 426
25.85033 468
25.87045 464
25.89056 429
25.91067 489
25.93079 514
25.9509 512
25.97102 504
25.99113 514
26.01124 500
26.03136 528
26.05147 529
26.07158 550
26.0917 571
26.11181 668
26.13193 730
26.15204 715
26.17215 709
26.19227 819
26.21238 873
26.23249 921
26.25261 1030
26.27272 1086
26.29283 1183
26.31295 1348
26.33306 1488
26.35318 1673
26.37329 1910
26.3934 2179
26.41352 2644
26.43363 3462
26.45374 4403
26.47386 6052
26.49397 8234
26.51409 11652
26.5342 16230
26.55431 21937
26.57443 28537
26.59454 34201
26.61465 37798
26.63477 36900
26.65488 32341
26.67499 24846
26.69511 18904
26.71522 13560
26.73534 8638
26.75545 4902
26.77556 2922
26.79568 2220
26.81579 1800
26.8359 1640
26.85602 1463
26.87613 1270
26.89625 1158
26.91636 1124
26.93647 998
26.95659 957
26.9767 875
26.99681 813
27.01693 760
27.03704 805
27.05716 783
27.07727 732
27.09738 685
27.1175 599
27.13761 602
27.15772 557
27.17784 520
27.19795 500
27.21806 478
27.23818 447
27.25829 474
27.27841 530
27.29852 545
27.31863 514
27.33875 547
27.35886 603
27.37897 628
27.39909 662
27.4192 663
27.43932 675
27.45943 700
27.47954 590
27.49966 590
27.51977 548
27.53988 530
27.56 512
27.58011 416
27.60023 391
27.62034 392
27.64045 348
27.66057 327
27.68068 326
27.70079 300
27.72091 303
27.74102 297
27.76113 338
27.78125 342
27.80136 330
27.82148 322
27.84159 315
27.8617 284
27.88182 260
27.90193 320
27.92204 320
27.94216 300
27.96227 318
27.98239 317
28.0025 302
28.02261 300
28.04273 258
28.06284 270
28.08295 265
28.10307 262
28.12318 244
28.1433 252
28.16341 256
28.18352 260
28.20364 253
28.22375 278
28.24386 276
28.26398 242
28.28409 266
28.3042 241
28.32432 240
28.34443 242
28.36455 238
28.38466 261
28.40477 220
28.42489 234
28.445 242
28.46511 274
28.48523 221
28.50534 235
28.52546 227
28.54557 220
28.56568 227
28.5858 213
28.60591 249
28.62602 224
28.64614 208
28.66625 253
28.68636 243
28.70648 211
28.72659 216
28.74671 218
28.76682 226
28.78693 234
28.80705 234
28.82716 244
28.84727 216
28.86739 263
28.8875 213
28.90762 213
28.92773 226
28.94784 183
28.96796 216
28.98807 248
29.00818 221
29.0283 207
29.04841 225
29.06853 221
29.08864 224
29.10875 245
29.12887 227
29.14898 213
29.16909 201
29.18921 224
29.20932 222
29.22943 205
29.24955 226
29.26966 205
29.28978 214
29.30989 229
29.33 243
29.35012 270
29.37023 276
29.39034 252
29.41046 245
29.43057 285
29.45069 280
29.4708 265
29.49091 224
29.51103 254
29.53114 219
29.55125 218
29.57137 199
29.59148 217
29.6116 228
29.63171 219
29.65182 232
29.67194 229
29.69205 215
29.71216 232
29.73228 235
29.75239 211
29.7725 214
29.79262 227
29.81273 205
29.83285 239
29.85296 230
29.87307 207
29.89319 212
29.9133 214
29.93341 207
29.95353 218
29.97364 228
29.99376 211
30.01387 219
30.03398 196
30.0541 246
30.07421 225
30.09432 234
30.11444 243
30.13455 271
30.15467 245
30.17478 268
30.19489 260
30.21501 259
30.23512 235
30.25523 262
30.27535 224
30.29546 203
30.31557 242
30.33569 216
30.3558 208
30.37592 189
30.39603 211
30.41614 210
30.43626 204
30.45637 191
30.47648 199
30.4966 213
30.51671 193
30.53683 183
30.55694 198
30.57705 205
30.59717 192
30.61728 226
30.63739 206
30.65751 216
30.67762 214
30.69773 231
30.71785 234
30.73796 240
30.75808 211
30.77819 240
30.7983 253
30.81842 241
30.83853 233
30.85864 222
30.87876 238
30.89887 218
30.91899 206
30.9391 203
30.95921 230
30.97933 219
30.99944 218
31.01955 177
31.03967 183
31.05978 178
31.0799 189
31.10001 166
31.12012 206
31.14024 169
31.16035 138
31.18046 179
31.20058 182
31.22069 197
31.2408 159
31.26092 163
31.28103 174
31.30115 155
31.32126 176
31.34137 164
31.36149 197
31.3816 173
31.40171 177
31.42183 181
31.44194 165
31.46206 192
31.48217 179
31.50228 148
31.5224 188
31.54251 153
31.56262 170
31.58274 168
31.60285 170
31.62297 163
31.64308 145
31.66319 175
31.68331 141
31.70342 150
31.72353 181
31.74365 140
31.76376 163
31.78387 141
31.80399 161
31.8241 189
31.84422 177
31.86433 156
31.88444 153
31.90456 187
31.92467 174
31.94478 144
31.9649 179
31.98501 182
32.00513 151
32.02524 150
32.04535 172
32.06547 187
32.08558 201
32.10569 174
32.12581 194
32.14592 200
32.16604 168
32.18615 188
32.20626 193
32.22638 189
32.24649 195
32.2666 204
32.28672 206
32.30683 168
32.32694 212
32.34706 186
32.36717 210
32.38729 179
32.4074 173
32.42751 210
32.44763 189
32.46774 240
32.48785 222
32.50797 218
32.52808 225
32.5482 246
32.56831 254
32.58842 247
32.60854 210
32.62865 200
32.64876 208
32.66888 190
32.68899 176
32.7091 196
32.72922 157
32.74933 176
32.76945 154
32.78956 174
32.80967 158
32.82979 182
32.8499 144
32.87001 164
32.89013 175
32.91024 141
32.93036 151
32.95047 171
32.97058 162
32.9907 118
33.01081 142
33.03092 140
33.05104 149
33.07115 157
33.09127 156
33.11138 144
33.13149 146
33.15161 144
33.17172 143
33.19183 126
33.21195 151
33.23206 142
33.25217 118
33.27229 142
33.2924 133
33.31252 144
33.33263 141
33.35274 146
33.37286 152
33.39297 128
33.41308 166
33.4332 140
33.45331 130
33.47343 126
33.49354 131
33.51365 123
33.53377 114
33.55388 155
33.57399 142
33.59411 134
33.61422 131
33.63434 136
33.65445 124
33.67456 133
33.69468 129
33.71479 144
33.7349 145
33.75502 148
33.77513 129
33.79524 139
33.81536 126
33.83547 142
33.85559 161
33.8757 151
33.89581 137
33.91593 123
33.93604 131
33.95615 138
33.97627 162
33.99638 141
34.0165 154
34.03661 148
34.05672 134
34.07684 144
34.09695 168
34.11706 154
34.13718 198
34.15729 187
34.17741 170
34.19752 176
34.21763 207
34.23775 183
34.25786 195
34.27797 150
34.29809 163
34.3182 157
34.33831 186
34.35843 143
34.37854 150
34.39866 150
34.41877 153
34.43888 149
34.459 156
34.47911 151
34.49922 139
34.51934 145
34.53945 148
34.55957 143
34.57968 157
34.59979 174
34.61991 181
34.64002 179
34.66013 158
34.68025 174
34.70036 169
34.72047 169
34.74059 161
34.7607 192
34.78082 171
34.80093 173
34.82104 185
34.84116 186
34.86127 184
34.88138 208
34.9015 185
34.92161 219
34.94173 180
34.96184 197
34.98195 203
35.00207 187
35.02218 178
35.04229 218
35.06241 182
35.08252 216
35.10264 180
35.12275 175
35.14286 217
35.16298 197
35.18309 194
35.2032 230
35.22332 189
35.24343 181
35.26354 206
35.28366 207
35.30377 190
35.32389 200
35.344 214
35.36411 209
35.38423 212
35.40434 226
35.42445 190
35.44457 219
35.46468 213
35.4848 191
35.50491 239
35.52502 225
35.54514 207
35.56525 218
35.58536 218
35.60548 208
35.62559 220
35.64571 214
35.66582 173
35.68593 217
35.70605 205
35.72616 161
35.74627 193
35.76639 183
35.7865 177
35.80661 211
35.82673 200
35.84684 210
35.86696 206
35.88707 202
35.90718 184
35.9273 195
35.94741 203
35.96752 222
35.98764 196
36.00775 216
36.02787 229
36.04798 215
36.06809 204
36.08821 202
36.10832 192
36.12843 207
36.14855 257
36.16866 243
36.18878 226
36.20889 254
36.229 258
36.24912 279
36.26923 296
36.28934 360
36.30946 364
36.32957 471
36.34968 545
36.3698 630
36.38991 798
36.41003 1042
36.43014 1270
36.45025 1629
36.47037 1974
36.49048 2268
36.51059 2487
36.53071 2388
36.55082 2125
36.57094 1810
36.59105 1510
36.61116 1288
36.63128 1090
36.65139 842
36.6715 544
36.69162 386
36.71173 300
36.73184 243
36.75196 286
36.77207 237
36.79219 219
36.8123 242
36.83241 205
36.85253 227
36.87264 223
36.89275 202
36.91287 226
36.93298 187
36.9531 185
36.97321 186
36.99332 172
37.01344 193
37.03355 209
37.05366 194
37.07378 172
37.09389 180
37.11401 197
37.13412 184
37.15423 157
37.17435 156
37.19446 183
37.21457 175
37.23469 166
37.2548 149
37.27491 161
37.29503 171
37.31514 144
37.33526 166
37.35537 154
37.37548 144
37.3956 191
37.41571 151
37.43582 171
37.45594 174
37.47605 178
37.49617 165
37.51628 166
37.53639 129
37.55651 165
37.57662 192
37.59673 173
37.61685 174
37.63696 178
37.65708 177
37.67719 169
37.6973 187
37.71742 179
37.73753 174
37.75764 166
37.77776 156
37.79787 178
37.81798 174
37.8381 158
37.85821 163
37.87833 172
37.89844 169
37.91855 167
37.93867 133
37.95878 178
37.97889 154
37.99901 180
38.01912 170
38.03924 173
38.05935 175
38.07946 164
38.09958 189
38.11969 183
38.1398 183
38.15992 197
38.18003 179
38.20015 184
38.22026 181
38.24037 161
38.26049 166
38.2806 147
38.30071 160
38.32083 175
38.34094 168
38.36105 165
38.38117 202
38.40128 171
38.4214 180
38.44151 222
38.46162 195
38.48174 204
38.50185 206
38.52196 211
38.54208 187
38.56219 191
38.58231 194
38.60242 168
38.62253 161
38.64265 175
38.66276 162
38.68287 170
38.70299 158
38.7231 157
38.74321 182
38.76333 193
38.78344 159
38.80356 188
38.82367 197
38.84378 181
38.8639 189
38.88401 172
38.90412 174
38.92424 196
38.94435 182
38.96447 189
38.98458 225
39.00469 201
39.02481 221
39.04492 210
39.06503 200
39.08515 192
39.10526 269
39.12538 227
39.14549 283
39.1656 265
39.18572 303
39.20583 342
39.22594 360
39.24606 411
39.26617 512
39.28628 593
39.3064 788
39.32651 908
39.34663 1146
39.36674 1339
39.38685 1808
39.40697 2181
39.42708 2336
39.44719 2355
39.46731 2164
39.48742 1781
39.50754 1417
39.52765 1350
39.54776 1167
39.56788 936
39.58799 750
39.6081 477
39.62822 392
39.64833 296
39.66845 278
39.68856 270
39.70867 225
39.72879 228
39.7489 243
39.76901 218
39.78913 201
39.80924 225
39.82935 186
39.84947 198
39.86958 211
39.8897 221
39.90981 220
39.92992 243
39.95004 205
39.97015 204
39.99026 226
40.01038 247
40.03049 257
40.05061 250
40.07072 308
40.09083 311
40.11095 382
40.13106 487
40.15117 585
40.17129 689
40.1914 762
40.21152 1025
40.23163 1144
40.25174 1218
40.27186 1273
40.29197 1058
40.31208 871
40.3322 839
40.35231 733
40.37242 698
40.39254 543
40.41265 457
40.43277 330
40.45288 288
40.47299 234
40.49311 189
40.51322 200
40.53333 191
40.55345 199
40.57356 196
40.59368 181
40.61379 174
40.6339 176
40.65402 155
40.67413 161
40.69424 155
40.71436 144
40.73447 170
40.75458 182
40.7747 162
40.79481 164
40.81493 144
40.83504 159
40.85515 150
40.87527 169
40.89538 163
40.91549 174
40.93561 150
40.95572 162
40.97584 151
40.99595 178
41.01606 144
41.03618 160
41.05629 164
41.0764 167
41.09652 174
41.11663 158
41.13675 186
41.15686 155
41.17697 136
41.19709 175
41.2172 165
41.23731 152
41.25743 136
41.27754 149
41.29765 152
41.31777 170
41.33788 167
41.358 149
41.37811 177
41.39822 166
41.41834 184
41.43845 182
41.45856 171
41.47868 166
41.49879 172
41.51891 197
41.53902 160
41.55913 180
41.57925 188
41.59936 200
41.61947 183
41.63959 176
41.6597 196
41.67982 209
41.69993 231
41.72004 228
41.74016 217
41.76027 218
41.78038 241
41.8005 213
41.82061 245
41.84072 271
41.86084 228
41.88095 219
41.90107 230
41.92118 196
41.94129 196
41.96141 216
41.98152 178
42.00163 209
42.02175 172
42.04186 170
42.06198 176
42.08209 191
42.1022 253
42.12232 220
42.14243 241
42.16254 238
42.18266 278
42.20277 312
42.22289 361
42.243 389
42.26311 440
42.28323 552
42.30334 689
42.32345 857
42.34357 1114
42.36368 1335
42.38379 1506
42.40391 1628
42.42402 1645
42.44414 1531
42.46425 1289
42.48436 1127
42.50448 1024
42.52459 887
42.5447 843
42.56482 644
42.58493 483
42.60505 342
42.62516 271
42.64527 259
42.66539 251
42.6855 194
42.70561 200
42.72573 189
42.74584 177
42.76595 221
42.78607 185
42.80618 180
42.8263 175
42.84641 155
42.86652 149
42.88664 137
42.90675 174
42.92686 142
42.94698 156
42.96709 177
42.98721 150
43.00732 153
43.02743 164
43.04755 157
43.06766 153
43.08777 156
43.10789 143
43.128 147
43.14812 159
43.16823 160
43.18834 162
43.20846 147
43.22857 152
43.24868 145
43.2688 140
43.28891 147
43.30902 147
43.32914 143
43.34925 143
43.36937 143
43.38948 128
43.40959 169
43.42971 146
43.44982 154
43.46993 129
43.49005 129
43.51016 134
43.53028 130
43.55039 137
43.5705 145
43.59062 127
43.61073 158
43.63084 153
43.65096 151
43.67107 147
43.69119 138
43.7113 109
43.73141 157
43.75153 138
43.77164 133
43.79175 144
43.81187 126
43.83198 152
43.85209 125
43.87221 143
43.89232 145
43.91244 146
43.93255 170
43.95266 145
43.97278 132
43.99289 138
44.013 134
44.03312 141
44.05323 125
44.07335 131
44.09346 163
44.11357 137
44.13369 146
44.1538 142
44.17391 137
44.19403 138
44.21414 143
44.23426 155
44.25437 134
44.27448 172
44.2946 144
44.31471 146
44.33482 123
44.35494 146
44.37505 120
44.39516 142
44.41528 141
44.43539 147
44.45551 134
44.47562 145
44.49573 149
44.51585 171
44.53596 154
44.55607 140
44.57619 129
44.5963 165
44.61642 134
44.63653 149
44.65664 145
44.67676 149
44.69687 157
44.71698 147
44.7371 120
44.75721 140
44.77732 130
44.79744 126
44.81755 129
44.83767 144
44.85778 125
44.87789 154
44.89801 156
44.91812 149
44.93823 157
44.95835 150
44.97846 152
44.99858 151
45.01869 148
45.0388 147
45.05892 137
45.07903 146
45.09914 143
45.11926 141
45.13937 143
45.15949 142
45.1796 139
45.19971 136
45.21983 154
45.23994 162
45.26005 142
45.28017 153
45.30028 158
45.32039 151
45.34051 157
45.36062 167
45.38074 168
45.40085 176
45.42096 196
45.44108 181
45.46119 236
45.4813 202
45.50142 241
45.52153 214
45.54165 266
45.56176 286
45.58187 327
45.60199 423
45.6221 435
45.64221 537
45.66233 609
45.68244 694
45.70256 919
45.72267 984
45.74278 1175
45.7629 1170
45.78301 1037
45.80312 930
45.82324 717
45.84335 676
45.86346 691
45.88358 606
45.90369 546
45.92381 433
45.94392 329
45.96403 254
45.98415 221
46.00426 193
46.02437 173
46.04449 166
46.0646 155
46.08472 168
46.10483 153
46.12494 147
46.14506 161
46.16517 176
46.18528 166
46.2054 145
46.22551 152
46.24563 142
46.26574 132
46.28585 146
46.30597 143
46.32608 144
46.34619 159
46.36631 146
46.38642 140
46.40653 146
46.42665 134
46.44676 148
46.46688 140
46.48699 141
46.5071 123
46.52722 142
46.54733 124
46.56744 147
46.58756 137
46.60767 147
46.62779 137
46.6479 157
46.66801 115
46.68813 140
46.70824 139
46.72835 162
46.74847 142
46.76858 122
46.78869 125
46.80881 130
46.82892 142
46.84904 132
46.86915 159
46.88926 151
46.90938 132
46.92949 125
46.9496 133
46.96972 139
46.98983 168
47.00995 149
47.03006 152
47.05017 157
47.07029 152
47.0904 147
47.11051 147
47.13063 156
47.15074 142
47.17086 144
47.19097 145
47.21108 132
47.2312 146
47.25131 149
47.27142 127
47.29154 136
47.31165 136
47.33176 141
47.35188 141
47.37199 135
47.39211 154
47.41222 141
47.43233 159
47.45245 152
47.47256 145
47.49267 135
47.51279 139
47.5329 119
47.55302 137
47.57313 135
47.59324 146
47.61336 114
47.63347 130
47.65358 122
47.6737 140
47.69381 123
47.71393 136
47.73404 127
47.75415 118
47.77427 108
47.79438 125
47.81449 117
47.83461 163
47.85472 114
47.87483 141
47.89495 147
47.91506 134
47.93518 126
47.95529 157
47.9754 146
47.99552 133
48.01563 156
48.03574 140
48.05586 155
48.07597 136
48.09609 130
48.1162 134
48.13631 138
48.15643 117
48.17654 141
48.19665 124
48.21677 142
48.23688 149
48.257 132
48.27711 130
48.29722 143
48.31734 134
48.33745 141
48.35756 133
48.37768 132
48.39779 144
48.4179 147
48.43802 149
48.45813 137
48.47825 140
48.49836 143
48.51847 136
48.53859 156
48.5587 162
48.57881 150
48.59893 140
48.61904 156
48.63916 158
48.65927 157
48.67938 141
48.6995 170
48.71961 153
48.73972 165
48.75984 141
48.77995 167
48.80006 163
48.82018 177
48.84029 166
48.86041 157
48.88052 148
48.90063 164
48.92075 163
48.94086 156
48.96097 147
48.98109 158
49.0012 160
49.02132 169
49.04143 146
49.06154 164
49.08166 172
49.10177 149
49.12188 138
49.142 155
49.16211 158
49.18223 147
49.20234 148
49.22245 190
49.24257 151
49.26268 135
49.28279 172
49.30291 145
49.32302 166
49.34313 151
49.36325 160
49.38336 160
49.40348 158
49.42359 150
49.4437 169
49.46382 176
49.48393 163
49.50404 179
49.52416 188
49.54427 163
49.56439 175
49.5845 199
49.60461 215
49.62473 213
49.64484 199
49.66495 213
49.68507 243
49.70518 273
49.7253 265
49.74541 267
49.76552 305
49.78564 314
49.80575 395
49.82586 390
49.84598 483
49.86609 495
49.8862 618
49.90632 665
49.92643 808
49.94655 941
49.96666 1202
49.98677 1503
50.00689 1893
50.027 2226
50.04711 2888
50.06723 3230
50.08734 3612
50.10746 3656
50.12757 3338
50.14768 2768
50.1678 2342
50.18791 2060
50.20802 1896
50.22814 1953
50.24825 1678
50.26837 1428
50.28848 1017
50.30859 690
50.32871 508
50.34882 409
50.36893 324
50.38905 354
50.40916 312
50.42927 311
50.44939 307
50.4695 275
50.48962 289
50.50973 288
50.52984 313
50.54996 307
50.57007 293
50.59018 308
50.6103 268
50.63041 289
50.65053 253
50.67064 224
50.69075 221
50.71087 198
50.73098 230
50.75109 216
50.77121 181
50.79132 209
50.81143 201
50.83155 158
50.85166 183
50.87178 184
50.89189 174
50.912 177
50.93212 190
50.95223 164
50.97234 149
50.99246 151
51.01257 158
51.03269 150
51.0528 134
51.07291 148
51.09303 125
51.11314 176
51.13325 129
51.15337 137
51.17348 125
51.1936 139
51.21371 144
51.23382 146
51.25394 126
51.27405 117
51.29416 153
51.31428 124
51.33439 149
51.3545 139
51.37462 122
51.39473 115
51.41485 131
51.43496 132
51.45507 126
51.47519 146
51.4953 126
51.51541 124
51.53553 109
51.55564 140
51.57576 138
51.59587 99
51.61598 141
51.6361 136
51.65621 134
51.67632 132
51.69644 125
51.71655 132
51.73667 112
51.75678 116
51.77689 120
51.79701 116
51.81712 131
51.83723 124
51.85735 126
51.87746 135
51.89757 119
51.91769 123
51.9378 136
51.95792 118
51.97803 124
51.99814 144
52.01826 129
52.03837 121
52.05848 118
52.0786 125
52.09871 125
52.11883 106
52.13894 117
52.15905 112
52.17917 126
52.19928 125
52.21939 138
52.23951 127
52.25962 121
52.27974 113
52.29985 115
52.31996 126
52.34008 141
52.36019 112
52.3803 135
52.40042 134
52.42053 127
52.44064 127
52.46076 136
52.48087 140
52.50099 129
52.5211 147
52.54121 128
52.56133 150
52.58144 125
52.60155 133
52.62167 132
52.64178 133
52.6619 154
52.68201 138
52.70212 113
52.72224 134
52.74235 118
52.76246 121
52.78258 138
52.80269 142
52.8228 116
52.84292 142
52.86303 135
52.88315 117
52.90326 131
52.92337 118
52.94349 150
52.9636 129
52.98371 132
53.00383 146
53.02394 134
53.04406 135
53.06417 144
53.08428 122
53.1044 141
53.12451 128
53.14462 151
53.16474 120
53.18485 135
53.20497 143
53.22508 162
53.24519 133
53.26531 146
53.28542 138
53.30553 135
53.32565 149
53.34576 145
53.36587 135
53.38599 142
53.4061 123
53.42622 156
53.44633 137
53.46644 133
53.48656 133
53.50667 138
53.52678 128
53.5469 123
53.56701 123
53.58713 150
53.60724 133
53.62735 144
53.64747 126
53.66758 158
53.68769 133
53.70781 120
53.72792 139
53.74804 118
53.76815 135
53.78826 109
53.80838 138
53.82849 160
53.8486 122
53.86872 132
53.88883 138
53.90894 114
53.92906 135
53.94917 153
53.96929 141
53.9894 135
54.00951 127
54.02963 151
54.04974 149
54.06985 151
54.08997 153
54.11008 144
54.1302 142
54.15031 136
54.17042 143
54.19054 169
54.21065 141
54.23076 152
54.25088 144
54.27099 165
54.29111 157
54.31122 139
54.33133 162
54.35145 152
54.37156 149
54.39167 184
54.41179 172
54.4319 146
54.45201 186
54.47213 165
54.49224 186
54.51236 190
54.53247 222
54.55258 200
54.5727 226
54.59281 245
54.61292 273
54.63304 300
54.65315 337
54.67327 398
54.69338 447
54.71349 540
54.73361 584
54.75372 747
54.77383 891
54.79395 1014
54.81406 1123
54.83417 1081
54.85429 1037
54.8744 867
54.89452 786
54.91463 679
54.93474 612
54.95486 667
54.97497 617
54.99508 562
55.0152 489
55.03531 418
55.05543 349
55.07554 330
55.09565 324
55.11577 277
55.13588 263
55.15599 331
55.17611 343
55.19622 405
55.21634 436
55.23645 525
55.25656 530
55.27668 543
55.29679 536
55.3169 509
55.33702 468
55.35713 370
55.37724 349
55.39736 344
55.41747 348
55.43759 350
55.4577 342
55.47781 292
55.49793 265
55.51804 201
55.53815 179
55.55827 175
55.57838 139
55.5985 167
55.61861 153
55.63872 154
55.65884 166
55.67895 156
55.69906 137
55.71918 154
55.73929 168
55.75941 143
55.77952 126
55.79963 147
55.81975 158
55.83986 122
55.85997 142
55.88009 126
55.9002 150
55.92031 117
55.94043 101
55.96054 155
55.98066 109
56.00077 108
56.02088 132
56.041 118
56.06111 129
56.08122 130
56.10134 111
56.12145 116
56.14157 112
56.16168 118
56.18179 120
56.20191 136
56.22202 120
56.24213 121
56.26225 118
56.28236 124
56.30248 128
56.32259 103
56.3427 131
56.36282 131
56.38293 131
56.40304 116
56.42316 139
56.44327 112
56.46338 143
56.4835 104
56.50361 113
56.52373 134
56.54384 115
56.56395 117
56.58407 106
56.60418 116
56.62429 139
56.64441 128
56.66452 111
56.68464 134
56.70475 132
56.72486 128
56.74498 132
56.76509 134
56.7852 121
56.80532 142
56.82543 134
56.84554 127
56.86566 123
56.88577 107
56.90589 118
56.926 128
56.94611 125
56.96623 142
56.98634 118
57.00645 135
57.02657 124
57.04668 141
57.0668 147
57.08691 143
57.10702 173
57.12714 186
57.14725 156
57.16736 186
57.18748 176
57.20759 183
57.22771 162
57.24782 173
57.26793 137
57.28805 151
57.30816 153
57.32827 171
57.34839 154
57.3685 146
57.38861 144
57.40873 148
57.42884 135
57.44896 104
57.46907 113
57.48918 107
57.5093 121
57.52941 127
57.54952 123
57.56964 129
57.58975 107
57.60987 130
57.62998 122
57.65009 131
57.67021 106
57.69032 115
57.71043 117
57.73055 121
57.75066 136
57.77078 133
57.79089 129
57.811 134
57.83112 117
57.85123 126
57.87134 136
57.89146 109
57.91157 115
57.93168 112
57.9518 113
57.97191 129
57.99203 143
58.01214 114
58.03225 125
58.05237 132
58.07248 100
58.09259 115
58.11271 108
58.13282 112
58.15294 118
58.17305 121
58.19316 110
58.21328 121
58.23339 117
58.2535 143
58.27362 138
58.29373 119
58.31385 130
58.33396 146
58.35407 103
58.37419 119
58.3943 136
58.41441 120
58.43453 111
58.45464 126
58.47475 120
58.49487 139
58.51498 153
58.5351 127
58.55521 127
58.57532 145
58.59544 147
58.61555 143
58.63566 148
58.65578 116
58.67589 108
58.69601 153
58.71612 130
58.73623 129
58.75635 109
58.77646 139
58.79657 114
58.81669 137
58.8368 104
58.85691 144
58.87703 137
58.89714 139
58.91726 151
58.93737 119
58.95748 115
58.9776 97
58.99771 137
59.01782 143
59.03794 112
59.05805 130
59.07817 121
59.09828 142
59.11839 144
59.13851 108
59.15862 125
59.17873 129
59.19885 135
59.21896 131
59.23908 159
59.25919 160
59.2793 131
59.29942 151
59.31953 158
59.33964 161
59.35976 162
59.37987 178
59.39998 151
59.4201 185
59.44021 167
59.46033 167
59.48044 172
59.50055 206
59.52067 197
59.54078 236
59.56089 239
59.58101 244
59.60112 271
59.62124 275
59.64135 354
59.66146 394
59.68158 401
59.70169 478
59.7218 570
59.74192 657
59.76203 791
59.78215 875
59.80226 1115
59.82237 1302
59.84249 1562
59.8626 1874
59.88271 2105
59.90283 2248
59.92294 2228
59.94305 2081
59.96317 1624
59.98328 1378
60.0034 1110
60.02351 1152
60.04362 1155
60.06374 1202
60.08385 1182
60.10396 1023
60.12408 808
60.14419 617
60.16431 415
60.18442 334
60.20453 292
60.22465 229
60.24476 231
60.26487 240
60.28499 188
60.3051 186
60.32522 193
60.34533 171
60.36544 177
60.38556 173
60.40567 152
60.42578 159
60.4459 148
60.46601 161
60.48612 165
60.50624 143
60.52635 148
60.54647 130
60.56658 137
60.58669 159
60.60681 139
60.62692 129
60.64703 126
60.66715 149
60.68726 127
60.70738 122
60.72749 143
60.7476 121
60.76772 156
60.78783 145
60.80794 139
60.82806 127
60.84817 139
60.86828 138
60.8884 116
60.90851 123
60.92863 121
60.94874 132
60.96885 130
60.98897 134
61.00908 133
61.02919 118
61.04931 149
61.06942 142
61.08954 149
61.10965 141
61.12976 144
61.14988 130
61.16999 138
61.1901 130
61.21022 144
61.23033 135
61.25045 141
61.27056 148
61.29067 118
61.31079 120
61.3309 131
61.35101 128
61.37113 135
61.39124 109
61.41135 112
61.43147 130
61.45158 116
61.4717 109
61.49181 142
61.51192 119
61.53204 125
61.55215 119
61.57226 108
61.59238 128
61.61249 120
61.63261 144
61.65272 111
61.67283 113
61.69295 135
61.71306 119
61.73317 112
61.75329 138
61.7734 118
61.79352 137
61.81363 124
61.83374 149
61.85386 126
61.87397 162
61.89408 117
61.9142 137
61.93431 136
61.95442 134
61.97454 131
61.99465 118
62.01477 129
62.03488 128
62.05499 136
62.07511 159
62.09522 116
62.11533 133
62.13545 140
62.15556 124
62.17568 141
62.19579 138
62.2159 153
62.23602 139
62.25613 126
62.27624 156
62.29636 139
62.31647 165
62.33659 148
62.3567 149
62.37681 119
62.39693 152
62.41704 141
62.43715 153
62.45727 149
62.47738 122
62.49749 114
62.51761 94
62.53772 114
62.55784 122
62.57795 135
62.59806 120
62.61818 135
62.63829 115
62.6584 119
62.67852 133
62.69863 102
62.71875 125
62.73886 127
62.75897 127
62.77909 139
62.7992 119
62.81931 132
62.83943 116
62.85954 100
62.87965 127
62.89977 105
62.91988 136
62.94 126
62.96011 125
62.98022 132
63.00034 129
63.02045 126
63.04056 129
63.06068 117
63.08079 126
63.10091 126
63.12102 126
63.14113 124
63.16125 121
63.18136 128
63.20147 110
63.22159 141
63.2417 132
63.26182 114
63.28193 126
63.30204 113
63.32216 117
63.34227 126
63.36238 100
63.3825 119
63.40261 132
63.42272 137
63.44284 147
63.46295 154
63.48307 115
63.50318 124
63.52329 132
63.54341 136
63.56352 138
63.58363 135
63.60375 135
63.62386 147
63.64398 145
63.66409 139
63.6842 151
63.70432 169
63.72443 175
63.74454 171
63.76466 163
63.78477 179
63.80489 203
63.825 228
63.84511 268
63.86523 279
63.88534 308
63.90545 376
63.92557 406
63.94568 424
63.96579 485
63.98591 462
64.00602 435
64.02614 471
64.04625 386
64.06636 349
64.08648 277
64.10659 276
64.1267 286
64.14682 297
64.16693 303
64.18705 304
64.20716 265
64.22727 204
64.24739 161
64.2675 182
64.28761 128
64.30773 124
64.32784 137
64.34796 120
64.36807 128
64.38818 137
64.4083 108
64.42841 136
64.44852 129
64.46864 109
64.48875 107
64.50886 115
64.52898 122
64.54909 109
64.56921 135
64.58932 113
64.60943 107
64.62955 111
64.64966 116
64.66977 91
64.68989 120
64.71 131
64.73012 110
64.75023 112
64.77034 129
64.79046 124
64.81057 112
64.83068 116
64.8508 107
64.87091 120
64.89102 119
64.91114 121
64.93125 133
64.95137 125
64.97148 113
64.99159 122
65.01171 109
65.03182 122
65.05193 123
65.07205 108
65.09216 117
65.11228 117
65.13239 125
65.1525 119
65.17262 99
65.19273 123
65.21284 113
65.23296 152
65.25307 139
65.27319 126
65.2933 118
65.31341 128
65.33353 133
65.35364 118
65.37375 123
65.39387 122
65.41398 131
65.43409 130
65.45421 136
65.47432 151
65.49444 140
65.51455 131
65.53466 150
65.55478 143
65.57489 136
65.595 143
65.61512 172
65.63523 185
65.65535 172
65.67546 170
65.69557 191
65.71569 208
65.7358 201
65.75591 212
65.77603 186
65.79614 182
65.81626 179
65.83637 172
65.85648 174
65.8766 177
65.89671 176
65.91682 178
65.93694 154
65.95705 161
65.97716 151
65.99728 128
66.01739 134
66.03751 133
66.05762 132
66.07773 130
66.09785 121
66.11796 137
66.13807 129
66.15819 116
66.1783 128
66.19842 129
66.21853 129
66.23864 129
66.25876 129
66.27887 132
66.29898 143
66.3191 143
66.33921 125
66.35933 119
66.37944 145
66.39955 136
66.41967 142
66.43978 133
66.45989 119
66.48001 129
66.50012 126
66.52023 138
66.54035 131
66.56046 136
66.58058 123
66.60069 138
66.6208 126
66.64092 137
66.66103 124
66.68114 136
66.70126 112
66.72137 110
66.74149 131
66.7616 127
66.78171 124
66.80183 129
66.82194 134
66.84205 117
66.86217 125
66.88228 143
66.90239 154
66.92251 129
66.94262 133
66.96274 141
66.98285 147
67.00296 135
67.02308 136
67.04319 124
67.0633 133
67.08342 144
67.10353 154
67.12365 161
67.14376 162
67.16387 177
67.18399 155
67.2041 159
67.22421 178
67.24433 187
67.26444 179
67.28456 164
67.30467 195
67.32478 180
67.3449 208
67.36501 208
67.38512 242
67.40524 240
67.42535 264
67.44546 275
67.46558 319
67.48569 358
67.50581 399
67.52592 483
67.54603 524
67.56615 637
67.58626 785
67.60637 780
67.62649 912
67.6466 1064
67.66672 1145
67.68683 1260
67.70694 1273
67.72706 1158
67.74717 1062
67.76728 879
67.7874 799
67.80751 767
67.82763 790
67.84774 878
67.86785 884
67.88797 972
67.90808 1029
67.92819 993
67.94831 941
67.96842 1047
67.98853 1037
68.00865 1123
68.02876 1274
68.04888 1457
68.06899 1614
68.0891 1738
68.10922 1742
68.12933 1624
68.14944 1534
68.16956 1393
68.18967 1353
68.20979 1343
68.2299 1455
68.25001 1529
68.27013 1628
68.29024 1416
68.31035 1310
68.33047 1081
68.35058 913
68.3707 707
68.39081 649
68.41092 619
68.43104 599
68.45115 579
68.47126 561
68.49138 458
68.51149 438
68.5316 335
68.55172 285
68.57183 222
68.59195 198
68.61206 191
68.63217 203
68.65229 173
68.6724 160
68.69251 158
68.71263 143
68.73274 140
68.75286 151
68.77297 174
68.79308 147
68.8132 154
68.83331 169
68.85342 142
68.87354 148
68.89365 138
68.91376 152
68.93388 134
68.95399 143
68.97411 130
68.99422 155
69.01433 143
69.03445 116
69.05456 120
69.07467 113
69.09479 148
69.1149 121
69.13502 119
69.15513 135
69.17524 120
69.19536 119
69.21547 130
69.23558 119
69.2557 137
69.27581 106
69.29593 119
69.31604 113
69.33615 110
69.35627 111
69.37638 112
69.39649 123
69.41661 117
69.43672 102
69.45683 110
69.47695 129
69.49706 125
69.51718 129
69.53729 106
69.5574 114
69.57752 111
69.59763 108
69.61774 122
69.63786 112
69.65797 117
69.67809 109
69.6982 111
69.71831 113
69.73843 122
69.75854 111
69.77865 107
69.79877 105
69.81888 105
69.839 114
69.85911 116
69.87922 135
69.89934 120
69.91945 93
69.93956 110
69.95968 125
69.97979 95
69.9999 112
70.02002 117
70.04013 120
70.06025 113
70.08036 102
70.10047 128
70.12059 107
70.1407 120
70.16081 132
70.18093 96
70.20104 101
70.22116 109
70.24127 105
70.26138 125
70.2815 104
70.30161 113
70.32172 107
70.34184 120
70.36195 120
70.38207 123
70.40218 99
70.42229 106
70.44241 102
70.46252 105
70.48263 99
70.50275 104
70.52286 115
70.54297 109
70.56309 100
70.5832 111
70.60332 116
70.62343 111
70.64354 99
70.66366 104
70.68377 114
70.70388 116
70.724 105
70.74411 89
70.76423 107
70.78434 111
70.80445 105
70.82457 99
70.84468 105
70.86479 116
70.88491 121
70.90502 119
70.92513 111
70.94525 103
70.96536 121
70.98548 97
71.00559 117
71.0257 97
71.04582 87
71.06593 111
71.08604 103
71.10616 110
71.12627 107
71.14639 105
71.1665 91
71.18661 106
71.20673 108
71.22684 91
71.24695 108
71.26707 97
71.28718 104
71.3073 107
71.32741 88
71.34752 118
71.36764 123
71.38775 111
71.40786 110
71.42798 116
71.44809 118
71.4682 114
71.48832 111
71.50843 125
71.52855 105
71.54866 98
71.56877 107
71.58889 128
71.609 114
71.62911 113
71.64923 102
71.66934 87
71.68946 110
71.70957 97
71.72968 108
71.7498 110
71.76991 118
71.79002 102
71.81014 112
71.83025 110
71.85037 111
71.87048 107
71.89059 100
71.91071 124
71.93082 102
71.95093 129
71.97105 117
71.99116 114
72.01127 98
72.03139 93
72.0515 112
72.07162 115
72.09173 106
72.11184 113
72.13196 102
72.15207 119
72.17218 102
72.1923 118
72.21241 110
72.23253 106
72.25264 111
72.27275 105
72.29287 116
72.31298 106
72.33309 109
72.35321 101
72.37332 86
72.39344 93
72.41355 100
72.43366 124
72.45378 120
72.47389 112
72.494 115
72.51412 107
72.53423 108
72.55434 96
72.57446 105
72.59457 104
72.61469 101
72.6348 117
72.65491 113
72.67503 131
72.69514 96
72.71525 90
72.73537 100
72.75548 107
72.7756 110
72.79571 89
72.81582 122
72.83594 113
72.85605 107
72.87616 115
72.89628 112
72.91639 104
72.9365 112
72.95662 103
72.97673 120
72.99685 112
73.01696 138
73.03707 148
73.05719 139
73.0773 152
73.09741 126
73.11753 164
73.13764 159
73.15776 161
73.17787 176
73.19798 161
73.2181 181
73.23821 228
73.25832 220
73.27844 254
73.29855 306
73.31867 322
73.33878 357
73.35889 400
73.37901 451
73.39912 478
73.41923 493
73.43935 456
73.45946 411
73.47957 357
73.49969 314
73.5198 269
73.53992 255
73.56003 260
73.58014 267
73.60026 281
73.62037 291
73.64048 287
73.6606 279
73.68071 255
73.70083 218
73.72094 186
73.74105 154
73.76117 137
73.78128 127
73.80139 144
73.82151 139
73.84162 138
73.86174 117
73.88185 135
73.90196 126
73.92208 99
73.94219 121
73.9623 100
73.98242 107
74.00253 84
74.02264 121
74.04276 102
74.06287 107
74.08299 110
74.1031 98
74.12321 102
74.14333 101
74.16344 105
74.18355 128
74.20367 110
74.22378 87
74.2439 143
74.26401 134
74.28412 127
74.30424 131
74.32435 110
74.34446 125
74.36458 101
74.38469 121
74.40481 119
74.42492 111
74.44503 112
74.46515 129
74.48526 103
74.50537 106
74.52549 111
74.5456 107
74.56571 124
74.58583 99
74.60594 95
74.62606 118
74.64617 99
74.66628 107
74.6864 129
74.70651 90
74.72662 122
74.74674 114
74.76685 117
74.78697 105
74.80708 109
74.82719 112
74.84731 91
74.86742 112
74.88753 113
74.90765 117
74.92776 102
74.94787 116
74.96799 108
74.9881 99
75.00822 101
