3.00117 22471
3.02128 21629
3.0414 21459
3.06151 20829
3.08162 20295
3.10174 19693
3.12185 18994
3.14197 18793
3.16208 17784
3.18219 17442
3.20231 17136
3.22242 16266
3.24253 16380
3.26265 15670
3.28276 15046
3.30288 14476
3.32299 14141
3.3431 13940
3.36322 13137
3.38333 12915
3.40344 12712
3.42356 11844
3.44367 11886
3.46379 11133
3.4839 10961
3.50401 10588
3.52413 10033
3.54424 9896
3.56435 9217
3.58447 9076
3.60458 8575
3.62469 8383
3.64481 8333
3.66492 7682
3.68504 7368
3.70515 7297
3.72526 6787
3.74538 6746
3.76549 6173
3.7856 6103
3.80572 5857
3.82583 5683
3.84595 5589
3.86606 5174
3.88617 5046
3.90629 4782
3.9264 4715
3.94651 4411
3.96663 4103
3.98674 3989
4.00686 3896
4.02697 3569
4.04708 3558
4.0672 3205
4.08731 3160
4.10742 3090
4.12754 2886
4.14765 2858
4.16776 2593
4.18788 2551
4.20799 2546
4.22811 2387
4.24822 2373
4.26833 2226
4.28845 2129
4.30856 2113
4.32867 1949
4.34879 1927
4.3689 1826
4.38902 1768
4.40913 1832
4.42924 1828
4.44936 1793
4.46947 1566
4.48958 1692
4.5097 1683
4.52981 1554
4.54992 1632
4.57004 1393
4.59015 1424
4.61027 1542
4.63038 1426
4.65049 1473
4.67061 1330
4.69072 1289
4.71083 1351
4.73095 1260
4.75106 1224
4.77118 1158
4.79129 1160
4.8114 1106
4.83152 1111
4.85163 1088
4.87174 1033
4.89186 1062
4.91197 969
4.93209 979
4.9522 990
4.97231 983
4.99243 924
5.01254 900
5.03265 940
5.05277 881
5.07288 816
5.09299 800
5.11311 793
5.13322 876
5.15334 765
5.17345 825
5.19356 763
5.21368 756
5.23379 771
5.2539 717
5.27402 722
5.29413 676
5.31425 706
5.33436 720
5.35447 620
5.37459 624
5.3947 644
5.41481 606
5.43493 644
5.45504 508
5.47516 546
5.49527 611
5.51538 550
5.5355 535
5.55561 530
5.57572 534
5.59584 547
5.61595 515
5.63606 548
5.65618 476
5.67629 495
5.69641 473
5.71652 505
5.73663 503
5.75675 453
5.77686 442
5.79697 456
5.81709 457
5.8372 445
5.85732 440
5.87743 430
5.89754 461
5.91766 453
5.93777 487
5.95788 477
5.978 382
5.99811 383
6.01823 428
6.03834 447
6.05845 413
6.07857 400
6.09868 402
6.11879 385
6.13891 350
6.15902 359
6.17913 393
6.19925 412
6.21936 423
6.23948 418
6.25959 396
6.2797 354
6.29982 394
6.31993 391
6.34004 421
6.36016 377
6.38027 374
6.40039 357
6.4205 424
6.44061 381
6.46073 415
6.48084 413
6.50095 369
6.52107 362
6.54118 386
6.56129 379
6.58141 386
6.60152 365
6.62164 353
6.64175 345
6.66186 376
6.68198 403
6.70209 372
6.7222 344
6.74232 361
6.76243 351
6.78255 392
6.80266 378
6.82277 353
6.84289 333
6.863 327
6.88311 324
6.90323 418
6.92334 322
6.94346 357
6.96357 354
6.98368 348
7.0038 355
7.02391 373
7.04402 358
7.06414 378
7.08425 310
7.10436 334
7.12448 338
7.14459 383
7.16471 361
7.18482 344
7.20493 364
7.22505 328
7.24516 324
7.26527 318
7.28539 380
7.3055 301
7.32562 318
7.34573 342
7.36584 343
7.38596 347
7.40607 381
7.42618 368
7.4463 358
7.46641 279
7.48653 374
7.50664 359
7.52675 331
7.54687 365
7.56698 341
7.58709 347
7.60721 328
7.62732 328
7.64743 350
7.66755 400
7.68766 367
7.70778 318
7.72789 338
7.748 343
7.76812 352
7.78823 347
7.80834 343
7.82846 362
7.84857 331
7.86869 372
7.8888 362
7.90891 347
7.92903 348
7.94914 331
7.96925 331
7.98937 356
8.00948 390
8.0296 387
8.04971 382
8.06982 362
8.08994 369
8.11005 338
8.13016 379
8.15028 339
8.17039 345
8.1905 371
8.21062 368
8.23073 362
8.25085 337
8.27096 379
8.29107 340
8.31119 365
8.3313 365
8.35141 438
8.37153 344
8.39164 388
8.41176 374
8.43187 378
8.45198 395
8.4721 331
8.49221 381
8.51232 381
8.53244 357
8.55255 383
8.57266 411
8.59278 369
8.61289 374
8.63301 406
8.65312 436
8.67323 350
8.69335 444
8.71346 379
8.73357 439
8.75369 413
8.7738 422
8.79392 391
8.81403 455
8.83414 415
8.85426 389
8.87437 393
8.89448 367
8.9146 371
8.93471 380
8.95483 367
8.97494 346
8.99505 389
9.01517 342
9.03528 344
9.05539 344
9.07551 323
9.09562 351
9.11573 319
9.13585 306
9.15596 331
9.17608 316
9.19619 351
9.2163 372
9.23642 328
9.25653 329
9.27664 345
9.29676 296
9.31687 336
9.33699 338
9.3571 308
9.37721 322
9.39733 324
9.41744 311
9.43755 311
9.45767 294
9.47778 324
9.4979 330
9.51801 290
9.53812 315
9.55824 314
9.57835 331
9.59846 282
9.61858 310
9.63869 317
9.6588 303
9.67892 348
9.69903 326
9.71915 319
9.73926 341
9.75937 324
9.77949 329
9.7996 329
9.81971 307
9.83983 283
9.85994 300
9.88006 321
9.90017 292
9.92028 311
9.9404 286
9.96051 300
9.98062 271
10.00074 311
10.02085 284
10.04097 299
10.06108 319
10.08119 292
10.10131 310
10.12142 302
10.14153 303
10.16165 312
10.18176 310
10.20187 286
10.22199 326
10.2421 309
10.26222 298
10.28233 301
10.30244 299
10.32256 335
10.34267 354
10.36278 276
10.3829 354
10.40301 322
10.42313 355
10.44324 340
10.46335 372
10.48347 382
10.50358 380
10.52369 346
10.54381 346
10.56392 321
10.58403 309
10.60415 346
10.62426 312
10.64438 275
10.66449 292
10.6846 294
10.70472 303
10.72483 273
10.74494 316
10.76506 307
10.78517 291
10.80529 288
10.8254 273
10.84551 309
10.86563 317
10.88574 286
10.90585 281
10.92597 338
10.94608 253
10.9662 287
10.98631 294
11.00642 284
11.02654 284
11.04665 272
11.06676 307
11.08688 289
11.10699 326
11.1271 323
11.14722 287
11.16733 290
11.18745 288
11.20756 279
11.22767 302
11.24779 315
11.2679 311
11.28801 311
11.30813 305
11.32824 300
11.34836 296
11.36847 294
11.38858 303
11.4087 308
11.42881 290
11.44892 280
11.46904 302
11.48915 279
11.50927 261
11.52938 316
11.54949 292
11.56961 315
11.58972 300
11.60983 293
11.62995 302
11.65006 341
11.67017 289
11.69029 302
11.7104 291
11.73052 303
11.75063 289
11.77074 284
11.79086 289
11.81097 308
11.83108 307
11.8512 306
11.87131 294
11.89143 293
11.91154 366
11.93165 288
11.95177 286
11.97188 284
11.99199 332
12.01211 295
12.03222 320
12.05234 286
12.07245 291
12.09256 303
12.11268 310
12.13279 285
12.1529 340
12.17302 355
12.19313 332
12.21324 295
12.23336 343
12.25347 381
12.27359 304
12.2937 284
12.31381 328
12.33393 306
12.35404 320
12.37415 286
12.39427 340
12.41438 296
12.4345 290
12.45461 282
12.47472 314
12.49484 345
12.51495 303
12.53506 311
12.55518 274
12.57529 309
12.5954 284
12.61552 292
12.63563 288
12.65575 293
12.67586 299
12.69597 257
12.71609 334
12.7362 268
12.75631 267
12.77643 255
12.79654 273
12.81666 252
12.83677 280
12.85688 287
12.877 270
12.89711 261
12.91722 281
12.93734 245
12.95745 279
12.97757 301
12.99768 286
13.01779 307
13.03791 289
13.05802 323
13.07813 302
13.09825 317
13.11836 316
13.13847 318
13.15859 282
13.1787 297
13.19882 284
13.21893 275
13.23904 304
13.25916 268
13.27927 303
13.29938 291
13.3195 290
13.33961 241
13.35973 322
13.37984 272
13.39995 292
13.42007 302
13.44018 317
13.46029 284
13.48041 286
13.50052 299
13.52064 298
13.54075 263
13.56086 298
13.58098 310
13.60109 325
13.6212 289
13.64132 325
13.66143 334
13.68154 336
13.70166 343
13.72177 357
13.74189 348
13.762 324
13.78211 369
13.80223 378
13.82234 377
13.84245 377
13.86257 379
13.88268 338
13.9028 337
13.92291 290
13.94302 340
13.96314 321
13.98325 302
14.00336 251
14.02348 276
14.04359 319
14.06371 275
14.08382 298
14.10393 263
14.12405 262
14.14416 273
14.16427 293
14.18439 288
14.2045 272
14.22461 274
14.24473 252
14.26484 284
14.28496 243
14.30507 293
14.32518 281
14.3453 254
14.36541 294
14.38552 286
14.40564 264
14.42575 269
14.44587 291
14.46598 266
14.48609 297
14.50621 268
14.52632 283
14.54643 263
14.56655 254
14.58666 280
14.60677 256
14.62689 273
14.647 315
14.66712 305
14.68723 300
14.70734 280
14.72746 257
14.74757 268
14.76768 281
14.7878 295
14.80791 295
14.82803 308
14.84814 283
14.86825 336
14.88837 297
14.90848 350
14.92859 330
14.94871 314
14.96882 304
14.98894 338
15.00905 319
15.02916 321
15.04928 310
15.06939 317
15.0895 304
15.10962 282
15.12973 302
15.14984 285
15.16996 255
15.19007 278
15.21019 283
15.2303 292
15.25041 285
15.27053 294
15.29064 267
15.31075 274
15.33087 260
15.35098 286
15.3711 272
15.39121 248
15.41132 266
15.43144 277
15.45155 282
15.47166 243
15.49178 273
15.51189 282
15.53201 270
15.55212 268
15.57223 267
15.59235 264
15.61246 291
15.63257 265
15.65269 274
15.6728 273
15.69291 275
15.71303 272
15.73314 271
15.75326 279
15.77337 249
15.79348 286
15.8136 265
15.83371 248
15.85382 287
15.87394 261
15.89405 274
15.91417 280
15.93428 292
15.95439 284
15.97451 286
15.99462 272
16.01473 269
16.03485 288
16.05496 258
16.07508 250
16.09519 250
16.1153 277
16.13542 266
16.15553 298
16.17564 268
16.19576 269
16.21587 263
16.23598 256
16.2561 261
16.27621 262
16.29633 250
16.31644 309
16.33655 250
16.35667 271
16.37678 279
16.39689 300
16.41701 328
16.43712 277
16.45724 243
16.47735 260
16.49746 285
16.51758 267
16.53769 254
16.5578 247
16.57792 253
16.59803 252
16.61814 271
16.63826 264
16.65837 244
16.67849 278
16.6986 233
16.71871 288
16.73883 264
16.75894 278
16.77905 250
16.79917 255
16.81928 255
16.8394 257
16.85951 232
16.87962 246
16.89974 262
16.91985 273
16.93996 285
16.96008 270
16.98019 273
17.00031 243
17.02042 250
17.04053 307
17.06065 278
17.08076 269
17.10087 264
17.12099 267
17.1411 252
17.16121 304
17.18133 248
17.20144 249
17.22156 264
17.24167 295
17.26178 282
17.2819 295
17.30201 282
17.32212 305
17.34224 266
17.36235 284
17.38247 285
17.40258 305
17.42269 275
17.44281 260
17.46292 253
17.48303 260
17.50315 272
17.52326 269
17.54338 271
17.56349 277
17.5836 287
17.60372 279
17.62383 279
17.64394 305
17.66406 316
17.68417 301
17.70428 283
17.7244 318
17.74451 298
17.76463 318
17.78474 297
17.80485 278
17.82497 292
17.84508 302
17.86519 299
17.88531 301
17.90542 269
17.92554 242
17.94565 273
17.96576 299
17.98588 277
18.00599 304
18.0261 274
18.04622 262
18.06633 313
18.08645 252
18.10656 268
18.12667 257
18.14679 278
18.1669 266
18.18701 295
18.20713 266
18.22724 272
18.24735 268
18.26747 271
18.28758 275
18.3077 254
18.32781 297
18.34792 327
18.36804 278
18.38815 266
18.40826 273
18.42838 299
18.44849 302
18.46861 279
18.48872 283
18.50883 283
18.52895 301
18.54906 257
18.56917 283
18.58929 281
18.6094 287
18.62951 311
18.64963 261
18.66974 306
18.68986 273
18.70997 302
18.73008 290
18.7502 278
18.77031 307
18.79042 285
18.81054 274
18.83065 298
18.85077 286
18.87088 271
18.89099 269
18.91111 294
18.93122 302
18.95133 319
18.97145 292
18.99156 295
19.01168 290
19.03179 280
19.0519 278
19.07202 288
19.09213 294
19.11224 274
19.13236 317
19.15247 322
19.17258 327
19.1927 317
19.21281 318
19.23293 308
19.25304 350
19.27315 354
19.29327 333
19.31338 328
19.33349 327
19.35361 348
19.37372 315
19.39384 366
19.41395 355
19.43406 329
19.45418 334
19.47429 387
19.4944 369
19.51452 370
19.53463 385
19.55475 392
19.57486 410
19.59497 415
19.61509 434
19.6352 458
19.65531 463
19.67543 452
19.69554 476
19.71565 532
19.73577 502
19.75588 526
19.776 514
19.79611 529
19.81622 463
19.83634 516
19.85645 488
19.87656 467
19.89668 448
19.91679 528
19.93691 444
19.95702 436
19.97713 462
19.99725 449
20.01736 440
20.03747 402
20.05759 432
20.0777 450
20.09782 446
20.11793 396
20.13804 420
20.15816 423
20.17827 413
20.19838 411
20.2185 373
20.23861 439
20.25872 404
20.27884 466
20.29895 428
20.31907 419
20.33918 456
20.35929 440
20.37941 446
20.39952 428
20.41963 453
20.43975 444
20.45986 471
20.47998 467
20.50009 454
20.5202 490
20.54032 467
20.56043 493
20.58054 572
20.60066 604
20.62077 728
20.64088 880
20.661 1015
20.68111 1306
20.70123 1708
20.72134 1955
20.74145 2462
20.76157 2821
20.78168 3300
20.80179 3331
20.82191 3386
20.84202 3320
20.86214 2778
20.88225 2301
20.90236 1772
20.92248 1411
20.94259 1045
20.9627 835
20.98282 789
21.00293 679
21.02305 580
21.04316 597
21.06327 583
21.08339 506
21.1035 492
21.12361 455
21.14373 389
21.16384 457
21.18395 407
21.20407 411
21.22418 416
21.2443 415
21.26441 381
21.28452 394
21.30464 398
21.32475 422
21.34486 402
21.36498 363
21.38509 389
21.40521 423
21.42532 392
21.44543 408
21.46555 394
21.48566 387
21.50577 392
21.52589 403
21.546 338
21.56612 384
21.58623 373
21.60634 360
21.62646 373
21.64657 408
21.66668 369
21.6868 388
21.70691 376
21.72702 380
21.74714 363
21.76725 405
21.78737 437
21.80748 494
21.82759 529
21.84771 617
21.86782 582
21.88793 693
21.90805 738
21.92816 760
21.94828 817
21.96839 853
21.9885 819
22.00862 817
22.02873 682
22.04884 681
22.06896 617
22.08907 534
22.10919 485
22.1293 431
22.14941 435
22.16953 429
22.18964 418
22.20975 420
22.22987 407
22.24998 386
22.27009 360
22.29021 384
22.31032 413
22.33044 389
22.35055 392
22.37066 378
22.39078 379
22.41089 367
22.431 387
22.45112 387
22.47123 360
22.49135 365
22.51146 371
22.53157 343
22.55169 371
22.5718 332
22.59191 354
22.61203 353
22.63214 399
22.65225 380
22.67237 381
22.69248 355
22.7126 359
22.73271 365
22.75282 375
22.77294 408
22.79305 411
22.81316 421
22.83328 449
22.85339 412
22.87351 435
22.89362 414
22.91373 432
22.93385 442
22.95396 458
22.97407 426
22.99419 464
23.0143 474
23.03442 482
23.05453 423
23.07464 444
23.09476 419
23.11487 453
23.13498 407
23.1551 417
23.17521 408
23.19532 383
23.21544 422
23.23555 430
23.25567 391
23.27578 387
23.29589 410
23.31601 460
23.33612 449
23.35623 476
23.37635 453
23.39646 500
23.41658 520
23.43669 546
23.4568 605
23.47692 614
23.49703 599
23.51714 635
23.53726 679
23.55737 573
23.57749 604
23.5976 581
23.61771 542
23.63783 536
23.65794 449
23.67805 481
23.69817 483
23.71828 496
23.73839 467
23.75851 454
23.77862 433
23.79874 462
23.81885 468
23.83896 507
23.85908 469
23.87919 489
23.8993 503
23.91942 507
23.93953 499
23.95965 461
23.97976 524
23.99987 529
24.01999 541
24.0401 547
24.06021 565
24.08033 591
24.10044 555
24.12056 643
24.14067 652
24.16078 637
24.1809 615
24.20101 659
24.22112 694
24.24124 705
24.26135 657
24.28146 592
24.30158 523
24.32169 534
24.34181 531
24.36192 466
24.38203 455
24.40215 371
24.42226 419
24.44237 394
24.46249 361
24.4826 405
24.50272 384
24.52283 390
24.54294 379
24.56306 324
24.58317 384
24.60328 380
24.6234 385
24.64351 389
24.66362 383
24.68374 395
24.70385 371
24.72397 342
24.74408 381
24.76419 388
24.78431 397
24.80442 364
24.82453 355
24.84465 374
24.86476 413
24.88488 393
24.90499 394
24.9251 366
24.94522 398
24.96533 353
24.98544 385
25.00556 377
25.02567 390
25.04579 377
25.0659 361
25.08601 424
25.10613 385
25.12624 396
25.14635 427
25.16647 374
25.18658 403
25.20669 375
25.22681 407
25.24692 429
25.26704 481
25.28715 441
25.30726 434
25.32738 484
25.34749 510
25.3676 531
25.38772 545
25.40783 550
25.42795 514
25.44806 596
25.46817 604
25.48829 553
25.5084 565
25.52851 561
25.54863 577
25.56874 597
25.58886 567
25.60897 527
25.62908 549
25.6492 507
25.66931 472
25.68942 509
25.70954 518
25.72965 496
25.74976 525
25.76988 418
25.78999 482
25.81011 467
25.83022 442
25.85033 459
25.87045 502
25.89056 451
25.91067 456
25.93079 505
25.9509 501
25.97102 500
25.99113 524
26.01124 529
26.03136 590
26.05147 555
26.07158 591
26.0917 638
26.11181 597
26.13193 680
26.15204 751
26.17215 725
26.19227 821
26.21238 835
26.23249 822
26.25261 1002
26.27272 1042
26.29283 1107
26.31295 1394
26.33306 1548
26.35318 1891
26.37329 2246
26.3934 2688
26.41352 3501
26.43363 4504
26.45374 5778
26.47386 7322
26.49397 9110
26.51409 11087
26.5342 12681
26.55431 14094
26.57443 14755
26.59454 14442
26.61465 13574
26.63477 11916
26.65488 9514
26.67499 7186
26.69511 5111
26.71522 3708
26.73534 2474
26.75545 1767
26.77556 1368
26.79568 1164
26.81579 985
26.8359 1040
26.85602 964
26.87613 846
26.89625 801
26.91636 858
26.93647 783
26.95659 775
26.9767 788
26.99681 800
27.01693 750
27.03704 715
27.05716 731
27.07727 690
27.09738 618
27.1175 666
27.13761 585
27.15772 575
27.17784 594
27.19795 609
27.21806 642
27.23818 656
27.25829 705
27.27841 749
27.29852 705
27.31863 733
27.33875 762
27.35886 852
27.37897 864
27.39909 862
27.4192 849
27.43932 771
27.45943 847
27.47954 792
27.49966 807
27.51977 790
27.53988 802
27.56 796
27.58011 814
27.60023 849
27.62034 944
27.64045 937
27.66057 989
27.68068 1065
27.70079 1052
27.72091 1077
27.74102 1174
27.76113 1224
27.78125 1233
27.80136 1205
27.82148 1303
27.84159 1311
27.8617 1340
27.88182 1350
27.90193 1289
27.92204 1178
27.94216 1148
27.96227 1056
27.98239 930
28.0025 837
28.02261 808
28.04273 740
28.06284 736
28.08295 671
28.10307 620
28.12318 613
28.1433 663
28.16341 599
28.18352 573
28.20364 607
28.22375 604
28.24386 606
28.26398 585
28.28409 539
28.3042 560
28.32432 493
28.34443 468
28.36455 457
28.38466 466
28.40477 434
28.42489 432
28.445 442
28.46511 390
28.48523 407
28.50534 390
28.52546 442
28.54557 395
28.56568 427
28.5858 396
28.60591 370
28.62602 410
28.64614 404
28.66625 382
28.68636 358
28.70648 415
28.72659 369
28.74671 404
28.76682 373
28.78693 397
28.80705 347
28.82716 387
28.84727 393
28.86739 357
28.8875 368
28.90762 353
28.92773 325
28.94784 360
28.96796 350
28.98807 367
29.00818 335
29.0283 323
29.04841 348
29.06853 361
29.08864 361
29.10875 325
29.12887 338
29.14898 393
29.16909 377
29.18921 354
29.20932 355
29.22943 336
29.24955 343
29.26966 351
29.28978 353
29.30989 377
29.33 375
29.35012 398
29.37023 445
29.39034 361
29.41046 401
29.43057 366
29.45069 437
29.4708 419
29.49091 411
29.51103 409
29.53114 429
29.55125 428
29.57137 372
29.59148 399
29.6116 412
29.63171 430
29.65182 452
29.67194 423
29.69205 452
29.71216 469
29.73228 494
29.75239 452
29.7725 491
29.79262 434
29.81273 480
29.83285 444
29.85296 473
29.87307 473
29.89319 422
29.9133 457
29.93341 407
29.95353 455
29.97364 479
29.99376 542
30.01387 495
30.03398 494
30.0541 520
30.07421 552
30.09432 572
30.11444 545
30.13455 540
30.15467 544
30.17478 510
30.19489 526
30.21501 529
30.23512 540
30.25523 516
30.27535 532
30.29546 493
30.31557 558
30.33569 541
30.3558 545
30.37592 553
30.39603 520
30.41614 483
30.43626 512
30.45637 504
30.47648 519
30.4966 448
30.51671 508
30.53683 425
30.55694 451
30.57705 383
30.59717 388
30.61728 425
30.63739 408
30.65751 443
30.67762 473
30.69773 413
30.71785 436
30.73796 523
30.75808 507
30.77819 469
30.7983 477
30.81842 457
30.83853 455
30.85864 497
30.87876 451
30.89887 474
30.91899 447
30.9391 377
30.95921 420
30.97933 393
30.99944 359
31.01955 392
31.03967 326
31.05978 362
31.0799 352
31.10001 364
31.12012 368
31.14024 376
31.16035 405
31.18046 379
31.20058 373
31.22069 390
31.2408 420
31.26092 378
31.28103 364
31.30115 379
31.32126 362
31.34137 357
31.36149 382
31.3816 368
31.40171 338
31.42183 377
31.44194 333
31.46206 355
31.48217 314
31.50228 347
31.5224 338
31.54251 362
31.56262 335
31.58274 365
31.60285 313
31.62297 346
31.64308 326
31.66319 308
31.68331 331
31.70342 347
31.72353 353
31.74365 306
31.76376 293
31.78387 338
31.80399 309
31.8241 357
31.84422 331
31.86433 364
31.88444 370
31.90456 350
31.92467 314
31.94478 391
31.9649 345
31.98501 327
32.00513 345
32.02524 338
32.04535 350
32.06547 322
32.08558 366
32.10569 361
32.12581 324
32.14592 329
32.16604 325
32.18615 357
32.20626 377
32.22638 333
32.24649 359
32.2666 332
32.28672 369
32.30683 344
32.32694 351
32.34706 356
32.36717 349
32.38729 392
32.4074 389
32.42751 382
32.44763 375
32.46774 414
32.48785 383
32.50797 407
32.52808 430
32.5482 409
32.56831 375
32.58842 379
32.60854 350
32.62865 348
32.64876 348
32.66888 351
32.68899 352
32.7091 378
32.72922 334
32.74933 336
32.76945 333
32.78956 349
32.80967 356
32.82979 346
32.8499 364
32.87001 349
32.89013 384
32.91024 370
32.93036 400
32.95047 435
32.97058 336
32.9907 396
33.01081 397
33.03092 391
33.05104 388
33.07115 364
33.09127 412
33.11138 377
33.13149 348
33.15161 398
33.17172 363
33.19183 340
33.21195 332
33.23206 349
33.25217 354
33.27229 331
33.2924 362
33.31252 326
33.33263 324
33.35274 316
33.37286 317
33.39297 324
33.41308 323
33.4332 361
33.45331 345
33.47343 330
33.49354 306
33.51365 300
33.53377 317
33.55388 313
33.57399 316
33.59411 290
33.61422 317
33.63434 332
33.65445 318
33.67456 324
33.69468 328
33.71479 354
33.7349 350
33.75502 368
33.77513 387
33.79524 386
33.81536 366
33.83547 361
33.85559 371
33.8757 343
33.89581 336
33.91593 348
33.93604 318
33.95615 340
33.97627 373
33.99638 372
34.0165 355
34.03661 395
34.05672 373
34.07684 393
34.09695 397
34.11706 388
34.13718 413
34.15729 393
34.17741 397
34.19752 427
34.21763 409
34.23775 402
34.25786 427
34.27797 470
34.29809 452
34.3182 438
34.33831 460
34.35843 486
34.37854 480
34.39866 477
34.41877 469
34.43888 511
34.459 497
34.47911 574
34.49922 531
34.51934 563
34.53945 573
34.55957 627
34.57968 613
34.59979 595
34.61991 693
34.64002 666
34.66013 637
34.68025 640
34.70036 642
34.72047 600
34.74059 614
34.7607 578
34.78082 604
34.80093 601
34.82104 554
34.84116 545
34.86127 537
34.88138 579
34.9015 552
34.92161 575
34.94173 574
34.96184 592
34.98195 523
35.00207 542
35.02218 557
35.04229 504
35.06241 541
35.08252 506
35.10264 560
35.12275 507
35.14286 543
35.16298 470
35.18309 502
35.2032 495
35.22332 539
35.24343 477
35.26354 464
35.28366 527
35.30377 509
35.32389 494
35.344 478
35.36411 423
35.38423 519
35.40434 510
35.42445 490
35.44457 510
35.46468 529
35.4848 506
35.50491 490
35.52502 472
35.54514 473
35.56525 458
35.58536 487
35.60548 479
35.62559 496
35.64571 460
35.66582 412
35.68593 405
35.70605 384
35.72616 442
35.74627 418
35.76639 408
35.7865 386
35.80661 426
35.82673 378
35.84684 393
35.86696 380
35.88707 436
35.90718 379
35.9273 336
35.94741 358
35.96752 386
35.98764 367
36.00775 367
36.02787 361
36.04798 336
36.06809 411
36.08821 392
36.10832 365
36.12843 391
36.14855 393
36.16866 402
36.18878 392
36.20889 432
36.229 467
36.24912 454
36.26923 520
36.28934 550
36.30946 640
36.32957 740
36.34968 789
36.3698 889
36.38991 992
36.41003 1128
36.43014 1194
36.45025 1292
36.47037 1265
36.49048 1278
36.51059 1259
36.53071 1093
36.55082 1016
36.57094 918
36.59105 797
36.61116 729
36.63128 680
36.65139 554
36.6715 508
36.69162 457
36.71173 453
36.73184 419
36.75196 388
36.77207 433
36.79219 404
36.8123 430
36.83241 410
36.85253 403
36.87264 421
36.89275 427
36.91287 445
36.93298 387
36.9531 443
36.97321 384
36.99332 388
37.01344 420
37.03355 375
37.05366 381
37.07378 420
37.09389 410
37.11401 342
37.13412 362
37.15423 366
37.17435 388
37.19446 371
37.21457 361
37.23469 369
37.2548 361
37.27491 379
37.29503 362
37.31514 373
37.33526 374
37.35537 361
37.37548 410
37.3956 392
37.41571 366
37.43582 373
37.45594 388
37.47605 423
37.49617 360
37.51628 407
37.53639 398
37.55651 369
37.57662 398
37.59673 376
37.61685 408
37.63696 365
37.65708 361
37.67719 390
37.6973 382
37.71742 372
37.73753 391
37.75764 374
37.77776 367
37.79787 350
37.81798 321
37.8381 325
37.85821 330
37.87833 325
37.89844 356
37.91855 317
37.93867 317
37.95878 326
37.97889 346
37.99901 349
38.01912 367
38.03924 356
38.05935 340
38.07946 358
38.09958 336
38.11969 381
38.1398 379
38.15992 342
38.18003 372
38.20015 329
38.22026 349
38.24037 335
38.26049 332
38.2806 322
38.30071 317
38.32083 341
38.34094 342
38.36105 379
38.38117 303
38.40128 351
38.4214 327
38.44151 358
38.46162 330
38.48174 327
38.50185 368
38.52196 336
38.54208 381
38.56219 358
38.58231 316
38.60242 346
38.62253 324
38.64265 325
38.66276 354
38.68287 359
38.70299 345
38.7231 361
38.74321 332
38.76333 344
38.78344 371
38.80356 339
38.82367 317
38.84378 372
38.8639 380
38.88401 341
38.90412 327
38.92424 330
38.94435 346
38.96447 333
38.98458 354
39.00469 355
39.02481 341
39.04492 360
39.06503 351
39.08515 356
39.10526 388
39.12538 390
39.14549 409
39.1656 455
39.18572 451
39.20583 508
39.22594 524
39.24606 597
39.26617 736
39.28628 807
39.3064 909
39.32651 956
39.34663 1111
39.36674 1177
39.38685 1177
39.40697 1233
39.42708 1151
39.44719 1040
39.46731 932
39.48742 878
39.50754 748
39.52765 693
39.54776 599
39.56788 508
39.58799 451
39.6081 432
39.62822 400
39.64833 388
39.66845 363
39.68856 347
39.70867 403
39.72879 353
39.7489 375
39.76901 374
39.78913 348
39.80924 373
39.82935 364
39.84947 350
39.86958 361
39.8897 363
39.90981 373
39.92992 392
39.95004 354
39.97015 369
39.99026 385
40.01038 399
40.03049 455
40.05061 442
40.07072 496
40.09083 510
40.11095 587
40.13106 624
40.15117 673
40.17129 694
40.1914 705
40.21152 732
40.23163 724
40.25174 719
40.27186 692
40.29197 628
40.31208 592
40.3322 538
40.35231 512
40.37242 425
40.39254 443
40.41265 419
40.43277 374
40.45288 353
40.47299 356
40.49311 370
40.51322 342
40.53333 354
40.55345 345
40.57356 355
40.59368 293
40.61379 318
40.6339 311
40.65402 352
40.67413 327
40.69424 331
40.71436 324
40.73447 309
40.75458 311
40.7747 325
40.79481 345
40.81493 333
40.83504 334
40.85515 331
40.87527 330
40.89538 297
40.91549 355
40.93561 373
40.95572 348
40.97584 352
40.99595 356
41.01606 317
41.03618 327
41.05629 324
41.0764 330
41.09652 350
41.11663 333
41.13675 348
41.15686 345
41.17697 326
41.19709 359
41.2172 324
41.23731 319
41.25743 301
41.27754 322
41.29765 337
41.31777 380
41.33788 345
41.358 349
41.37811 337
41.39822 334
41.41834 341
41.43845 348
41.45856 333
41.47868 375
41.49879 325
41.51891 364
41.53902 320
41.55913 359
41.57925 383
41.59936 384
41.61947 375
41.63959 381
41.6597 386
41.67982 395
41.69993 387
41.72004 405
41.74016 392
41.76027 390
41.78038 377
41.8005 378
41.82061 370
41.84072 363
41.86084 378
41.88095 342
41.90107 344
41.92118 380
41.94129 336
41.96141 337
41.98152 326
42.00163 352
42.02175 329
42.04186 324
42.06198 385
42.08209 391
42.1022 395
42.12232 415
42.14243 398
42.16254 409
42.18266 469
42.20277 490
42.22289 529
42.243 599
42.26311 726
42.28323 785
42.30334 820
42.32345 904
42.34357 941
42.36368 946
42.38379 989
42.40391 941
42.42402 939
42.44414 875
42.46425 738
42.48436 676
42.50448 636
42.52459 588
42.5447 519
42.56482 450
42.58493 444
42.60505 387
42.62516 409
42.64527 354
42.66539 362
42.6855 365
42.70561 381
42.72573 370
42.74584 350
42.76595 390
42.78607 357
42.80618 353
42.8263 340
42.84641 332
42.86652 374
42.88664 327
42.90675 329
42.92686 333
42.94698 324
42.96709 298
42.98721 344
43.00732 331
43.02743 322
43.04755 278
43.06766 317
43.08777 325
43.10789 293
43.128 332
43.14812 310
43.16823 339
43.18834 299
43.20846 299
43.22857 327
43.24868 273
43.2688 294
43.28891 292
43.30902 286
43.32914 326
43.34925 300
43.36937 313
43.38948 336
43.40959 321
43.42971 296
43.44982 321
43.46993 318
43.49005 333
43.51016 348
43.53028 336
43.55039 283
43.5705 308
43.59062 265
43.61073 296
43.63084 291
43.65096 267
43.67107 300
43.69119 292
43.7113 297
43.73141 290
43.75153 324
43.77164 286
43.79175 298
43.81187 289
43.83198 276
43.85209 257
43.87221 309
43.89232 279
43.91244 299
43.93255 298
43.95266 282
43.97278 270
43.99289 303
44.013 283
44.03312 282
44.05323 274
44.07335 354
44.09346 315
44.11357 262
44.13369 287
44.1538 301
44.17391 276
44.19403 304
44.21414 258
44.23426 289
44.25437 308
44.27448 298
44.2946 307
44.31471 309
44.33482 282
44.35494 324
44.37505 271
44.39516 310
44.41528 302
44.43539 316
44.45551 317
44.47562 311
44.49573 302
44.51585 285
44.53596 307
44.55607 342
44.57619 307
44.5963 283
44.61642 326
44.63653 282
44.65664 306
44.67676 308
44.69687 291
44.71698 293
44.7371 331
44.75721 333
44.77732 305
44.79744 350
44.81755 292
44.83767 292
44.85778 332
44.87789 317
44.89801 299
44.91812 334
44.93823 301
44.95835 302
44.97846 303
44.99858 301
45.01869 310
45.0388 335
45.05892 297
45.07903 309
45.09914 338
45.11926 294
45.13937 336
45.15949 314
45.1796 295
45.19971 317
45.21983 330
45.23994 323
45.26005 315
45.28017 310
45.30028 325
45.32039 364
45.34051 351
45.36062 364
45.38074 347
45.40085 324
45.42096 379
45.44108 339
45.46119 370
45.4813 390
45.50142 403
45.52153 432
45.54165 459
45.56176 465
45.58187 497
45.60199 533
45.6221 643
45.64221 634
45.66233 655
45.68244 714
45.70256 747
45.72267 721
45.74278 745
45.7629 638
45.78301 595
45.80312 607
45.82324 544
45.84335 491
45.86346 478
45.88358 462
45.90369 396
45.92381 369
45.94392 343
45.96403 350
45.98415 320
46.00426 296
46.02437 295
46.04449 316
46.0646 301
46.08472 296
46.10483 288
46.12494 297
46.14506 287
46.16517 298
46.18528 285
46.2054 309
46.22551 303
46.24563 295
46.26574 295
46.28585 300
46.30597 277
46.32608 275
46.34619 264
46.36631 291
46.38642 263
46.40653 284
46.42665 260
46.44676 279
46.46688 264
46.48699 268
46.5071 283
46.52722 302
46.54733 278
46.56744 301
46.58756 273
46.60767 279
46.62779 279
46.6479 260
46.66801 276
46.68813 254
46.70824 281
46.72835 288
46.74847 286
46.76858 281
46.78869 287
46.80881 268
46.82892 261
46.84904 301
46.86915 304
46.88926 295
46.90938 323
46.92949 296
46.9496 327
46.96972 305
46.98983 328
47.00995 266
47.03006 332
47.05017 312
47.07029 302
47.0904 298
47.11051 308
47.13063 312
47.15074 295
47.17086 305
47.19097 287
47.21108 268
47.2312 288
47.25131 268
47.27142 275
47.29154 275
47.31165 296
47.33176 300
47.35188 270
47.37199 311
47.39211 282
47.41222 311
47.43233 330
47.45245 272
47.47256 276
47.49267 290
47.51279 285
47.5329 273
47.55302 263
47.57313 281
47.59324 274
47.61336 290
47.63347 275
47.65358 282
47.6737 293
47.69381 257
47.71393 266
47.73404 280
47.75415 298
47.77427 264
47.79438 286
47.81449 300
47.83461 313
47.85472 275
47.87483 303
47.89495 308
47.91506 289
47.93518 298
47.95529 333
47.9754 311
47.99552 307
48.01563 324
48.03574 301
48.05586 361
48.07597 312
48.09609 312
48.1162 320
48.13631 317
48.15643 297
48.17654 279
48.19665 305
48.21677 303
48.23688 322
48.257 300
48.27711 295
48.29722 317
48.31734 289
48.33745 319
48.35756 326
48.37768 313
48.39779 344
48.4179 335
48.43802 326
48.45813 331
48.47825 322
48.49836 353
48.51847 344
48.53859 333
48.5587 327
48.57881 328
48.59893 351
48.61904 320
48.63916 338
48.65927 331
48.67938 345
48.6995 348
48.71961 329
48.73972 306
48.75984 317
48.77995 321
48.80006 327
48.82018 330
48.84029 341
48.86041 317
48.88052 332
48.90063 325
48.92075 365
48.94086 313
48.96097 315
48.98109 324
49.0012 324
49.02132 344
49.04143 336
49.06154 317
49.08166 352
49.10177 317
49.12188 358
49.142 328
49.16211 338
49.18223 370
49.20234 322
49.22245 327
49.24257 372
49.26268 350
49.28279 328
49.30291 335
49.32302 339
49.34313 341
49.36325 353
49.38336 350
49.40348 316
49.42359 355
49.4437 329
49.46382 326
49.48393 317
49.50404 337
49.52416 345
49.54427 341
49.56439 359
49.5845 361
49.60461 385
49.62473 387
49.64484 382
49.66495 402
49.68507 396
49.70518 454
49.7253 463
49.74541 426
49.76552 516
49.78564 498
49.80575 578
49.82586 613
49.84598 657
49.86609 707
49.8862 809
49.90632 897
49.92643 1065
49.94655 1277
49.96666 1386
49.98677 1554
50.00689 1628
50.027 1720
50.04711 1735
50.06723 1752
50.08734 1771
50.10746 1612
50.12757 1443
50.14768 1304
50.1678 1103
50.18791 1070
50.20802 925
50.22814 833
50.24825 680
50.26837 655
50.28848 558
50.30859 448
50.32871 419
50.34882 431
50.36893 426
50.38905 417
50.40916 423
50.42927 391
50.44939 431
50.4695 382
50.48962 429
50.50973 421
50.52984 443
50.54996 450
50.57007 411
50.59018 402
50.6103 404
50.63041 397
50.65053 398
50.67064 388
50.69075 397
50.71087 355
50.73098 321
50.75109 304
50.77121 369
50.79132 331
50.81143 318
50.83155 342
50.85166 323
50.87178 322
50.89189 326
50.912 353
50.93212 354
50.95223 339
50.97234 374
50.99246 298
51.01257 338
51.03269 331
51.0528 366
51.07291 335
51.09303 346
51.11314 342
51.13325 343
51.15337 331
51.17348 345
51.1936 333
51.21371 291
51.23382 319
51.25394 327
51.27405 301
51.29416 321
51.31428 305
51.33439 339
51.3545 324
51.37462 323
51.39473 308
51.41485 294
51.43496 282
51.45507 282
51.47519 301
51.4953 294
51.51541 274
51.53553 291
51.55564 265
51.57576 288
51.59587 277
51.61598 305
51.6361 270
51.65621 258
51.67632 244
51.69644 282
51.71655 261
51.73667 287
51.75678 304
51.77689 286
51.79701 283
51.81712 272
51.83723 259
51.85735 270
51.87746 253
51.89757 249
51.91769 265
51.9378 255
51.95792 259
51.97803 283
51.99814 261
52.01826 283
52.03837 281
52.05848 289
52.0786 303
52.09871 288
52.11883 301
52.13894 297
52.15905 289
52.17917 315
52.19928 300
52.21939 301
52.23951 308
52.25962 296
52.27974 314
52.29985 292
52.31996 258
52.34008 285
52.36019 279
52.3803 299
52.40042 320
52.42053 316
52.44064 297
52.46076 306
52.48087 301
52.50099 307
52.5211 274
52.54121 303
52.56133 296
52.58144 296
52.60155 299
52.62167 311
52.64178 287
52.6619 307
52.68201 352
52.70212 311
52.72224 294
52.74235 309
52.76246 285
52.78258 297
52.80269 303
52.8228 295
52.84292 303
52.86303 323
52.88315 310
52.90326 298
52.92337 358
52.94349 332
52.9636 328
52.98371 303
53.00383 336
53.02394 333
53.04406 311
53.06417 356
53.08428 332
53.1044 325
53.12451 331
53.14462 361
53.16474 334
53.18485 340
53.20497 329
53.22508 365
53.24519 359
53.26531 335
53.28542 295
53.30553 331
53.32565 328
53.34576 328
53.36587 311
53.38599 342
53.4061 330
53.42622 289
53.44633 332
53.46644 317
53.48656 311
53.50667 320
53.52678 300
53.5469 291
53.56701 313
53.58713 304
53.60724 312
53.62735 317
53.64747 319
53.66758 350
53.68769 331
53.70781 308
53.72792 342
53.74804 341
53.76815 294
53.78826 334
53.80838 323
53.82849 363
53.8486 327
53.86872 325
53.88883 340
53.90894 361
53.92906 340
53.94917 352
53.96929 335
53.9894 317
54.00951 340
54.02963 345
54.04974 309
54.06985 353
54.08997 331
54.11008 316
54.1302 317
54.15031 317
54.17042 305
54.19054 314
54.21065 329
54.23076 330
54.25088 337
54.27099 381
54.29111 330
54.31122 342
54.33133 339
54.35145 349
54.37156 359
54.39167 325
54.41179 351
54.4319 354
54.45201 355
54.47213 323
54.49224 334
54.51236 373
54.53247 368
54.55258 361
54.5727 365
54.59281 421
54.61292 480
54.63304 458
54.65315 508
54.67327 504
54.69338 591
54.71349 633
54.73361 680
54.75372 722
54.77383 700
54.79395 731
54.81406 686
54.83417 703
54.85429 628
54.8744 603
54.89452 560
54.91463 575
54.93474 566
54.95486 574
54.97497 551
54.99508 447
55.0152 455
55.03531 461
55.05543 432
55.07554 480
55.09565 453
55.11577 469
55.13588 458
55.15599 514
55.17611 488
55.19622 513
55.21634 518
55.23645 484
55.25656 466
55.27668 476
55.29679 497
55.3169 455
55.33702 452
55.35713 426
55.37724 432
55.39736 398
55.41747 402
55.43759 384
55.4577 410
55.47781 330
55.49793 325
55.51804 333
55.53815 310
55.55827 344
55.57838 317
55.5985 314
55.61861 311
55.63872 308
55.65884 335
55.67895 298
55.69906 306
55.71918 279
55.73929 314
55.75941 319
55.77952 281
55.79963 306
55.81975 300
55.83986 301
55.85997 306
55.88009 331
55.9002 314
55.92031 319
55.94043 313
55.96054 310
55.98066 313
56.00077 308
56.02088 325
56.041 319
56.06111 268
56.08122 287
56.10134 291
56.12145 301
56.14157 304
56.16168 281
56.18179 292
56.20191 274
56.22202 328
56.24213 305
56.26225 294
56.28236 328
56.30248 299
56.32259 296
56.3427 285
56.36282 303
56.38293 275
56.40304 292
56.42316 316
56.44327 279
56.46338 309
56.4835 316
56.50361 312
56.52373 296
56.54384 308
56.56395 299
56.58407 320
56.60418 298
56.62429 299
56.64441 304
56.66452 256
56.68464 324
56.70475 294
56.72486 285
56.74498 300
56.76509 267
56.7852 264
56.80532 279
56.82543 264
56.84554 291
56.86566 295
56.88577 305
56.90589 323
56.926 263
56.94611 291
56.96623 290
56.98634 272
57.00645 297
57.02657 309
57.04668 315
57.0668 290
57.08691 344
57.10702 319
57.12714 316
57.14725 303
57.16736 330
57.18748 319
57.20759 330
57.22771 327
57.24782 303
57.26793 333
57.28805 301
57.30816 325
57.32827 375
57.34839 359
57.3685 328
57.38861 354
57.40873 319
57.42884 317
57.44896 323
57.46907 301
57.48918 317
57.5093 342
57.52941 322
57.54952 320
57.56964 338
57.58975 271
57.60987 301
57.62998 336
57.65009 317
57.67021 288
57.69032 317
57.71043 289
57.73055 310
57.75066 292
57.77078 291
57.79089 301
57.811 305
57.83112 287
57.85123 296
57.87134 288
57.89146 278
57.91157 301
57.93168 295
57.9518 282
57.97191 316
57.99203 345
58.01214 289
58.03225 299
58.05237 295
58.07248 291
58.09259 256
58.11271 266
58.13282 299
58.15294 286
58.17305 282
58.19316 294
58.21328 263
58.23339 279
58.2535 273
58.27362 293
58.29373 281
58.31385 289
58.33396 263
58.35407 299
58.37419 304
58.3943 308
58.41441 292
58.43453 315
58.45464 309
58.47475 277
58.49487 303
58.51498 291
58.5351 300
58.55521 314
58.57532 321
58.59544 317
58.61555 330
58.63566 319
58.65578 329
58.67589 298
58.69601 314
58.71612 295
58.73623 310
58.75635 322
58.77646 316
58.79657 306
58.81669 317
58.8368 298
58.85691 309
58.87703 273
58.89714 283
58.91726 296
58.93737 293
58.95748 268
58.9776 292
58.99771 307
59.01782 293
59.03794 294
59.05805 286
59.07817 316
59.09828 276
59.11839 308
59.13851 300
59.15862 310
59.17873 304
59.19885 298
59.21896 317
59.23908 328
59.25919 304
59.2793 273
59.29942 305
59.31953 369
59.33964 284
59.35976 327
59.37987 296
59.39998 300
59.4201 300
59.44021 324
59.46033 327
59.48044 375
59.50055 389
59.52067 355
59.54078 387
59.56089 396
59.58101 419
59.60112 438
59.62124 461
59.64135 510
59.66146 579
59.68158 603
59.70169 696
59.7218 797
59.74192 870
59.76203 926
59.78215 1019
59.80226 1163
59.82237 1230
59.84249 1283
59.8626 1325
59.88271 1256
59.90283 1191
59.92294 1142
59.94305 1051
59.96317 928
59.98328 877
60.0034 845
60.02351 756
60.04362 768
60.06374 703
60.08385 602
60.10396 536
60.12408 461
60.14419 387
60.16431 389
60.18442 353
60.20453 403
60.22465 307
60.24476 355
60.26487 339
60.28499 351
60.3051 325
60.32522 299
60.34533 320
60.36544 340
60.38556 333
60.40567 325
60.42578 318
60.4459 320
60.46601 315
60.48612 319
60.50624 338
60.52635 305
60.54647 319
60.56658 299
60.58669 333
60.60681 276
60.62692 299
60.64703 288
60.66715 328
60.68726 321
60.70738 322
60.72749 299
60.7476 275
60.76772 314
60.78783 288
60.80794 306
60.82806 284
60.84817 301
60.86828 295
60.8884 302
60.90851 309
60.92863 272
60.94874 284
60.96885 301
60.98897 338
61.00908 308
61.02919 276
61.04931 331
61.06942 319
61.08954 315
61.10965 286
61.12976 313
61.14988 335
61.16999 276
61.1901 308
61.21022 314
61.23033 317
61.25045 323
61.27056 369
61.29067 340
61.31079 308
61.3309 339
61.35101 380
61.37113 349
61.39124 346
61.41135 344
61.43147 355
61.45158 340
61.4717 363
61.49181 365
61.51192 340
61.53204 367
61.55215 387
61.57226 339
61.59238 376
61.61249 369
61.63261 356
61.65272 364
61.67283 384
61.69295 355
61.71306 339
61.73317 357
61.75329 330
61.7734 383
61.79352 343
61.81363 345
61.83374 358
61.85386 318
61.87397 333
61.89408 349
61.9142 353
61.93431 343
61.95442 344
61.97454 326
61.99465 300
62.01477 319
62.03488 334
62.05499 319
62.07511 319
62.09522 319
62.11533 288
62.13545 314
62.15556 324
62.17568 331
62.19579 302
62.2159 334
62.23602 294
62.25613 321
62.27624 329
62.29636 327
62.31647 339
62.33659 329
62.3567 321
62.37681 353
62.39693 357
62.41704 312
62.43715 312
62.45727 332
62.47738 335
62.49749 310
62.51761 298
62.53772 296
62.55784 314
62.57795 287
62.59806 297
62.61818 284
62.63829 302
62.6584 295
62.67852 322
62.69863 283
62.71875 302
62.73886 289
62.75897 302
62.77909 296
62.7992 274
62.81931 293
62.83943 323
62.85954 283
62.87965 302
62.89977 298
62.91988 331
62.94 290
62.96011 302
62.98022 303
63.00034 288
63.02045 291
63.04056 287
63.06068 331
63.08079 307
63.10091 286
63.12102 298
63.14113 317
63.16125 294
63.18136 294
63.20147 273
63.22159 316
63.2417 304
63.26182 293
63.28193 288
63.30204 296
63.32216 343
63.34227 304
63.36238 319
63.3825 311
63.40261 306
63.42272 321
63.44284 313
63.46295 349
63.48307 317
63.50318 304
63.52329 297
63.54341 300
63.56352 294
63.58363 335
63.60375 323
63.62386 328
63.64398 397
63.66409 369
63.6842 324
63.70432 370
63.72443 341
63.74454 375
63.76466 411
63.78477 372
63.80489 403
63.825 455
63.84511 437
63.86523 455
63.88534 465
63.90545 455
63.92557 481
63.94568 481
63.96579 465
63.98591 460
64.00602 463
64.02614 454
64.04625 369
64.06636 387
64.08648 409
64.10659 368
64.1267 381
64.14682 362
64.16693 368
64.18705 328
64.20716 334
64.22727 309
64.24739 272
64.2675 279
64.28761 303
64.30773 289
64.32784 268
64.34796 314
64.36807 277
64.38818 301
64.4083 307
64.42841 333
64.44852 271
64.46864 317
64.48875 274
64.50886 305
64.52898 267
64.54909 311
64.56921 311
64.58932 260
64.60943 300
64.62955 272
64.64966 275
64.66977 298
64.68989 299
64.71 305
64.73012 297
64.75023 289
64.77034 307
64.79046 300
64.81057 310
64.83068 291
64.8508 287
64.87091 300
64.89102 302
64.91114 306
64.93125 305
64.95137 289
64.97148 287
64.99159 275
65.01171 278
65.03182 333
65.05193 276
65.07205 306
65.09216 300
65.11228 307
65.13239 281
65.1525 317
65.17262 298
65.19273 305
65.21284 309
65.23296 325
65.25307 317
65.27319 284
65.2933 301
65.31341 317
65.33353 292
65.35364 286
65.37375 299
65.39387 298
65.41398 311
65.43409 281
65.45421 267
65.47432 295
65.49444 317
65.51455 314
65.53466 286
65.55478 319
65.57489 306
65.595 298
65.61512 339
65.63523 309
65.65535 326
65.67546 326
65.69557 302
65.71569 303
65.7358 328
65.75591 296
65.77603 290
65.79614 290
65.81626 267
65.83637 296
65.85648 285
65.8766 283
65.89671 328
65.91682 305
65.93694 285
65.95705 275
65.97716 283
65.99728 284
66.01739 297
66.03751 278
66.05762 296
66.07773 287
66.09785 302
66.11796 292
66.13807 293
66.15819 286
66.1783 279
66.19842 271
66.21853 277
66.23864 278
66.25876 290
66.27887 267
66.29898 304
66.3191 308
66.33921 270
66.35933 280
66.37944 283
66.39955 272
66.41967 273
66.43978 274
66.45989 283
66.48001 275
66.50012 280
66.52023 265
66.54035 273
66.56046 268
66.58058 292
66.60069 276
66.6208 254
66.64092 282
66.66103 275
66.68114 271
66.70126 297
66.72137 256
66.74149 257
66.7616 268
66.78171 266
66.80183 281
66.82194 286
66.84205 276
66.86217 264
66.88228 278
66.90239 282
66.92251 289
66.94262 280
66.96274 280
66.98285 266
67.00296 278
67.02308 313
67.04319 309
67.0633 298
67.08342 298
67.10353 295
67.12365 319
67.14376 308
67.16387 275
67.18399 302
67.2041 298
67.22421 337
67.24433 306
67.26444 297
67.28456 342
67.30467 352
67.32478 333
67.3449 350
67.36501 379
67.38512 374
67.40524 380
67.42535 374
67.44546 449
67.46558 499
67.48569 520
67.50581 554
67.52592 620
67.54603 646
67.56615 704
67.58626 728
67.60637 847
67.62649 850
67.6466 817
67.66672 817
67.68683 840
67.70694 773
67.72706 708
67.74717 708
67.76728 677
67.7874 679
67.80751 702
67.82763 707
67.84774 770
67.86785 715
67.88797 767
67.90808 816
67.92819 860
67.94831 831
67.96842 907
67.98853 964
68.00865 1014
68.02876 1052
68.04888 1093
68.06899 1112
68.0891 1075
68.10922 1018
68.12933 1065
68.14944 1016
68.16956 1018
68.18967 1022
68.20979 984
68.2299 987
68.25001 977
68.27013 890
68.29024 783
68.31035 727
68.33047 666
68.35058 606
68.3707 597
68.39081 563
68.41092 506
68.43104 494
68.45115 455
68.47126 450
68.49138 389
68.51149 358
68.5316 351
68.55172 315
68.57183 313
68.59195 278
68.61206 316
68.63217 313
68.65229 299
68.6724 294
68.69251 324
68.71263 306
68.73274 274
68.75286 298
68.77297 304
68.79308 311
68.8132 263
68.83331 305
68.85342 313
68.87354 296
68.89365 272
68.91376 278
68.93388 288
68.95399 289
68.97411 302
68.99422 269
69.01433 286
69.03445 294
69.05456 291
69.07467 276
69.09479 308
69.1149 245
69.13502 289
69.15513 287
69.17524 306
69.19536 334
69.21547 306
69.23558 314
69.2557 289
69.27581 296
69.29593 325
69.31604 328
69.33615 290
69.35627 303
69.37638 295
69.39649 341
69.41661 304
69.43672 307
69.45683 292
69.47695 303
69.49706 291
69.51718 305
69.53729 315
69.5574 302
69.57752 307
69.59763 305
69.61774 287
69.63786 303
69.65797 308
69.67809 288
69.6982 272
69.71831 306
69.73843 267
69.75854 307
69.77865 293
69.79877 310
69.81888 326
69.839 302
69.85911 314
69.87922 308
69.89934 323
69.91945 282
69.93956 294
69.95968 274
69.97979 289
69.9999 270
70.02002 300
70.04013 290
70.06025 247
70.08036 278
70.10047 271
70.12059 269
70.1407 301
70.16081 246
70.18093 273
70.20104 270
70.22116 278
70.24127 258
70.26138 258
70.2815 294
70.30161 287
70.32172 247
70.34184 281
70.36195 310
70.38207 252
70.40218 263
70.42229 279
70.44241 282
70.46252 269
70.48263 263
70.50275 285
70.52286 246
70.54297 261
70.56309 274
70.5832 264
70.60332 286
70.62343 259
70.64354 306
70.66366 295
70.68377 258
70.70388 268
70.724 266
70.74411 277
70.76423 274
70.78434 279
70.80445 274
70.82457 265
70.84468 267
70.86479 273
70.88491 247
70.90502 261
70.92513 280
70.94525 265
70.96536 261
70.98548 268
71.00559 291
71.0257 284
71.04582 280
71.06593 271
71.08604 274
71.10616 265
71.12627 302
71.14639 270
71.1665 283
71.18661 300
71.20673 271
71.22684 290
71.24695 270
71.26707 256
71.28718 272
71.3073 300
71.32741 270
71.34752 308
71.36764 273
71.38775 281
71.40786 286
71.42798 281
71.44809 300
71.4682 266
71.48832 279
71.50843 246
71.52855 280
71.54866 271
71.56877 277
71.58889 292
71.609 261
71.62911 244
71.64923 263
71.66934 291
71.68946 265
71.70957 304
71.72968 272
71.7498 272
71.76991 276
71.79002 256
71.81014 255
71.83025 248
71.85037 284
71.87048 269
71.89059 240
71.91071 285
71.93082 259
71.95093 275
71.97105 250
71.99116 269
72.01127 291
72.03139 262
72.0515 280
72.07162 286
72.09173 301
72.11184 285
72.13196 288
72.15207 266
72.17218 290
72.1923 290
72.21241 289
72.23253 284
72.25264 270
72.27275 309
72.29287 272
72.31298 254
72.33309 301
72.35321 291
72.37332 294
72.39344 264
72.41355 261
72.43366 247
72.45378 277
72.47389 286
72.494 296
72.51412 271
72.53423 283
72.55434 272
72.57446 278
72.59457 281
72.61469 306
72.6348 283
72.65491 287
72.67503 276
72.69514 281
72.71525 277
72.73537 270
72.75548 280
72.7756 290
72.79571 272
72.81582 312
72.83594 282
72.85605 282
72.87616 305
72.89628 290
72.91639 288
72.9365 310
72.95662 310
72.97673 302
72.99685 310
73.01696 318
73.03707 299
73.05719 289
73.0773 325
73.09741 289
73.11753 320
73.13764 332
73.15776 334
73.17787 330
73.19798 364
73.2181 353
73.23821 388
73.25832 399
73.27844 403
73.29855 440
73.31867 458
73.33878 438
73.35889 464
73.37901 459
73.39912 456
73.41923 413
73.43935 432
73.45946 452
73.47957 379
73.49969 409
73.5198 381
73.53992 395
73.56003 374
73.58014 349
73.60026 369
73.62037 371
73.64048 358
73.6606 321
73.68071 361
73.70083 307
73.72094 305
73.74105 304
73.76117 287
73.78128 310
73.80139 298
73.82151 295
73.84162 326
73.86174 290
73.88185 306
73.90196 283
73.92208 254
73.94219 296
73.9623 310
73.98242 260
74.00253 284
74.02264 269
74.04276 280
74.06287 299
74.08299 280
74.1031 328
74.12321 283
74.14333 297
74.16344 281
74.18355 257
74.20367 267
74.22378 272
74.2439 264
74.26401 293
74.28412 279
74.30424 260
74.32435 277
74.34446 265
74.36458 277
74.38469 270
74.40481 275
74.42492 262
74.44503 280
74.46515 277
74.48526 284
74.50537 260
74.52549 275
74.5456 276
74.56571 263
74.58583 299
74.60594 286
74.62606 278
74.64617 293
74.66628 267
74.6864 306
74.70651 311
74.72662 293
74.74674 277
74.76685 280
74.78697 277
74.80708 253
74.82719 269
74.84731 273
74.86742 300
74.88753 314
74.90765 272
74.92776 272
74.94787 288
74.96799 296
74.9881 255
75.00822 254
