3.00117 21050.1567978449
3.02128 20430.3058274306
3.0414 20222
3.06151 19494.7092954139
3.08162 19129.5425891525
3.10174 18439.5273689284
3.12185 17934.4028001302
3.14197 17799.7933210822
3.16208 16945.6725039291
3.18219 16586.201632187
3.20231 15897.5801560453
3.22242 15289.8942620922
3.24253 15424.7787803358
3.26265 14769.8639856148
3.28276 14096.7870550305
3.30288 13840.3441254555
3.32299 13319.2744474088
3.3431 12806
3.36322 12284.6496635753
3.38333 12019.403815048
3.40344 11489.1317070104
3.42356 11259.2674812335
3.44367 11059.4696900433
3.46379 10686.1616347576
3.4839 10342
3.50401 9736.81362049234
3.52413 9629.85073297525
3.54424 9305.97131327816
3.56435 8807.73563268184
3.58447 8601.61529249139
3.60458 8026.39479092306
3.62469 7944.98505710479
3.64481 7797.79707539188
3.66492 7321.7336528447
3.68504 7246.65487641912
3.70515 6840.80340267512
3.72526 6500.27713472222
3.74538 6420.22197312567
3.76549 6044.16699911799
3.7856 5859
3.80572 5673.69635836925
3.82583 5325.60991113581
3.84595 5197.81004546643
3.86606 5119.10538301228
3.88617 4987.51248610246
3.90629 4485.23569127397
3.9264 4276
3.94651 4415.92272696946
3.96663 4028.66335431555
3.98674 4039.86414822138
4.00686 3721.83797345364
4.02697 3460.9718995873
4.04708 3580.0787975592
4.0672 3308
4.08731 3279.90954179628
4.10742 2942.7925353894
4.12754 2954.07745844337
4.14765 2900.18802745844
4.16776 2810.33444460906
4.18788 2604.13864803883
4.20799 2539.04373907884
4.22811 2429.9846568051
4.24822 2460.97763123772
4.26833 2345.80338487279
4.28845 2243.7475689854
4.30856 2145.12750875548
4.32867 2098.11777065762
4.34879 2025.98857734651
4.3689 2084
4.38902 1916.8714791388
4.40913 1900.03062398742
4.42924 1883.89648771446
4.44936 1836.0081016542
4.46947 1867.96898247848
4.48958 1808.16193809841
4.5097 1644
4.52981 1716.0256808958
4.54992 1702.00849276161
4.57004 1737.96085260154
4.59015 1615.47076652051
4.61027 1481.98503632851
4.63038 1576.96611634618
4.65049 1517.02031065426
4.67061 1535.00156376127
4.69072 1504.99212624454
4.71083 1493.85899799149
4.73095 1347.78688256537
4.75106 1358.93489563481
4.77118 1354.02662617824
4.79129 1318.0241493074
4.8114 1281
4.83152 1308.01060883165
4.85163 1296.00035264518
4.87174 1294.89934775957
4.89186 1211.10365957043
4.91197 1183.11361061782
4.93209 1101.9850844311
4.9522 1220
4.97231 1165.94736845738
4.99243 1091.95874096246
5.01254 1085.95347789861
5.03265 1038.10027080728
5.05277 1023.00593538179
5.07288 1026.9770084008
5.09299 1057.99181439748
5.11311 1025.95427323495
5.13322 930.970347469474
5.15334 971.092528893107
5.17345 960.834226101757
5.19356 901.973567071337
5.21368 983.917503960129
5.23379 985.047694503196
5.2539 886
5.27402 963.002314138229
5.29413 853.831545654237
5.31425 821.05874095178
5.33436 854.957626807352
5.35447 863.9703767925
5.37459 876.018790917919
5.3947 801
5.41481 798.017100737481
5.43493 815.947841394362
5.45504 769.036164023043
5.47516 819.057356571852
5.49527 722.065737420288
5.51538 771.936914558132
5.5355 776
5.55561 737.01091126281
5.57572 790.001909170572
5.59584 723.862773574015
5.61595 702.967113044695
5.63606 721.979195037988
5.65618 721.000913298088
5.67629 707.025747527454
5.69641 663.016972396057
5.71652 752.050238370841
5.73663 727.938113383234
5.75675 696.87650111831
5.77686 638.058477580597
5.79697 637.018181152253
5.81709 615.993909925646
5.8372 665
5.85732 677.985201883335
5.87743 667.027374931918
5.89754 708.06314463858
5.91766 710.032475830555
5.93777 673.10667545264
5.95788 608.003586074962
5.978 658
5.99811 659.998762727645
6.01823 653.936425864803
6.03834 605.015330075527
6.05845 649.008200350283
6.07857 596.032021525802
6.09868 619.998154461883
6.11879 587.006374760144
6.13891 622.027529545113
6.15902 650.983442515611
6.17913 619.003118921848
6.19925 646.991279137286
6.21936 615.994248485124
6.23948 632.052683137158
6.25959 558.981001051978
6.2797 680
6.29982 601.915769224305
6.31993 582.001705323054
6.34004 580.028111281406
6.36016 598.019352651106
6.38027 570.007975250005
6.40039 598.983160040153
6.4205 603
6.44061 575.009249891695
6.46073 613.98467001497
6.48084 563.978234662029
6.50095 600.96300752486
6.52107 578.009720664007
6.54118 593.012872481339
6.56129 551.011229425374
6.58141 572.019980462329
6.60152 591.984909720636
6.62164 546.89118678835
6.64175 527.097315309628
6.66186 589.94650258999
6.68198 570.018056180071
6.70209 570.007106855843
6.7222 545
6.74232 564.997941757356
6.76243 553.047519039588
6.78255 608.009763181113
6.80266 557.070494855085
6.82277 566.97758871153
6.84289 558.010744965187
6.863 548
6.88311 567.996941792776
6.90323 537.970312718517
6.92334 551.069580602203
6.94346 580.982568006013
6.96357 579.975198865991
6.98368 593.039125435283
7.0038 528
7.02391 575.022576267338
7.04402 574.974476170305
7.06414 557.006449117596
7.08425 570.998331476838
7.10436 551.047568574573
7.12448 544.98317908099
7.14459 579.978533747151
7.16471 593.978826000812
7.18482 533.989095009686
7.20493 576.048818388345
7.22505 573.999776513698
7.24516 580.040274285916
7.26527 537.044554551159
7.28539 533.999265440429
7.3055 544
7.32562 604.028680164363
7.34573 578.917133788985
7.36584 537.99055425546
7.38596 556.983136219299
7.40607 552.976510557707
7.42618 580.99958240319
7.4463 556
7.46641 568.998270525255
7.48653 552.015110286097
7.50664 575.968500436819
7.52675 523.083053666211
7.54687 526.996023160985
7.56698 522.977393016797
7.58709 548.015257585151
7.60721 476.981179235918
7.62732 508.061939112982
7.64743 563.069923332602
7.66755 592.005492746358
7.68766 578.021309240301
7.70778 581.989376020647
7.72789 582.009963028617
7.748 549
7.76812 532.991143467295
7.78823 538.048030888104
7.80834 570.988585290598
7.82846 539.012116025404
7.84857 570.954865484275
7.86869 570.010832619167
7.8888 545
7.90891 550.022915180921
7.92903 590.962309027871
7.94914 519.929260620627
7.96925 543.934389787412
7.98937 534.04150752289
8.00948 518.990089584853
8.0296 556
8.04971 579.978938611932
8.06982 508.974553752647
8.08994 549.103419335545
8.11005 566.9787093301
8.13016 538.100366050598
8.15028 490.020205592385
8.17039 498.992784104847
8.1905 529
8.21062 596.962396684145
8.23073 501.985724196856
8.25085 587.116382419764
8.27096 544.102666499426
8.29107 544.94991739231
8.31119 574.994941847203
8.3313 570
8.35141 583.005235147314
8.37153 575.962713418841
8.39164 546.962858266151
8.41176 551.945142328201
8.43187 574.015821535644
8.45198 532.044652593245
8.4721 523
8.49221 579.018635735098
8.51232 570.957155988511
8.53244 537.017514644372
8.55255 564.032589752227
8.57266 516.038493246291
8.59278 541.976088361363
8.61289 542.997902717421
8.63301 556.000537704153
8.65312 540.985471286974
8.67323 542.022977789041
8.69335 560.02505041874
8.71346 560.003504458424
8.73357 549.05377684321
8.75369 518.988525239191
8.7738 570
8.79392 532.992484334446
8.81403 578.071515098677
8.83414 572.871811983051
8.85426 509.987773556315
8.87437 568.957596815139
8.89448 539.032265923917
8.9146 541
8.93471 543.989219588266
8.95483 513.982709946926
8.97494 529.046242996416
8.99505 535.045618115645
9.01517 523.947706614336
9.03528 582.978247480954
9.05539 546.027973832579
9.07551 527.0174830759
9.09562 577.008654544616
9.11573 531.917560522857
9.13585 517.080787831466
9.15596 563.958050706067
9.17608 540.04791916458
9.19619 514.98773046015
9.2163 564
9.23642 554.006877192487
9.25653 565.935937431199
9.27664 485.921175501198
9.29676 505.957504545462
9.31687 507.969827661735
9.33699 533.010640578808
9.3571 484
9.37721 532.022200502094
9.39733 534.971547444841
9.41744 525.02119122068
9.43755 550.939749296746
9.45767 550.048813049091
9.47778 514.004172539558
9.4979 542
9.51801 550.005503467165
9.53812 556.975592971164
9.55824 512.952138072764
9.57835 526.06996679089
9.59846 539.020901193015
9.61858 531.968462435537
9.63869 585.987795571256
9.6588 563
9.67892 524.939690617634
9.69903 480.045075533035
9.71915 559.105134182083
9.73926 537.056588969123
9.75937 532.014328072524
9.77949 511.005516249788
9.7996 511
9.81971 510.022072215224
9.83983 564.990400186011
9.85994 511.973850142677
9.88006 542.019964165812
9.90017 496.98772016349
9.92028 565.951619310365
9.9404 550
9.96051 528.005772217769
9.98062 559.024054323433
10.00074 549.915470748891
10.02085 510.995069448745
10.04097 552.934735181453
10.06108 557.038629118877
10.08119 515.001115341477
10.10131 551.014749028427
10.12142 548.985595995948
10.14153 538.988447745916
10.16165 532.993671021264
10.18176 532.00603259789
10.20187 519.040683700714
10.22199 499.991962638966
10.2421 537
10.26222 536.025588730646
10.28233 568.965215974843
10.30244 508.972372575791
10.32256 550.951052099291
10.34267 539.98763146357
10.36278 562.024776385458
10.3829 511
10.40301 567.01065722496
10.42313 523.923157366297
10.44324 509.021432273055
10.46335 523.979251022896
10.48347 533.954179839289
10.50358 563.014178215037
10.52369 510.022612662705
10.54381 512.02141767686
10.56392 551.999221409576
10.58403 511.94006543236
10.60415 508.073726253808
10.62426 547.941724076922
10.64438 558.994233522898
10.66449 553.018611190318
10.6846 510
10.70472 543.019543906679
10.72483 527.967587113641
10.74494 521.002572696874
10.76506 522.996903465524
10.78517 537.935228470779
10.80529 581.999182872011
10.8254 553
10.84551 570.9924390514
10.86563 524.972540772966
10.88574 558.099943953114
10.90585 566.147518430544
10.92597 500.976055771327
10.94608 578.966657967117
10.9662 529
10.98631 525.033628203246
11.00642 592.987421204442
11.02654 519.93562848382
11.04665 548.974867150018
11.06676 519.021655936431
11.08688 549.96410046844
11.10699 552.017136672555
11.1271 512
11.14722 551.079861299101
11.16733 609.97773875865
11.18745 545.910292521876
11.20756 555.010927235998
11.22767 522.020486460879
11.24779 549.977536686211
11.2679 578
11.28801 560.991897758285
11.30813 552.983765608084
11.32824 547.035431819241
11.34836 571.012853596633
11.36847 551.965948491885
11.38858 607.974276577246
11.4087 594
11.42881 617.000589645078
11.44892 588.980265054842
11.46904 588.988527042067
11.48915 570.034649106385
11.50927 583.930551503363
11.52938 623.013309791699
11.54949 568.020262860059
11.56961 562.998124641851
11.58972 554.013687248124
11.60983 591.049081812036
11.62995 587.8916821386
11.65006 539.028653748048
11.67017 563.955852534024
11.69029 581.987510780253
11.7104 610
11.73052 595.984972303091
11.75063 600.033604473593
11.77074 624.018123384233
11.79086 623.974285800404
11.81097 651.965554319296
11.83108 657.006121826301
11.8512 647
11.87131 642.007378568646
11.89143 678.070380188619
11.91154 706.983003931602
11.93165 665.12828439894
11.95177 646.947528603626
11.97188 690.014329070825
11.99199 639.999125695448
12.01211 698.015503502568
12.03222 675.98145919304
12.05234 716.19436336878
12.07245 812.089997350155
12.09256 792.029233599455
12.11268 810.980676535944
12.13279 813.998507861087
12.1529 848
12.17302 917.990559282043
12.19313 882.08970305852
12.21324 1021.15689924923
12.23336 999.048951371682
12.25347 1047.85051524685
12.27359 1122.00363995101
12.2937 1072
12.31381 1129.01142657771
12.33393 1092.95470157435
12.35404 1055.76014176549
12.37415 921.006443199437
12.39427 1003.04081815699
12.41438 867.048932744819
12.4345 924
12.45461 792.941004366671
12.47472 768.020116694355
12.49484 786.033372033928
12.51495 780.126971852452
12.53506 700.139844009138
12.55518 658.033906492459
12.57529 631.000245926539
12.5954 647
12.61552 622.964755447766
12.63563 601.001154066079
12.65575 614.013570717933
12.67586 615.955819020557
12.69597 648.984185298729
12.71609 608.043939302072
12.7362 529
12.75631 569.01986600225
12.77643 584.033399102438
12.79654 607.975362981114
12.81666 553.129839836653
12.83677 522.971835094223
12.85688 563.977706789437
12.877 550
12.89711 536.001518226071
12.91722 539.985216993337
12.93734 512.97475359215
12.95745 524.948941939883
12.97757 529.031976023725
12.99768 500.009603428126
13.01779 527.971698093312
13.03791 576.004967419663
13.05802 543.951283259145
13.07813 512.995390939175
13.09825 534.078453302595
13.11836 554.994596427742
13.13847 540.036776024973
13.15859 529.989611033714
13.1787 548
13.19882 488.99616226964
13.21893 544.057916045993
13.23904 534.972752207975
13.25916 536.015934563102
13.27927 508.052431567123
13.29938 498.962698210807
13.3195 547
13.33961 502.983519829381
13.35973 502.998031183986
13.37984 505.08832572839
13.39995 548.102617799779
13.42007 465.994539064804
13.44018 543.98610330244
13.46029 471.021943616115
13.48041 497.01061421685
13.50052 501.048402500805
13.52064 563.970416636245
13.54075 492.9651682226
13.56086 552.924929214584
13.58098 528.03189768668
13.60109 516.010166330438
13.6212 490
13.64132 519.029997087484
13.66143 534.017160230492
13.68154 540.97975359752
13.70166 512.072547028921
13.72177 490.990603101915
13.74189 494.021356236342
13.762 448
13.78211 539.015811244798
13.80223 487.93455598639
13.82234 489.994010929826
13.84245 464.039444367972
13.86257 485.918720162133
13.88268 540.97133344359
13.9028 524
13.92291 466.985760942639
13.94302 484.049895701697
13.96314 521.986062425231
13.98325 478.099002691097
14.00336 486.877880833104
14.02348 539.022964689131
14.04359 481.991884487528
14.06371 561.011704223191
14.08382 498.940537857553
14.10393 497.035484228486
14.12405 504.956784092206
14.14416 481.004393580406
14.16427 506.951718659496
14.18439 523.999097418246
14.2045 521
14.22461 519.988249543231
14.24473 481.962691021381
14.26484 485.037479061698
14.28496 492.040367277393
14.30507 456.036898599637
14.32518 468.950255842495
14.3453 510
14.36541 461.991454894909
14.38552 486.01022597343
14.40564 478.047772130504
14.42575 526.959274230499
14.44587 502.026411657675
14.46598 506.008609423432
14.48609 491.988870423296
14.50621 531.998512705049
14.52632 491.989490475168
14.54643 524.032048436475
14.56655 525.058584144933
14.58666 558.027329596917
14.60677 505.042943376962
14.62689 513.003216792742
14.647 477
14.66712 473.003930267301
14.68723 484.05162337219
14.70734 521.003550856741
14.72746 497.999365317614
14.74757 521.004422429539
14.76768 490.012167150972
14.7878 499
14.80791 468.001643497707
14.82803 506.033032226917
14.84814 493.97189369596
14.86825 497.974362139784
14.88837 498.022456013927
14.90848 484.98909238612
14.92859 507.000958664138
14.94871 484.998430692197
14.96882 498.99067138299
14.98894 466.973231137341
15.00905 488.076001385483
15.02916 501.013664718776
15.04928 488.003261547794
15.06939 487.010974182562
15.0895 463
15.10962 502.00068566745
15.12973 471.00661172197
15.14984 517.053622966974
15.16996 497.067733993969
15.19007 484.980237723167
15.21019 500.005029030462
15.2303 471
15.25041 481.006024929866
15.27053 485.012373281905
15.29064 488.957665500363
15.31075 455.032189735227
15.33087 474.953443147224
15.35098 490.006843388321
15.3711 479
15.39121 518.028426158493
15.41132 535.934222982423
15.43144 452.018273113906
15.45155 546.84622106454
15.47166 520.105053169271
15.49178 495.006556873855
15.51189 501.987548803692
15.53201 513.981784259474
15.55212 453.977459252598
15.57223 494.100841528198
15.59235 524.913470812038
15.61246 472.982897845029
15.63257 524.003344217526
15.65269 468.007007188488
15.6728 527
15.69291 538.978547430995
15.71303 484.968592561443
15.73314 499.015177021052
15.75326 481.04231026492
15.77337 485.942578227401
15.79348 525.000826788448
15.8136 481
15.83371 460.002728620473
15.85382 473.003955030434
15.87394 463.981195451172
15.89405 482.842287717196
15.91417 546.993332169629
15.93428 504.017714423634
15.95439 521.0056817827
15.97451 470.982389638523
15.99462 480.030035680601
16.01473 496.988993950761
16.03485 468.915718715459
16.05496 458.942424722204
16.07508 504.973908932099
16.09519 501.003836149377
16.1153 504
16.13542 505.013129897998
16.15553 501.909758447606
16.17564 442.078572952616
16.19576 543.94453059011
16.21587 490.01154503128
16.23598 543.997406437642
16.2561 473
16.27621 490.024248603032
16.29633 514.976475021553
16.31644 484.998216761056
16.33655 515.944932390592
16.35667 503.050321624689
16.37678 473.016057905478
16.39689 477.98847032279
16.41701 493.993213650143
16.43712 463.989384195685
16.45724 487.070629791988
16.47735 516.061400647349
16.49746 529.016683558576
16.51758 514.994328694341
16.53769 528.008705967181
16.5578 488
16.57792 499.999931187451
16.59803 478.984690927404
16.61814 490.022400936524
16.63826 478.074694097993
16.65837 448.97615341018
16.67849 494.987945199886
16.6986 472
16.71871 448.005136212886
16.73883 472.003867244624
16.75894 460.030122744604
16.77905 500.94148389785
16.79917 493.015587184447
16.81928 495.996761668705
16.8394 488
16.85951 487.019921610803
16.87962 530.986472694125
16.89974 465.902611834014
16.91985 474.897202145952
16.93996 491.081961125672
16.96008 446.960257272107
16.98019 541.983081683452
17.00031 473.952856546423
17.02042 438.033125413666
17.04053 503.072895033801
17.06065 507.952831544897
17.08076 502.946531256751
17.10087 538.993263009282
17.12099 497.031141153652
17.1411 458
17.16121 487.01031655717
17.18133 487.001560923934
17.20144 497.010265118144
17.22156 497.97763957933
17.24167 509.021123916781
17.26178 500.945763284165
17.2819 573
17.30201 479.965943905874
17.32212 493.046101027925
17.34224 519.000138665545
17.36235 499.070718488918
17.38247 476.022611423545
17.40258 484.953326298263
17.42269 530.005296328788
17.44281 476.986013629821
17.46292 503.042101579969
17.48303 509.936911177538
17.50315 464.024013421078
17.52326 515.957090817
17.54338 491.015073808476
17.56349 509.989556934014
17.5836 514
17.60372 506.969413174979
17.62383 490.075819846672
17.64394 561.985814179631
17.66406 476.126574222949
17.68417 485.949049089689
17.70428 504.986113164641
17.7244 519
17.74451 514.98995418715
17.76463 497.008570100591
17.78474 517.006746023359
17.80485 505.980944936757
17.82497 538.952501592086
17.84508 549.005879897084
17.86519 540.002542737524
17.88531 527.981751342202
17.90542 490.001811643477
17.92554 532.082818148686
17.94565 538.94630467978
17.96576 512.030094382006
17.98588 519.974802534268
18.00599 534.010072822898
18.0261 493
18.04622 501.022102243519
18.06633 527.057308633003
18.08645 557.987963076536
18.10656 520.079246213545
18.12667 509.969557743386
18.14679 528.008941778382
18.1669 486
18.18701 500.00778203306
18.20713 498.99522573967
18.22724 496.976456154777
18.24735 480.015757587737
18.26747 485.993622032905
18.28758 502.942088648473
18.3077 551
18.32781 463.997092845297
18.34792 537.023821062055
18.36804 469.85600370642
18.38815 463.884207124042
18.40826 514.957518738904
18.42838 504.011497163025
18.44849 493.020445220628
18.46861 460.021938666236
18.48872 532.984900260668
18.50883 451.988324651894
18.52895 527.072368191581
18.54906 482.037166650945
18.56917 524.940932497084
18.58929 512.02460563873
18.6094 479
18.62951 519.995930738408
18.64963 472.991438885702
18.66974 523.080871936686
18.68986 518.043397557338
18.70997 503.020168010559
18.73008 493.996183799166
18.7502 497
18.77031 467.998907247736
18.79042 496.025654867842
18.81054 508.03783580975
18.83065 526.02961928
18.85077 503.975278221177
18.87088 546.991669259732
18.89099 509.017327732858
18.91111 500.996477920588
18.93122 486.99711380597
18.95133 497.010083987109
18.97145 500.036957678962
18.99156 526.95311683714
19.01168 532.01328510809
19.03179 518.997045631446
19.0519 526
19.07202 482.999975536733
19.09213 522.025121379416
19.11224 494.937057441465
19.13236 500.907488542819
19.15247 538.03775659709
19.17258 479.010772800075
19.1927 539
19.21281 564.991863483705
19.23293 526.937465374722
19.25304 497.966233317366
19.27315 495.958217315583
19.29327 513.00777988926
19.31338 499.983882436766
19.33349 543.9834589161
19.35361 543.991464259861
19.37372 531.999422557262
19.39384 535.991054866815
19.41395 523.98621209162
19.43406 531.970933405876
19.45418 538.010869141652
19.47429 520.003395783763
19.4944 544
19.51452 586.983020876059
19.53463 542.008704857796
19.55475 595.045051731379
19.57486 581.917900029686
19.59497 659.982672033399
19.61509 596.02239576687
19.6352 613
19.65531 630.018440494759
19.67543 694.100491126714
19.69554 721.939041543012
19.71565 682.944795788304
19.73577 737.01956795432
19.75588 703.906820251051
19.776 873
19.79611 783.981815849987
19.81622 893.160146665614
19.83634 999.074729076252
19.85645 981.117320418386
19.87656 947.009691754321
19.89668 961.990724899177
19.91679 956.002681575998
19.93691 965.010567937425
19.95702 971.968530412069
19.97713 931.004726021817
19.99725 962.980626048364
20.01736 905.098853524334
20.03747 881.058263569346
20.05759 840.993051130696
20.0777 905
20.09782 915.990891276361
20.11793 908.990442217345
20.13804 901.985606458146
20.15816 870.161283246129
20.17827 800.956966108662
20.19838 891.969209869817
20.2185 854
20.23861 916.006862945152
20.25872 855.944039402935
20.27884 846.002722812836
20.29895 834.037465285246
20.31907 828.988136412805
20.33918 843.986900749548
20.35929 864.976423412585
20.37941 905.991615099695
20.39952 828.912262342408
20.41963 802.086293001618
20.43975 886.070280081821
20.45986 850.053680406417
20.47998 864.983449134538
20.50009 860.004764011443
20.5202 863
20.54032 894.04861601046
20.56043 921.948967056963
20.58054 852.929384441134
20.60066 876.918463955421
20.62077 909.936601081457
20.64088 952.983024142073
20.661 955
20.68111 1008.02496581218
20.70123 1060.1341322905
20.72134 1210.391708169
20.74145 1423.47294959429
20.76157 1679.4591105588
20.78168 2059.7553602583
20.80179 2188.90948866743
20.82191 2424.05876873654
20.84202 2342.8078269913
20.86214 2145.64227766293
20.88225 1957.39597920229
20.90236 1654.63867717602
20.92248 1394.16057964371
20.94259 1271.09106715535
20.9627 1047
20.98282 1007.98317677456
21.00293 942.85463941986
21.02305 883.078786995451
21.04316 969.897800283636
21.06327 957.023491564446
21.08339 964.003221029389
21.1035 947
21.12361 971.991970738471
21.14373 928.998331644171
21.16384 977.07179284869
21.18395 976.005744049574
21.20407 981.022492226197
21.22418 946.027113835943
21.2443 965
21.26441 1045.01003151703
21.28452 1007.97231688987
21.30464 1025.06234664084
21.32475 1032.06336298891
21.34486 1005.97320376478
21.36498 1046.98392504995
21.38509 1014.02683644168
21.40521 976.994870771228
21.42532 980.996238237538
21.44543 957.952737806177
21.46555 935.988775129873
21.48566 940.008292668529
21.50577 917.053331865538
21.52589 882.013344234247
21.546 865
21.56612 840.956009244655
21.58623 789.947439200922
21.60634 793.082286436497
21.62646 827.038443671685
21.64657 767.063172284229
21.66668 765.994636065961
21.6868 754
21.70691 736.990341040374
21.72702 737.044730026395
21.74714 786.979357985383
21.76725 729.067598802053
21.78737 747.001092291034
21.80748 721.990813325192
21.82759 770.98229424451
21.84771 745.960412498271
21.86782 673.991791616013
21.88793 727.083489724777
21.90805 724.843602953902
21.92816 667.96276455186
21.94828 722.020427762075
21.96839 653.989183194085
21.9885 764
22.00862 723.951291289804
22.02873 698.912989292799
22.04884 635.029865538744
22.06896 719.879422763854
22.08907 702.08500922436
22.10919 670.98983679758
22.1293 702
22.14941 633.984193987289
22.16953 663.052459005399
22.18964 666.980009647041
22.20975 661.994969376035
22.22987 657.041716145715
22.24998 629.986162404279
22.27009 677.982543033085
22.29021 668.981478443244
22.31032 647.020796028662
22.33044 679.973522093025
22.35055 634.989656114716
22.37066 680.934806740809
22.39078 676.004075145995
22.41089 680.009629845133
22.431 630
22.45112 612.040900794758
22.47123 667.004673533208
22.49135 639.067409345467
22.51146 706.983473341537
22.53157 640.086034362066
22.55169 635.995503619617
22.5718 623
22.59191 601.00217503086
22.61203 638.085384103015
22.63214 671.959598176009
22.65225 619.081181525508
22.67237 641.908853860731
22.69248 682.022723631844
22.7126 623
22.73271 633.99215344815
22.75282 595.005323220337
22.77294 650.08482386425
22.79305 639.108862560595
22.81316 622.897931626665
22.83328 692.003041466425
22.85339 619.025218239721
22.87351 631.011305517338
22.89362 638.016605315245
22.91373 653.969453711293
22.93385 604.915237206204
22.95396 606.968292730432
22.97407 605.043973392503
22.99419 579.989497461888
23.0143 633
23.03442 636.031162387782
23.05453 674.958121443727
23.07464 601.957109827108
23.09476 647.934333097779
23.11487 643.977111187817
23.13498 665.04325592124
23.1551 580
23.17521 610.005298305441
23.19532 580.993339919203
23.21544 621.098213907014
23.23555 638.049419767155
23.25567 596.067184059731
23.27578 584.959346261196
23.29589 635.999334404544
23.31601 594.99203274249
23.33612 625.029762019622
23.35623 621.966004946156
23.37635 609.032876514316
23.39646 641.940947800944
23.41658 648.015124236027
23.43669 620.017287237226
23.4568 591
23.47692 594.023812956033
23.49703 618.003111706192
23.51714 615.060960618826
23.53726 655.027520772231
23.55737 606.003897149782
23.57749 651.992638712079
23.5976 608
23.61771 590.000715453826
23.63783 602.040048814235
23.65794 628.010482115112
23.67805 613.036870654353
23.69817 608.008837355219
23.71828 610.967686670363
23.73839 642.010999222312
23.75851 587.993619028196
23.77862 627.028476043627
23.79874 620.99443143156
23.81885 648.11404756586
23.83896 675.037270325636
23.85908 628.031005166269
23.87919 637.983944012637
23.8993 665
23.91942 664.996734113741
23.93953 666.004702793478
23.95965 673.036601446659
23.97976 681.033795376244
23.99987 656.992305233769
24.01999 681.001943928488
24.0401 658
24.06021 710.018314359472
24.08033 717.024123468707
24.10044 745.007302461784
24.12056 714.07865196725
24.14067 690.015384390556
24.16078 689.991402689832
24.1809 690
24.20101 664.005267320667
24.22112 707.032882516366
24.24124 706.972267899794
24.26135 692.054940333571
24.28146 664.05261530629
24.30158 655.980331238679
24.32169 687.990436002035
24.34181 682.992227861461
24.36192 668.986356231162
24.38203 671.051553282251
24.40215 712.011556707361
24.42226 683.034078508577
24.44237 697.967247520931
24.46249 710.99336424709
24.4826 720
24.50272 700.993873691542
24.52283 713.019450730136
24.54294 731.087684771161
24.56306 765.066509211834
24.58317 700.005447969272
24.60328 774.922964943087
24.6234 805
24.64351 808.994284725166
24.66362 800.021817124372
24.68374 831.9857324951
24.70385 813.879455197278
24.72397 912.916542161384
24.74408 904.001737483513
24.76419 946.973647512621
24.78431 989.022313814779
24.80442 1047.06734325672
24.82453 1083.95418873634
24.84465 1023.96461864235
24.86476 1039.09331509535
24.88488 950.019762693437
24.90499 986.016408203698
24.9251 885
24.94522 920.006950500232
24.96533 863.92784155886
24.98544 873.091073955697
25.00556 896.076997005441
25.02567 828.039075644338
25.04579 842.009457080568
25.0659 776
25.08601 760.995530221425
25.10613 739.972614343737
25.12624 744.062751199307
25.14635 788.903642029887
25.16647 793.059514032323
25.18658 741.022813388838
25.20669 766.973442312669
25.22681 809.006616446453
25.24692 787.956534770974
25.26704 746.951093159604
25.28715 756.115210984881
25.30726 790.063067379514
25.32738 708.063369682024
25.34749 703.985907875507
25.3676 718
25.38772 673.960744192282
25.40783 679.090673410935
25.42795 735.956516477245
25.44806 656.118334913789
25.46817 658.962858303558
25.48829 665.006547453516
25.5084 655
25.52851 671.98548846458
25.54863 612.962401418747
25.56874 649.122278904949
25.58886 679.045323707979
25.60897 633.027921957896
25.62908 667.936037068665
25.6492 713
25.66931 676.978587711403
25.68942 660.011733216302
25.70954 665.926066616974
25.72965 607.0541152299
25.74976 642.889654932354
25.76988 676.990151098658
25.78999 667.011390120429
25.81011 635.979458075195
25.83022 608.011038618675
25.85033 653.071827257877
25.87045 671.970717698883
25.89056 648.031718745212
25.91067 646.003372086358
25.93079 636.005470952254
25.9509 634
25.97102 665.056717648705
25.99113 711.993620182676
26.01124 667.937724157596
26.03136 682.915889263505
26.05147 713.999719779786
26.07158 686.03358063797
26.0917 671
26.11181 700.026110227849
26.13193 736.973381197325
26.15204 687.965164682205
26.17215 727.84965325136
26.19227 759.017159908071
26.21238 733.996167962674
26.23249 774.978155404851
26.25261 800.009210235288
26.27272 822.022953275227
26.29283 835.995785511589
26.31295 843.127547377374
26.33306 915.926011934011
26.35318 906.011590302471
26.37329 945.950552190682
26.3934 1075
26.41352 1179.11539789632
26.43363 1338.3051095655
26.45374 1622.78794504853
26.47386 2095.04599708636
26.49397 2614.01704623047
26.51409 3524.41699057308
26.5342 4862
26.55431 6235.68733265197
26.57443 7490.43300382526
26.59454 8038.36549028133
26.61465 7923.97521033859
26.63477 7316.16711873994
26.65488 6351.1914165136
26.67499 5034.63199888217
26.69511 3891.45497042679
26.71522 2855.12281465657
26.73534 2143.76974466968
26.75545 1579.83104789393
26.77556 1233.46262143917
26.79568 1069.13036754215
26.81579 966.022237005318
26.8359 950
26.85602 852.895684660868
26.87613 774.913240297283
26.89625 753.093703826446
26.91636 803.017122066936
26.93647 747.032209747243
26.95659 763.012662542973
26.9767 702
26.99681 747.011765273383
27.01693 704.889191385174
27.03704 642.92307496042
27.05716 637.944327025684
27.07727 667.001656259245
27.09738 639.020175959223
27.1175 642
27.13761 634.989884386382
27.15772 610.981271992566
27.17784 612.053196139212
27.19795 636.032772102027
27.21806 599.026101300491
27.23818 610.012620611245
27.25829 573.006986243098
27.27841 596.013318322714
27.29852 596.978956388613
27.31863 588.050517549167
27.33875 632.984826849584
27.35886 591.001015701189
27.37897 638.960791855339
27.39909 629.993678210172
27.4192 670
27.43932 638.950973040297
27.45943 601.966073935524
27.47954 597.028542114392
27.49966 613.997488865504
27.51977 605.988895397047
27.53988 621.01008655787
27.56 597
27.58011 616.986581193139
27.60023 552.954552107165
27.62034 565.992408859192
27.64045 558.842336020715
27.66057 647.010674052029
27.68068 541.087544776567
27.70079 535.987125935763
27.72091 559.019104317337
27.74102 614.054312900867
27.76113 617.880649824003
27.78125 522.98016660735
27.80136 593.920713552279
27.82148 568.016562657876
27.84159 595.983730616924
27.8617 594
27.88182 559.001078359905
27.90193 578.980589161269
27.92204 534.957519660924
27.94216 551.965545898894
27.96227 558.9641226804
27.98239 590.998319622667
28.0025 568
28.02261 571.990827730601
28.04273 537.991371288207
28.06284 560.011623660855
28.08295 543.006292107829
28.10307 570.944519307896
28.12318 591.99919494273
28.1433 572
28.16341 532.985771841872
28.18352 522.001732070998
28.20364 522.983368351015
28.22375 534.16862566646
28.24386 615.96873986134
28.26398 568.029126700661
28.28409 580.00332943879
28.3042 541
28.32432 560.046123528754
28.34443 587.970768711036
28.36455 536.907177039005
28.38466 536.968095993895
28.40477 552.968159390026
28.42489 563.011636966193
28.445 536
28.46511 596.018450875858
28.48523 568.894223181917
28.50534 522.048655154645
28.52546 595.893590801111
28.54557 591.047664177001
28.56568 562.02744139146
28.5858 542
28.60591 543.996315058752
28.62602 528.995384119577
28.64614 528.962144961491
28.66625 519.866970804817
28.68636 608.91077270524
28.70648 569.084694661151
28.72659 515.991616172636
28.74671 560.996735507086
28.76682 503.973324114175
28.78693 535.0538847339
28.80705 537.960730222277
28.82716 530.970179391324
28.84727 563.949462693266
28.86739 577.006160516474
28.8875 551
28.90762 537.988430253809
28.92773 528.001128007077
28.94784 533.993369221445
28.96796 535.927611677286
28.98807 591.952735144468
29.00818 572.054473035565
29.0283 527
29.04841 547.004870092773
29.06853 543.024391857952
29.08864 569.988038180972
29.10875 541.988175302482
29.12887 562.0551926935
29.14898 494.000445143424
29.16909 564.976438218287
29.18921 548.988111939719
29.20932 539.973457108244
29.22943 511.024717261545
29.24955 574.156277321388
29.26966 601.99072794748
29.28978 581.060601281004
29.30989 524.995952689405
29.33 578
29.35012 537.954389420986
29.37023 526.012509018736
29.39034 541.04261652082
29.41046 560.978657237538
29.43057 544.08279802715
29.45069 486.0067379016
29.4708 527
29.49091 563.005137666775
29.51103 547.94487946402
29.53114 527.058587426554
29.55125 557.133421352773
29.57137 470.974181137221
29.59148 581.941664419761
29.6116 530
29.63171 514.017458757419
29.65182 557.01495553493
29.67194 534.935496675799
29.69205 523.031738472787
29.71216 545.971609804422
29.73228 546.001018389528
29.75239 553.993118136049
29.7725 562
29.79262 549.999493543348
29.81273 562.012603887816
29.83285 553.946807754664
29.85296 539.977847010381
29.87307 551.047702271694
29.89319 494.010403047936
29.9133 518
29.93341 521.017789815132
29.95353 570.9991335155
29.97364 521.938478030424
29.99376 535.961830857736
30.01387 534.014554205067
30.03398 528.004119114184
30.0541 525
30.07421 544.02734237767
30.09432 575.934126386115
30.11444 472.993351214287
30.13455 571.833245434323
30.15467 552.04192409161
30.17478 554.008595571024
30.19489 523.012077352625
30.21501 524.007822092297
30.23512 537.003343223137
30.25523 535.005670804782
30.27535 554.080985545452
30.29546 577.016274510243
30.31557 549.022490586634
30.33569 550.006315455769
30.3558 527
30.37592 557.034071009289
30.39603 564.965719853416
30.41614 540.012984705632
30.43626 566.994539628786
30.45637 539.030799681147
30.47648 529.034105948719
30.4966 486
30.51671 532.023719120292
30.53683 552.012400265836
30.55694 556.988177027344
30.57705 546.998771244007
30.59717 554.007464498334
30.61728 543.9894675158
30.63739 565.002212525072
30.65751 525.976760743398
30.67762 512.032257657282
30.69773 564.046555460783
30.71785 558.959056465471
30.73796 546.038120003422
30.75808 520.02353961096
30.77819 513.991166363506
30.7983 539
30.81842 535.006974234138
30.83853 548.988755836118
30.85864 526.997959301993
30.87876 550.965279296203
30.89887 547.013302258119
30.91899 538.010337922205
30.9391 514
30.95921 528.009228629135
30.97933 530.975649433608
30.99944 514.009261919563
31.01955 538.946540801825
31.03967 530.063747895402
31.05978 489.000434412205
31.0799 534
31.10001 560.99579646833
31.12012 530.968692091794
31.14024 518.010739200169
31.16035 525.020084333384
31.18046 503.035929780962
31.20058 502.98588289481
31.22069 525.984966945949
31.2408 548
31.26092 527.976211723792
31.28103 512.986202751097
31.30115 516.0621635792
31.32126 544.989817232767
31.34137 527.018965316224
31.36149 530.998198979784
31.3816 527
31.40171 535.007734954679
31.42183 548.003855679056
31.44194 538.972172387615
31.46206 530.001117930131
31.48217 541.962221996502
31.50228 566.989812823348
31.5224 553
31.54251 517.987799026528
31.56262 515.017242319699
31.58274 537.024376498243
31.60285 547.919529754771
31.62297 581.014845390549
31.64308 545.998262665985
31.66319 578.003108220345
31.68331 531.990748932405
31.70342 553.005768694348
31.72353 546.055707908611
31.74365 590.89799694439
31.76376 488.093241984083
31.78387 541.877524568517
31.80399 568.020606711048
31.8241 506
31.84422 531.026908405845
31.86433 531.990781994167
31.88444 532.001346773752
31.90456 521.058337798293
31.92467 491.009345134536
31.94478 528.922302657211
31.9649 583
31.98501 511.996095287287
32.00513 574.051997925416
32.02524 545.940208291149
32.04535 550.959478812475
32.06547 563.971688587073
32.08558 583.993230586013
32.10569 569.015467667494
32.12581 539.992844931035
32.14592 549.02854901601
32.16604 572.997214406976
32.18615 551.964277128592
32.20626 560.954683219524
32.22638 576.004735715215
32.24649 550.018216926678
32.2666 539
32.28672 593.004461107016
32.30683 545.94398258531
32.32694 548.021706901761
32.34706 558.934942502553
32.36717 596.992392459316
32.38729 564.018783676445
32.4074 558
32.42751 594.005880845144
32.44763 590.029445924048
32.46774 618.968991463956
32.48785 572.02775179171
32.50797 600.990554753532
32.52808 569.022843820045
32.5482 572
32.56831 566.010100574783
32.58842 608.028307647525
32.60854 611.001546749251
32.62865 618.996548420738
32.64876 605.04834428808
32.66888 601.955419852193
32.68899 655.002558685354
32.7091 602
32.72922 624.00832056646
32.74933 608.012577120177
32.76945 633.970305924357
32.78956 599.969681425224
32.80967 663.938725113691
32.82979 654.008529390487
32.8499 662
32.87001 667.986437295313
32.89013 639.027606525011
32.91024 684.003186114227
32.93036 655.948158861396
32.95047 734.929619624195
32.97058 722.016218649288
32.9907 744
33.01081 770.991636870907
33.03092 731.986236590443
33.05104 771.144119141819
33.07115 829.956318268812
33.09127 816.012287045669
33.11138 822.008630462681
33.13149 789.018891097475
33.15161 792.035134168338
33.17172 854.953694220927
33.19183 741.947862874893
33.21195 810.129467433317
33.23206 791.05257212055
33.25217 786.027645426818
33.27229 749.012604940967
33.2924 737
33.31252 712.022872473704
33.33263 773.064867052586
33.35274 764.923999421452
33.37286 723.080048519886
33.39297 694.019934287925
33.41308 688.011410074264
33.4332 690
33.45331 744.996692249828
33.47343 680.92865709836
33.49354 682.018412984934
33.51365 681.965831379894
33.53377 685.082513615984
33.55388 612.002205444258
33.57399 674.98321618052
33.59411 638.974319004987
33.61422 622.013835441581
33.63434 642.010061584189
33.65445 623.929400856933
33.67456 605.004689979899
33.69468 609.006911866029
33.71479 590.007364313638
33.7349 602
33.75502 637.978223393745
33.77513 583.982311972381
33.79524 631.097048115431
33.81536 631.083854636378
33.83547 587.018388982858
33.85559 600.000931659707
33.8757 567
33.89581 557.016734182978
33.91593 601.011378850567
33.93604 566.931310313415
33.95615 557.003465777064
33.97627 552.006941252823
33.99638 545.015916034601
34.0165 532
34.03661 563.017536445296
34.05672 572.973375722719
34.07684 537.993482528156
34.09695 564.960816750346
34.11706 557.005568590642
34.13718 566.001658657219
34.15729 555.996761515713
34.17741 579.007245585607
34.19752 571.983234988493
34.21763 559.993789211658
34.23775 576.113573834223
34.25786 605.086435169803
34.27797 529.019570348456
34.29809 584.982464983708
34.3182 561
34.33831 567.019088094375
34.35843 596.97963247193
34.37854 558.983938014991
34.39866 596.909333629743
34.41877 615.009616527979
34.43888 594.028455915212
34.459 578
34.47911 594.996063806298
34.49922 577.018652942436
34.51934 622.0279718647
34.53945 605.970456229057
34.55957 643.993708408082
34.57968 610.016382737291
34.59979 621.003719608376
34.61991 586.98878114716
34.64002 598.028664908623
34.66013 633.067718248298
34.68025 666.991638561634
34.70036 649.962455357035
34.72047 709.915209347026
34.74059 718.020878541688
34.7607 682
34.78082 750.028823324668
34.80093 715.938064892958
34.82104 722.106029730197
34.84116 782.942640788
34.86127 792.934778745959
34.88138 830.062484892809
34.9015 723
34.92161 815.012613840818
34.94173 750.976536046856
34.96184 816.082126747494
34.98195 793.057896941832
35.00207 801.985600201673
35.02218 795.009256174174
35.04229 788.00717971308
35.06241 775.003516809294
35.08252 788.989239179566
35.10264 765.012198623209
35.12275 781.914277318166
35.14286 711.05947117868
35.16298 730.00148346017
35.18309 705.989594632303
35.2032 765
35.22332 722.939568612832
35.24343 692.002085048744
35.26354 718.080376536827
35.28366 746.996488839128
35.30377 728.026532575593
35.32389 733.984936789223
35.344 756
35.36411 715.996724163205
35.38423 758.07743868485
35.40434 781.993767754162
35.42445 773.978739650704
35.44457 792.001649405765
35.46468 774.003960689433
35.4848 798
35.50491 822.004103408155
35.52502 829.024960608303
35.54514 870.070637801627
35.56525 895.916810711535
35.58536 912.086812580545
35.60548 857.97250826334
35.62559 933.002128953389
35.64571 882.03077603121
35.66582 1014.0001513494
35.68593 868.847290317547
35.70605 897.146720702295
35.72616 911.01555989272
35.74627 903.015049199453
35.76639 882.019311689622
35.7865 852
35.80661 878.990128571371
35.82673 814.934137066352
35.84684 837.141019278548
35.86696 886.052885926633
35.88707 815.046313290379
35.90718 832.011629146674
35.9273 781
35.94741 802.008813620369
35.96752 812.0458732065
35.98764 863.967929196066
36.00775 785.154346533498
36.02787 767.039087556235
36.04798 729.001155489966
36.06809 765.986262867399
36.08821 751.979968855163
36.10832 722.001490227934
36.12843 746.024507028334
36.14855 730.899511704569
36.16866 693.026891272075
36.18878 710.965348085306
36.20889 734.999935267513
36.229 721
36.24912 726.996971639112
36.26923 711.985620324941
36.28934 734.124947044391
36.30946 791.009833451352
36.32957 751.984504062865
36.34968 811.974160084726
36.3698 795
36.38991 862.031877910565
36.41003 905.08754245195
36.43014 995.200147789679
36.45025 1075.87315604053
36.47037 1140.80260889591
36.49048 1269.99838006025
36.51059 1162.0373282794
36.53071 1141.95736322467
36.55082 994.916974136587
36.57094 1003.00580731307
36.59105 959.916191842796
36.61116 938.12442814811
36.63128 851.042345742654
36.65139 853.01117632963
36.6715 782
36.69162 747.002580088018
36.71173 753.970440332354
36.73184 726.026861653822
36.75196 791.842650685251
36.77207 829.031913491087
36.79219 776.0204324999
36.8123 758
36.83241 741.022614375459
36.85253 806.988802923518
36.87264 729.902212898532
36.89275 774.732757471618
36.91287 857.995463932656
36.93298 803.034779133479
36.9531 814
36.97321 783.979861215067
36.99332 749.965522311144
37.01344 746.129888148659
37.03355 833.937943456842
37.05366 780.126437403761
37.07378 754.01085360134
37.09389 736.012398127736
37.11401 720.004293284665
37.13412 740.002427455782
37.15423 723.990303331481
37.17435 716.886903477818
37.19446 654.042246933899
37.21457 681.961329691846
37.23469 676.008106463185
37.2548 669
37.27491 679.01194098652
37.29503 690.954624798548
37.31514 641.97285061433
37.33526 677.909147349322
37.35537 689.042051581602
37.37548 650.016605965181
37.3956 655
37.41571 638.004758146545
37.43582 660.987074041256
37.45594 617.964676892083
37.47605 643.918327874094
37.49617 666.950303275435
37.51628 709.96825393304
37.53639 694.039698886428
37.55651 615.001266360514
37.57662 685.042641269472
37.59673 659.941331642976
37.61685 661.105959829051
37.63696 706.980774540777
37.65708 683.015564101765
37.67719 689.999068129511
37.6973 669
37.71742 647.004501468163
37.73753 652.951920520984
37.75764 606.002241985895
37.77776 652.945491695971
37.79787 649.968704203114
37.81798 701.964675674457
37.8381 703
37.85821 707.998949200415
37.87833 682.928661249419
37.89844 641.990614844147
37.91855 664.968654692562
37.93867 661.978707359252
37.95878 690.991829176273
37.97889 680.995021098413
37.99901 688.972953827611
38.01912 620.024249530971
38.03924 717.082096273667
38.05935 661.839671228354
38.07946 658.915302323676
38.09958 695.006530478255
38.11969 660.006512250497
38.1398 679
38.15992 665.987715584432
38.18003 671.021835775565
38.20015 691.071872664548
38.22026 711.020561564989
38.24037 689.986243935508
38.26049 722.995433345745
38.2806 712
38.30071 744.988248956453
38.32083 703.070772513679
38.34094 789.939334239457
38.36105 679.985415312166
38.38117 811.891122636432
38.40128 750.086619458006
38.4214 735
38.44151 768.983456115969
38.46162 717.034494198837
38.48174 808.023606345441
38.50185 720.18053958046
38.52196 718.976567005338
38.54208 718.977649469667
38.56219 757.99240145172
38.58231 726.970403469929
38.60242 682.997772188749
38.62253 701.990451357399
38.64265 682.061500067539
38.66276 731.011058155691
38.68287 669.062266446518
38.70299 687.978546139507
38.7231 710
38.74321 690.99874047025
38.76333 700.986611509793
38.78344 663.914760093816
38.80356 645.969232437017
38.82367 668.010057699347
38.84378 636.018168201169
38.8639 634
38.88401 602.002789134459
38.90412 658.071706679827
38.92424 695.976063246163
38.94435 660.044229811915
38.96447 665.014426860134
38.98458 641.997470574923
39.00469 673.986895898737
39.02481 664.980649632669
39.04492 633.006247279404
39.06503 672.052214809929
39.08515 680.994080127286
39.10526 680.997035664075
39.12538 685.98863828335
39.14549 684.018991398482
39.1656 642
39.18572 695.033431615595
39.20583 681.964080332517
39.22594 686.071244804688
39.24606 725.975068523761
39.26617 714.999003264797
39.28628 738.976456384357
39.3064 753
39.32651 797.037578093478
39.34663 891.139111959387
39.36674 967.122435952035
39.38685 1021.86863216635
39.40697 1056.009739089
39.42708 1026.01432679321
39.44719 1026.01292164972
39.46731 956.955904464608
39.48742 878.939866045641
39.50754 845.995096753715
39.52765 824.77183175154
39.54776 708.08712850553
39.56788 736.996117730772
39.58799 670.042632189242
39.6081 619
39.62822 623.004964997169
39.64833 613.970215237131
39.66845 588.93226585144
39.68856 571.993915730167
39.70867 590.968383940651
39.72879 602.997401105319
39.7489 605
39.76901 589.978091872047
39.78913 544.99437557399
39.80924 567.986892111756
39.82935 547.903095437184
39.84947 628.950082704332
39.86958 587.055014744247
39.8897 581
39.90981 619.989692711988
39.92992 562.985111078483
39.95004 609.095280804905
39.97015 611.081029614638
39.99026 590.943837316976
40.01038 637.002795948117
40.03049 584.01877124442
40.05061 596.015263136334
40.07072 626.040768552077
40.09083 663.009597255961
40.11095 653.035197900582
40.13106 694.934976759462
40.15117 706.974952519787
40.17129 723.007890060167
40.1914 714
40.21152 827.056513456228
40.23163 793.917197587173
40.25174 788.096204571034
40.27186 833.041921116792
40.29197 767.040945409086
40.31208 793.986660489364
40.3322 753
40.35231 703.99447730429
40.37242 723.022429298673
40.39254 717.925967148357
40.41265 653.206169796074
40.43277 596.990280039314
40.45288 645.964840782421
40.47299 624.033186865315
40.49311 589.030199090454
40.51322 691.024919826467
40.53333 620.902360332028
40.55345 633.157010047567
40.57356 679.026388438098
40.59368 628.025361209804
40.61379 652.981555936566
40.6339 666
40.65402 630.932591441865
40.67413 568.983294342193
40.69424 610.099462986224
40.71436 635.976250707008
40.73447 642.998728728156
40.75458 641.997312166304
40.7747 655
40.79481 664.984570394599
40.81493 617.983182384772
40.83504 645.032743427605
40.85515 630.045847808985
40.87527 639.937015518702
40.89538 671.027401571399
40.91549 610.01081247573
40.93561 635.003140182036
40.95572 614.008307134953
40.97584 666.106493048608
40.99595 683.968405760912
41.01606 644.135849701943
41.03618 586.007673892336
41.05629 622.982171003249
41.0764 615
41.09652 575.014730977744
41.11663 621.011419489945
41.13675 575.893508716641
41.15686 577.931066759297
41.17697 601.030720144704
41.19709 569.988038656669
41.2172 628
41.23731 587.002896216625
41.25743 647.042584755697
41.27754 611.909469723555
41.29765 589.05032039837
41.31777 588.913766785646
41.33788 659.001243072094
41.358 600
41.37811 629.995802337033
41.39822 581.998941747982
41.41834 642.097500398239
41.43845 634.096756100124
41.45856 593.080474205782
41.47868 580.958649741221
41.49879 634.001516609456
41.51891 587.995951698691
41.53902 616.984845003642
41.55913 557.968355156771
41.57925 589.040854138657
41.59936 569.022935298937
41.61947 584.973656787146
41.63959 595.989079882833
41.6597 617
41.67982 585.986034938634
41.69993 588.972745544581
41.72004 553.98191717182
41.74016 581.93361613086
41.76027 596.993348279265
41.78038 590.026952649273
41.8005 551
41.82061 545.013974753852
41.84072 586.026537185624
41.86084 579.940409926896
41.88095 539.11782495048
41.90107 520.936032051216
41.92118 574.019364323129
41.94129 491.027161409379
41.96141 519.036197698868
41.98152 563.982509730962
42.00163 512.969119895611
42.02175 550.146179738146
42.04186 575.056766354996
42.06198 532.99597880611
42.08209 578.987996435143
42.1022 548
42.12232 512.999903078896
42.14243 545.070249244315
42.16254 579.019495148454
42.18266 564.057970463144
42.20277 543.997259151093
42.22289 573.974339434431
42.243 616
42.26311 603.002168251107
42.28323 639.065496813273
42.30334 676.077741658747
42.32345 716.917168838948
42.34357 755.899757193285
42.36368 831.95734841204
42.38379 840.991752754163
42.40391 859.987442511928
42.42402 789.931569319286
42.44414 757.989067547658
42.46425 751.942384430995
42.48436 729.971760242066
42.50448 753.030301724367
42.52459 680.020950111661
42.5447 671
42.56482 579.931289331596
42.58493 558.981671107862
42.60505 537.980514831945
42.62516 555.931425681605
42.64527 576.024055575242
42.66539 543.004323888924
42.6855 554
42.70561 498.968816316142
42.72573 478.056778522068
42.74584 541.073285331423
42.76595 537.021097123406
42.78607 550.959938274677
42.80618 566.011882077493
42.8263 519
42.84641 476.020747618482
42.86652 568.054977322063
42.88664 548.912264423186
42.90675 514.100458741325
42.92686 478.013560052533
42.94698 503.962915147069
42.96709 530.991706077277
42.98721 539.000534744338
43.00732 540.006004788241
43.02743 544.989237035127
43.04755 527.966974137594
43.06766 532.951735372018
43.08777 543.057765773802
43.10789 489.000519347853
43.128 535
43.14812 517.00997849881
43.16823 557.010972049849
43.18834 527.986570900035
43.20846 552.985074048727
43.22857 525.048218371746
43.24868 510.007264726903
43.2688 509
43.28891 530.006656631281
43.30902 526.987018734212
43.32914 516.999625230676
43.34925 518.03257951179
43.36937 499.997501577586
43.38948 515.999745775612
43.40959 510.984884329061
43.42971 554.997539005286
43.44982 504.971374588109
43.46993 539.107960573545
43.49005 583.941122303874
43.51016 534.979576969993
43.53028 589.999203546677
43.55039 517.033424048602
43.5705 502
43.59062 513.039347142163
43.61073 554.995483400894
43.63084 508.920735365729
43.65096 499.010815998393
43.67107 499.948060263126
43.69119 552.986096360976
43.7113 537
43.73141 507.989678856415
43.75153 498.002329366277
43.77164 501.993128216096
43.79175 493.00669810693
43.81187 506.956398926633
43.83198 526.01515182657
43.85209 495.002052483694
43.87221 501.979898823195
43.89232 437.994660493495
43.91244 511.177679573302
43.93255 546.937401612948
43.95266 507.995360164286
43.97278 547.981053965333
43.99289 522.018100016583
44.013 511
44.03312 539.025168186455
44.05323 544.977918479789
44.07335 524.979615785959
44.09346 531.982882449782
44.11357 533.003299595014
44.13369 527.007330849578
44.1538 504
44.17391 498.015454561858
44.19403 539.009790633442
44.21414 509.956925875678
44.23426 511.007758964675
44.25437 501.980078565157
44.27448 526.004632742829
44.2946 501
44.31471 529.001889022796
44.33482 492.958428773403
44.35494 483.050691416039
44.37505 514.985811199708
44.39516 501.983118895594
44.41528 531.988976201922
44.43539 507.018751444086
44.45551 488.003849665269
44.47562 502.994781643938
44.49573 499.068977878937
44.51585 559.978970421104
44.53596 501.012821947593
44.55607 545.015673163904
44.57619 481.005466807249
44.5963 535
44.61642 517.021422570579
44.63653 569.99219137332
44.65664 514.98592282375
44.67676 554.028929058514
44.69687 478.06835349519
44.71698 502.955888160528
44.7371 534
44.75721 560.992045092581
44.77732 520.988530333267
44.79744 535.974563750146
44.81755 508.933853189794
44.83767 575.960840587978
44.85778 534.055871816865
44.87789 519.9848914107
44.89801 564.012198775096
44.91812 552.970571433861
44.93823 538.023613159668
44.95835 562.991060873454
44.97846 530.05035404047
44.99858 535.976125164754
45.01869 550.005354037982
45.0388 539
45.05892 578.985229696667
45.07903 518.956607704949
45.09914 548.076765547861
45.11926 558.016548350638
45.13937 548.008254919298
45.15949 558.983394619238
45.1796 586
45.19971 541.985987089661
45.21983 542.996689420363
45.23994 545.091588343998
45.26005 599.035135504656
45.28017 538.015923685448
45.30028 592.961816381463
45.32039 578.011281082487
45.34051 566.987227768421
45.36062 532.990368092335
45.38074 559.080766746538
45.40085 576.94827694317
45.42096 545.992826822722
45.44108 583.972617930695
45.46119 580.005783884811
45.4813 578
45.50142 581.010553201029
45.52153 595.011340748928
45.54165 585.935009882169
45.56176 568.962341559129
45.58187 609.96635283938
45.60199 601.006408754591
45.6221 617
45.64221 670.009821227324
45.66233 661.004408849897
45.68244 704.14080192144
45.70256 767.931721049058
45.72267 768.025016263145
45.74278 762.982290103701
45.7629 791
45.78301 751.945970306009
45.80312 638.96413358137
45.82324 678.06206739902
45.84335 655.100814449006
45.86346 644.936552125423
45.88358 682.006352239483
45.90369 625.032887179178
45.92381 581.985485726133
45.94392 558.984875980629
45.96403 569.076263695354
45.98415 613.939885441635
46.00426 544.058134684081
46.02437 558.039495252053
46.04449 517.971419994076
46.0646 620
46.08472 487.923260270267
46.10483 536.111683789469
46.12494 557.975274392736
46.14506 546.984460913961
46.16517 563.005542095276
46.18528 549.983890639775
46.2054 577
46.22551 524.992923119926
46.24563 550.997336747681
46.26574 522.024005363965
46.28585 575.92998835334
46.30597 555.038543285169
46.32608 552.993875529083
46.34619 559.991957257569
46.36631 562.979660101972
46.38642 507.991359111816
46.40653 538.00128676946
46.42665 517.079803728799
46.44676 583.982873139547
46.46688 539.997890107334
46.48699 594.99218846508
46.5071 552
46.52722 557.98858274481
46.54733 524.99035698543
46.56744 556.062926443457
46.58756 551.083323899714
46.60767 525.931661208785
46.62779 594.006397126608
46.6479 517
46.66801 569.011235126561
46.68813 530.959259470039
46.70824 543.017779645013
46.72835 528.042982522592
46.74847 531.959430792542
46.76858 563.983690386236
46.78869 547.023694655298
46.80881 506.000120893695
46.82892 529.995760397809
46.84904 503.015326623387
46.86915 537.994659768329
46.88926 496.039753962179
46.90938 517.977892983234
46.92949 525.989509901783
46.9496 552
46.96972 515.967483476962
46.98983 516.041041364375
47.00995 549.054202343282
47.03006 552.013538834252
47.05017 542.023396328035
47.07029 532.993762410494
47.0904 551
47.11051 516.984876041834
47.13063 515.031679552668
47.15074 539.023019033572
47.17086 524.080155611479
47.19097 496.96469539995
47.21108 562.938076668378
47.2312 575
47.25131 527.993498348628
47.27142 550.015818245155
47.29154 538.964887729142
47.31165 524.057358726038
47.33176 506.971922699881
47.35188 545.967900378861
47.37199 561.989115824452
47.39211 577.988147695747
47.41222 526.968477804219
47.43233 536.036945483688
47.45245 562.09385875575
47.47256 591.021638145758
47.49267 552.036551469748
47.51279 558.993711216906
47.5329 554
47.55302 534.995888585017
47.57313 542.001080235523
47.59324 532.990368418364
47.61336 539.97502195868
47.63347 543.022972385201
47.65358 523.001852613159
47.6737 537
47.69381 529.000481886528
47.71393 537.991663155267
47.73404 540.108180163139
47.75415 600.064863982325
47.77427 499.109065875306
47.79438 513.940268587196
47.81449 565.983201858298
47.83461 571.989529458948
47.85472 561.035286518137
47.87483 598.940708784804
47.89495 516.977726540881
47.91506 590.897729167073
47.93518 573.028767859502
47.95529 579.984420884281
47.9754 592
47.99552 530.979551351104
48.01563 559.034238765791
48.03574 548.965331610017
48.05586 544.990524365709
48.07597 559.953097900198
48.09609 582.009734238436
48.1162 524
48.13631 504.014838113176
48.15643 549.025014451838
48.17654 529.96181038244
48.19665 541.903566659217
48.21677 564.050674586352
48.23688 508.004546769338
48.257 559
48.27711 537.973603122792
48.29722 513.037253366729
48.31734 560.944994678142
48.33745 485.978559785364
48.35756 560.877035594185
48.37768 563.00788280784
48.39779 558.019406273855
48.4179 494
48.43802 510.066550449838
48.45813 570.005117529747
48.47825 537.000164340365
48.49836 582.930136370957
48.51847 573.048836848154
48.53859 538.019444888785
48.5587 505
48.57881 510.007366515842
48.59893 522.009986399322
48.61904 524.000768265694
48.63916 526.98665965888
48.65927 525.036123529555
48.67938 502.981857117402
48.6995 548
48.71961 532.995856918541
48.73972 544.001351353626
48.75984 525.963787986001
48.77995 528.934481878859
48.80006 544.06591216421
48.82018 502.971529537063
48.84029 584.979442637895
48.86041 544.966288757212
48.88052 514.016810802543
48.90063 564.085671531582
48.92075 585.923586031011
48.94086 537.030527556102
48.96097 563.960529191541
48.98109 562.007638106508
49.0012 548
49.02132 531.977349381497
49.04143 521.034434920496
49.06154 569.083042549873
49.08166 590.960938733313
49.10177 602.032244978866
49.12188 569.996005876077
49.142 593
49.16211 539.996392134673
49.18223 572.986211378945
49.20234 530.027495518578
49.22245 597.928997420634
49.24257 551.097176612874
49.26268 540.939403452377
49.28279 619.985987239685
49.30291 591.989863285606
49.32302 611.026378827171
49.34313 601.916692711837
49.36325 543.989189312897
49.38336 584.955802848544
49.40348 575.988711077455
49.42359 619.981437610305
49.4437 619
49.46382 597.01995439211
49.48393 630.981323876063
49.50404 584.987381052071
49.52416 635.895716085772
49.54427 646.030768421777
49.56439 618.011806262307
49.5845 608
49.60461 605.990832074986
49.62473 584.000282451835
49.64484 597.987729044551
49.66495 565.080083643115
49.68507 558.972908587196
49.70518 575.010510508276
49.7253 560
49.74541 617.013674784681
49.76552 595.970785114945
49.78564 585.99408790703
49.80575 585.020583835002
49.82586 605.941050577252
49.84598 626.003990020173
49.86609 610.000725936941
49.8862 632
49.90632 642.989253673857
49.92643 649.099172692582
49.94655 754.194981448664
49.96666 786.934044288707
49.98677 863.823680849165
50.00689 986.953218627415
50.027 1076
50.04711 1245.0560627859
50.06723 1266.97041287441
50.08734 1260.023141294
50.10746 1272.0232665249
50.12757 1211.16682493587
50.14768 1081.11329358594
50.1678 1016
50.18791 1020.00121205433
50.20802 986.921451763266
50.22814 901.918962494735
50.24825 886.15031953438
50.26837 761.208398068389
50.28848 670.028921357734
50.30859 666.014638923944
50.32871 609.983519800728
50.34882 603.976163059789
50.36893 563.986344715568
50.38905 592.061802698132
50.40916 583.066003833328
50.42927 559.982382930536
50.44939 582.008621524874
50.4695 531
50.48962 542.014860813879
50.50973 550.039693315069
50.52984 578.979615372391
50.54996 541.024651396877
50.57007 566.964139943106
50.59018 551.053319721255
50.6103 504
50.63041 555.029609563324
50.65053 578.978044505514
50.67064 554.998349421876
50.69075 575.977780131438
50.71087 552.065469457585
50.73098 515.016272057804
50.75109 531.975554248161
50.77121 577.002824177919
50.79132 554.997074144329
50.81143 580.022744746398
50.83155 559.892386691582
50.85166 521.037440846074
50.87178 537.947336911477
50.89189 583.003511619298
50.912 546
50.93212 576.991189834802
50.95223 536.008506839102
50.97234 587.032767967472
50.99246 550.05831351826
51.01257 566.939013226194
51.03269 579.02350393976
51.0528 514
51.07291 556.010494497114
51.09303 528.957038807298
51.11314 529.026379336036
51.13325 537.00067223521
51.15337 532.004858081519
51.17348 541.971895052284
51.1936 553
51.21371 478.98513252542
51.23382 515.052301699705
51.25394 537.993057663288
51.27405 516.087968256696
51.29416 506.896371976982
51.31428 583.969706741049
51.33439 536.043071672449
51.3545 480
51.37462 508.989655638086
51.39473 470.011024175909
51.41485 528.095142931901
51.43496 516.044818396195
51.45507 500.0481132834
51.47519 479.978317116351
51.4953 552
51.51541 509.995761828583
51.53553 548.01257693758
51.55564 495.865278589151
51.57576 473.919475917381
51.59587 524.014646471536
51.61598 477.988801570619
51.6361 554
51.65621 521.95175107864
51.67632 456.03942798697
51.69644 564.129089099699
51.71655 538.132037782074
51.73667 516.990575486036
51.75678 520.026218593303
51.77689 487.993918291541
51.79701 531.005110860276
51.81712 495.970649125028
51.83723 501.026687238801
51.85735 504.96248616752
51.87746 489.98122318468
51.89757 516.979964011965
51.91769 515.992529633717
51.9378 546
51.95792 528.970161176151
51.97803 506.984334136136
51.99814 516.065916913996
52.01826 545.016281670599
52.03837 504.05466429416
52.05848 498.983521062348
52.0786 519
52.09871 533.012115105699
52.11883 545.952612443853
52.13894 486.929034979045
52.15905 495.939319513189
52.17917 516.957998996282
52.19928 542.996005734113
52.21939 528.005507822567
52.23951 543.020034350751
52.25962 556.937216764869
52.27974 457.914262093224
52.29985 493.110266120065
52.31996 502.998819285417
52.34008 515.978157880345
52.36019 530.003698823482
52.3803 507
52.40042 508.01797111434
52.42053 534.041722881898
52.44064 547.980187425576
52.46076 520.059402411507
52.48087 504.999049016233
52.50099 510.999908829561
52.5211 494
52.54121 474.013088595367
52.56133 525.033077124095
52.58144 503.949577101839
52.60155 501.974637337779
52.62167 512.982616660134
52.64178 522.993813569079
52.6619 524
52.68201 518.997892430268
52.70212 522.01438795445
52.72224 541.024726962446
52.74235 535.062338180929
52.76246 518.956549506608
52.78258 558.990725169107
52.80269 527.017389418535
52.8228 523
52.84292 539.983961178069
52.86303 506.990808229647
52.88315 536.07220325404
52.90326 547.974584664535
52.92337 553.043791957401
52.94349 506.010505662348
52.9636 525
52.98371 533.993051165437
53.00383 520.016618356445
53.02394 559.088923151579
53.04406 583.996345217308
53.06417 565.051255404628
53.08428 535.011336636486
53.1044 545
53.12451 553.994603593881
53.14462 544.020488879526
53.16474 578.001089698655
53.18485 554.974728783137
53.20497 596.976596984454
53.22508 574.015573014336
53.24519 585.993109846441
53.26531 593.008588146215
53.28542 615.004107639242
53.30553 603.998702417149
53.32565 611.976146337168
53.34576 587.023185428318
53.36587 601.96069307011
53.38599 620.995892900878
53.4061 623
53.42622 618.971144940115
53.44633 586.001880623876
53.46644 631.120045136243
53.48656 655.070994365223
53.50667 597.029712991266
53.52678 642.921511139897
53.5469 687
53.56701 627.989667729634
53.58713 671.091063956348
53.60724 692.943249268806
53.62735 653.001982140441
53.64747 689.965924085563
53.66758 670.03916269207
53.68769 651.989722422656
53.70781 689.006756201089
53.72792 675.996930256067
53.74804 678.937842288837
53.76815 644.079148504711
53.78826 718.952898172077
53.80838 674.036735742558
53.82849 682.992051705024
53.8486 692
53.86872 723.998996764713
53.88883 694.978869491988
53.90894 718.079411287686
53.92906 729.086346234513
53.94917 669.020067323051
53.96929 715.971297698685
53.9894 734
54.00951 712.009950548221
54.02963 757.017066411534
54.04974 720.922062521859
54.06985 713.959517793282
54.08997 726.016052761376
54.11008 697.023949461967
54.1302 686
54.15031 687.022960634762
54.17042 748.014386901215
54.19054 689.810186668289
54.21065 645.847729184736
54.23076 751.926851194073
54.25088 681.101712078483
54.27099 641.978974236695
54.29111 719.023325227483
54.31122 709.974116404348
54.33133 695.982383238424
54.35145 671.898381044046
54.37156 646.943718672394
54.39167 705.955362123975
54.41179 691.00775193802
54.4319 680
54.45201 620.993908757616
54.47213 652.015816556179
54.49224 623.957234722967
54.51236 631.96955178718
54.53247 637.001017973174
54.55258 634.006498765724
54.5727 633
54.59281 650.999106538272
54.61292 638.007285837574
54.63304 658.993169372986
54.65315 656.843323920975
54.67327 741.99992337327
54.69338 684.97868184115
54.71349 773.995125734473
54.73361 698.990906145299
54.75372 770.051439293383
54.77383 779.076526016185
54.79395 868.093273027734
54.81406 839.042771852294
54.83417 850.008336903767
54.85429 817.010924692502
54.8744 807
54.89452 749.963498796812
54.91463 744.994804013169
54.93474 731.993147486725
54.95486 741.983716619212
54.97497 725.075023277058
54.99508 673.013846912266
55.0152 703
55.03531 705.977154637485
55.05543 642.946237341355
55.07554 646.020591231678
55.09565 645.990989859603
55.11577 646.037167411571
55.13588 620.97897818852
55.15599 680.977547376366
55.17611 693.00717279358
55.19622 723.023165806318
55.21634 725.982793714572
55.23645 733.102939939165
55.25656 752.156348851178
55.27668 635.020883169662
55.29679 705.988042915639
55.3169 651
55.33702 684.017907438251
55.35713 659.972748191165
55.37724 663.990423880376
55.39736 643.026432868319
55.41747 645.993876805488
55.43759 636.011989621534
55.4577 605
55.47781 604.025258974298
55.49793 669.029201815069
55.51804 618.831603759025
55.53815 565.974353864235
55.55827 621.921226904066
55.57838 632.0232055572
55.5985 598
55.61861 586.005289783334
55.63872 609.021717031372
55.65884 621.013968430099
55.67895 603.16782545437
55.69906 531.0135111818
55.71918 588.948449448516
55.73929 586.017612640904
55.75941 566.01041145719
55.77952 600.996756645895
55.79963 567.996896760072
55.81975 606.066858283686
55.83986 588.090177961583
55.85997 554.99785284224
55.88009 581.989423016041
55.9002 568
55.92031 532.009334120737
55.94043 588.04852502133
55.96054 578.983730444762
55.98066 581.041246177172
56.00077 544.020584809975
56.02088 565.969504464681
56.041 581
56.06111 575.995349114838
56.08122 564.987272363614
56.10134 549.965172986909
56.12145 530.054516335604
56.14157 527.941241138501
56.16168 576.994858945476
56.18179 544.005861742676
56.20191 566.004412132555
56.22202 554.006175217203
56.24213 574.990150373055
56.26225 535.91526376798
56.28236 542.906905047695
56.30248 583.012013756913
56.32259 542.00061073724
56.3427 589
56.36282 582.984810581124
56.38293 583.012368313282
56.40304 590.006239454199
56.42316 589.005634556323
56.44327 582.023565799246
56.46338 561.017854955802
56.4835 550
56.50361 549.007851654931
56.52373 576.034859671315
56.54384 575.943544235162
56.56395 550.962251931281
56.58407 599.940786476405
56.60418 589.05940108468
56.62429 524.014256057152
56.64441 543.018010773022
56.66452 554.976852747592
56.68464 518.969686529522
56.70475 541.105937514179
56.72486 569.01055161475
56.74498 550.991737265651
56.76509 570.012448867395
56.7852 522
56.80532 569.002263942291
56.82543 516.956132170474
56.84554 547.098930853368
56.86566 577.973729375008
56.88577 576.023804523113
56.90589 547.021039455348
56.926 527
56.94611 584.000309194971
56.96623 546.024357079402
56.98634 610.025102257405
57.00645 555.098083266337
57.02657 557.020530577178
57.04668 521.007399615186
57.0668 551
57.08691 549.99660993478
57.10702 545.987034641961
57.12714 532.009823110257
57.14725 548.001858767863
57.16736 537.968178504644
57.18748 582.958761976906
57.20759 584.021751881709
57.22771 532.991846991031
57.24782 560.037239287245
57.26793 569.966534822613
57.28805 533.935572311119
57.30816 530.981741468955
57.32827 539.989060982899
57.34839 548.992279040729
57.3685 562
57.38861 556.009550116016
57.40873 589.011417776003
57.42884 556.906200761289
57.44896 530.985838245045
57.46907 566.92694749533
57.48918 599.995947041349
57.5093 568
57.52941 517.999142874602
57.54952 555.029924020523
57.56964 552.972693620765
57.58975 552.953415711594
57.60987 570.015235791529
57.62998 534.034494794865
57.65009 535.976708294006
57.67021 590.007575145254
57.69032 574.006129131338
57.71043 602.99891091954
57.73055 561.901619737181
57.75066 557.952167740416
57.77078 579.00541158732
57.79089 547.017479198816
57.811 540
57.83112 574.000127351184
57.85123 539.955644854514
57.87134 540.03369967454
57.89146 552.998200916405
57.91157 542.021913776722
57.93168 527.020051909878
57.9518 522
57.97191 573.008370386836
57.99203 547.963095810883
58.01214 551.03241172495
58.03225 557.033286045201
58.05237 536.0115886228
58.07248 541.003646312512
58.09259 528.99926674259
58.11271 537.994380588762
58.13282 507.980729138732
58.15294 523.087453192452
58.17305 553.954227161108
58.19316 502.06584771309
58.21328 513.969044045302
58.23339 537.991773391232
58.2535 546
58.27362 524.9496027893
58.29373 474.986254833463
58.31385 508.091649325088
58.33396 529.947438797869
58.35407 550.025185441195
58.37419 511.007758423984
58.3943 524
58.41441 510.003844317794
58.43453 544.041694833932
58.45464 530.887043147975
58.47475 496.85567536051
58.49487 596.966276244744
58.51498 527.05745207429
58.5351 530
58.55521 513.994963987872
58.57532 529.030222779946
58.59544 566.088922674659
58.61555 587.087486849874
58.63566 527.041920748383
58.65578 545.007044078422
58.67589 509.00224531255
58.69601 541.006467900594
58.71612 521.991412765535
58.73623 535.005421829398
58.75635 520.977562257989
58.77646 524.995032585153
58.79657 531.952203091057
58.81669 560.012826291085
58.8368 509
58.85691 563.012850210535
58.87703 542.994550521518
58.89714 571.02600438567
58.91726 543.09605633665
58.93737 513.986247941237
58.95748 550.965072963806
58.9776 557
58.99771 539.005611890972
59.01782 568.008471593835
59.03794 535.891442922949
59.05805 505.940660639749
59.07817 565.926501507198
59.09828 561.055368536612
59.11839 517.985300752087
59.13851 586.006055813756
59.15862 536.978623910853
59.17873 550.953671494996
59.19885 490.010968640208
59.21896 564.890320134384
59.23908 554.033112022119
59.25919 551.980545513766
59.2793 583
59.29942 517.001065264794
59.31953 590.079794215088
59.33964 577.935585321167
59.35976 578.9148148139
59.37987 610.063829890118
59.39998 542.979331859969
59.4201 643
59.44021 611.976969445047
59.46033 593.970368388369
59.48044 574.023221125793
59.50055 606.970184808708
59.52067 580.06220527565
59.54078 561.980325722793
59.56089 590.003778371078
59.58101 556.997887050934
59.60112 586.012658213026
59.62124 568.978556103225
59.64135 586.076240362681
59.66146 614.948577838202
59.68158 626.014319209383
59.70169 610.990129173569
59.7218 660
59.74192 667.000438044752
59.76203 690.07676348803
59.78215 756.151724772148
59.80226 809.873296492316
59.82237 880.912780021085
59.84249 932.964328853361
59.8626 1020
59.88271 1061.01262808114
59.90283 1071.97415289432
59.92294 1008.77618068444
59.94305 900.11865467606
59.96317 895.05618386826
59.98328 817.050219889667
60.0034 817
60.02351 801.992114910331
60.04362 795.9951412488
60.06374 789.998773544504
60.08385 785.0633307449
60.10396 731.147749587661
60.12408 652.076006890893
60.14419 599.008083924662
60.16431 603.998633668741
60.18442 574.955353870659
60.20453 546.012344951007
60.22465 572.007389387964
60.24476 551.010307420696
60.26487 571.973454880052
60.28499 569.005909789994
60.3051 558
60.32522 545.991836756354
60.34533 550.031501583754
60.36544 573.009636167099
60.38556 556.044427598367
60.40567 541.017012559027
60.42578 535.992161230862
60.4459 551
60.46601 541.985499475706
60.48612 517.004763214502
60.50624 554.091899968796
60.52635 566.105685117083
60.54647 506.030176540581
60.56658 537.961191857923
60.58669 540.016799259969
60.60681 513.010554816619
60.62692 561.011943364446
60.64703 527.963458359555
60.66715 537.035180120455
60.68726 532.039828033238
60.70738 518.988140806889
60.72749 543.99591348207
60.7476 526
60.76772 518.008679206149
60.78783 532.010260910025
60.80794 534.023338775049
60.82806 549.005747813172
60.84817 535.991499309538
60.86828 557.993088485866
60.8884 540
60.90851 535.004761404767
60.92863 547.006093330976
60.94874 548.02597205151
60.96885 548.131846071927
60.98897 477.020484880105
61.00908 525.958787606279
61.02919 517.015840610444
61.04931 494.996526478031
61.06942 510.038636875216
61.08954 556.069083456857
61.10965 553.885509755939
61.12976 506.000805437512
61.14988 541.988032963344
61.16999 522.998306908807
61.1901 541
61.21022 489.009482311283
61.23033 577.147887277301
61.25045 605.862433773061
61.27056 534.013271647172
61.29067 584.97082394222
61.31079 543.021951645122
61.3309 541
61.35101 569.010969834478
61.37113 572.974219568764
61.39124 545.956075638274
61.41135 536.013089414536
61.43147 538.966752984404
61.45158 567.988033760479
61.4717 559
61.49181 557.999533594632
61.51192 561.019925159774
61.53204 580.979768915642
61.55215 554.993294040172
61.57226 587.959406687254
61.59238 577.017955423974
61.61249 579.986164024152
61.63261 609.001344856389
61.65272 580.964448865608
61.67283 574.052730590162
61.69295 615.998835336597
61.71306 570.090021299517
61.73317 568.939297666593
61.75329 615.989922392073
61.7734 602
61.79352 589.992346849114
61.81363 576.967722590923
61.83374 569.062189943276
61.85386 614.979531583153
61.87397 595.987786563344
61.89408 637.974408695779
61.9142 629
61.93431 632.002001902278
61.95442 638.022717863981
61.97454 677.079085817644
61.99465 701.975472347828
62.01477 703.002256582594
62.03488 712.970969417499
62.05499 737.006601597571
62.07511 700.994053539238
62.09522 719.007166966201
62.11533 724.077783677153
62.13545 795.031152400033
62.15556 747.066072241055
62.17568 760.981661446947
62.19579 759.002265365999
62.2159 763
62.23602 759.984443733746
62.25613 752.035467219321
62.27624 775.937668128913
62.29636 717.006210655782
62.31647 769.960876312528
62.33659 748.004173734857
62.3567 765
62.37681 718.976088545637
62.39693 703.020895451426
62.41704 720.996335593366
62.43715 699.045927610801
62.45727 702.967492997747
62.47738 724.990821958708
62.49749 708.021681122517
62.51761 667.997116349755
62.53772 677.976939592231
62.55784 632.986866498536
62.57795 669.057474211023
62.59806 651.06312817261
62.61818 630.013098765562
62.63829 615.011771175409
62.6584 602
62.67852 635.991294848066
62.69863 582.931150638668
62.71875 575.026150789769
62.73886 578.021583294784
62.75897 566.98683175653
62.77909 595.985389823426
62.7992 607
62.81931 588.987502298703
62.83943 567.984793936454
62.85954 580.0776887618
62.87965 611.042508856929
62.89977 557.059318978362
62.91988 565.959327004205
62.94 582
62.96011 517.0039139886
62.98022 584.023510237465
63.00034 525.849182542959
63.02045 506.879114208037
63.04056 571.960993402457
63.06068 550.99446004305
63.08079 585.001482418606
63.10091 547.998762539645
63.12102 587.019008703673
63.14113 565.969944643047
63.16125 571.033814479326
63.18136 584.955134794218
63.20147 599.029793586549
63.22159 569.993742420545
63.2417 608
63.26182 558.968389395013
63.28193 561.989184957078
63.30204 540.00723234411
63.32216 578.913839055049
63.34227 588.049422720348
63.36238 548.003553164349
63.3825 574
63.40261 543.985518965303
63.42272 543.018265942793
63.44284 573.085105739492
63.46295 606.994374544717
63.48307 585.023990196042
63.50318 587.995057803688
63.52329 589.994427129018
63.54341 601.996109262709
63.56352 575.97812450204
63.58363 585.067021821166
63.60375 626.988586094251
63.62386 581.076347966142
63.64398 579.982744944059
63.66409 590.002039535471
63.6842 579
63.70432 577.983763262965
63.72443 570.06295052208
63.74454 631.013677175552
63.76466 587.036728972023
63.78477 616.962478997036
63.80489 614.998991229325
63.825 637
63.84511 646.993468421499
63.86523 633.020555222706
63.88534 664.018389934411
63.90545 649.006791695268
63.92557 672.957362276434
63.94568 689.988612618927
63.96579 702.992200009384
63.98591 717.003397747396
64.00602 711.984046681204
64.02614 692.970704065985
64.04625 679.94764929018
64.06636 657.017675041792
64.08648 660.003179519149
64.10659 649.999658466744
64.1267 661
64.14682 669.042481207371
64.16693 721.00882713483
64.18705 664.803856845816
64.20716 610.045467972029
64.22727 608.995522133116
64.24739 606.999082456998
64.2675 607
64.28761 594.012294879936
64.30773 630.984350295701
64.32784 583.973796646143
64.34796 607.01759188527
64.36807 562.026041881672
64.38818 580.002625175364
64.4083 551
64.42841 584.016923197807
64.44852 591.991730832514
64.46864 572.932626634441
64.48875 550.94822756557
64.50886 606.895298083165
64.52898 609.056761520683
64.54909 530.027419579579
64.56921 526.014146382362
64.58932 554.013274114608
64.60943 552.998683107397
64.62955 554.983075412582
64.64966 551.950330656217
64.66977 581.022470332461
64.68989 538.003154958736
64.71 574
64.73012 560.997926054101
64.75023 565.947859256805
64.77034 512.995212635039
64.79046 559.947735521493
64.81057 539.037160878425
64.83068 537.992756112202
64.8508 542
64.87091 551.00633746198
64.89102 551.974392223113
64.91114 522.006329924635
64.93125 540.056834348952
64.95137 495.984528914266
64.97148 562.950309550744
64.99159 554.017888914437
65.01171 528.996009860651
65.03182 527.99010544902
65.05193 506.972736434533
65.07205 511.080020599329
65.09216 546.981365649081
65.11228 526.024803706913
65.13239 524.987882044146
65.1525 550
65.17262 531.99899098555
65.19273 546.993664883111
65.21284 513.927886626527
65.23296 506.941897775242
65.25307 545.97678159289
65.27319 530.011033845344
65.2933 524
65.31341 538.008636265931
65.33353 539.957154347654
65.35364 507.008657042546
65.37375 539.972237677212
65.39387 523.001579308344
65.41398 553.965256888139
65.43409 558.016706721209
65.45421 514.991317155199
65.47432 530.019412500673
65.49444 527.956847486824
65.51455 510.017855807501
65.53466 531.990174709274
65.55478 516.008983085551
65.57489 526.991971250901
65.595 533
65.61512 518.978123784727
65.63523 504.008217381416
65.65535 530.082446476808
65.67546 550.000603380409
65.69557 540.9988128669
65.71569 549.002973027536
65.7358 518
65.75591 486.000237210875
65.77603 512.038837288566
65.79614 529.048477655544
65.81626 553.995441016061
65.83637 533.032454115489
65.85648 522.011285062239
65.8766 505
65.89671 496.000430900507
65.91682 501.001417677766
65.93694 502.022762337088
65.95705 514.020402993145
65.97716 497.981452574247
65.99728 522.00534283041
66.01739 491.004328903288
66.03751 510.002029198543
66.05762 494.001284979166
66.07773 525.05360390263
66.09785 548.042258903368
66.11796 560.992154282482
66.13807 550.040122522769
66.15819 520.009600863769
66.1783 505
66.19842 482.029038146767
66.21853 542.037986839738
66.23864 513.929531507991
66.25876 514.930190701012
66.27887 558.955050772107
66.29898 558.026236192529
66.3191 525
66.33921 509.994247567493
66.35933 514.059458169955
66.37944 557.992733656901
66.39955 516.047332693436
66.41967 537.9703869794
66.43978 529.021171824817
66.45989 516.000341995103
66.48001 514.991031746128
66.50012 497.015705528189
66.52023 545.067290622559
66.54035 554.944388600851
66.56046 523.0426849636
66.58058 517.005493597184
66.60069 509.99775198906
66.6208 522
66.64092 506.976935133386
66.66103 490.996031866958
66.68114 507.067594087837
66.70126 541.961357716978
66.72137 535.04179841972
66.74149 510.001622561171
66.7616 528
66.78171 524.98420456285
66.80183 486.976131812828
66.82194 505.071644567496
66.84205 531.983226801716
66.86217 523.013788155969
66.88228 526.984888738851
66.90239 534.009227403753
66.92251 499.989103236531
66.94262 506.02215099172
66.96274 521.997687379051
66.98285 520.060450983429
67.00296 565.929222539279
67.02308 561.043734158069
67.04319 514.007738562894
67.0633 523
67.08342 492.984342448325
67.10353 514.065792955489
67.12365 547.003451685092
67.14376 511.116070778802
67.16387 493.890842444244
67.18399 592.994493794225
67.2041 512
67.22421 514.002413581457
67.24433 503.025066883205
67.26444 553.090110000981
67.28456 567.012193414134
67.30467 548.053740892328
67.32478 514.008708011572
67.3449 525
67.36501 527.020068089715
67.38512 573.983901961966
67.40524 508.94054361692
67.42535 553.812752481116
67.44546 584.092272030197
67.46558 516.003049332871
67.48569 578.978463137147
67.50581 559.981084191894
67.52592 556.039749254208
67.54603 610.0423244501
67.56615 614.050817852855
67.58626 668.868022052028
67.60637 724.93034897608
67.62649 773.969115965296
67.6466 831
67.66672 824.998989772565
67.68683 831.976335072491
67.70694 783.882939584166
67.72706 752.971274062663
67.74717 758.114017802793
67.76728 647.026146879609
67.7874 708
67.80751 684.006697591951
67.82763 753.075152287034
67.84774 740.911715708707
67.86785 706.033848826366
67.88797 705.013155435617
67.90808 686.011020382927
67.92819 689.995991022977
67.94831 701.011861944914
67.96842 722.995591974582
67.98853 724.093824600874
68.00865 814.065300010202
68.02876 792.923325840353
68.04888 906.902312858212
68.06899 938.99658893287
68.0891 941
68.10922 883.92261713859
68.12933 828.998057637927
68.14944 871.088346614407
68.16956 881.040519164615
68.18967 852.030055500901
68.20979 845.003576699009
68.2299 847
68.25001 883.994338778599
68.27013 839.985951972945
68.29024 872.026722232956
68.31035 831.176017094796
68.33047 759.102869112174
68.35058 698.052329370068
68.3707 665
68.39081 679.003287169941
68.41092 664.976387862341
68.43104 653.020632569173
68.45115 665.963626556322
68.47126 625.070774582846
68.49138 611.007716931877
68.51149 592.016140833732
68.5316 553
68.55172 523.974306473075
68.57183 519.056436046876
68.59195 568.016718244088
68.61206 539.009567496232
68.63217 565.990204616782
68.65229 529.025464823368
68.6724 510
68.69251 558.008520660892
68.71263 527.932998608702
68.73274 505.007090555584
68.75286 520.980956140791
68.77297 523.977594116555
68.79308 554.967897318125
68.8132 574
68.83331 557.976596053382
68.85342 514.002222584892
68.87354 548.016472330219
68.89365 522.028041701619
68.91376 533.016237333159
68.93388 516.971008160615
68.95399 561.012230001636
68.97411 483.985308714942
68.99422 525.034812522992
69.01433 507.942300436966
69.03445 499.103970480122
69.05456 550.00534391213
69.07467 499.046895803109
69.09479 510.994479074232
69.1149 502
69.13502 519.028819046666
69.15513 527.949357774248
69.17524 484.003123711144
69.19536 518.004860960454
69.21547 481.996947979252
69.23558 531.964285819662
69.2557 531
69.27581 552.008993543647
69.29593 546.961328919622
69.31604 510.925276512845
69.33615 493.95713655958
69.35627 531.952681232154
69.37638 535.020841628883
69.39649 511.005377327378
69.41661 522.01250913959
69.43672 533.979284671972
69.45683 500.992580031178
69.47695 518.989781441169
69.49706 493.005129469746
69.51718 515.994532766298
69.53729 508.985740071948
69.5574 557
69.57752 506.954587798907
69.59763 510.05833878676
69.61774 535.952877458196
69.63786 490.008194821316
69.65797 527.975408612245
69.67809 514.993298245413
69.6982 551
69.71831 506.984130536263
69.73843 506.995615323655
69.75854 503.062885890082
69.77865 548.994369221711
69.79877 508.038509770669
69.81888 529.956458299751
69.839 543
69.85911 484.999315939953
69.87922 533.019877329938
69.89934 509.992585116697
69.91945 542.055553257571
69.93956 525.08049199374
69.95968 495.001443734575
69.97979 514.991992538811
69.9999 518
70.02002 533.013509677202
70.04013 528.958982173269
70.06025 507.045647417929
70.08036 543.007827396976
70.10047 498.044453235108
70.12059 512.983662249289
70.1407 516
70.16081 464.005409207295
70.18093 530.069087126888
70.20104 520.949294182706
70.22116 517.961082283392
70.24127 537.006945080284
70.26138 509.027594434122
70.2815 487
70.30161 461.010706672937
70.32172 509.014367859584
70.34184 493.032998078096
70.36195 541.955396686183
70.38207 515.033516651413
70.40218 531.958412180725
70.42229 557.009359611724
70.44241 499.968955207145
70.46252 479.034399796673
70.48263 524.998876224492
70.50275 475.898119816338
70.52286 489.881672403375
70.54297 550.958116093572
70.56309 532.022574268415
70.5832 517
70.60332 574.968162573657
70.62343 475.929781413925
70.64354 511.057368454003
70.66366 500.986637324005
70.68377 537.962477132647
70.70388 527.028952479251
70.724 508
70.74411 524.007348119022
70.76423 524.985890559106
70.78434 509.962164781136
70.80445 498.981155023317
70.82457 505.039077780292
70.84468 473.977766173735
70.86479 542.974878878915
70.88491 543.992908440129
70.90502 537.991630787899
70.92513 517.954989237873
70.94525 500.037584054285
70.96536 522.036175479956
70.98548 483.990492273791
71.00559 535.989192126999
71.0257 503
71.04582 497.018690176627
71.06593 512.991386899162
71.08604 496.002323199955
71.10616 516.974247266465
71.12627 509.020977536524
71.14639 501.00233961079
71.1665 492
71.18661 486.016084303942
71.20673 538.040082222723
71.22684 529.983950047389
71.24695 538.979312359187
71.26707 527.050952902037
71.28718 497.994663357825
71.3073 522
71.32741 489.990412767306
71.34752 499.010644834875
71.36764 491.964974476631
71.38775 485.948621708083
71.40786 517.97421289824
71.42798 511.994266759389
71.44809 536.98958334177
71.4682 531
71.48832 498.995152373327
71.50843 526.055497550219
71.52855 547.000147867096
71.54866 531.044445711422
71.56877 514.014288276
71.58889 517.989277393782
71.609 544
71.62911 529.980696957652
71.64923 494.992431820264
71.66934 515.02852141124
71.68946 516.972900740463
71.70957 548.950724048168
71.72968 554.034427223912
71.7498 516
71.76991 563.017499667184
71.79002 549.954773891889
71.81014 519.029231575439
71.83025 550.033066078049
71.85037 506.996250844781
71.87048 564.952378898757
71.89059 562.014341943433
71.91071 545.003754024744
71.93082 561.998680257827
71.95093 536.960636316591
71.97105 516.929960099047
71.99116 507.896820506811
72.01127 581.976499780729
72.03139 529.025492196023
72.0515 525
72.07162 538.005064740769
72.09173 532.978072184286
72.11184 529.053156903923
72.13196 562.01063366988
72.15207 518.057545675685
72.17218 519.966753977499
72.1923 543
72.21241 503.9998202311
72.23253 541.023542995793
72.25264 519.970020670243
72.27275 527.986414276927
72.29287 524.987627667959
72.31298 540.002679498698
72.33309 522.003191905628
72.35321 528.997663135555
72.37332 508.98620821359
72.39344 503.970497360248
72.41355 495.077479576206
72.43366 537.021580756548
72.45378 488.008936771441
72.47389 523.996228247592
72.494 494
72.51412 532.029298765292
72.53423 533.003420770371
72.55434 556.06669564472
72.57446 570.050535303285
72.59457 518.068698042692
72.61469 493.010746617931
72.6348 488
72.65491 550.011420011616
72.67503 522.956201597411
72.69514 515.985274681681
72.71525 502.009743063239
72.73537 512.978941437149
72.75548 518.004502297298
72.7756 502
72.79571 488.015124912368
72.81582 534.00338288118
72.83594 498.977724686991
72.85605 529.927409268239
72.87616 534.001250648125
72.89628 529.029488540629
72.91639 492.003340332703
72.9365 521
72.95662 531.997081381954
72.97673 539.049804550682
72.99685 560.891564255575
73.01696 494.981876806406
73.03707 573.930541053944
73.05719 532.041689720114
73.0773 487
73.09741 551.014618642198
73.11753 528.9708970452
73.13764 535.001640937453
73.15776 513.062691189395
73.17787 489.018795624106
73.19798 500.954494418434
73.2181 547
73.23821 528.010651124152
73.25832 585.024880268589
73.27844 562.966851294121
73.29855 579.934128423927
73.31867 594.990033824578
73.33878 600.99017996409
73.35889 607.005057430173
73.37901 588.997441569703
73.39912 598.00377278758
73.41923 601.038752905324
73.43935 632.993577109299
73.45946 595.066590656058
73.47957 594.966181082128
73.49969 606.012090902607
73.5198 572
73.53992 610.013577157765
73.56003 602.044164839394
73.58014 637.904763916825
73.60026 547.999287373822
73.62037 632.952178760288
73.64048 576.043718212518
73.6606 580
73.68071 534.991408182008
73.70083 560.0367905047
73.72094 556.969079623032
73.74105 528.144312243651
73.76117 479.974520320722
73.78128 541.968927809839
73.80139 514.019778732328
73.82151 498.999417870126
73.84162 502.00838836098
73.86174 513.018837253332
73.88185 525.056506184162
73.90196 543.020716551385
73.92208 511.023065188095
73.94219 503.008410115572
73.9623 485
73.98242 519.013493761265
74.00253 500.971235032959
74.02264 495.989274405994
74.04276 492.966566612809
74.06287 531.931187500605
74.08299 552.012046439626
74.1031 504
74.12321 500.00034561825
74.14333 489.982549177713
74.16344 488.020171487223
74.18355 509.923235126899
74.20367 526.029578671204
74.22378 489.014255209397
74.2439 509
74.26401 526.010663834227
74.28412 527.94551753654
74.30424 457.98706962037
74.32435 516.882049819848
74.34446 524.965056342244
74.36458 551.015729137704
74.38469 495.021945131597
74.40481 489.003086697894
74.42492 487.998248101499
74.44503 490.005752397433
74.46515 504.085635433723
74.48526 538.989663344112
74.50537 517.024664588318
74.52549 509.014515682026
74.5456 469
74.56571 492.010487708968
74.58583 492.997537968416
74.60594 493.98317331932
74.62606 489.947508377827
74.64617 528.988196619101
74.66628 504.015647917684
74.6864 519
74.70651 516.977627724335
74.72662 470.007923827361
74.74674 524.068379246542
74.76685 514.033562681523
74.78697 508.042565741947
74.80708 469.007247990336
74.82719 509.968436932534
74.84731 541.986271942787
74.86742 499.013818239509
74.88753 555.016892168794
74.90765 503.88898809325
74.92776 499.00099317041
74.94787 496.961359188763
74.96799 526.011087975016
74.9881 473
75.00822 544.110257369493
