3.00117 18965
3.02128 19034
3.0414 18349
3.06151 17600
3.08162 17213
3.10174 16823
3.12185 16521
3.14197 15702
3.16208 15363
3.18219 15331
3.20231 14817
3.22242 14483
3.24253 13691
3.26265 13138
3.28276 12939
3.30288 12432
3.32299 12174
3.3431 11759
3.36322 11267
3.38333 10972
3.40344 10680
3.42356 10535
3.44367 9948
3.46379 9502
3.4839 9366
3.50401 8916
3.52413 8703
3.54424 8331
3.56435 8127
3.58447 7795
3.60458 7444
3.62469 7463
3.64481 6948
3.66492 6424
3.68504 6627
3.70515 6133
3.72526 6154
3.74538 5642
3.76549 5481
3.7856 5366
3.80572 5093
3.82583 4975
3.84595 4580
3.86606 4474
3.88617 4400
3.90629 4040
3.9264 4126
3.94651 3778
3.96663 3697
3.98674 3478
4.00686 3326
4.02697 3195
4.04708 2882
4.0672 2830
4.08731 2858
4.10742 2820
4.12754 2740
4.14765 2459
4.16776 2313
4.18788 2457
4.20799 2232
4.22811 2202
4.24822 2082
4.26833 1994
4.28845 1921
4.30856 1907
4.32867 1762
4.34879 1748
4.3689 1678
4.38902 1677
4.40913 1684
4.42924 1636
4.44936 1450
4.46947 1527
4.48958 1517
4.5097 1471
4.52981 1445
4.54992 1338
4.57004 1374
4.59015 1340
4.61027 1346
4.63038 1287
4.65049 1310
4.67061 1138
4.69072 1200
4.71083 1202
4.73095 1162
4.75106 1094
4.77118 1054
4.79129 1122
4.8114 1098
4.83152 1026
4.85163 1092
4.87174 989
4.89186 967
4.91197 985
4.93209 960
4.9522 922
4.97231 909
4.99243 867
5.01254 950
5.03265 810
5.05277 816
5.07288 853
5.09299 856
5.11311 833
5.13322 746
5.15334 804
5.17345 804
5.19356 749
5.21368 795
5.23379 696
5.2539 749
5.27402 710
5.29413 707
5.31425 709
5.33436 653
5.35447 647
5.37459 661
5.3947 590
5.41481 674
5.43493 616
5.45504 628
5.47516 565
5.49527 577
5.51538 563
5.5355 565
5.55561 562
5.57572 571
5.59584 524
5.61595 567
5.63606 523
5.65618 515
5.67629 551
5.69641 547
5.71652 493
5.73663 485
5.75675 508
5.77686 515
5.79697 454
5.81709 517
5.8372 480
5.85732 467
5.87743 467
5.89754 505
5.91766 486
5.93777 448
5.95788 496
5.978 445
5.99811 435
6.01823 474
6.03834 476
6.05845 435
6.07857 431
6.09868 440
6.11879 416
6.13891 424
6.15902 480
6.17913 444
6.19925 443
6.21936 425
6.23948 424
6.25959 461
6.2797 440
6.29982 419
6.31993 421
6.34004 410
6.36016 428
6.38027 447
6.40039 422
6.4205 403
6.44061 370
6.46073 432
6.48084 441
6.50095 429
6.52107 398
6.54118 402
6.56129 395
6.58141 388
6.60152 413
6.62164 384
6.64175 369
6.66186 429
6.68198 422
6.70209 388
6.7222 391
6.74232 386
6.76243 420
6.78255 350
6.80266 422
6.82277 418
6.84289 398
6.863 430
6.88311 429
6.90323 426
6.92334 365
6.94346 400
6.96357 371
6.98368 391
7.0038 396
7.02391 386
7.04402 364
7.06414 405
7.08425 368
7.10436 337
7.12448 364
7.14459 381
7.16471 386
7.18482 435
7.20493 391
7.22505 360
7.24516 400
7.26527 376
7.28539 393
7.3055 373
7.32562 402
7.34573 376
7.36584 363
7.38596 410
7.40607 406
7.42618 387
7.4463 413
7.46641 394
7.48653 390
7.50664 410
7.52675 379
7.54687 399
7.56698 401
7.58709 375
7.60721 375
7.62732 414
7.64743 381
7.66755 367
7.68766 392
7.70778 333
7.72789 405
7.748 384
7.76812 391
7.78823 447
7.80834 415
7.82846 371
7.84857 395
7.86869 360
7.8888 408
7.90891 423
7.92903 386
7.94914 380
7.96925 405
7.98937 410
8.00948 362
8.0296 367
8.04971 394
8.06982 379
8.08994 387
8.11005 419
8.13016 388
8.15028 368
8.17039 392
8.1905 388
8.21062 387
8.23073 376
8.25085 391
8.27096 383
8.29107 359
8.31119 389
8.3313 381
8.35141 385
8.37153 399
8.39164 392
8.41176 385
8.43187 363
8.45198 368
8.4721 421
8.49221 363
8.51232 398
8.53244 381
8.55255 350
8.57266 355
8.59278 404
8.61289 380
8.63301 401
8.65312 388
8.67323 362
8.69335 347
8.71346 368
8.73357 385
8.75369 380
8.7738 382
8.79392 429
8.81403 426
8.83414 413
8.85426 429
8.87437 374
8.89448 403
8.9146 410
8.93471 398
8.95483 389
8.97494 393
8.99505 373
9.01517 396
9.03528 400
9.05539 431
9.07551 365
9.09562 363
9.11573 390
9.13585 367
9.15596 378
9.17608 364
9.19619 400
9.2163 331
9.23642 398
9.25653 364
9.27664 378
9.29676 452
9.31687 378
9.33699 364
9.3571 372
9.37721 355
9.39733 394
9.41744 380
9.43755 362
9.45767 413
9.47778 374
9.4979 397
9.51801 403
9.53812 387
9.55824 387
9.57835 392
9.59846 397
9.61858 355
9.63869 377
9.6588 359
9.67892 356
9.69903 377
9.71915 384
9.73926 377
9.75937 363
9.77949 384
9.7996 406
9.81971 368
9.83983 401
9.85994 385
9.88006 382
9.90017 427
9.92028 366
9.9404 400
9.96051 401
9.98062 417
10.00074 380
10.02085 441
10.04097 384
10.06108 426
10.08119 418
10.10131 366
10.12142 335
10.14153 396
10.16165 373
10.18176 405
10.20187 356
10.22199 397
10.2421 399
10.26222 357
10.28233 369
10.30244 365
10.32256 375
10.34267 386
10.36278 388
10.3829 395
10.40301 414
10.42313 393
10.44324 373
10.46335 376
10.48347 397
10.50358 407
10.52369 409
10.54381 367
10.56392 379
10.58403 374
10.60415 380
10.62426 372
10.64438 413
10.66449 353
10.6846 432
10.70472 380
10.72483 430
10.74494 404
10.76506 369
10.78517 403
10.80529 380
10.8254 424
10.84551 376
10.86563 388
10.88574 391
10.90585 406
10.92597 359
10.94608 393
10.9662 385
10.98631 389
11.00642 410
11.02654 369
11.04665 406
11.06676 410
11.08688 361
11.10699 365
11.1271 384
11.14722 371
11.16733 392
11.18745 374
11.20756 413
11.22767 368
11.24779 438
11.2679 407
11.28801 364
11.30813 377
11.32824 404
11.34836 381
11.36847 414
11.38858 361
11.4087 414
11.42881 411
11.44892 412
11.46904 404
11.48915 404
11.50927 420
11.52938 461
11.54949 419
11.56961 424
11.58972 423
11.60983 406
11.62995 421
11.65006 430
11.67017 396
11.69029 436
11.7104 478
11.73052 444
11.75063 482
11.77074 481
11.79086 447
11.81097 452
11.83108 443
11.8512 460
11.87131 447
11.89143 492
11.91154 460
11.93165 476
11.95177 490
11.97188 446
11.99199 509
12.01211 531
12.03222 538
12.05234 547
12.07245 563
12.09256 577
12.11268 574
12.13279 638
12.1529 650
12.17302 637
12.19313 694
12.21324 702
12.23336 696
12.25347 717
12.27359 719
12.2937 754
12.31381 816
12.33393 774
12.35404 718
12.37415 768
12.39427 786
12.41438 730
12.4345 658
12.45461 624
12.47472 639
12.49484 619
12.51495 565
12.53506 551
12.55518 512
12.57529 511
12.5954 448
12.61552 477
12.63563 464
12.65575 403
12.67586 457
12.69597 403
12.71609 436
12.7362 446
12.75631 443
12.77643 452
12.79654 479
12.81666 430
12.83677 409
12.85688 413
12.877 450
12.89711 395
12.91722 397
12.93734 421
12.95745 340
12.97757 398
12.99768 366
13.01779 383
13.03791 428
13.05802 380
13.07813 354
13.09825 369
13.11836 435
13.13847 432
13.15859 365
13.1787 399
13.19882 358
13.21893 378
13.23904 324
13.25916 376
13.27927 354
13.29938 368
13.3195 341
13.33961 364
13.35973 386
13.37984 372
13.39995 336
13.42007 378
13.44018 355
13.46029 376
13.48041 349
13.50052 376
13.52064 403
13.54075 387
13.56086 381
13.58098 384
13.60109 386
13.6212 347
13.64132 356
13.66143 394
13.68154 386
13.70166 351
13.72177 370
13.74189 336
13.762 355
13.78211 342
13.80223 386
13.82234 375
13.84245 375
13.86257 386
13.88268 363
13.9028 367
13.92291 432
13.94302 349
13.96314 346
13.98325 389
14.00336 372
14.02348 334
14.04359 344
14.06371 387
14.08382 355
14.10393 350
14.12405 338
14.14416 343
14.16427 354
14.18439 369
14.2045 352
14.22461 382
14.24473 346
14.26484 374
14.28496 356
14.30507 347
14.32518 340
14.3453 360
14.36541 359
14.38552 367
14.40564 401
14.42575 361
14.44587 318
14.46598 350
14.48609 336
14.50621 343
14.52632 370
14.54643 353
14.56655 367
14.58666 333
14.60677 363
14.62689 340
14.647 336
14.66712 343
14.68723 358
14.70734 342
14.72746 366
14.74757 330
14.76768 335
14.7878 340
14.80791 351
14.82803 349
14.84814 416
14.86825 376
14.88837 397
14.90848 368
14.92859 347
14.94871 332
14.96882 331
14.98894 387
15.00905 349
15.02916 365
15.04928 343
15.06939 362
15.0895 337
15.10962 376
15.12973 356
15.14984 359
15.16996 357
15.19007 350
15.21019 370
15.2303 347
15.25041 381
15.27053 369
15.29064 337
15.31075 350
15.33087 327
15.35098 365
15.3711 341
15.39121 377
15.41132 344
15.43144 331
15.45155 371
15.47166 351
15.49178 337
15.51189 348
15.53201 344
15.55212 381
15.57223 322
15.59235 373
15.61246 364
15.63257 340
15.65269 355
15.6728 360
15.69291 378
15.71303 382
15.73314 359
15.75326 359
15.77337 343
15.79348 342
15.8136 346
15.83371 361
15.85382 363
15.87394 369
15.89405 336
15.91417 331
15.93428 353
15.95439 338
15.97451 318
15.99462 334
16.01473 338
16.03485 340
16.05496 366
16.07508 386
16.09519 319
16.1153 349
16.13542 360
16.15553 371
16.17564 342
16.19576 370
16.21587 349
16.23598 316
16.2561 339
16.27621 345
16.29633 327
16.31644 356
16.33655 338
16.35667 316
16.37678 348
16.39689 307
16.41701 349
16.43712 360
16.45724 349
16.47735 338
16.49746 336
16.51758 352
16.53769 353
16.5578 340
16.57792 333
16.59803 335
16.61814 351
16.63826 336
16.65837 363
16.67849 337
16.6986 333
16.71871 332
16.73883 352
16.75894 348
16.77905 364
16.79917 327
16.81928 365
16.8394 381
16.85951 396
16.87962 374
16.89974 346
16.91985 350
16.93996 354
16.96008 349
16.98019 389
17.00031 384
17.02042 360
17.04053 364
17.06065 347
17.08076 366
17.10087 356
17.12099 354
17.1411 355
17.16121 328
17.18133 335
17.20144 355
17.22156 354
17.24167 350
17.26178 374
17.2819 366
17.30201 394
17.32212 319
17.34224 342
17.36235 338
17.38247 368
17.40258 357
17.42269 350
17.44281 349
17.46292 353
17.48303 367
17.50315 320
17.52326 389
17.54338 319
17.56349 331
17.5836 352
17.60372 357
17.62383 354
17.64394 350
17.66406 387
17.68417 359
17.70428 391
17.7244 392
17.74451 399
17.76463 373
17.78474 378
17.80485 410
17.82497 393
17.84508 381
17.86519 373
17.88531 346
17.90542 402
17.92554 416
17.94565 344
17.96576 403
17.98588 390
18.00599 406
18.0261 438
18.04622 417
18.06633 432
18.08645 487
18.10656 456
18.12667 484
18.14679 535
18.1669 597
18.18701 657
18.20713 749
18.22724 805
18.24735 944
18.26747 1002
18.28758 1078
18.3077 1027
18.32781 944
18.34792 820
18.36804 728
18.38815 684
18.40826 559
18.42838 537
18.44849 452
18.46861 461
18.48872 451
18.50883 417
18.52895 412
18.54906 437
18.56917 416
18.58929 384
18.6094 407
18.62951 387
18.64963 375
18.66974 349
18.68986 330
18.70997 377
18.73008 393
18.7502 411
18.77031 396
18.79042 373
18.81054 376
18.83065 388
18.85077 397
18.87088 405
18.89099 358
18.91111 374
18.93122 356
18.95133 397
18.97145 378
18.99156 363
19.01168 379
19.03179 405
19.0519 357
19.07202 354
19.09213 375
19.11224 349
19.13236 359
19.15247 373
19.17258 380
19.1927 384
19.21281 394
19.23293 352
19.25304 345
19.27315 358
19.29327 374
19.31338 416
19.33349 394
19.35361 364
19.37372 391
19.39384 386
19.41395 399
19.43406 368
19.45418 374
19.47429 409
19.4944 399
19.51452 407
19.53463 383
19.55475 394
19.57486 399
19.59497 409
19.61509 476
19.6352 428
19.65531 442
19.67543 481
19.69554 482
19.71565 484
19.73577 506
19.75588 523
19.776 531
19.79611 566
19.81622 644
19.83634 651
19.85645 591
19.87656 688
19.89668 657
19.91679 688
19.93691 677
19.95702 650
19.97713 690
19.99725 636
20.01736 615
20.03747 630
20.05759 636
20.0777 677
20.09782 662
20.11793 680
20.13804 733
20.15816 730
20.17827 766
20.19838 836
20.2185 821
20.23861 854
20.25872 819
20.27884 815
20.29895 820
20.31907 833
20.33918 729
20.35929 785
20.37941 824
20.39952 793
20.41963 809
20.43975 777
20.45986 768
20.47998 764
20.50009 770
20.5202 761
20.54032 770
20.56043 778
20.58054 810
20.60066 771
20.62077 766
20.64088 817
20.661 902
20.68111 1040
20.70123 1196
20.72134 1447
20.74145 1861
20.76157 2507
20.78168 3065
20.80179 3582
20.82191 3935
20.84202 3782
20.86214 3347
20.88225 2879
20.90236 2222
20.92248 1740
20.94259 1196
20.9627 950
20.98282 801
21.00293 705
21.02305 661
21.04316 645
21.06327 692
21.08339 654
21.1035 634
21.12361 642
21.14373 637
21.16384 657
21.18395 620
21.20407 642
21.22418 636
21.2443 626
21.26441 610
21.28452 670
21.30464 699
21.32475 631
21.34486 664
21.36498 664
21.38509 689
21.40521 665
21.42532 647
21.44543 663
21.46555 699
21.48566 659
21.50577 638
21.52589 595
21.546 647
21.56612 586
21.58623 593
21.60634 594
21.62646 560
21.64657 648
21.66668 602
21.6868 604
21.70691 582
21.72702 546
21.74714 551
21.76725 573
21.78737 513
21.80748 486
21.82759 494
21.84771 558
21.86782 519
21.88793 492
21.90805 504
21.92816 477
21.94828 540
21.96839 507
21.9885 479
22.00862 500
22.02873 498
22.04884 482
22.06896 525
22.08907 433
22.10919 547
22.1293 481
22.14941 464
22.16953 439
22.18964 469
22.20975 448
22.22987 472
22.24998 489
22.27009 503
22.29021 462
22.31032 486
22.33044 486
22.35055 499
22.37066 499
22.39078 456
22.41089 477
22.431 458
22.45112 465
22.47123 421
22.49135 436
22.51146 470
22.53157 441
22.55169 424
22.5718 449
22.59191 463
22.61203 474
22.63214 434
22.65225 451
22.67237 424
22.69248 435
22.7126 413
22.73271 447
22.75282 457
22.77294 437
22.79305 428
22.81316 442
22.83328 440
22.85339 439
22.87351 468
22.89362 480
22.91373 411
22.93385 416
22.95396 449
22.97407 413
22.99419 413
23.0143 429
23.03442 461
23.05453 408
23.07464 434
23.09476 446
23.11487 412
23.13498 417
23.1551 436
23.17521 401
23.19532 405
23.21544 417
23.23555 418
23.25567 451
23.27578 400
23.29589 429
23.31601 429
23.33612 413
23.35623 422
23.37635 438
23.39646 448
23.41658 447
23.43669 399
23.4568 418
23.47692 463
23.49703 461
23.51714 416
23.53726 437
23.55737 459
23.57749 460
23.5976 501
23.61771 422
23.63783 437
23.65794 448
23.67805 468
23.69817 463
23.71828 449
23.73839 445
23.75851 476
23.77862 447
23.79874 493
23.81885 437
23.83896 470
23.85908 523
23.87919 514
23.8993 489
23.91942 464
23.93953 503
23.95965 507
23.97976 456
23.99987 514
24.01999 481
24.0401 495
24.06021 503
24.08033 512
24.10044 506
24.12056 500
24.14067 495
24.16078 488
24.1809 523
24.20101 507
24.22112 509
24.24124 515
24.26135 554
24.28146 524
24.30158 472
24.32169 499
24.34181 501
24.36192 513
24.38203 527
24.40215 520
24.42226 481
24.44237 489
24.46249 509
24.4826 550
24.50272 533
24.52283 544
24.54294 525
24.56306 536
24.58317 554
24.60328 512
24.6234 579
24.64351 593
24.66362 589
24.68374 597
24.70385 581
24.72397 650
24.74408 603
24.76419 672
24.78431 653
24.80442 657
24.82453 623
24.84465 716
24.86476 677
24.88488 652
24.90499 675
24.9251 659
24.94522 651
24.96533 673
24.98544 660
25.00556 610
25.02567 585
25.04579 569
25.0659 530
25.08601 607
25.10613 555
25.12624 543
25.14635 584
25.16647 568
25.18658 580
25.20669 546
25.22681 532
25.24692 557
25.26704 564
25.28715 516
25.30726 523
25.32738 511
25.34749 533
25.3676 512
25.38772 473
25.40783 489
25.42795 477
25.44806 458
25.46817 454
25.48829 449
25.5084 445
25.52851 460
25.54863 440
25.56874 439
25.58886 449
25.60897 447
25.62908 470
25.6492 482
25.66931 502
25.68942 520
25.70954 519
25.72965 548
25.74976 552
25.76988 487
25.78999 533
25.81011 535
25.83022 536
25.85033 547
25.87045 524
25.89056 534
25.91067 510
25.93079 524
25.9509 513
25.97102 574
25.99113 547
26.01124 581
26.03136 568
26.05147 599
26.07158 582
26.0917 582
26.11181 632
26.13193 641
26.15204 672
26.17215 696
26.19227 687
26.21238 770
26.23249 741
26.25261 818
26.27272 884
26.29283 927
26.31295 940
26.33306 1008
26.35318 1146
26.37329 1252
26.3934 1443
26.41352 1724
26.43363 2148
26.45374 2772
26.47386 3845
26.49397 5380
26.51409 7088
26.5342 9742
26.55431 12406
26.57443 14793
26.59454 16518
26.61465 16629
26.63477 15196
26.65488 12758
26.67499 10021
26.69511 7179
26.71522 5059
26.73534 3238
26.75545 2127
26.77556 1575
26.79568 1307
26.81579 1095
26.8359 1016
26.85602 1017
26.87613 923
26.89625 905
26.91636 886
26.93647 771
26.95659 716
26.9767 678
26.99681 648
27.01693 601
27.03704 613
27.05716 602
27.07727 588
27.09738 562
27.1175 560
27.13761 540
27.15772 535
27.17784 526
27.19795 524
27.21806 518
27.23818 524
27.25829 481
27.27841 497
27.29852 508
27.31863 466
27.33875 540
27.35886 498
27.37897 506
27.39909 492
27.4192 525
27.43932 461
27.45943 465
27.47954 519
27.49966 441
27.51977 450
27.53988 481
27.56 415
27.58011 476
27.60023 467
27.62034 469
27.64045 462
27.66057 410
27.68068 449
27.70079 443
27.72091 451
27.74102 451
27.76113 431
27.78125 455
27.80136 457
27.82148 451
27.84159 467
27.8617 459
27.88182 469
27.90193 478
27.92204 468
27.94216 416
27.96227 462
27.98239 467
28.0025 484
28.02261 435
28.04273 454
28.06284 447
28.08295 404
28.10307 432
28.12318 421
28.1433 416
28.16341 448
28.18352 388
28.20364 437
28.22375 410
28.24386 430
28.26398 393
28.28409 406
28.3042 438
28.32432 389
28.34443 412
28.36455 421
28.38466 424
28.40477 436
28.42489 420
28.445 409
28.46511 431
28.48523 410
28.50534 424
28.52546 423
28.54557 418
28.56568 405
28.5858 421
28.60591 424
28.62602 381
28.64614 401
28.66625 387
28.68636 445
28.70648 422
28.72659 382
28.74671 428
28.76682 436
28.78693 383
28.80705 416
28.82716 410
28.84727 434
28.86739 411
28.8875 412
28.90762 357
28.92773 426
28.94784 393
28.96796 432
28.98807 430
29.00818 367
29.0283 377
29.04841 381
29.06853 394
29.08864 384
29.10875 374
29.12887 372
29.14898 384
29.16909 414
29.18921 385
29.20932 391
29.22943 381
29.24955 366
29.26966 432
29.28978 387
29.30989 394
29.33 400
29.35012 382
29.37023 436
29.39034 417
29.41046 414
29.43057 408
29.45069 406
29.4708 406
29.49091 409
29.51103 414
29.53114 386
29.55125 415
29.57137 406
29.59148 367
29.6116 364
29.63171 391
29.65182 400
29.67194 434
29.69205 424
29.71216 391
29.73228 390
29.75239 374
29.7725 398
29.79262 406
29.81273 386
29.83285 438
29.85296 366
29.87307 430
29.89319 395
29.9133 407
29.93341 398
29.95353 405
29.97364 396
29.99376 379
30.01387 373
30.03398 400
30.0541 405
30.07421 395
30.09432 396
30.11444 388
30.13455 387
30.15467 408
30.17478 433
30.19489 411
30.21501 383
30.23512 390
30.25523 356
30.27535 429
30.29546 394
30.31557 425
30.33569 382
30.3558 360
30.37592 422
30.39603 376
30.41614 387
30.43626 396
30.45637 360
30.47648 353
30.4966 336
30.51671 388
30.53683 396
30.55694 425
30.57705 382
30.59717 395
30.61728 370
30.63739 357
30.65751 369
30.67762 376
30.69773 379
30.71785 342
30.73796 385
30.75808 363
30.77819 363
30.7983 388
30.81842 372
30.83853 404
30.85864 392
30.87876 403
30.89887 391
30.91899 373
30.9391 399
30.95921 377
30.97933 383
30.99944 383
31.01955 374
31.03967 374
31.05978 349
31.0799 412
31.10001 389
31.12012 383
31.14024 364
31.16035 369
31.18046 409
31.20058 362
31.22069 393
31.2408 371
31.26092 363
31.28103 395
31.30115 388
31.32126 382
31.34137 380
31.36149 372
31.3816 348
31.40171 352
31.42183 365
31.44194 365
31.46206 384
31.48217 383
31.50228 374
31.5224 365
31.54251 382
31.56262 365
31.58274 415
31.60285 404
31.62297 394
31.64308 369
31.66319 384
31.68331 371
31.70342 378
31.72353 362
31.74365 361
31.76376 382
31.78387 370
31.80399 365
31.8241 361
31.84422 363
31.86433 340
31.88444 411
31.90456 363
31.92467 380
31.94478 395
31.9649 385
31.98501 369
32.00513 379
32.02524 353
32.04535 349
32.06547 357
32.08558 406
32.10569 352
32.12581 377
32.14592 401
32.16604 378
32.18615 419
32.20626 408
32.22638 365
32.24649 379
32.2666 407
32.28672 417
32.30683 379
32.32694 443
32.34706 383
32.36717 398
32.38729 412
32.4074 471
32.42751 440
32.44763 469
32.46774 499
32.48785 447
32.50797 448
32.52808 436
32.5482 517
32.56831 508
32.58842 479
32.60854 464
32.62865 466
32.64876 468
32.66888 470
32.68899 447
32.7091 453
32.72922 444
32.74933 468
32.76945 413
32.78956 447
32.80967 431
32.82979 395
32.8499 460
32.87001 446
32.89013 418
32.91024 433
32.93036 454
32.95047 441
32.97058 475
32.9907 413
33.01081 457
33.03092 502
33.05104 471
33.07115 446
33.09127 470
33.11138 530
33.13149 549
33.15161 479
33.17172 532
33.19183 474
33.21195 494
33.23206 500
33.25217 482
33.27229 480
33.2924 493
33.31252 482
33.33263 469
33.35274 456
33.37286 477
33.39297 482
33.41308 446
33.4332 432
33.45331 469
33.47343 449
33.49354 482
33.51365 469
33.53377 442
33.55388 412
33.57399 468
33.59411 457
33.61422 416
33.63434 433
33.65445 448
33.67456 439
33.69468 427
33.71479 409
33.7349 446
33.75502 457
33.77513 461
33.79524 431
33.81536 410
33.83547 433
33.85559 446
33.8757 418
33.89581 419
33.91593 410
33.93604 399
33.95615 442
33.97627 408
33.99638 397
34.0165 366
34.03661 405
34.05672 422
34.07684 408
34.09695 406
34.11706 413
34.13718 442
34.15729 380
34.17741 404
34.19752 367
34.21763 386
34.23775 401
34.25786 403
34.27797 375
34.29809 395
34.3182 431
34.33831 388
34.35843 379
34.37854 357
34.39866 407
34.41877 399
34.43888 382
34.459 382
34.47911 376
34.49922 423
34.51934 400
34.53945 377
34.55957 384
34.57968 419
34.59979 413
34.61991 434
34.64002 398
34.66013 459
34.68025 446
34.70036 450
34.72047 443
34.74059 478
34.7607 444
34.78082 523
34.80093 518
34.82104 503
34.84116 494
34.86127 497
34.88138 521
34.9015 548
34.92161 539
34.94173 548
34.96184 515
34.98195 552
35.00207 531
35.02218 511
35.04229 545
35.06241 530
35.08252 537
35.10264 542
35.12275 530
35.14286 568
35.16298 559
35.18309 593
35.2032 576
35.22332 617
35.24343 583
35.26354 644
35.28366 580
35.30377 594
35.32389 609
35.344 585
35.36411 619
35.38423 601
35.40434 619
35.42445 571
35.44457 601
35.46468 594
35.4848 586
35.50491 559
35.52502 589
35.54514 557
35.56525 582
35.58536 576
35.60548 599
35.62559 548
35.64571 610
35.66582 602
35.68593 619
35.70605 610
35.72616 614
35.74627 634
35.76639 668
35.7865 639
35.80661 620
35.82673 620
35.84684 615
35.86696 576
35.88707 632
35.90718 635
35.9273 583
35.94741 597
35.96752 653
35.98764 589
36.00775 564
36.02787 559
36.04798 554
36.06809 580
36.08821 508
36.10832 556
36.12843 501
36.14855 534
36.16866 563
36.18878 536
36.20889 561
36.229 489
36.24912 506
36.26923 544
36.28934 600
36.30946 624
36.32957 656
36.34968 709
36.3698 811
36.38991 888
36.41003 997
36.43014 1157
36.45025 1279
36.47037 1449
36.49048 1535
36.51059 1557
36.53071 1416
36.55082 1355
36.57094 1135
36.59105 1045
36.61116 958
36.63128 826
36.65139 706
36.6715 621
36.69162 596
36.71173 563
36.73184 532
36.75196 523
36.77207 499
36.79219 487
36.8123 545
36.83241 503
36.85253 532
36.87264 487
36.89275 436
36.91287 484
36.93298 456
36.9531 548
36.97321 500
36.99332 555
37.01344 493
37.03355 524
37.05366 523
37.07378 496
37.09389 550
37.11401 504
37.13412 490
37.15423 500
37.17435 515
37.19446 545
37.21457 515
37.23469 525
37.2548 510
37.27491 488
37.29503 451
37.31514 501
37.33526 479
37.35537 463
37.37548 545
37.3956 488
37.41571 533
37.43582 494
37.45594 516
37.47605 511
37.49617 570
37.51628 461
37.53639 518
37.55651 568
37.57662 554
37.59673 568
37.61685 555
37.63696 551
37.65708 555
37.67719 496
37.6973 511
37.71742 520
37.73753 512
37.75764 495
37.77776 525
37.79787 514
37.81798 519
37.8381 515
37.85821 460
37.87833 479
37.89844 434
37.91855 469
37.93867 433
37.95878 421
37.97889 469
37.99901 462
38.01912 503
38.03924 456
38.05935 486
38.07946 467
38.09958 448
38.11969 441
38.1398 522
38.15992 485
38.18003 502
38.20015 534
38.22026 531
38.24037 507
38.26049 510
38.2806 498
38.30071 513
38.32083 516
38.34094 511
38.36105 510
38.38117 552
38.40128 534
38.4214 542
38.44151 518
38.46162 534
38.48174 547
38.50185 477
38.52196 504
38.54208 539
38.56219 508
38.58231 469
38.60242 451
38.62253 463
38.64265 452
38.66276 470
38.68287 433
38.70299 455
38.7231 451
38.74321 476
38.76333 441
38.78344 465
38.80356 434
38.82367 456
38.84378 468
38.8639 474
38.88401 438
38.90412 465
38.92424 459
38.94435 491
38.96447 441
38.98458 456
39.00469 449
39.02481 469
39.04492 459
39.06503 455
39.08515 486
39.10526 451
39.12538 500
39.14549 506
39.1656 533
39.18572 553
39.20583 523
39.22594 595
39.24606 611
39.26617 708
39.28628 731
39.3064 769
39.32651 889
39.34663 1010
39.36674 1206
39.38685 1337
39.40697 1355
39.42708 1339
39.44719 1341
39.46731 1191
39.48742 1076
39.50754 948
39.52765 906
39.54776 790
39.56788 628
39.58799 574
39.6081 478
39.62822 458
39.64833 465
39.66845 463
39.68856 440
39.70867 434
39.72879 435
39.7489 409
39.76901 427
39.78913 449
39.80924 409
39.82935 419
39.84947 405
39.86958 448
39.8897 450
39.90981 434
39.92992 406
39.95004 450
39.97015 469
39.99026 453
40.01038 457
40.03049 419
40.05061 488
40.07072 540
40.09083 538
40.11095 599
40.13106 646
40.15117 645
40.17129 768
40.1914 781
40.21152 938
40.23163 890
40.25174 913
40.27186 916
40.29197 774
40.31208 744
40.3322 740
40.35231 644
40.37242 605
40.39254 532
40.41265 535
40.43277 490
40.45288 445
40.47299 444
40.49311 457
40.51322 461
40.53333 495
40.55345 453
40.57356 446
40.59368 417
40.61379 417
40.6339 473
40.65402 486
40.67413 418
40.69424 469
40.71436 406
40.73447 441
40.75458 445
40.7747 447
40.79481 420
40.81493 457
40.83504 457
40.85515 427
40.87527 428
40.89538 469
40.91549 443
40.93561 467
40.95572 434
40.97584 456
40.99595 459
41.01606 467
41.03618 435
41.05629 455
41.0764 408
41.09652 466
41.11663 379
41.13675 421
41.15686 427
41.17697 422
41.19709 412
41.2172 439
41.23731 431
41.25743 450
41.27754 413
41.29765 416
41.31777 449
41.33788 400
41.358 432
41.37811 430
41.39822 404
41.41834 425
41.43845 446
41.45856 438
41.47868 430
41.49879 381
41.51891 434
41.53902 408
41.55913 413
41.57925 433
41.59936 400
41.61947 409
41.63959 434
41.6597 437
41.67982 412
41.69993 412
41.72004 419
41.74016 395
41.76027 378
41.78038 403
41.8005 397
41.82061 421
41.84072 402
41.86084 378
41.88095 386
41.90107 409
41.92118 378
41.94129 400
41.96141 389
41.98152 379
42.00163 399
42.02175 401
42.04186 392
42.06198 386
42.08209 413
42.1022 426
42.12232 461
42.14243 409
42.16254 413
42.18266 458
42.20277 448
42.22289 522
42.243 513
42.26311 557
42.28323 638
42.30334 691
42.32345 805
42.34357 874
42.36368 986
42.38379 1001
42.40391 1058
42.42402 1010
42.44414 968
42.46425 865
42.48436 780
42.50448 696
42.52459 661
42.5447 625
42.56482 533
42.58493 463
42.60505 387
42.62516 418
42.64527 405
42.66539 380
42.6855 402
42.70561 372
42.72573 371
42.74584 343
42.76595 355
42.78607 385
42.80618 381
42.8263 371
42.84641 341
42.86652 394
42.88664 352
42.90675 358
42.92686 361
42.94698 382
42.96709 353
42.98721 408
43.00732 383
43.02743 357
43.04755 363
43.06766 380
43.08777 369
43.10789 386
43.128 373
43.14812 389
43.16823 369
43.18834 357
43.20846 365
43.22857 389
43.24868 347
43.2688 342
43.28891 402
43.30902 365
43.32914 380
43.34925 344
43.36937 355
43.38948 344
43.40959 340
43.42971 357
43.44982 373
43.46993 350
43.49005 359
43.51016 346
43.53028 367
43.55039 367
43.5705 362
43.59062 391
43.61073 346
43.63084 370
43.65096 352
43.67107 354
43.69119 333
43.7113 356
43.73141 375
43.75153 359
43.77164 361
43.79175 361
43.81187 346
43.83198 371
43.85209 367
43.87221 385
43.89232 372
43.91244 357
43.93255 385
43.95266 381
43.97278 349
43.99289 386
44.013 370
44.03312 382
44.05323 404
44.07335 436
44.09346 392
44.11357 379
44.13369 382
44.1538 421
44.17391 429
44.19403 391
44.21414 388
44.23426 423
44.25437 405
44.27448 384
44.2946 378
44.31471 416
44.33482 395
44.35494 370
44.37505 426
44.39516 369
44.41528 384
44.43539 383
44.45551 360
44.47562 402
44.49573 372
44.51585 353
44.53596 360
44.55607 365
44.57619 339
44.5963 380
44.61642 331
44.63653 362
44.65664 333
44.67676 355
44.69687 374
44.71698 371
44.7371 349
44.75721 338
44.77732 369
44.79744 448
44.81755 351
44.83767 369
44.85778 360
44.87789 369
44.89801 366
44.91812 384
44.93823 349
44.95835 353
44.97846 390
44.99858 395
45.01869 371
45.0388 349
45.05892 399
45.07903 369
45.09914 410
45.11926 420
45.13937 372
45.15949 359
45.1796 392
45.19971 428
45.21983 407
45.23994 400
45.26005 399
45.28017 403
45.30028 428
45.32039 408
45.34051 475
45.36062 434
45.38074 417
45.40085 450
45.42096 441
45.44108 459
45.46119 383
45.4813 450
45.50142 407
45.52153 487
45.54165 438
45.56176 488
45.58187 488
45.60199 537
45.6221 590
45.64221 589
45.66233 676
45.68244 758
45.70256 766
45.72267 822
45.74278 828
45.7629 795
45.78301 782
45.80312 697
45.82324 663
45.84335 599
45.86346 573
45.88358 558
45.90369 508
45.92381 507
45.94392 438
45.96403 412
45.98415 416
46.00426 399
46.02437 386
46.04449 353
46.0646 406
46.08472 397
46.10483 390
46.12494 378
46.14506 396
46.16517 355
46.18528 367
46.2054 359
46.22551 372
46.24563 372
46.26574 372
46.28585 399
46.30597 393
46.32608 399
46.34619 360
46.36631 388
46.38642 359
46.40653 363
46.42665 348
46.44676 365
46.46688 328
46.48699 381
46.5071 346
46.52722 383
46.54733 359
46.56744 355
46.58756 377
46.60767 365
46.62779 349
46.6479 380
46.66801 375
46.68813 353
46.70824 343
46.72835 366
46.74847 372
46.76858 359
46.78869 390
46.80881 369
46.82892 387
46.84904 330
46.86915 333
46.88926 333
46.90938 375
46.92949 370
46.9496 357
46.96972 369
46.98983 387
47.00995 384
47.03006 355
47.05017 368
47.07029 376
47.0904 370
47.11051 343
47.13063 366
47.15074 374
47.17086 389
47.19097 389
47.21108 370
47.2312 410
47.25131 379
47.27142 342
47.29154 395
47.31165 363
47.33176 388
47.35188 403
47.37199 372
47.39211 374
47.41222 349
47.43233 354
47.45245 419
47.47256 360
47.49267 391
47.51279 365
47.5329 353
47.55302 388
47.57313 358
47.59324 398
47.61336 377
47.63347 388
47.65358 348
47.6737 382
47.69381 395
47.71393 394
47.73404 370
47.75415 370
47.77427 401
47.79438 397
47.81449 417
47.83461 394
47.85472 351
47.87483 374
47.89495 392
47.91506 418
47.93518 393
47.95529 399
47.9754 365
47.99552 387
48.01563 375
48.03574 346
48.05586 368
48.07597 401
48.09609 371
48.1162 379
48.13631 373
48.15643 362
48.17654 363
48.19665 399
48.21677 359
48.23688 364
48.257 360
48.27711 361
48.29722 355
48.31734 388
48.33745 338
48.35756 375
48.37768 346
48.39779 378
48.4179 343
48.43802 368
48.45813 391
48.47825 362
48.49836 391
48.51847 425
48.53859 372
48.5587 378
48.57881 387
48.59893 393
48.61904 372
48.63916 407
48.65927 392
48.67938 400
48.6995 412
48.71961 396
48.73972 360
48.75984 398
48.77995 383
48.80006 398
48.82018 381
48.84029 382
48.86041 364
48.88052 398
48.90063 387
48.92075 385
48.94086 398
48.96097 407
48.98109 348
49.0012 409
49.02132 395
49.04143 369
49.06154 370
49.08166 390
49.10177 374
49.12188 397
49.142 384
49.16211 372
49.18223 410
49.20234 367
49.22245 376
49.24257 385
49.26268 440
49.28279 420
49.30291 390
49.32302 404
49.34313 362
49.36325 383
49.38336 393
49.40348 379
49.42359 409
49.4437 430
49.46382 415
49.48393 396
49.50404 373
49.52416 392
49.54427 436
49.56439 420
49.5845 435
49.60461 426
49.62473 422
49.64484 460
49.66495 427
49.68507 418
49.70518 436
49.7253 434
49.74541 437
49.76552 463
49.78564 418
49.80575 473
49.82586 497
49.84598 471
49.86609 550
49.8862 548
49.90632 675
49.92643 741
49.94655 867
49.96666 906
49.98677 1190
50.00689 1341
50.027 1494
50.04711 1827
50.06723 1890
50.08734 1912
50.10746 1950
50.12757 1751
50.14768 1552
50.1678 1344
50.18791 1217
50.20802 1164
50.22814 1173
50.24825 1037
50.26837 892
50.28848 711
50.30859 597
50.32871 524
50.34882 479
50.36893 455
50.38905 461
50.40916 446
50.42927 427
50.44939 442
50.4695 417
50.48962 442
50.50973 454
50.52984 428
50.54996 454
50.57007 452
50.59018 437
50.6103 451
50.63041 443
50.65053 421
50.67064 428
50.69075 429
50.71087 428
50.73098 411
50.75109 429
50.77121 356
50.79132 368
50.81143 365
50.83155 401
50.85166 393
50.87178 351
50.89189 379
50.912 389
50.93212 396
50.95223 347
50.97234 382
50.99246 392
51.01257 383
51.03269 391
51.0528 340
51.07291 360
51.09303 368
51.11314 376
51.13325 378
51.15337 371
51.17348 376
51.1936 339
51.21371 379
51.23382 372
51.25394 322
51.27405 352
51.29416 353
51.31428 382
51.33439 391
51.3545 329
51.37462 358
51.39473 350
51.41485 350
51.43496 331
51.45507 336
51.47519 368
51.4953 346
51.51541 353
51.53553 321
51.55564 353
51.57576 345
51.59587 344
51.61598 354
51.6361 360
51.65621 352
51.67632 334
51.69644 361
51.71655 322
51.73667 351
51.75678 343
51.77689 381
51.79701 327
51.81712 384
51.83723 357
51.85735 362
51.87746 350
51.89757 343
51.91769 366
51.9378 367
51.95792 379
51.97803 365
51.99814 340
52.01826 385
52.03837 368
52.05848 352
52.0786 391
52.09871 401
52.11883 407
52.13894 405
52.15905 389
52.17917 396
52.19928 381
52.21939 382
52.23951 373
52.25962 411
52.27974 403
52.29985 371
52.31996 378
52.34008 353
52.36019 333
52.3803 373
52.40042 360
52.42053 337
52.44064 356
52.46076 377
52.48087 347
52.50099 336
52.5211 373
52.54121 339
52.56133 359
52.58144 314
52.60155 379
52.62167 343
52.64178 368
52.6619 366
52.68201 333
52.70212 327
52.72224 355
52.74235 372
52.76246 371
52.78258 354
52.80269 351
52.8228 381
52.84292 362
52.86303 340
52.88315 404
52.90326 380
52.92337 404
52.94349 423
52.9636 371
52.98371 385
53.00383 402
53.02394 375
53.04406 423
53.06417 396
53.08428 392
53.1044 396
53.12451 407
53.14462 385
53.16474 374
53.18485 394
53.20497 407
53.22508 388
53.24519 374
53.26531 374
53.28542 374
53.30553 362
53.32565 398
53.34576 357
53.36587 427
53.38599 398
53.4061 397
53.42622 410
53.44633 379
53.46644 374
53.48656 415
53.50667 381
53.52678 416
53.5469 431
53.56701 386
53.58713 431
53.60724 421
53.62735 376
53.64747 413
53.66758 424
53.68769 418
53.70781 429
53.72792 442
53.74804 461
53.76815 411
53.78826 427
53.80838 447
53.82849 437
53.8486 457
53.86872 437
53.88883 455
53.90894 437
53.92906 472
53.94917 469
53.96929 467
53.9894 469
54.00951 468
54.02963 476
54.04974 498
54.06985 505
54.08997 492
54.11008 499
54.1302 453
54.15031 512
54.17042 506
54.19054 505
54.21065 504
54.23076 515
54.25088 509
54.27099 549
54.29111 513
54.31122 509
54.33133 479
54.35145 497
54.37156 471
54.39167 534
54.41179 495
54.4319 507
54.45201 519
54.47213 485
54.49224 493
54.51236 494
54.53247 515
54.55258 503
54.5727 485
54.59281 503
54.61292 543
54.63304 508
54.65315 552
54.67327 593
54.69338 619
54.71349 643
54.73361 691
54.75372 786
54.77383 826
54.79395 904
54.81406 936
54.83417 866
54.85429 845
54.8744 765
54.89452 767
54.91463 673
54.93474 690
54.95486 699
54.97497 671
54.99508 652
55.0152 628
55.03531 542
55.05543 529
55.07554 521
55.09565 571
55.11577 496
55.13588 483
55.15599 578
55.17611 529
55.19622 581
55.21634 568
55.23645 620
55.25656 595
55.27668 583
55.29679 617
55.3169 529
55.33702 566
55.35713 501
55.37724 541
55.39736 505
55.41747 495
55.43759 488
55.4577 487
55.47781 461
55.49793 427
55.51804 427
55.53815 423
55.55827 379
55.57838 431
55.5985 396
55.61861 419
55.63872 409
55.65884 398
55.67895 403
55.69906 402
55.71918 414
55.73929 382
55.75941 382
55.77952 381
55.79963 372
55.81975 358
55.83986 355
55.85997 399
55.88009 374
55.9002 370
55.92031 355
55.94043 371
55.96054 339
55.98066 360
56.00077 407
56.02088 371
56.041 404
56.06111 394
56.08122 397
56.10134 361
56.12145 362
56.14157 374
56.16168 361
56.18179 356
56.20191 415
56.22202 395
56.24213 384
56.26225 370
56.28236 345
56.30248 360
56.32259 358
56.3427 374
56.36282 413
56.38293 350
56.40304 372
56.42316 391
56.44327 362
56.46338 349
56.4835 365
56.50361 362
56.52373 374
56.54384 320
56.56395 402
56.58407 393
56.60418 401
56.62429 368
56.64441 353
56.66452 400
56.68464 401
56.70475 340
56.72486 365
56.74498 337
56.76509 387
56.7852 391
56.80532 385
56.82543 377
56.84554 380
56.86566 405
56.88577 403
56.90589 373
56.926 330
56.94611 382
56.96623 344
56.98634 381
57.00645 382
57.02657 329
57.04668 380
57.0668 416
57.08691 332
57.10702 386
57.12714 380
57.14725 393
57.16736 407
57.18748 371
57.20759 386
57.22771 371
57.24782 358
57.26793 384
57.28805 363
57.30816 347
57.32827 414
57.34839 348
57.3685 401
57.38861 360
57.40873 376
57.42884 386
57.44896 337
57.46907 358
57.48918 347
57.5093 354
57.52941 358
57.54952 384
57.56964 412
57.58975 368
57.60987 397
57.62998 393
57.65009 385
57.67021 349
57.69032 347
57.71043 363
57.73055 351
57.75066 379
57.77078 374
57.79089 357
57.811 369
57.83112 362
57.85123 377
57.87134 326
57.89146 342
57.91157 349
57.93168 339
57.9518 393
57.97191 369
57.99203 372
58.01214 361
58.03225 373
58.05237 369
58.07248 344
58.09259 342
58.11271 391
58.13282 366
58.15294 358
58.17305 389
58.19316 362
58.21328 349
58.23339 351
58.2535 363
58.27362 343
58.29373 356
58.31385 341
58.33396 385
58.35407 363
58.37419 346
58.3943 366
58.41441 306
58.43453 367
58.45464 368
58.47475 366
58.49487 370
58.51498 358
58.5351 361
58.55521 366
58.57532 391
58.59544 363
58.61555 369
58.63566 367
58.65578 359
58.67589 371
58.69601 374
58.71612 347
58.73623 353
58.75635 316
58.77646 350
58.79657 330
58.81669 352
58.8368 390
58.85691 341
58.87703 377
58.89714 373
58.91726 372
58.93737 364
58.95748 324
58.9776 348
58.99771 359
59.01782 344
59.03794 358
59.05805 310
59.07817 369
59.09828 338
59.11839 325
59.13851 347
59.15862 359
59.17873 371
59.19885 370
59.21896 344
59.23908 360
59.25919 387
59.2793 384
59.29942 357
59.31953 357
59.33964 377
59.35976 372
59.37987 351
59.39998 373
59.4201 358
59.44021 399
59.46033 399
59.48044 359
59.50055 389
59.52067 419
59.54078 412
59.56089 403
59.58101 402
59.60112 409
59.62124 418
59.64135 462
59.66146 474
59.68158 485
59.70169 568
59.7218 570
59.74192 654
59.76203 728
59.78215 790
59.80226 893
59.82237 1049
59.84249 1188
59.8626 1365
59.88271 1384
59.90283 1367
59.92294 1279
59.94305 1209
59.96317 1035
59.98328 988
60.0034 871
60.02351 910
60.04362 885
60.06374 887
60.08385 838
60.10396 679
60.12408 642
60.14419 569
60.16431 501
60.18442 432
60.20453 463
60.22465 398
60.24476 412
60.26487 390
60.28499 397
60.3051 384
60.32522 401
60.34533 370
60.36544 389
60.38556 362
60.40567 425
60.42578 368
60.4459 375
60.46601 408
60.48612 371
60.50624 341
60.52635 340
60.54647 398
60.56658 388
60.58669 321
60.60681 344
60.62692 361
60.64703 339
60.66715 351
60.68726 405
60.70738 345
60.72749 371
60.7476 340
60.76772 360
60.78783 332
60.80794 374
60.82806 328
60.84817 350
60.86828 351
60.8884 342
60.90851 331
60.92863 359
60.94874 376
60.96885 355
60.98897 369
61.00908 334
61.02919 355
61.04931 343
61.06942 356
61.08954 326
61.10965 355
61.12976 357
61.14988 358
61.16999 358
61.1901 364
61.21022 335
61.23033 341
61.25045 379
61.27056 352
61.29067 384
61.31079 385
61.3309 364
61.35101 365
61.37113 361
61.39124 345
61.41135 335
61.43147 362
61.45158 386
61.4717 352
61.49181 360
61.51192 381
61.53204 394
61.55215 390
61.57226 358
61.59238 325
61.61249 390
61.63261 350
61.65272 399
61.67283 377
61.69295 400
61.71306 377
61.73317 366
61.75329 354
61.7734 376
61.79352 340
61.81363 396
61.83374 341
61.85386 370
61.87397 399
61.89408 393
61.9142 410
61.93431 379
61.95442 385
61.97454 402
61.99465 406
62.01477 375
62.03488 435
62.05499 450
62.07511 428
62.09522 421
62.11533 449
62.13545 446
62.15556 493
62.17568 456
62.19579 458
62.2159 485
62.23602 477
62.25613 520
62.27624 505
62.29636 494
62.31647 519
62.33659 517
62.3567 510
62.37681 477
62.39693 459
62.41704 510
62.43715 453
62.45727 478
62.47738 437
62.49749 455
62.51761 445
62.53772 423
62.55784 462
62.57795 416
62.59806 459
62.61818 470
62.63829 396
62.6584 458
62.67852 424
62.69863 386
62.71875 395
62.73886 432
62.75897 380
62.77909 385
62.7992 394
62.81931 395
62.83943 429
62.85954 399
62.87965 404
62.89977 390
62.91988 343
62.94 380
62.96011 394
62.98022 402
63.00034 385
63.02045 325
63.04056 382
63.06068 384
63.08079 385
63.10091 367
63.12102 377
63.14113 368
63.16125 380
63.18136 432
63.20147 405
63.22159 394
63.2417 409
63.26182 413
63.28193 382
63.30204 385
63.32216 409
63.34227 382
63.36238 387
63.3825 394
63.40261 393
63.42272 385
63.44284 404
63.46295 413
63.48307 356
63.50318 367
63.52329 375
63.54341 397
63.56352 402
63.58363 395
63.60375 381
63.62386 398
63.64398 423
63.66409 401
63.6842 430
63.70432 396
63.72443 415
63.74454 427
63.76466 423
63.78477 448
63.80489 461
63.825 417
63.84511 514
63.86523 475
63.88534 529
63.90545 526
63.92557 574
63.94568 611
63.96579 570
63.98591 580
64.00602 585
64.02614 544
64.04625 492
64.06636 516
64.08648 471
64.10659 524
64.1267 506
64.14682 493
64.16693 461
64.18705 449
64.20716 456
64.22727 452
64.24739 429
64.2675 444
64.28761 415
64.30773 402
64.32784 411
64.34796 382
64.36807 388
64.38818 378
64.4083 382
64.42841 358
64.44852 364
64.46864 374
64.48875 384
64.50886 383
64.52898 378
64.54909 369
64.56921 354
64.58932 390
64.60943 350
64.62955 371
64.64966 332
64.66977 360
64.68989 360
64.71 384
64.73012 382
64.75023 372
64.77034 379
64.79046 390
64.81057 335
64.83068 367
64.8508 367
64.87091 368
64.89102 320
64.91114 363
64.93125 351
64.95137 336
64.97148 340
64.99159 334
65.01171 303
65.03182 339
65.05193 352
65.07205 340
65.09216 331
65.11228 311
65.13239 354
65.1525 341
65.17262 338
65.19273 333
65.21284 339
65.23296 342
65.25307 331
65.27319 365
65.2933 330
65.31341 339
65.33353 319
65.35364 374
65.37375 362
65.39387 321
65.41398 327
65.43409 362
65.45421 355
65.47432 305
65.49444 341
65.51455 331
65.53466 355
65.55478 345
65.57489 389
65.595 368
65.61512 366
65.63523 382
65.65535 353
65.67546 407
65.69557 392
65.71569 384
65.7358 402
65.75591 367
65.77603 372
65.79614 387
65.81626 365
65.83637 384
65.85648 339
65.8766 376
65.89671 371
65.91682 406
65.93694 379
65.95705 335
65.97716 376
65.99728 364
66.01739 347
66.03751 382
66.05762 350
66.07773 355
66.09785 356
66.11796 370
66.13807 362
66.15819 356
66.1783 371
66.19842 372
66.21853 346
66.23864 364
66.25876 380
66.27887 321
66.29898 344
66.3191 372
66.33921 357
66.35933 356
66.37944 325
66.39955 334
66.41967 334
66.43978 363
66.45989 335
66.48001 359
66.50012 335
66.52023 342
66.54035 343
66.56046 349
66.58058 347
66.60069 339
66.6208 347
66.64092 363
66.66103 323
66.68114 364
66.70126 335
66.72137 331
66.74149 382
66.7616 367
66.78171 317
66.80183 359
66.82194 355
66.84205 354
66.86217 343
66.88228 356
66.90239 366
66.92251 377
66.94262 332
66.96274 336
66.98285 347
67.00296 313
67.02308 390
67.04319 359
67.0633 354
67.08342 332
67.10353 340
67.12365 347
67.14376 321
67.16387 347
67.18399 328
67.2041 365
67.22421 352
67.24433 359
67.26444 372
67.28456 390
67.30467 356
67.32478 396
67.3449 401
67.36501 382
67.38512 393
67.40524 411
67.42535 392
67.44546 437
67.46558 481
67.48569 439
67.50581 505
67.52592 503
67.54603 577
67.56615 616
67.58626 656
67.60637 769
67.62649 871
67.6466 907
67.66672 976
67.68683 935
67.70694 888
67.72706 846
67.74717 717
67.76728 718
67.7874 652
67.80751 663
67.82763 734
67.84774 704
67.86785 762
67.88797 728
67.90808 722
67.92819 709
67.94831 728
67.96842 752
67.98853 810
68.00865 930
68.02876 1015
68.04888 1152
68.06899 1104
68.0891 1177
68.10922 1101
68.12933 1092
68.14944 991
68.16956 1030
68.18967 1038
68.20979 1070
68.2299 1108
68.25001 1076
68.27013 1063
68.29024 983
68.31035 880
68.33047 763
68.35058 716
68.3707 674
68.39081 589
68.41092 631
68.43104 546
68.45115 583
68.47126 576
68.49138 483
68.51149 466
68.5316 443
68.55172 422
68.57183 395
68.59195 398
68.61206 373
68.63217 391
68.65229 354
68.6724 359
68.69251 344
68.71263 355
68.73274 333
68.75286 389
68.77297 336
68.79308 366
68.8132 330
68.83331 356
68.85342 368
68.87354 370
68.89365 360
68.91376 347
68.93388 348
68.95399 393
68.97411 325
68.99422 338
69.01433 359
69.03445 338
69.05456 344
69.07467 342
69.09479 347
69.1149 326
69.13502 338
69.15513 349
69.17524 371
69.19536 321
69.21547 339
69.23558 327
69.2557 370
69.27581 343
69.29593 336
69.31604 347
69.33615 335
69.35627 327
69.37638 352
69.39649 309
69.41661 337
69.43672 326
69.45683 319
69.47695 345
69.49706 341
69.51718 345
69.53729 314
69.5574 326
69.57752 325
69.59763 342
69.61774 357
69.63786 309
69.65797 335
69.67809 333
69.6982 332
69.71831 331
69.73843 322
69.75854 334
69.77865 331
69.79877 340
69.81888 343
69.839 332
69.85911 305
69.87922 341
69.89934 344
69.91945 347
69.93956 346
69.95968 334
69.97979 340
69.9999 347
70.02002 368
70.04013 343
70.06025 356
70.08036 340
70.10047 337
70.12059 344
70.1407 314
70.16081 352
70.18093 345
70.20104 348
70.22116 315
70.24127 363
70.26138 326
70.2815 331
70.30161 325
70.32172 359
70.34184 347
70.36195 353
70.38207 298
70.40218 333
70.42229 328
70.44241 338
70.46252 312
70.48263 317
70.50275 330
70.52286 356
70.54297 320
70.56309 363
70.5832 366
70.60332 352
70.62343 329
70.64354 318
70.66366 305
70.68377 343
70.70388 327
70.724 330
70.74411 298
70.76423 306
70.78434 346
70.80445 304
70.82457 351
70.84468 347
70.86479 324
70.88491 328
70.90502 327
70.92513 339
70.94525 315
70.96536 337
70.98548 315
71.00559 330
71.0257 340
71.04582 307
71.06593 315
71.08604 324
71.10616 349
71.12627 365
71.14639 301
71.1665 315
71.18661 335
71.20673 314
71.22684 351
71.24695 341
71.26707 338
71.28718 328
71.3073 304
71.32741 324
71.34752 343
71.36764 327
71.38775 325
71.40786 344
71.42798 324
71.44809 318
71.4682 329
71.48832 316
71.50843 313
71.52855 309
71.54866 315
71.56877 336
71.58889 298
71.609 318
71.62911 335
71.64923 352
71.66934 340
71.68946 327
71.70957 331
71.72968 343
71.7498 354
71.76991 362
71.79002 336
71.81014 329
71.83025 311
71.85037 315
71.87048 325
71.89059 323
71.91071 345
71.93082 313
71.95093 334
71.97105 337
71.99116 332
72.01127 326
72.03139 341
72.0515 323
72.07162 331
72.09173 304
72.11184 337
72.13196 336
72.15207 313
72.17218 329
72.1923 354
72.21241 353
72.23253 319
72.25264 324
72.27275 301
72.29287 318
72.31298 337
72.33309 326
72.35321 308
72.37332 361
72.39344 332
72.41355 306
72.43366 306
72.45378 342
72.47389 305
72.494 340
72.51412 334
72.53423 292
72.55434 312
72.57446 318
72.59457 306
72.61469 335
72.6348 333
72.65491 318
72.67503 275
72.69514 322
72.71525 316
72.73537 319
72.75548 323
72.7756 318
72.79571 333
72.81582 340
72.83594 323
72.85605 319
72.87616 335
72.89628 342
72.91639 298
72.9365 322
72.95662 332
72.97673 312
72.99685 329
73.01696 342
73.03707 311
73.05719 304
73.0773 328
73.09741 332
73.11753 366
73.13764 336
73.15776 377
73.17787 362
73.19798 343
73.2181 339
73.23821 397
73.25832 378
73.27844 409
73.29855 446
73.31867 471
73.33878 503
73.35889 488
73.37901 551
73.39912 543
73.41923 527
73.43935 503
73.45946 507
73.47957 436
73.49969 449
73.5198 429
73.53992 428
73.56003 417
73.58014 417
73.60026 434
73.62037 396
73.64048 464
73.6606 430
73.68071 403
73.70083 394
73.72094 348
73.74105 344
73.76117 339
73.78128 308
73.80139 337
73.82151 318
73.84162 353
73.86174 332
73.88185 335
73.90196 330
73.92208 306
73.94219 332
73.9623 333
73.98242 340
74.00253 335
74.02264 326
74.04276 315
74.06287 326
74.08299 322
74.1031 339
74.12321 309
74.14333 344
74.16344 324
74.18355 334
74.20367 310
74.22378 317
74.2439 304
74.26401 299
74.28412 356
74.30424 327
74.32435 307
74.34446 320
74.36458 300
74.38469 289
74.40481 325
74.42492 327
74.44503 322
74.46515 314
74.48526 320
74.50537 299
74.52549 298
74.5456 287
74.56571 316
74.58583 324
74.60594 298
74.62606 317
74.64617 258
74.66628 339
74.6864 335
74.70651 299
74.72662 323
74.74674 316
74.76685 336
74.78697 337
74.80708 292
74.82719 314
74.84731 326
74.86742 318
74.88753 315
74.90765 330
74.92776 333
74.94787 311
74.96799 304
74.9881 349
75.00822 336
