3.00117 19775
3.02128 19031
3.0414 18426
3.06151 18491
3.08162 17306
3.10174 17244
3.12185 16898
3.14197 16397
3.16208 15944
3.18219 15326
3.20231 15207
3.22242 14248
3.24253 13905
3.26265 13575
3.28276 12969
3.30288 12752
3.32299 12182
3.3431 11732
3.36322 11537
3.38333 10847
3.40344 10839
3.42356 10084
3.44367 10065
3.46379 9849
3.4839 9404
3.50401 9248
3.52413 8576
3.54424 8382
3.56435 8104
3.58447 7720
3.60458 7613
3.62469 7065
3.64481 6883
3.66492 6763
3.68504 6186
3.70515 6274
3.72526 5990
3.74538 5629
3.76549 5386
3.7856 5224
3.80572 5041
3.82583 4810
3.84595 4524
3.86606 4467
3.88617 4197
3.90629 4068
3.9264 3723
3.94651 3865
3.96663 3614
3.98674 3417
4.00686 3366
4.02697 3047
4.04708 2927
4.0672 2827
4.08731 2773
4.10742 2665
4.12754 2426
4.14765 2369
4.16776 2324
4.18788 2276
4.20799 2297
4.22811 1910
4.24822 1966
4.26833 2053
4.28845 1838
4.30856 1865
4.32867 1664
4.34879 1675
4.3689 1646
4.38902 1607
4.40913 1591
4.42924 1440
4.44936 1554
4.46947 1477
4.48958 1447
4.5097 1463
4.52981 1304
4.54992 1316
4.57004 1320
4.59015 1266
4.61027 1259
4.63038 1202
4.65049 1131
4.67061 1124
4.69072 1096
4.71083 1041
4.73095 1050
4.75106 989
4.77118 976
4.79129 1001
4.8114 957
4.83152 940
4.85163 936
4.87174 857
4.89186 913
4.91197 892
4.93209 855
4.9522 846
4.97231 875
4.99243 836
5.01254 766
5.03265 761
5.05277 748
5.07288 751
5.09299 818
5.11311 686
5.13322 683
5.15334 612
5.17345 733
5.19356 664
5.21368 615
5.23379 657
5.2539 585
5.27402 606
5.29413 607
5.31425 541
5.33436 554
5.35447 517
5.37459 520
5.3947 537
5.41481 505
5.43493 467
5.45504 486
5.47516 503
5.49527 466
5.51538 424
5.5355 513
5.55561 454
5.57572 440
5.59584 411
5.61595 395
5.63606 362
5.65618 402
5.67629 371
5.69641 426
5.71652 386
5.73663 382
5.75675 448
5.77686 354
5.79697 386
5.81709 362
5.8372 351
5.85732 393
5.87743 334
5.89754 345
5.91766 351
5.93777 339
5.95788 341
5.978 334
5.99811 351
6.01823 341
6.03834 335
6.05845 315
6.07857 314
6.09868 292
6.11879 332
6.13891 318
6.15902 297
6.17913 341
6.19925 298
6.21936 316
6.23948 305
6.25959 333
6.2797 293
6.29982 302
6.31993 322
6.34004 313
6.36016 307
6.38027 288
6.40039 298
6.4205 307
6.44061 315
6.46073 306
6.48084 337
6.50095 286
6.52107 312
6.54118 301
6.56129 269
6.58141 278
6.60152 270
6.62164 286
6.64175 288
6.66186 294
6.68198 272
6.70209 290
6.7222 299
6.74232 292
6.76243 326
6.78255 301
6.80266 290
6.82277 303
6.84289 283
6.863 282
6.88311 288
6.90323 272
6.92334 240
6.94346 244
6.96357 282
6.98368 279
7.0038 269
7.02391 294
7.04402 272
7.06414 238
7.08425 266
7.10436 276
7.12448 291
7.14459 286
7.16471 267
7.18482 234
7.20493 256
7.22505 238
7.24516 250
7.26527 262
7.28539 269
7.3055 308
7.32562 241
7.34573 308
7.36584 299
7.38596 267
7.40607 243
7.42618 256
7.4463 297
7.46641 257
7.48653 282
7.50664 252
7.52675 277
7.54687 285
7.56698 276
7.58709 292
7.60721 264
7.62732 301
7.64743 245
7.66755 288
7.68766 279
7.70778 275
7.72789 265
7.748 282
7.76812 264
7.78823 255
7.80834 277
7.82846 282
7.84857 293
7.86869 286
7.8888 282
7.90891 285
7.92903 270
7.94914 288
7.96925 277
7.98937 271
8.00948 284
8.0296 285
8.04971 252
8.06982 278
8.08994 266
8.11005 267
8.13016 300
8.15028 262
8.17039 279
8.1905 285
8.21062 264
8.23073 254
8.25085 285
8.27096 273
8.29107 297
8.31119 269
8.3313 288
8.35141 307
8.37153 249
8.39164 284
8.41176 246
8.43187 279
8.45198 280
8.4721 292
8.49221 254
8.51232 303
8.53244 259
8.55255 287
8.57266 292
8.59278 286
8.61289 297
8.63301 283
8.65312 289
8.67323 275
8.69335 257
8.71346 276
8.73357 280
8.75369 269
8.7738 272
8.79392 275
8.81403 285
8.83414 269
8.85426 278
8.87437 283
8.89448 275
8.9146 278
8.93471 282
8.95483 293
8.97494 276
8.99505 289
9.01517 290
9.03528 245
9.05539 272
9.07551 260
9.09562 287
9.11573 274
9.13585 263
9.15596 256
9.17608 262
9.19619 268
9.2163 234
9.23642 298
9.25653 257
9.27664 257
9.29676 282
9.31687 225
9.33699 264
9.3571 268
9.37721 288
9.39733 268
9.41744 303
9.43755 277
9.45767 271
9.47778 295
9.4979 256
9.51801 281
9.53812 297
9.55824 294
9.57835 301
9.59846 281
9.61858 284
9.63869 298
9.6588 272
9.67892 277
9.69903 270
9.71915 267
9.73926 283
9.75937 285
9.77949 272
9.7996 271
9.81971 259
9.83983 286
9.85994 271
9.88006 273
9.90017 272
9.92028 279
9.9404 289
9.96051 268
9.98062 294
10.00074 273
10.02085 251
10.04097 259
10.06108 270
10.08119 270
10.10131 268
10.12142 250
10.14153 273
10.16165 251
10.18176 292
10.20187 291
10.22199 292
10.2421 249
10.26222 283
10.28233 274
10.30244 284
10.32256 260
10.34267 258
10.36278 288
10.3829 232
10.40301 286
10.42313 262
10.44324 237
10.46335 271
10.48347 263
10.50358 305
10.52369 299
10.54381 274
10.56392 273
10.58403 282
10.60415 299
10.62426 264
10.64438 308
10.66449 291
10.6846 249
10.70472 284
10.72483 280
10.74494 230
10.76506 243
10.78517 238
10.80529 296
10.8254 227
10.84551 254
10.86563 267
10.88574 258
10.90585 271
10.92597 275
10.94608 309
10.9662 294
10.98631 252
11.00642 284
11.02654 269
11.04665 319
11.06676 302
11.08688 283
11.10699 268
11.1271 270
11.14722 264
11.16733 287
11.18745 295
11.20756 314
11.22767 272
11.24779 274
11.2679 266
11.28801 296
11.30813 282
11.32824 254
11.34836 300
11.36847 278
11.38858 297
11.4087 280
11.42881 262
11.44892 293
11.46904 316
11.48915 285
11.50927 301
11.52938 296
11.54949 296
11.56961 307
11.58972 326
11.60983 323
11.62995 276
11.65006 334
11.67017 322
11.69029 330
11.7104 331
11.73052 316
11.75063 349
11.77074 330
11.79086 319
11.81097 335
11.83108 355
11.8512 348
11.87131 370
11.89143 350
11.91154 337
11.93165 363
11.95177 413
11.97188 416
11.99199 437
12.01211 448
12.03222 424
12.05234 441
12.07245 483
12.09256 530
12.11268 564
12.13279 588
12.1529 610
12.17302 703
12.19313 760
12.21324 760
12.23336 793
12.25347 838
12.27359 794
12.2937 912
12.31381 833
12.33393 896
12.35404 796
12.37415 784
12.39427 678
12.41438 612
12.4345 578
12.45461 512
12.47472 494
12.49484 456
12.51495 428
12.53506 421
12.55518 370
12.57529 391
12.5954 337
12.61552 342
12.63563 297
12.65575 309
12.67586 346
12.69597 308
12.71609 302
12.7362 311
12.75631 272
12.77643 251
12.79654 270
12.81666 283
12.83677 278
12.85688 288
12.877 276
12.89711 278
12.91722 272
12.93734 272
12.95745 276
12.97757 245
12.99768 276
13.01779 245
13.03791 291
13.05802 257
13.07813 250
13.09825 265
13.11836 253
13.13847 283
13.15859 274
13.1787 266
13.19882 254
13.21893 263
13.23904 240
13.25916 263
13.27927 254
13.29938 252
13.3195 244
13.33961 226
13.35973 250
13.37984 237
13.39995 232
13.42007 236
13.44018 234
13.46029 237
13.48041 210
13.50052 229
13.52064 228
13.54075 222
13.56086 232
13.58098 259
13.60109 258
13.6212 233
13.64132 262
13.66143 237
13.68154 244
13.70166 229
13.72177 249
13.74189 240
13.762 208
13.78211 245
13.80223 259
13.82234 209
13.84245 228
13.86257 215
13.88268 260
13.9028 220
13.92291 214
13.94302 224
13.96314 206
13.98325 243
14.00336 241
14.02348 267
14.04359 253
14.06371 236
14.08382 204
14.10393 219
14.12405 248
14.14416 245
14.16427 227
14.18439 227
14.2045 245
14.22461 213
14.24473 205
14.26484 244
14.28496 237
14.30507 236
14.32518 251
14.3453 216
14.36541 228
14.38552 225
14.40564 241
14.42575 237
14.44587 242
14.46598 192
14.48609 245
14.50621 213
14.52632 217
14.54643 223
14.56655 206
14.58666 249
14.60677 226
14.62689 222
14.647 215
14.66712 197
14.68723 219
14.70734 214
14.72746 249
14.74757 219
14.76768 189
14.7878 211
14.80791 219
14.82803 236
14.84814 228
14.86825 215
14.88837 215
14.90848 223
14.92859 245
14.94871 198
14.96882 244
14.98894 201
15.00905 224
15.02916 209
15.04928 236
15.06939 217
15.0895 196
15.10962 230
15.12973 245
15.14984 209
15.16996 225
15.19007 224
15.21019 204
15.2303 209
15.25041 209
15.27053 205
15.29064 207
15.31075 201
15.33087 213
15.35098 207
15.3711 212
15.39121 239
15.41132 205
15.43144 217
15.45155 226
15.47166 228
15.49178 231
15.51189 222
15.53201 229
15.55212 251
15.57223 224
15.59235 231
15.61246 207
15.63257 213
15.65269 215
15.6728 212
15.69291 215
15.71303 216
15.73314 236
15.75326 215
15.77337 216
15.79348 210
15.8136 208
15.83371 204
15.85382 199
15.87394 206
15.89405 165
15.91417 198
15.93428 188
15.95439 215
15.97451 196
15.99462 211
16.01473 200
16.03485 190
16.05496 227
16.07508 233
16.09519 220
16.1153 197
16.13542 193
16.15553 206
16.17564 175
16.19576 216
16.21587 207
16.23598 202
16.2561 213
16.27621 194
16.29633 210
16.31644 213
16.33655 210
16.35667 199
16.37678 185
16.39689 179
16.41701 236
16.43712 187
16.45724 193
16.47735 206
16.49746 190
16.51758 209
16.53769 207
16.5578 196
16.57792 216
16.59803 184
16.61814 194
16.63826 213
16.65837 238
16.67849 203
16.6986 202
16.71871 193
16.73883 248
16.75894 220
16.77905 187
16.79917 197
16.81928 213
16.8394 222
16.85951 199
16.87962 233
16.89974 199
16.91985 214
16.93996 198
16.96008 204
16.98019 227
17.00031 221
17.02042 211
17.04053 218
17.06065 192
17.08076 205
17.10087 237
17.12099 197
17.1411 195
17.16121 191
17.18133 208
17.20144 198
17.22156 221
17.24167 195
17.26178 203
17.2819 187
17.30201 215
17.32212 216
17.34224 184
17.36235 219
17.38247 196
17.40258 222
17.42269 193
17.44281 180
17.46292 187
17.48303 185
17.50315 194
17.52326 205
17.54338 221
17.56349 229
17.5836 188
17.60372 206
17.62383 240
17.64394 203
17.66406 205
17.68417 226
17.70428 212
17.7244 188
17.74451 223
17.76463 216
17.78474 203
17.80485 200
17.82497 213
17.84508 201
17.86519 219
17.88531 220
17.90542 211
17.92554 203
17.94565 213
17.96576 206
17.98588 210
18.00599 230
18.0261 190
18.04622 220
18.06633 204
18.08645 220
18.10656 198
18.12667 200
18.14679 219
18.1669 208
18.18701 184
18.20713 203
18.22724 198
18.24735 221
18.26747 210
18.28758 227
18.3077 200
18.32781 194
18.34792 228
18.36804 202
18.38815 193
18.40826 192
18.42838 212
18.44849 213
18.46861 226
18.48872 202
18.50883 194
18.52895 209
18.54906 207
18.56917 192
18.58929 215
18.6094 206
18.62951 209
18.64963 205
18.66974 210
18.68986 226
18.70997 184
18.73008 204
18.7502 223
18.77031 213
18.79042 216
18.81054 224
18.83065 215
18.85077 223
18.87088 205
18.89099 242
18.91111 205
18.93122 212
18.95133 225
18.97145 208
18.99156 227
19.01168 197
19.03179 195
19.0519 208
19.07202 218
19.09213 218
19.11224 206
19.13236 220
19.15247 236
19.17258 233
19.1927 244
19.21281 228
19.23293 232
19.25304 225
19.27315 234
19.29327 246
19.31338 226
19.33349 230
19.35361 206
19.37372 249
19.39384 235
19.41395 248
19.43406 262
19.45418 239
19.47429 249
19.4944 242
19.51452 284
19.53463 295
19.55475 312
19.57486 304
19.59497 314
19.61509 276
19.6352 319
19.65531 354
19.67543 388
19.69554 381
19.71565 415
19.73577 480
19.75588 506
19.776 541
19.79611 613
19.81622 608
19.83634 645
19.85645 665
19.87656 629
19.89668 626
19.91679 592
19.93691 597
19.95702 614
19.97713 582
19.99725 566
20.01736 597
20.03747 573
20.05759 588
20.0777 551
20.09782 553
20.11793 556
20.13804 588
20.15816 600
20.17827 582
20.19838 547
20.2185 584
20.23861 583
20.25872 571
20.27884 604
20.29895 570
20.31907 610
20.33918 560
20.35929 494
20.37941 587
20.39952 576
20.41963 614
20.43975 603
20.45986 669
20.47998 590
20.50009 621
20.5202 605
20.54032 665
20.56043 657
20.58054 733
20.60066 742
20.62077 892
20.64088 953
20.661 1181
20.68111 1469
20.70123 1981
20.72134 2654
20.74145 3588
20.76157 4533
20.78168 5571
20.80179 6192
20.82191 6403
20.84202 5692
20.86214 4946
20.88225 3720
20.90236 2591
20.92248 1888
20.94259 1300
20.9627 931
20.98282 796
21.00293 677
21.02305 642
21.04316 615
21.06327 615
21.08339 611
21.1035 562
21.12361 540
21.14373 538
21.16384 546
21.18395 537
21.20407 490
21.22418 468
21.2443 507
21.26441 483
21.28452 530
21.30464 506
21.32475 453
21.34486 491
21.36498 493
21.38509 497
21.40521 463
21.42532 483
21.44543 482
21.46555 428
21.48566 439
21.50577 493
21.52589 434
21.546 422
21.56612 427
21.58623 409
21.60634 464
21.62646 403
21.64657 396
21.66668 397
21.6868 436
21.70691 411
21.72702 394
21.74714 380
21.76725 376
21.78737 388
21.80748 378
21.82759 370
21.84771 372
21.86782 360
21.88793 397
21.90805 356
21.92816 381
21.94828 384
21.96839 361
21.9885 380
22.00862 389
22.02873 389
22.04884 345
22.06896 360
22.08907 359
22.10919 364
22.1293 388
22.14941 334
22.16953 335
22.18964 376
22.20975 305
22.22987 342
22.24998 337
22.27009 335
22.29021 358
22.31032 337
22.33044 336
22.35055 334
22.37066 339
22.39078 361
22.41089 328
22.431 347
22.45112 354
22.47123 350
22.49135 285
22.51146 325
22.53157 322
22.55169 342
22.5718 304
22.59191 308
22.61203 320
22.63214 320
22.65225 348
22.67237 301
22.69248 336
22.7126 291
22.73271 321
22.75282 301
22.77294 299
22.79305 307
22.81316 285
22.83328 317
22.85339 307
22.87351 314
22.89362 313
22.91373 325
22.93385 282
22.95396 287
22.97407 293
22.99419 309
23.0143 313
23.03442 292
23.05453 266
23.07464 304
23.09476 273
23.11487 299
23.13498 336
23.1551 291
23.17521 303
23.19532 318
23.21544 292
23.23555 309
23.25567 307
23.27578 290
23.29589 306
23.31601 336
23.33612 289
23.35623 293
23.37635 298
23.39646 324
23.41658 324
23.43669 323
23.4568 330
23.47692 309
23.49703 293
23.51714 300
23.53726 307
23.55737 296
23.57749 278
23.5976 271
23.61771 333
23.63783 309
23.65794 309
23.67805 293
23.69817 319
23.71828 319
23.73839 313
23.75851 327
23.77862 279
23.79874 299
23.81885 336
23.83896 359
23.85908 318
23.87919 347
23.8993 334
23.91942 376
23.93953 370
23.95965 380
23.97976 396
23.99987 361
24.01999 328
24.0401 332
24.06021 338
24.08033 334
24.10044 321
24.12056 325
24.14067 351
24.16078 297
24.1809 302
24.20101 298
24.22112 355
24.24124 314
24.26135 334
24.28146 356
24.30158 338
24.32169 379
24.34181 324
24.36192 345
24.38203 334
24.40215 324
24.42226 368
24.44237 364
24.46249 335
24.4826 361
24.50272 389
24.52283 409
24.54294 391
24.56306 437
24.58317 431
24.60328 475
24.6234 503
24.64351 564
24.66362 564
24.68374 565
24.70385 629
24.72397 623
24.74408 667
24.76419 695
24.78431 717
24.80442 674
24.82453 708
24.84465 711
24.86476 668
24.88488 643
24.90499 607
24.9251 539
24.94522 536
24.96533 512
24.98544 483
25.00556 494
25.02567 474
25.04579 431
25.0659 480
25.08601 421
25.10613 422
25.12624 415
25.14635 453
25.16647 477
25.18658 480
25.20669 449
25.22681 472
25.24692 469
25.26704 451
25.28715 432
25.30726 446
25.32738 382
25.34749 369
25.3676 347
25.38772 389
25.40783 364
25.42795 369
25.44806 354
25.46817 374
25.48829 372
25.5084 364
25.52851 330
25.54863 369
25.56874 354
25.58886 351
25.60897 390
25.62908 416
25.6492 402
25.66931 473
25.68942 420
25.70954 453
25.72965 506
25.74976 463
25.76988 487
25.78999 497
25.81011 501
25.83022 488
25.85033 484
25.87045 534
25.89056 478
25.91067 525
25.93079 471
25.9509 520
25.97102 505
25.99113 548
26.01124 545
26.03136 582
26.05147 611
26.07158 643
26.0917 678
26.11181 673
26.13193 697
26.15204 776
26.17215 767
26.19227 843
26.21238 917
26.23249 913
26.25261 993
26.27272 1098
26.29283 1134
26.31295 1288
26.33306 1391
26.35318 1651
26.37329 2054
26.3934 2577
26.41352 3229
26.43363 4243
26.45374 6053
26.47386 8149
26.49397 11143
26.51409 15036
26.5342 19799
26.55431 24419
26.57443 27264
26.59454 28099
26.61465 26541
26.63477 22826
26.65488 17958
26.67499 13286
26.69511 9631
26.71522 6235
26.73534 3817
26.75545 2379
26.77556 1779
26.79568 1529
26.81579 1313
26.8359 1251
26.85602 1099
26.87613 968
26.89625 893
26.91636 805
26.93647 822
26.95659 691
26.9767 676
26.99681 609
27.01693 606
27.03704 555
27.05716 520
27.07727 483
27.09738 485
27.1175 496
27.13761 451
27.15772 489
27.17784 463
27.19795 480
27.21806 450
27.23818 453
27.25829 440
27.27841 415
27.29852 425
27.31863 423
27.33875 430
27.35886 425
27.37897 464
27.39909 395
27.4192 438
27.43932 427
27.45943 423
27.47954 423
27.49966 416
27.51977 335
27.53988 351
27.56 345
27.58011 386
27.60023 383
27.62034 351
27.64045 381
27.66057 373
27.68068 307
27.70079 354
27.72091 353
27.74102 333
27.76113 343
27.78125 350
27.80136 338
27.82148 373
27.84159 351
27.8617 312
27.88182 303
27.90193 324
27.92204 325
27.94216 329
27.96227 335
27.98239 286
28.0025 316
28.02261 299
28.04273 298
28.06284 294
28.08295 315
28.10307 299
28.12318 332
28.1433 303
28.16341 288
28.18352 266
28.20364 314
28.22375 287
28.24386 284
28.26398 269
28.28409 273
28.3042 271
28.32432 288
28.34443 288
28.36455 273
28.38466 274
28.40477 301
28.42489 276
28.445 284
28.46511 267
28.48523 275
28.50534 284
28.52546 288
28.54557 280
28.56568 295
28.5858 285
28.60591 270
28.62602 250
28.64614 287
28.66625 269
28.68636 290
28.70648 304
28.72659 256
28.74671 257
28.76682 267
28.78693 288
28.80705 288
28.82716 280
28.84727 254
28.86739 275
28.8875 268
28.90762 269
28.92773 266
28.94784 274
28.96796 265
28.98807 268
29.00818 271
29.0283 266
29.04841 271
29.06853 267
29.08864 271
29.10875 296
29.12887 247
29.14898 264
29.16909 275
29.18921 239
29.20932 249
29.22943 292
29.24955 262
29.26966 273
29.28978 264
29.30989 247
29.33 296
29.35012 254
29.37023 262
29.39034 263
29.41046 266
29.43057 276
29.45069 289
29.4708 262
29.49091 267
29.51103 246
29.53114 288
29.55125 286
29.57137 262
29.59148 242
29.6116 213
29.63171 245
29.65182 253
29.67194 220
29.69205 255
29.71216 270
29.73228 234
29.75239 225
29.7725 237
29.79262 247
29.81273 251
29.83285 229
29.85296 251
29.87307 256
29.89319 256
29.9133 292
29.93341 273
29.95353 229
29.97364 244
29.99376 237
30.01387 241
30.03398 254
30.0541 231
30.07421 249
30.09432 255
30.11444 246
30.13455 256
30.15467 249
30.17478 274
30.19489 262
30.21501 258
30.23512 241
30.25523 251
30.27535 266
30.29546 266
30.31557 241
30.33569 264
30.3558 243
30.37592 202
30.39603 283
30.41614 233
30.43626 241
30.45637 243
30.47648 269
30.4966 232
30.51671 262
30.53683 239
30.55694 247
30.57705 241
30.59717 243
30.61728 234
30.63739 232
30.65751 264
30.67762 240
30.69773 234
30.71785 255
30.73796 217
30.75808 260
30.77819 239
30.7983 235
30.81842 226
30.83853 227
30.85864 261
30.87876 228
30.89887 232
30.91899 257
30.9391 230
30.95921 228
30.97933 247
30.99944 229
31.01955 245
31.03967 259
31.05978 250
31.0799 234
31.10001 233
31.12012 245
31.14024 215
31.16035 235
31.18046 237
31.20058 219
31.22069 214
31.2408 237
31.26092 201
31.28103 244
31.30115 220
31.32126 249
31.34137 210
31.36149 246
31.3816 203
31.40171 201
31.42183 226
31.44194 246
31.46206 207
31.48217 230
31.50228 227
31.5224 229
31.54251 248
31.56262 223
31.58274 208
31.60285 226
31.62297 231
31.64308 226
31.66319 229
31.68331 233
31.70342 240
31.72353 221
31.74365 215
31.76376 211
31.78387 241
31.80399 233
31.8241 238
31.84422 213
31.86433 212
31.88444 210
31.90456 224
31.92467 219
31.94478 245
31.9649 231
31.98501 221
32.00513 214
32.02524 217
32.04535 211
32.06547 213
32.08558 217
32.10569 208
32.12581 222
32.14592 251
32.16604 243
32.18615 240
32.20626 239
32.22638 220
32.24649 255
32.2666 225
32.28672 199
32.30683 220
32.32694 221
32.34706 237
32.36717 242
32.38729 229
32.4074 255
32.42751 214
32.44763 215
32.46774 221
32.48785 204
32.50797 225
32.52808 250
32.5482 243
32.56831 213
32.58842 225
32.60854 238
32.62865 216
32.64876 225
32.66888 219
32.68899 216
32.7091 250
32.72922 208
32.74933 218
32.76945 217
32.78956 211
32.80967 278
32.82979 228
32.8499 233
32.87001 231
32.89013 235
32.91024 238
32.93036 225
32.95047 219
32.97058 246
32.9907 209
33.01081 216
33.03092 246
33.05104 244
33.07115 257
33.09127 204
33.11138 249
33.13149 249
33.15161 248
33.17172 259
33.19183 232
33.21195 221
33.23206 261
33.25217 237
33.27229 228
33.2924 250
33.31252 216
33.33263 227
33.35274 208
33.37286 235
33.39297 231
33.41308 218
33.4332 243
33.45331 226
33.47343 212
33.49354 256
33.51365 211
33.53377 251
33.55388 212
33.57399 243
33.59411 226
33.61422 205
33.63434 240
33.65445 219
33.67456 225
33.69468 240
33.71479 228
33.7349 212
33.75502 217
33.77513 211
33.79524 208
33.81536 199
33.83547 221
33.85559 209
33.8757 233
33.89581 198
33.91593 195
33.93604 196
33.95615 202
33.97627 228
33.99638 216
34.0165 248
34.03661 201
34.05672 207
34.07684 248
34.09695 230
34.11706 191
34.13718 205
34.15729 219
34.17741 229
34.19752 241
34.21763 204
34.23775 219
34.25786 220
34.27797 206
34.29809 232
34.3182 192
34.33831 234
34.35843 233
34.37854 227
34.39866 234
34.41877 245
34.43888 229
34.459 225
34.47911 232
34.49922 252
34.51934 259
34.53945 237
34.55957 240
34.57968 244
34.59979 267
34.61991 268
34.64002 298
34.66013 293
34.68025 275
34.70036 272
34.72047 322
34.74059 317
34.7607 357
34.78082 412
34.80093 346
34.82104 368
34.84116 367
34.86127 417
34.88138 394
34.9015 365
34.92161 407
34.94173 349
34.96184 386
34.98195 382
35.00207 370
35.02218 369
35.04229 347
35.06241 342
35.08252 316
35.10264 337
35.12275 339
35.14286 317
35.16298 325
35.18309 339
35.2032 315
35.22332 313
35.24343 317
35.26354 342
35.28366 320
35.30377 335
35.32389 306
35.344 337
35.36411 319
35.38423 338
35.40434 356
35.42445 336
35.44457 350
35.46468 364
35.4848 375
35.50491 375
35.52502 375
35.54514 355
35.56525 351
35.58536 388
35.60548 380
35.62559 367
35.64571 355
35.66582 380
35.68593 387
35.70605 393
35.72616 362
35.74627 376
35.76639 376
35.7865 385
35.80661 385
35.82673 387
35.84684 398
35.86696 392
35.88707 365
35.90718 412
35.9273 371
35.94741 382
35.96752 400
35.98764 362
36.00775 393
36.02787 332
36.04798 333
36.06809 336
36.08821 337
36.10832 346
36.12843 380
36.14855 346
36.16866 343
36.18878 336
36.20889 383
36.229 400
36.24912 407
36.26923 431
36.28934 524
36.30946 573
36.32957 613
36.34968 768
36.3698 907
36.38991 1105
36.41003 1336
36.43014 1622
36.45025 1944
36.47037 1994
36.49048 2102
36.51059 1909
36.53071 1862
36.55082 1628
36.57094 1320
36.59105 1128
36.61116 977
36.63128 785
36.65139 598
36.6715 471
36.69162 405
36.71173 387
36.73184 340
36.75196 402
36.77207 345
36.79219 375
36.8123 351
36.83241 365
36.85253 345
36.87264 321
36.89275 338
36.91287 313
36.93298 328
36.9531 344
36.97321 304
36.99332 311
37.01344 311
37.03355 291
37.05366 292
37.07378 282
37.09389 264
37.11401 261
37.13412 287
37.15423 281
37.17435 323
37.19446 280
37.21457 292
37.23469 286
37.2548 302
37.27491 289
37.29503 242
37.31514 315
37.33526 269
37.35537 285
37.37548 280
37.3956 281
37.41571 295
37.43582 322
37.45594 317
37.47605 318
37.49617 336
37.51628 301
37.53639 306
37.55651 301
37.57662 323
37.59673 351
37.61685 339
37.63696 314
37.65708 287
37.67719 336
37.6973 354
37.71742 350
37.73753 336
37.75764 320
37.77776 314
37.79787 311
37.81798 319
37.8381 331
37.85821 318
37.87833 296
37.89844 297
37.91855 300
37.93867 331
37.95878 332
37.97889 302
37.99901 319
38.01912 300
38.03924 333
38.05935 337
38.07946 344
38.09958 310
38.11969 320
38.1398 339
38.15992 351
38.18003 358
38.20015 376
38.22026 377
38.24037 372
38.26049 381
38.2806 399
38.30071 425
38.32083 399
38.34094 354
38.36105 418
38.38117 396
38.40128 382
38.4214 373
38.44151 401
38.46162 382
38.48174 385
38.50185 406
38.52196 401
38.54208 351
38.56219 364
38.58231 423
38.60242 371
38.62253 377
38.64265 364
38.66276 341
38.68287 355
38.70299 342
38.7231 325
38.74321 358
38.76333 340
38.78344 325
38.80356 362
38.82367 338
38.84378 337
38.8639 306
38.88401 309
38.90412 346
38.92424 336
38.94435 362
38.96447 330
38.98458 386
39.00469 341
39.02481 338
39.04492 381
39.06503 376
39.08515 352
39.10526 374
39.12538 361
39.14549 406
39.1656 410
39.18572 413
39.20583 472
39.22594 571
39.24606 615
39.26617 645
39.28628 907
39.3064 979
39.32651 1205
39.34663 1468
39.36674 1612
39.38685 1832
39.40697 1934
39.42708 1852
39.44719 1641
39.46731 1550
39.48742 1314
39.50754 1130
39.52765 918
39.54776 816
39.56788 651
39.58799 539
39.6081 439
39.62822 378
39.64833 329
39.66845 329
39.68856 283
39.70867 280
39.72879 286
39.7489 286
39.76901 240
39.78913 277
39.80924 271
39.82935 266
39.84947 263
39.86958 237
39.8897 255
39.90981 257
39.92992 287
39.95004 318
39.97015 280
39.99026 304
40.01038 320
40.03049 305
40.05061 382
40.07072 379
40.09083 452
40.11095 541
40.13106 612
40.15117 720
40.17129 848
40.1914 913
40.21152 937
40.23163 966
40.25174 1023
40.27186 880
40.29197 767
40.31208 698
40.3322 687
40.35231 560
40.37242 499
40.39254 441
40.41265 379
40.43277 311
40.45288 298
40.47299 293
40.49311 261
40.51322 261
40.53333 239
40.55345 280
40.57356 228
40.59368 247
40.61379 253
40.6339 263
40.65402 246
40.67413 250
40.69424 246
40.71436 243
40.73447 263
40.75458 251
40.7747 251
40.79481 266
40.81493 245
40.83504 258
40.85515 273
40.87527 252
40.89538 251
40.91549 259
40.93561 269
40.95572 273
40.97584 277
40.99595 280
41.01606 242
41.03618 245
41.05629 247
41.0764 273
41.09652 257
41.11663 258
41.13675 295
41.15686 239
41.17697 256
41.19709 258
41.2172 252
41.23731 215
41.25743 236
41.27754 231
41.29765 222
41.31777 249
41.33788 214
41.358 246
41.37811 244
41.39822 214
41.41834 221
41.43845 227
41.45856 245
41.47868 246
41.49879 263
41.51891 215
41.53902 248
41.55913 234
41.57925 258
41.59936 229
41.61947 239
41.63959 236
41.6597 219
41.67982 232
41.69993 225
41.72004 231
41.74016 246
41.76027 252
41.78038 214
41.8005 232
41.82061 259
41.84072 237
41.86084 250
41.88095 232
41.90107 207
41.92118 241
41.94129 249
41.96141 263
41.98152 257
42.00163 272
42.02175 270
42.04186 261
42.06198 238
42.08209 273
42.1022 249
42.12232 309
42.14243 314
42.16254 314
42.18266 355
42.20277 373
42.22289 417
42.243 495
42.26311 644
42.28323 712
42.30334 859
42.32345 982
42.34357 1155
42.36368 1311
42.38379 1330
42.40391 1326
42.42402 1197
42.44414 1101
42.46425 958
42.48436 914
42.50448 758
42.52459 629
42.5447 534
42.56482 440
42.58493 381
42.60505 316
42.62516 262
42.64527 300
42.66539 250
42.6855 249
42.70561 222
42.72573 220
42.74584 249
42.76595 239
42.78607 247
42.80618 210
42.8263 240
42.84641 230
42.86652 223
42.88664 216
42.90675 225
42.92686 202
42.94698 189
42.96709 196
42.98721 223
43.00732 195
43.02743 198
43.04755 223
43.06766 214
43.08777 210
43.10789 217
43.128 201
43.14812 215
43.16823 208
43.18834 214
43.20846 187
43.22857 197
43.24868 206
43.2688 239
43.28891 220
43.30902 191
43.32914 208
43.34925 211
43.36937 196
43.38948 187
43.40959 222
43.42971 196
43.44982 218
43.46993 180
43.49005 215
43.51016 173
43.53028 208
43.55039 197
43.5705 219
43.59062 203
43.61073 218
43.63084 203
43.65096 192
43.67107 186
43.69119 196
43.7113 214
43.73141 169
43.75153 199
43.77164 221
43.79175 210
43.81187 189
43.83198 182
43.85209 172
43.87221 194
43.89232 217
43.91244 211
43.93255 195
43.95266 209
43.97278 167
43.99289 210
44.013 205
44.03312 206
44.05323 209
44.07335 194
44.09346 172
44.11357 177
44.13369 211
44.1538 204
44.17391 199
44.19403 227
44.21414 200
44.23426 184
44.25437 190
44.27448 173
44.2946 215
44.31471 193
44.33482 202
44.35494 216
44.37505 197
44.39516 196
44.41528 202
44.43539 184
44.45551 177
44.47562 205
44.49573 187
44.51585 196
44.53596 210
44.55607 200
44.57619 209
44.5963 201
44.61642 212
44.63653 194
44.65664 185
44.67676 207
44.69687 191
44.71698 237
44.7371 192
44.75721 203
44.77732 200
44.79744 194
44.81755 204
44.83767 212
44.85778 209
44.87789 195
44.89801 194
44.91812 226
44.93823 215
44.95835 205
44.97846 226
44.99858 209
45.01869 209
45.0388 256
45.05892 197
45.07903 222
45.09914 239
45.11926 221
45.13937 225
45.15949 231
45.1796 220
45.19971 232
45.21983 220
45.23994 238
45.26005 233
45.28017 247
45.30028 222
45.32039 256
45.34051 261
45.36062 266
45.38074 227
45.40085 266
45.42096 245
45.44108 286
45.46119 280
45.4813 279
45.50142 324
45.52153 294
45.54165 340
45.56176 385
45.58187 399
45.60199 490
45.6221 580
45.64221 704
45.66233 722
45.68244 853
45.70256 933
45.72267 991
45.74278 974
45.7629 897
45.78301 833
45.80312 740
45.82324 661
45.84335 638
45.86346 552
45.88358 511
45.90369 452
45.92381 354
45.94392 325
45.96403 255
45.98415 273
46.00426 255
46.02437 242
46.04449 207
46.0646 233
46.08472 235
46.10483 226
46.12494 233
46.14506 221
46.16517 246
46.18528 235
46.2054 209
46.22551 216
46.24563 213
46.26574 205
46.28585 233
46.30597 212
46.32608 209
46.34619 221
46.36631 229
46.38642 225
46.40653 224
46.42665 233
46.44676 252
46.46688 217
46.48699 218
46.5071 214
46.52722 232
46.54733 210
46.56744 228
46.58756 204
46.60767 246
46.62779 207
46.6479 197
46.66801 217
46.68813 197
46.70824 217
46.72835 235
46.74847 220
46.76858 252
46.78869 213
46.80881 219
46.82892 240
46.84904 198
46.86915 194
46.88926 228
46.90938 194
46.92949 213
46.9496 225
46.96972 209
46.98983 212
47.00995 194
47.03006 204
47.05017 207
47.07029 205
47.0904 212
47.11051 193
47.13063 197
47.15074 199
47.17086 225
47.19097 212
47.21108 207
47.2312 215
47.25131 216
47.27142 180
47.29154 221
47.31165 214
47.33176 186
47.35188 192
47.37199 197
47.39211 210
47.41222 206
47.43233 181
47.45245 179
47.47256 198
47.49267 178
47.51279 172
47.5329 201
47.55302 206
47.57313 209
47.59324 211
47.61336 213
47.63347 188
47.65358 202
47.6737 210
47.69381 187
47.71393 203
47.73404 209
47.75415 222
47.77427 198
47.79438 223
47.81449 224
47.83461 238
47.85472 217
47.87483 217
47.89495 208
47.91506 232
47.93518 243
47.95529 222
47.9754 253
47.99552 243
48.01563 250
48.03574 207
48.05586 214
48.07597 218
48.09609 205
48.1162 213
48.13631 225
48.15643 220
48.17654 227
48.19665 208
48.21677 209
48.23688 231
48.257 210
48.27711 221
48.29722 208
48.31734 207
48.33745 216
48.35756 242
48.37768 233
48.39779 221
48.4179 202
48.43802 219
48.45813 227
48.47825 188
48.49836 214
48.51847 213
48.53859 195
48.5587 218
48.57881 214
48.59893 192
48.61904 203
48.63916 202
48.65927 180
48.67938 198
48.6995 192
48.71961 207
48.73972 177
48.75984 210
48.77995 233
48.80006 192
48.82018 216
48.84029 214
48.86041 197
48.88052 220
48.90063 217
48.92075 191
48.94086 208
48.96097 210
48.98109 235
49.0012 232
49.02132 206
49.04143 215
49.06154 204
49.08166 223
49.10177 217
49.12188 206
49.142 211
49.16211 221
49.18223 186
49.20234 219
49.22245 219
49.24257 220
49.26268 205
49.28279 218
49.30291 242
49.32302 238
49.34313 219
49.36325 244
49.38336 242
49.40348 245
49.42359 234
49.4437 262
49.46382 233
49.48393 235
49.50404 239
49.52416 252
49.54427 231
49.56439 234
49.5845 255
49.60461 266
49.62473 255
49.64484 289
49.66495 282
49.68507 278
49.70518 309
49.7253 310
49.74541 322
49.76552 345
49.78564 353
49.80575 408
49.82586 486
49.84598 553
49.86609 592
49.8862 661
49.90632 836
49.92643 990
49.94655 1178
49.96666 1433
49.98677 1820
50.00689 2220
50.027 2535
50.04711 2891
50.06723 2982
50.08734 2987
50.10746 2738
50.12757 2385
50.14768 2001
50.1678 1766
50.18791 1672
50.20802 1594
50.22814 1424
50.24825 1147
50.26837 925
50.28848 648
50.30859 514
50.32871 407
50.34882 369
50.36893 359
50.38905 312
50.40916 298
50.42927 264
50.44939 303
50.4695 270
50.48962 272
50.50973 292
50.52984 320
50.54996 304
50.57007 305
50.59018 302
50.6103 278
50.63041 244
50.65053 291
50.67064 246
50.69075 255
50.71087 237
50.73098 251
50.75109 264
50.77121 230
50.79132 231
50.81143 220
50.83155 225
50.85166 226
50.87178 209
50.89189 247
50.912 229
50.93212 225
50.95223 190
50.97234 221
50.99246 219
51.01257 212
51.03269 229
51.0528 219
51.07291 217
51.09303 199
51.11314 191
51.13325 191
51.15337 201
51.17348 229
51.1936 203
51.21371 196
51.23382 211
51.25394 213
51.27405 201
51.29416 172
51.31428 196
51.33439 175
51.3545 201
51.37462 199
51.39473 218
51.41485 181
51.43496 183
51.45507 163
51.47519 208
51.4953 188
51.51541 211
51.53553 214
51.55564 188
51.57576 175
51.59587 201
51.61598 165
51.6361 194
51.65621 205
51.67632 200
51.69644 165
51.71655 194
51.73667 170
51.75678 168
51.77689 169
51.79701 168
51.81712 173
51.83723 177
51.85735 197
51.87746 186
51.89757 166
51.91769 172
51.9378 192
51.95792 198
51.97803 177
51.99814 177
52.01826 180
52.03837 192
52.05848 166
52.0786 196
52.09871 179
52.11883 174
52.13894 220
52.15905 189
52.17917 184
52.19928 181
52.21939 185
52.23951 207
52.25962 176
52.27974 200
52.29985 181
52.31996 179
52.34008 174
52.36019 175
52.3803 176
52.40042 171
52.42053 192
52.44064 167
52.46076 203
52.48087 198
52.50099 193
52.5211 189
52.54121 193
52.56133 196
52.58144 195
52.60155 216
52.62167 161
52.64178 181
52.6619 195
52.68201 179
52.70212 209
52.72224 159
52.74235 184
52.76246 188
52.78258 177
52.80269 164
52.8228 194
52.84292 194
52.86303 168
52.88315 194
52.90326 216
52.92337 208
52.94349 201
52.9636 179
52.98371 192
53.00383 204
53.02394 201
53.04406 201
53.06417 205
53.08428 193
53.1044 198
53.12451 194
53.14462 206
53.16474 196
53.18485 203
53.20497 215
53.22508 195
53.24519 190
53.26531 211
53.28542 222
53.30553 238
53.32565 197
53.34576 206
53.36587 221
53.38599 201
53.4061 221
53.42622 211
53.44633 194
53.46644 228
53.48656 220
53.50667 183
53.52678 243
53.5469 222
53.56701 235
53.58713 240
53.60724 246
53.62735 244
53.64747 242
53.66758 232
53.68769 227
53.70781 223
53.72792 229
53.74804 256
53.76815 237
53.78826 245
53.80838 256
53.82849 240
53.8486 259
53.86872 268
53.88883 250
53.90894 267
53.92906 242
53.94917 230
53.96929 243
53.9894 249
54.00951 259
54.02963 251
54.04974 260
54.06985 254
54.08997 259
54.11008 235
54.1302 257
54.15031 277
54.17042 254
54.19054 278
54.21065 242
54.23076 295
54.25088 288
54.27099 297
54.29111 261
54.31122 292
54.33133 262
54.35145 273
54.37156 279
54.39167 288
54.41179 285
54.4319 267
54.45201 281
54.47213 305
54.49224 292
54.51236 300
54.53247 307
54.55258 368
54.5727 364
54.59281 402
54.61292 409
54.63304 431
54.65315 471
54.67327 548
54.69338 632
54.71349 697
54.73361 809
54.75372 873
54.77383 916
54.79395 1072
54.81406 1062
54.83417 958
54.85429 881
54.8744 733
54.89452 686
54.91463 688
54.93474 726
54.95486 679
54.97497 623
54.99508 563
55.0152 486
55.03531 451
55.05543 395
55.07554 392
55.09565 396
55.11577 417
55.13588 435
55.15599 451
55.17611 477
55.19622 557
55.21634 579
55.23645 588
55.25656 597
55.27668 565
55.29679 598
55.3169 508
55.33702 492
55.35713 500
55.37724 424
55.39736 509
55.41747 422
55.43759 423
55.4577 378
55.47781 348
55.49793 284
55.51804 300
55.53815 289
55.55827 256
55.57838 269
55.5985 271
55.61861 241
55.63872 247
55.65884 282
55.67895 254
55.69906 295
55.71918 224
55.73929 255
55.75941 241
55.77952 234
55.79963 223
55.81975 273
55.83986 241
55.85997 250
55.88009 251
55.9002 233
55.92031 242
55.94043 252
55.96054 228
55.98066 212
56.00077 246
56.02088 252
56.041 229
56.06111 221
56.08122 216
56.10134 234
56.12145 221
56.14157 243
56.16168 224
56.18179 223
56.20191 227
56.22202 249
56.24213 220
56.26225 196
56.28236 234
56.30248 210
56.32259 198
56.3427 247
56.36282 226
56.38293 224
56.40304 226
56.42316 217
56.44327 209
56.46338 217
56.4835 213
56.50361 230
56.52373 229
56.54384 212
56.56395 221
56.58407 189
56.60418 226
56.62429 201
56.64441 250
56.66452 227
56.68464 200
56.70475 212
56.72486 197
56.74498 224
56.76509 194
56.7852 222
56.80532 235
56.82543 234
56.84554 213
56.86566 190
56.88577 213
56.90589 217
56.926 196
56.94611 244
56.96623 209
56.98634 199
57.00645 252
57.02657 236
57.04668 249
57.0668 218
57.08691 239
57.10702 235
57.12714 281
57.14725 246
57.16736 253
57.18748 265
57.20759 244
57.22771 228
57.24782 242
57.26793 248
57.28805 223
57.30816 235
57.32827 239
57.34839 216
57.3685 210
57.38861 216
57.40873 185
57.42884 176
57.44896 195
57.46907 190
57.48918 196
57.5093 208
57.52941 196
57.54952 193
57.56964 189
57.58975 221
57.60987 197
57.62998 220
57.65009 186
57.67021 209
57.69032 218
57.71043 191
57.73055 193
57.75066 211
57.77078 206
57.79089 178
57.811 219
57.83112 190
57.85123 202
57.87134 203
57.89146 207
57.91157 181
57.93168 213
57.9518 200
57.97191 210
57.99203 186
58.01214 195
58.03225 187
58.05237 196
58.07248 206
58.09259 188
58.11271 212
58.13282 188
58.15294 203
58.17305 206
58.19316 206
58.21328 173
58.23339 213
58.2535 218
58.27362 213
58.29373 196
58.31385 184
58.33396 187
58.35407 179
58.37419 200
58.3943 199
58.41441 220
58.43453 180
58.45464 216
58.47475 182
58.49487 214
58.51498 213
58.5351 192
58.55521 199
58.57532 199
58.59544 196
58.61555 212
58.63566 209
58.65578 178
58.67589 191
58.69601 199
58.71612 212
58.73623 187
58.75635 198
58.77646 190
58.79657 198
58.81669 203
58.8368 201
58.85691 220
58.87703 193
58.89714 207
58.91726 207
58.93737 202
58.95748 184
58.9776 191
58.99771 196
59.01782 204
59.03794 204
59.05805 214
59.07817 207
59.09828 214
59.11839 217
59.13851 213
59.15862 216
59.17873 227
59.19885 209
59.21896 227
59.23908 235
59.25919 197
59.2793 202
59.29942 232
59.31953 245
59.33964 224
59.35976 214
59.37987 248
59.39998 231
59.4201 251
59.44021 248
59.46033 257
59.48044 288
59.50055 300
59.52067 260
59.54078 315
59.56089 326
59.58101 350
59.60112 367
59.62124 413
59.64135 395
59.66146 435
59.68158 517
59.70169 608
59.7218 696
59.74192 805
59.76203 996
59.78215 1152
59.80226 1300
59.82237 1509
59.84249 1688
59.8626 1949
59.88271 1984
59.90283 1879
59.92294 1619
59.94305 1446
59.96317 1268
59.98328 1208
60.0034 1085
60.02351 1111
60.04362 1096
60.06374 1047
60.08385 939
60.10396 707
60.12408 586
60.14419 442
60.16431 367
60.18442 323
60.20453 306
60.22465 265
60.24476 277
60.26487 245
60.28499 251
60.3051 224
60.32522 222
60.34533 223
60.36544 204
60.38556 223
60.40567 225
60.42578 202
60.4459 230
60.46601 233
60.48612 192
60.50624 209
60.52635 218
60.54647 204
60.56658 207
60.58669 199
60.60681 183
60.62692 222
60.64703 205
60.66715 206
60.68726 208
60.70738 206
60.72749 205
60.7476 192
60.76772 202
60.78783 208
60.80794 214
60.82806 184
60.84817 178
60.86828 202
60.8884 207
60.90851 199
60.92863 205
60.94874 190
60.96885 191
60.98897 189
61.00908 193
61.02919 185
61.04931 205
61.06942 222
61.08954 184
61.10965 203
61.12976 195
61.14988 184
61.16999 212
61.1901 182
61.21022 187
61.23033 208
61.25045 220
61.27056 201
61.29067 203
61.31079 206
61.3309 190
61.35101 216
61.37113 221
61.39124 212
61.41135 197
61.43147 207
61.45158 229
61.4717 222
61.49181 207
61.51192 222
61.53204 214
61.55215 230
61.57226 208
61.59238 231
61.61249 206
61.63261 196
61.65272 223
61.67283 230
61.69295 200
61.71306 232
61.73317 244
61.75329 232
61.7734 247
61.79352 240
61.81363 256
61.83374 231
61.85386 252
61.87397 215
61.89408 260
61.9142 253
61.93431 267
61.95442 244
61.97454 280
61.99465 264
62.01477 276
62.03488 297
62.05499 307
62.07511 324
62.09522 370
62.11533 343
62.13545 324
62.15556 364
62.17568 380
62.19579 356
62.2159 366
62.23602 362
62.25613 372
62.27624 356
62.29636 326
62.31647 360
62.33659 328
62.3567 313
62.37681 335
62.39693 327
62.41704 314
62.43715 304
62.45727 263
62.47738 258
62.49749 264
62.51761 256
62.53772 237
62.55784 211
62.57795 234
62.59806 256
62.61818 221
62.63829 209
62.6584 232
62.67852 249
62.69863 232
62.71875 229
62.73886 201
62.75897 207
62.77909 233
62.7992 202
62.81931 208
62.83943 196
62.85954 205
62.87965 194
62.89977 219
62.91988 232
62.94 199
62.96011 210
62.98022 208
63.00034 203
63.02045 188
63.04056 194
63.06068 212
63.08079 210
63.10091 206
63.12102 217
63.14113 204
63.16125 203
63.18136 190
63.20147 220
63.22159 189
63.2417 167
63.26182 229
63.28193 195
63.30204 196
63.32216 208
63.34227 212
63.36238 203
63.3825 230
63.40261 232
63.42272 226
63.44284 193
63.46295 192
63.48307 221
63.50318 230
63.52329 215
63.54341 234
63.56352 238
63.58363 204
63.60375 232
63.62386 234
63.64398 246
63.66409 237
63.6842 280
63.70432 259
63.72443 278
63.74454 256
63.76466 281
63.78477 285
63.80489 294
63.825 295
63.84511 364
63.86523 377
63.88534 454
63.90545 460
63.92557 472
63.94568 537
63.96579 499
63.98591 516
64.00602 443
64.02614 448
64.04625 377
64.06636 380
64.08648 364
64.10659 368
64.1267 362
64.14682 338
64.16693 320
64.18705 318
64.20716 258
64.22727 275
64.24739 248
64.2675 233
64.28761 227
64.30773 201
64.32784 200
64.34796 198
64.36807 199
64.38818 236
64.4083 210
64.42841 198
64.44852 208
64.46864 171
64.48875 219
64.50886 198
64.52898 200
64.54909 217
64.56921 187
64.58932 204
64.60943 194
64.62955 209
64.64966 208
64.66977 199
64.68989 209
64.71 205
64.73012 177
64.75023 209
64.77034 197
64.79046 185
64.81057 161
64.83068 170
64.8508 204
64.87091 193
64.89102 180
64.91114 178
64.93125 196
64.95137 219
64.97148 196
64.99159 186
65.01171 177
65.03182 201
65.05193 204
65.07205 196
65.09216 205
65.11228 199
65.13239 219
65.1525 175
65.17262 196
65.19273 192
65.21284 184
65.23296 173
65.25307 183
65.27319 165
65.2933 194
65.31341 184
65.33353 190
65.35364 181
65.37375 157
65.39387 186
65.41398 216
65.43409 208
65.45421 221
65.47432 195
65.49444 194
65.51455 208
65.53466 232
65.55478 205
65.57489 203
65.595 208
65.61512 242
65.63523 232
65.65535 242
65.67546 272
65.69557 281
65.71569 274
65.7358 266
65.75591 271
65.77603 233
65.79614 237
65.81626 243
65.83637 259
65.85648 242
65.8766 223
65.89671 257
65.91682 245
65.93694 222
65.95705 188
65.97716 237
65.99728 174
66.01739 198
66.03751 188
66.05762 215
66.07773 190
66.09785 184
66.11796 186
66.13807 209
66.15819 204
66.1783 217
66.19842 173
66.21853 183
66.23864 196
66.25876 217
66.27887 202
66.29898 191
66.3191 168
66.33921 181
66.35933 189
66.37944 199
66.39955 187
66.41967 176
66.43978 189
66.45989 179
66.48001 187
66.50012 191
66.52023 200
66.54035 180
66.56046 196
66.58058 190
66.60069 206
66.6208 199
66.64092 200
66.66103 235
66.68114 197
66.70126 181
66.72137 194
66.74149 194
66.7616 217
66.78171 193
66.80183 232
66.82194 203
66.84205 180
66.86217 197
66.88228 186
66.90239 213
66.92251 204
66.94262 189
66.96274 203
66.98285 192
67.00296 205
67.02308 223
67.04319 219
67.0633 218
67.08342 224
67.10353 197
67.12365 203
67.14376 216
67.16387 214
67.18399 207
67.2041 239
67.22421 247
67.24433 238
67.26444 235
67.28456 259
67.30467 296
67.32478 292
67.3449 307
67.36501 258
67.38512 301
67.40524 349
67.42535 334
67.44546 391
67.46558 396
67.48569 454
67.50581 554
67.52592 594
67.54603 657
67.56615 773
67.58626 895
67.60637 995
67.62649 1108
67.6466 1185
67.66672 1234
67.68683 1179
67.70694 1123
67.72706 1006
67.74717 899
67.76728 849
67.7874 822
67.80751 881
67.82763 861
67.84774 989
67.86785 969
67.88797 1008
67.90808 957
67.92819 924
67.94831 1018
67.96842 1076
67.98853 1169
68.00865 1333
68.02876 1430
68.04888 1620
68.06899 1683
68.0891 1655
68.10922 1615
68.12933 1435
68.14944 1377
68.16956 1355
68.18967 1387
68.20979 1469
68.2299 1447
68.25001 1552
68.27013 1439
68.29024 1306
68.31035 1116
68.33047 875
68.35058 739
68.3707 699
68.39081 679
68.41092 620
68.43104 612
68.45115 566
68.47126 518
68.49138 434
68.51149 386
68.5316 346
68.55172 331
68.57183 276
68.59195 251
68.61206 255
68.63217 253
68.65229 240
68.6724 249
68.69251 223
68.71263 233
68.73274 227
68.75286 241
68.77297 214
68.79308 199
68.8132 243
68.83331 207
68.85342 214
68.87354 197
68.89365 219
68.91376 212
68.93388 190
68.95399 222
68.97411 209
68.99422 205
69.01433 203
69.03445 178
69.05456 207
69.07467 203
69.09479 170
69.1149 195
69.13502 204
69.15513 182
69.17524 200
69.19536 184
69.21547 206
69.23558 178
69.2557 176
69.27581 189
69.29593 201
69.31604 169
69.33615 193
69.35627 176
69.37638 193
69.39649 185
69.41661 174
69.43672 198
69.45683 204
69.47695 206
69.49706 175
69.51718 163
69.53729 187
69.5574 181
69.57752 185
69.59763 174
69.61774 197
69.63786 193
69.65797 202
69.67809 204
69.6982 189
69.71831 163
69.73843 184
69.75854 186
69.77865 174
69.79877 198
69.81888 191
69.839 162
69.85911 189
69.87922 171
69.89934 182
69.91945 203
69.93956 187
69.95968 194
69.97979 187
69.9999 197
70.02002 193
70.04013 178
70.06025 195
70.08036 207
70.10047 199
70.12059 147
70.1407 197
70.16081 224
70.18093 178
70.20104 203
70.22116 203
70.24127 167
70.26138 187
70.2815 196
70.30161 173
70.32172 177
70.34184 193
70.36195 183
70.38207 204
70.40218 200
70.42229 185
70.44241 199
70.46252 213
70.48263 195
70.50275 178
70.52286 195
70.54297 189
70.56309 171
70.5832 191
70.60332 162
70.62343 211
70.64354 204
70.66366 165
70.68377 184
70.70388 176
70.724 174
70.74411 183
70.76423 171
70.78434 182
70.80445 184
70.82457 180
70.84468 185
70.86479 167
70.88491 175
70.90502 173
70.92513 167
70.94525 182
70.96536 176
70.98548 177
71.00559 198
71.0257 182
71.04582 197
71.06593 203
71.08604 210
71.10616 191
71.12627 167
71.14639 191
71.1665 168
71.18661 208
71.20673 200
71.22684 193
71.24695 195
71.26707 198
71.28718 192
71.3073 197
71.32741 162
71.34752 196
71.36764 198
71.38775 192
71.40786 196
71.42798 179
71.44809 172
71.4682 191
71.48832 174
71.50843 187
71.52855 179
71.54866 178
71.56877 210
71.58889 199
71.609 194
71.62911 193
71.64923 189
71.66934 185
71.68946 172
71.70957 196
71.72968 189
71.7498 203
71.76991 197
71.79002 184
71.81014 175
71.83025 176
71.85037 208
71.87048 203
71.89059 183
71.91071 202
71.93082 171
71.95093 179
71.97105 186
71.99116 174
72.01127 200
72.03139 198
72.0515 185
72.07162 215
72.09173 182
72.11184 194
72.13196 175
72.15207 191
72.17218 176
72.1923 188
72.21241 183
72.23253 205
72.25264 192
72.27275 208
72.29287 191
72.31298 189
72.33309 172
72.35321 186
72.37332 216
72.39344 213
72.41355 207
72.43366 192
72.45378 184
72.47389 174
72.494 185
72.51412 166
72.53423 175
72.55434 181
72.57446 171
72.59457 190
72.61469 192
72.6348 189
72.65491 173
72.67503 171
72.69514 182
72.71525 182
72.73537 171
72.75548 192
72.7756 192
72.79571 185
72.81582 202
72.83594 174
72.85605 192
72.87616 209
72.89628 192
72.91639 211
72.9365 193
72.95662 205
72.97673 174
72.99685 204
73.01696 232
73.03707 208
73.05719 220
73.0773 216
73.09741 242
73.11753 240
73.13764 222
73.15776 289
73.17787 263
73.19798 250
73.2181 278
73.23821 344
73.25832 336
73.27844 392
73.29855 402
73.31867 481
73.33878 504
73.35889 495
73.37901 589
73.39912 611
73.41923 524
73.43935 506
73.45946 445
73.47957 398
73.49969 377
73.5198 354
73.53992 373
73.56003 399
73.58014 408
73.60026 402
73.62037 416
73.64048 360
73.6606 331
73.68071 277
73.70083 279
73.72094 294
73.74105 253
73.76117 238
73.78128 230
73.80139 215
73.82151 183
73.84162 214
73.86174 215
73.88185 190
73.90196 203
73.92208 207
73.94219 201
73.9623 188
73.98242 205
74.00253 177
74.02264 191
74.04276 208
74.06287 229
74.08299 204
74.1031 187
74.12321 175
74.14333 196
74.16344 178
74.18355 172
74.20367 204
74.22378 180
74.2439 197
74.26401 191
74.28412 214
74.30424 173
74.32435 201
74.34446 171
74.36458 192
74.38469 190
74.40481 170
74.42492 204
74.44503 186
74.46515 172
74.48526 175
74.50537 197
74.52549 189
74.5456 196
74.56571 202
74.58583 193
74.60594 175
74.62606 176
74.64617 184
74.66628 179
74.6864 188
74.70651 201
74.72662 200
74.74674 190
74.76685 183
74.78697 222
74.80708 174
74.82719 173
74.84731 195
74.86742 207
74.88753 205
74.90765 191
74.92776 216
74.94787 213
74.96799 213
74.9881 214
75.00822 212
