3.00117 21672
3.02128 20800
3.0414 20736
3.06151 19787
3.08162 19368
3.10174 18636
3.12185 18399
3.14197 18107
3.16208 17170
3.18219 16899
3.20231 16122
3.22242 15783
3.24253 15864
3.26265 15214
3.28276 14536
3.30288 14210
3.32299 13802
3.3431 13537
3.36322 12676
3.38333 12498
3.40344 12084
3.42356 11711
3.44367 11705
3.46379 11039
3.4839 10784
3.50401 10212
3.52413 9858
3.54424 9621
3.56435 9357
3.58447 9137
3.60458 8734
3.62469 8405
3.64481 8077
3.66492 7683
3.68504 7563
3.70515 7354
3.72526 6825
3.74538 6824
3.76549 6341
3.7856 6289
3.80572 6061
3.82583 5699
3.84595 5626
3.86606 5088
3.88617 5083
3.90629 4942
3.9264 4629
3.94651 4699
3.96663 4223
3.98674 4117
4.00686 4062
4.02697 3819
4.04708 3873
4.0672 3425
4.08731 3353
4.10742 3365
4.12754 3223
4.14765 3114
4.16776 2893
4.18788 2781
4.20799 2737
4.22811 2623
4.24822 2622
4.26833 2445
4.28845 2330
4.30856 2274
4.32867 2293
4.34879 2296
4.3689 2031
4.38902 2132
4.40913 2060
4.42924 1980
4.44936 1965
4.46947 1901
4.48958 1919
4.5097 1918
4.52981 1777
4.54992 1792
4.57004 1720
4.59015 1719
4.61027 1711
4.63038 1737
4.65049 1704
4.67061 1518
4.69072 1437
4.71083 1558
4.73095 1505
4.75106 1444
4.77118 1383
4.79129 1419
4.8114 1381
4.83152 1417
4.85163 1294
4.87174 1242
4.89186 1330
4.91197 1248
4.93209 1318
4.9522 1228
4.97231 1180
4.99243 1184
5.01254 1223
5.03265 1242
5.05277 1133
5.07288 1165
5.09299 1099
5.11311 1084
5.13322 1075
5.15334 1022
5.17345 1018
5.19356 1015
5.21368 1044
5.23379 984
5.2539 976
5.27402 975
5.29413 893
5.31425 972
5.33436 953
5.35447 952
5.37459 937
5.3947 914
5.41481 811
5.43493 921
5.45504 839
5.47516 807
5.49527 789
5.51538 878
5.5355 791
5.55561 809
5.57572 796
5.59584 756
5.61595 745
5.63606 782
5.65618 731
5.67629 733
5.69641 765
5.71652 702
5.73663 744
5.75675 709
5.77686 692
5.79697 733
5.81709 729
5.8372 754
5.85732 694
5.87743 713
5.89754 695
5.91766 670
5.93777 704
5.95788 652
5.978 630
5.99811 664
6.01823 630
6.03834 629
6.05845 654
6.07857 609
6.09868 630
6.11879 640
6.13891 634
6.15902 606
6.17913 586
6.19925 614
6.21936 633
6.23948 624
6.25959 543
6.2797 608
6.29982 582
6.31993 554
6.34004 582
6.36016 592
6.38027 589
6.40039 576
6.4205 572
6.44061 539
6.46073 558
6.48084 559
6.50095 568
6.52107 571
6.54118 570
6.56129 532
6.58141 541
6.60152 489
6.62164 573
6.64175 474
6.66186 534
6.68198 507
6.70209 529
6.7222 536
6.74232 476
6.76243 472
6.78255 514
6.80266 518
6.82277 508
6.84289 564
6.863 512
6.88311 559
6.90323 528
6.92334 477
6.94346 482
6.96357 444
6.98368 474
7.0038 460
7.02391 475
7.04402 505
7.06414 422
7.08425 486
7.10436 439
7.12448 467
7.14459 498
7.16471 496
7.18482 491
7.20493 459
7.22505 492
7.24516 494
7.26527 456
7.28539 476
7.3055 501
7.32562 459
7.34573 452
7.36584 450
7.38596 527
7.40607 456
7.42618 486
7.4463 472
7.46641 418
7.48653 452
7.50664 421
7.52675 427
7.54687 480
7.56698 449
7.58709 426
7.60721 430
7.62732 448
7.64743 454
7.66755 406
7.68766 454
7.70778 461
7.72789 443
7.748 408
7.76812 434
7.78823 411
7.80834 451
7.82846 445
7.84857 454
7.86869 458
7.8888 424
7.90891 419
7.92903 415
7.94914 436
7.96925 404
7.98937 455
8.00948 445
8.0296 468
8.04971 460
8.06982 426
8.08994 445
8.11005 411
8.13016 421
8.15028 439
8.17039 483
8.1905 457
8.21062 426
8.23073 376
8.25085 440
8.27096 423
8.29107 437
8.31119 400
8.3313 424
8.35141 463
8.37153 443
8.39164 409
8.41176 419
8.43187 441
8.45198 442
8.4721 424
8.49221 424
8.51232 435
8.53244 395
8.55255 400
8.57266 437
8.59278 432
8.61289 422
8.63301 407
8.65312 429
8.67323 408
8.69335 395
8.71346 404
8.73357 417
8.75369 451
8.7738 384
8.79392 429
8.81403 408
8.83414 397
8.85426 406
8.87437 435
8.89448 374
8.9146 397
8.93471 390
8.95483 396
8.97494 407
8.99505 366
9.01517 416
9.03528 354
9.05539 364
9.07551 343
9.09562 376
9.11573 333
9.13585 360
9.15596 322
9.17608 388
9.19619 367
9.2163 317
9.23642 360
9.25653 376
9.27664 344
9.29676 334
9.31687 336
9.33699 318
9.3571 324
9.37721 349
9.39733 375
9.41744 333
9.43755 373
9.45767 337
9.47778 331
9.4979 328
9.51801 305
9.53812 345
9.55824 327
9.57835 312
9.59846 341
9.61858 303
9.63869 331
9.6588 294
9.67892 325
9.69903 318
9.71915 298
9.73926 344
9.75937 315
9.77949 323
9.7996 356
9.81971 315
9.83983 288
9.85994 307
9.88006 339
9.90017 322
9.92028 282
9.9404 318
9.96051 323
9.98062 281
10.00074 288
10.02085 297
10.04097 330
10.06108 287
10.08119 311
10.10131 264
10.12142 289
10.14153 313
10.16165 289
10.18176 267
10.20187 247
10.22199 252
10.2421 272
10.26222 281
10.28233 319
10.30244 272
10.32256 290
10.34267 257
10.36278 280
10.3829 313
10.40301 247
10.42313 273
10.44324 266
10.46335 275
10.48347 265
10.50358 297
10.52369 295
10.54381 264
10.56392 279
10.58403 286
10.60415 280
10.62426 293
10.64438 256
10.66449 277
10.6846 272
10.70472 270
10.72483 253
10.74494 252
10.76506 266
10.78517 270
10.80529 295
10.8254 260
10.84551 279
10.86563 317
10.88574 297
10.90585 275
10.92597 244
10.94608 260
10.9662 271
10.98631 253
11.00642 257
11.02654 297
11.04665 264
11.06676 268
11.08688 291
11.10699 288
11.1271 251
11.14722 238
11.16733 259
11.18745 259
11.20756 272
11.22767 286
11.24779 273
11.2679 265
11.28801 294
11.30813 283
11.32824 250
11.34836 249
11.36847 258
11.38858 271
11.4087 272
11.42881 296
11.44892 262
11.46904 284
11.48915 272
11.50927 284
11.52938 262
11.54949 270
11.56961 262
11.58972 310
11.60983 314
11.62995 272
11.65006 287
11.67017 262
11.69029 271
11.7104 259
11.73052 288
11.75063 237
11.77074 294
11.79086 282
11.81097 290
11.83108 286
11.8512 249
11.87131 286
11.89143 249
11.91154 258
11.93165 265
11.95177 281
11.97188 241
11.99199 243
12.01211 282
12.03222 274
12.05234 300
12.07245 262
12.09256 279
12.11268 298
12.13279 256
12.1529 273
12.17302 257
12.19313 271
12.21324 267
12.23336 243
12.25347 260
12.27359 276
12.2937 262
12.31381 277
12.33393 296
12.35404 276
12.37415 282
12.39427 275
12.41438 247
12.4345 293
12.45461 259
12.47472 263
12.49484 275
12.51495 270
12.53506 270
12.55518 268
12.57529 253
12.5954 284
12.61552 265
12.63563 264
12.65575 293
12.67586 273
12.69597 277
12.71609 265
12.7362 280
12.75631 256
12.77643 276
12.79654 255
12.81666 254
12.83677 254
12.85688 249
12.877 264
12.89711 245
12.91722 238
12.93734 286
12.95745 267
12.97757 269
12.99768 234
13.01779 271
13.03791 249
13.05802 265
13.07813 252
13.09825 249
13.11836 258
13.13847 237
13.15859 260
13.1787 273
13.19882 293
13.21893 293
13.23904 295
13.25916 275
13.27927 256
13.29938 248
13.3195 226
13.33961 273
13.35973 253
13.37984 297
13.39995 217
13.42007 274
13.44018 277
13.46029 255
13.48041 223
13.50052 257
13.52064 275
13.54075 265
13.56086 289
13.58098 259
13.60109 257
13.6212 253
13.64132 268
13.66143 305
13.68154 313
13.70166 252
13.72177 277
13.74189 254
13.762 289
13.78211 284
13.80223 315
13.82234 309
13.84245 318
13.86257 293
13.88268 253
13.9028 278
13.92291 301
13.94302 308
13.96314 255
13.98325 273
14.00336 258
14.02348 250
14.04359 258
14.06371 271
14.08382 278
14.10393 248
14.12405 232
14.14416 239
14.16427 250
14.18439 233
14.2045 234
14.22461 279
14.24473 281
14.26484 234
14.28496 263
14.30507 232
14.32518 257
14.3453 238
14.36541 240
14.38552 236
14.40564 234
14.42575 238
14.44587 218
14.46598 246
14.48609 269
14.50621 250
14.52632 255
14.54643 242
14.56655 284
14.58666 238
14.60677 224
14.62689 274
14.647 204
14.66712 244
14.68723 263
14.70734 250
14.72746 222
14.74757 230
14.76768 233
14.7878 277
14.80791 237
14.82803 227
14.84814 274
14.86825 239
14.88837 245
14.90848 230
14.92859 277
14.94871 268
14.96882 252
14.98894 261
15.00905 243
15.02916 233
15.04928 272
15.06939 289
15.0895 305
15.10962 269
15.12973 278
15.14984 266
15.16996 234
15.19007 266
15.21019 242
15.2303 243
15.25041 262
15.27053 237
15.29064 253
15.31075 274
15.33087 244
15.35098 246
15.3711 230
15.39121 246
15.41132 246
15.43144 233
15.45155 282
15.47166 222
15.49178 280
15.51189 259
15.53201 219
15.55212 253
15.57223 257
15.59235 227
15.61246 248
15.63257 254
15.65269 250
15.6728 257
15.69291 232
15.71303 259
15.73314 252
15.75326 277
15.77337 241
15.79348 242
15.8136 245
15.83371 263
15.85382 216
15.87394 227
15.89405 247
15.91417 239
15.93428 237
15.95439 238
15.97451 270
15.99462 257
16.01473 266
16.03485 219
16.05496 234
16.07508 255
16.09519 244
16.1153 257
16.13542 231
16.15553 272
16.17564 241
16.19576 221
16.21587 243
16.23598 283
16.2561 251
16.27621 245
16.29633 294
16.31644 230
16.33655 245
16.35667 235
16.37678 284
16.39689 272
16.41701 213
16.43712 240
16.45724 261
16.47735 257
16.49746 243
16.51758 251
16.53769 226
16.5578 232
16.57792 220
16.59803 218
16.61814 245
16.63826 239
16.65837 281
16.67849 252
16.6986 229
16.71871 242
16.73883 227
16.75894 260
16.77905 243
16.79917 252
16.81928 265
16.8394 239
16.85951 293
16.87962 250
16.89974 246
16.91985 254
16.93996 272
16.96008 261
16.98019 245
17.00031 284
17.02042 245
17.04053 289
17.06065 267
17.08076 256
17.10087 248
17.12099 256
17.1411 263
17.16121 247
17.18133 235
17.20144 250
17.22156 246
17.24167 314
17.26178 238
17.2819 244
17.30201 262
17.32212 243
17.34224 228
17.36235 249
17.38247 252
17.40258 240
17.42269 261
17.44281 275
17.46292 237
17.48303 259
17.50315 281
17.52326 280
17.54338 269
17.56349 263
17.5836 307
17.60372 265
17.62383 264
17.64394 275
17.66406 278
17.68417 290
17.70428 275
17.7244 278
17.74451 264
17.76463 267
17.78474 261
17.80485 255
17.82497 256
17.84508 230
17.86519 286
17.88531 245
17.90542 253
17.92554 245
17.94565 246
17.96576 259
17.98588 250
18.00599 270
18.0261 284
18.04622 242
18.06633 273
18.08645 248
18.10656 289
18.12667 273
18.14679 248
18.1669 258
18.18701 251
18.20713 267
18.22724 251
18.24735 257
18.26747 277
18.28758 255
18.3077 268
18.32781 249
18.34792 261
18.36804 244
18.38815 253
18.40826 267
18.42838 269
18.44849 253
18.46861 278
18.48872 253
18.50883 253
18.52895 245
18.54906 266
18.56917 263
18.58929 265
18.6094 275
18.62951 261
18.64963 285
18.66974 252
18.68986 276
18.70997 273
18.73008 282
18.7502 274
18.77031 256
18.79042 241
18.81054 260
18.83065 255
18.85077 283
18.87088 259
18.89099 251
18.91111 262
18.93122 274
18.95133 273
18.97145 271
18.99156 287
19.01168 276
19.03179 263
19.0519 292
19.07202 272
19.09213 272
19.11224 268
19.13236 279
19.15247 248
19.17258 264
19.1927 275
19.21281 275
19.23293 328
19.25304 284
19.27315 336
19.29327 322
19.31338 327
19.33349 297
19.35361 329
19.37372 367
19.39384 339
19.41395 369
19.43406 393
19.45418 387
19.47429 378
19.4944 458
19.51452 427
19.53463 492
19.55475 475
19.57486 482
19.59497 507
19.61509 588
19.6352 591
19.65531 608
19.67543 600
19.69554 621
19.71565 612
19.73577 697
19.75588 659
19.776 698
19.79611 673
19.81622 611
19.83634 663
19.85645 678
19.87656 717
19.89668 712
19.91679 698
19.93691 623
19.95702 619
19.97713 605
19.99725 584
20.01736 601
20.03747 575
20.05759 522
20.0777 597
20.09782 515
20.11793 575
20.13804 528
20.15816 529
20.17827 543
20.19838 505
20.2185 544
20.23861 508
20.25872 580
20.27884 458
20.29895 479
20.31907 485
20.33918 496
20.35929 466
20.37941 523
20.39952 487
20.41963 516
20.43975 501
20.45986 472
20.47998 505
20.50009 505
20.5202 521
20.54032 503
20.56043 512
20.58054 531
20.60066 549
20.62077 603
20.64088 683
20.661 743
20.68111 784
20.70123 995
20.72134 1362
20.74145 1757
20.76157 2338
20.78168 2981
20.80179 3847
20.82191 4564
20.84202 4742
20.86214 4653
20.88225 4116
20.90236 3173
20.92248 2273
20.94259 1624
20.9627 1087
20.98282 838
21.00293 678
21.02305 685
21.04316 655
21.06327 573
21.08339 520
21.1035 516
21.12361 477
21.14373 448
21.16384 424
21.18395 416
21.20407 395
21.22418 407
21.2443 375
21.26441 360
21.28452 355
21.30464 370
21.32475 418
21.34486 368
21.36498 391
21.38509 347
21.40521 371
21.42532 408
21.44543 387
21.46555 364
21.48566 378
21.50577 344
21.52589 363
21.546 354
21.56612 371
21.58623 337
21.60634 339
21.62646 363
21.64657 395
21.66668 341
21.6868 362
21.70691 362
21.72702 339
21.74714 378
21.76725 368
21.78737 399
21.80748 371
21.82759 411
21.84771 396
21.86782 446
21.88793 417
21.90805 488
21.92816 530
21.94828 598
21.96839 581
21.9885 603
22.00862 559
22.02873 533
22.04884 517
22.06896 421
22.08907 458
22.10919 358
22.1293 405
22.14941 397
22.16953 355
22.18964 376
22.20975 367
22.22987 357
22.24998 329
22.27009 376
22.29021 348
22.31032 359
22.33044 333
22.35055 344
22.37066 320
22.39078 330
22.41089 347
22.431 369
22.45112 340
22.47123 405
22.49135 415
22.51146 373
22.53157 371
22.55169 370
22.5718 384
22.59191 338
22.61203 371
22.63214 362
22.65225 336
22.67237 343
22.69248 323
22.7126 328
22.73271 345
22.75282 356
22.77294 337
22.79305 334
22.81316 366
22.83328 394
22.85339 344
22.87351 383
22.89362 391
22.91373 394
22.93385 394
22.95396 405
22.97407 369
22.99419 385
23.0143 385
23.03442 363
23.05453 372
23.07464 383
23.09476 324
23.11487 357
23.13498 381
23.1551 363
23.17521 313
23.19532 363
23.21544 342
23.23555 394
23.25567 340
23.27578 390
23.29589 382
23.31601 324
23.33612 375
23.35623 344
23.37635 346
23.39646 380
23.41658 374
23.43669 388
23.4568 468
23.47692 393
23.49703 419
23.51714 485
23.53726 549
23.55737 563
23.57749 540
23.5976 514
23.61771 543
23.63783 480
23.65794 496
23.67805 398
23.69817 432
23.71828 409
23.73839 376
23.75851 421
23.77862 433
23.79874 483
23.81885 486
23.83896 450
23.85908 457
23.87919 448
23.8993 433
23.91942 463
23.93953 452
23.95965 472
23.97976 436
23.99987 419
24.01999 414
24.0401 388
24.06021 406
24.08033 401
24.10044 384
24.12056 354
24.14067 367
24.16078 388
24.1809 409
24.20101 394
24.22112 436
24.24124 395
24.26135 452
24.28146 470
24.30158 440
24.32169 433
24.34181 401
24.36192 397
24.38203 394
24.40215 417
24.42226 412
24.44237 368
24.46249 366
24.4826 387
24.50272 345
24.52283 333
24.54294 348
24.56306 346
24.58317 331
24.60328 334
24.6234 381
24.64351 348
24.66362 316
24.68374 329
24.70385 328
24.72397 328
24.74408 370
24.76419 340
24.78431 369
24.80442 329
24.82453 340
24.84465 330
24.86476 346
24.88488 321
24.90499 375
24.9251 353
24.94522 340
24.96533 315
24.98544 343
25.00556 328
25.02567 364
25.04579 322
25.0659 387
25.08601 414
25.10613 364
25.12624 399
25.14635 384
25.16647 369
25.18658 389
25.20669 395
25.22681 392
25.24692 324
25.26704 381
25.28715 379
25.30726 395
25.32738 390
25.34749 354
25.3676 360
25.38772 375
25.40783 414
25.42795 384
25.44806 400
25.46817 415
25.48829 409
25.5084 449
25.52851 473
25.54863 466
25.56874 484
25.58886 441
25.60897 434
25.62908 516
25.6492 499
25.66931 492
25.68942 497
25.70954 546
25.72965 477
25.74976 473
25.76988 478
25.78999 463
25.81011 490
25.83022 486
25.85033 459
25.87045 470
25.89056 531
25.91067 478
25.93079 459
25.9509 507
25.97102 492
25.99113 514
26.01124 498
26.03136 535
26.05147 512
26.07158 540
26.0917 563
26.11181 548
26.13193 578
26.15204 624
26.17215 664
26.19227 694
26.21238 737
26.23249 760
26.25261 865
26.27272 863
26.29283 916
26.31295 975
26.33306 990
26.35318 1197
26.37329 1326
26.3934 1525
26.41352 1838
26.43363 2271
26.45374 2891
26.47386 3796
26.49397 5143
26.51409 7103
26.5342 9411
26.55431 12749
26.57443 16104
26.59454 18818
26.61465 20764
26.63477 20172
26.65488 17932
26.67499 14605
26.69511 10969
26.71522 7922
26.73534 5413
26.75545 3427
26.77556 2096
26.79568 1627
26.81579 1396
26.8359 1216
26.85602 1132
26.87613 1081
26.89625 1038
26.91636 992
26.93647 944
26.95659 931
26.9767 905
26.99681 799
27.01693 797
27.03704 731
27.05716 750
27.07727 702
27.09738 695
27.1175 641
27.13761 627
27.15772 624
27.17784 584
27.19795 572
27.21806 540
27.23818 554
27.25829 523
27.27841 505
27.29852 556
27.31863 543
27.33875 600
27.35886 588
27.37897 646
27.39909 628
27.4192 681
27.43932 728
27.45943 763
27.47954 803
27.49966 755
27.51977 806
27.53988 760
27.56 694
27.58011 690
27.60023 620
27.62034 663
27.64045 644
27.66057 682
27.68068 706
27.70079 798
27.72091 782
27.74102 871
27.76113 891
27.78125 918
27.80136 929
27.82148 816
27.84159 824
27.8617 867
27.88182 788
27.90193 837
27.92204 803
27.94216 802
27.96227 841
27.98239 1112
28.0025 1354
28.02261 1255
28.04273 835
28.06284 900
28.08295 959
28.10307 676
28.12318 525
28.1433 505
28.16341 476
28.18352 454
28.20364 451
28.22375 497
28.24386 460
28.26398 493
28.28409 465
28.3042 454
28.32432 478
28.34443 475
28.36455 475
28.38466 430
28.40477 409
28.42489 428
28.445 418
28.46511 410
28.48523 400
28.50534 374
28.52546 383
28.54557 388
28.56568 375
28.5858 384
28.60591 381
28.62602 391
28.64614 370
28.66625 404
28.68636 372
28.70648 385
28.72659 381
28.74671 342
28.76682 361
28.78693 349
28.80705 334
28.82716 392
28.84727 363
28.86739 355
28.8875 390
28.90762 352
28.92773 363
28.94784 369
28.96796 345
28.98807 350
29.00818 341
29.0283 344
29.04841 333
29.06853 328
29.08864 326
29.10875 391
29.12887 348
29.14898 353
29.16909 364
29.18921 319
29.20932 322
29.22943 380
29.24955 386
29.26966 354
29.28978 370
29.30989 338
29.33 352
29.35012 356
29.37023 377
29.39034 346
29.41046 362
29.43057 378
29.45069 367
29.4708 358
29.49091 359
29.51103 361
29.53114 346
29.55125 379
29.57137 377
29.59148 395
29.6116 349
29.63171 373
29.65182 409
29.67194 399
29.69205 376
29.71216 452
29.73228 418
29.75239 400
29.7725 422
29.79262 453
29.81273 433
29.83285 465
29.85296 412
29.87307 447
29.89319 424
29.9133 388
29.93341 388
29.95353 358
29.97364 378
29.99376 357
30.01387 354
30.03398 368
30.0541 363
30.07421 346
30.09432 355
30.11444 382
30.13455 367
30.15467 362
30.17478 379
30.19489 390
30.21501 375
30.23512 348
30.25523 397
30.27535 379
30.29546 407
30.31557 405
30.33569 426
30.3558 409
30.37592 457
30.39603 434
30.41614 403
30.43626 438
30.45637 453
30.47648 387
30.4966 418
30.51671 373
30.53683 372
30.55694 384
30.57705 349
30.59717 357
30.61728 364
30.63739 379
30.65751 354
30.67762 339
30.69773 392
30.71785 392
30.73796 406
30.75808 396
30.77819 403
30.7983 444
30.81842 414
30.83853 358
30.85864 428
30.87876 353
30.89887 353
30.91899 347
30.9391 392
30.95921 335
30.97933 324
30.99944 320
31.01955 308
31.03967 288
31.05978 322
31.0799 297
31.10001 312
31.12012 324
31.14024 318
31.16035 284
31.18046 302
31.20058 294
31.22069 320
31.2408 295
31.26092 344
31.28103 294
31.30115 333
31.32126 336
31.34137 340
31.36149 330
31.3816 342
31.40171 341
31.42183 339
31.44194 318
31.46206 332
31.48217 288
31.50228 285
31.5224 333
31.54251 303
31.56262 304
31.58274 282
31.60285 281
31.62297 317
31.64308 296
31.66319 306
31.68331 307
31.70342 322
31.72353 272
31.74365 296
31.76376 285
31.78387 265
31.80399 262
31.8241 304
31.84422 316
31.86433 308
31.88444 317
31.90456 270
31.92467 290
31.94478 287
31.9649 265
31.98501 306
32.00513 293
32.02524 277
32.04535 272
32.06547 295
32.08558 304
32.10569 276
32.12581 302
32.14592 309
32.16604 300
32.18615 277
32.20626 320
32.22638 278
32.24649 287
32.2666 276
32.28672 293
32.30683 314
32.32694 277
32.34706 291
32.36717 296
32.38729 332
32.4074 305
32.42751 298
32.44763 312
32.46774 297
32.48785 296
32.50797 311
32.52808 296
32.5482 311
32.56831 319
32.58842 297
32.60854 303
32.62865 288
32.64876 281
32.66888 263
32.68899 290
32.7091 292
32.72922 304
32.74933 266
32.76945 297
32.78956 292
32.80967 259
32.82979 298
32.8499 293
32.87001 275
32.89013 289
32.91024 242
32.93036 286
32.95047 243
32.97058 305
32.9907 263
33.01081 298
33.03092 288
33.05104 271
33.07115 291
33.09127 304
33.11138 310
33.13149 259
33.15161 283
33.17172 294
33.19183 234
33.21195 270
33.23206 284
33.25217 254
33.27229 225
33.2924 279
33.31252 258
33.33263 258
33.35274 276
33.37286 252
33.39297 261
33.41308 278
33.4332 242
33.45331 277
33.47343 248
33.49354 266
33.51365 287
33.53377 272
33.55388 246
33.57399 272
33.59411 289
33.61422 282
33.63434 288
33.65445 254
33.67456 282
33.69468 289
33.71479 266
33.7349 296
33.75502 288
33.77513 304
33.79524 278
33.81536 313
33.83547 281
33.85559 260
33.8757 303
33.89581 303
33.91593 256
33.93604 287
33.95615 299
33.97627 272
33.99638 325
34.0165 289
34.03661 288
34.05672 272
34.07684 331
34.09695 288
34.11706 290
34.13718 301
34.15729 336
34.17741 324
34.19752 369
34.21763 317
34.23775 381
34.25786 321
34.27797 379
34.29809 356
34.3182 425
34.33831 376
34.35843 434
34.37854 408
34.39866 441
34.41877 454
34.43888 445
34.459 505
34.47911 477
34.49922 527
34.51934 569
34.53945 520
34.55957 506
34.57968 544
34.59979 519
34.61991 617
34.64002 566
34.66013 515
34.68025 513
34.70036 505
34.72047 550
34.74059 478
34.7607 542
34.78082 528
34.80093 475
34.82104 480
34.84116 514
34.86127 481
34.88138 502
34.9015 485
34.92161 486
34.94173 488
34.96184 519
34.98195 475
35.00207 434
35.02218 448
35.04229 473
35.06241 491
35.08252 465
35.10264 468
35.12275 449
35.14286 481
35.16298 469
35.18309 450
35.2032 456
35.22332 459
35.24343 438
35.26354 477
35.28366 458
35.30377 485
35.32389 504
35.344 459
35.36411 446
35.38423 479
35.40434 416
35.42445 436
35.44457 431
35.46468 440
35.4848 400
35.50491 407
35.52502 420
35.54514 410
35.56525 381
35.58536 366
35.60548 342
35.62559 403
35.64571 393
35.66582 429
35.68593 353
35.70605 389
35.72616 369
35.74627 382
35.76639 328
35.7865 389
35.80661 381
35.82673 354
35.84684 348
35.86696 316
35.88707 334
35.90718 369
35.9273 348
35.94741 347
35.96752 368
35.98764 366
36.00775 378
36.02787 374
36.04798 370
36.06809 357
36.08821 384
36.10832 354
36.12843 383
36.14855 374
36.16866 399
36.18878 405
36.20889 446
36.229 428
36.24912 446
36.26923 427
36.28934 425
36.30946 489
36.32957 533
36.34968 535
36.3698 651
36.38991 756
36.41003 883
36.43014 1033
36.45025 1194
36.47037 1400
36.49048 1587
36.51059 1706
36.53071 1660
36.55082 1457
36.57094 1290
36.59105 1095
36.61116 1022
36.63128 965
36.65139 722
36.6715 586
36.69162 471
36.71173 430
36.73184 404
36.75196 434
36.77207 399
36.79219 388
36.8123 412
36.83241 374
36.85253 375
36.87264 375
36.89275 364
36.91287 349
36.93298 376
36.9531 333
36.97321 332
36.99332 377
37.01344 363
37.03355 379
37.05366 346
37.07378 396
37.09389 370
37.11401 360
37.13412 342
37.15423 359
37.17435 370
37.19446 360
37.21457 342
37.23469 345
37.2548 325
37.27491 374
37.29503 335
37.31514 351
37.33526 375
37.35537 351
37.37548 337
37.3956 341
37.41571 349
37.43582 332
37.45594 341
37.47605 348
37.49617 325
37.51628 325
37.53639 356
37.55651 322
37.57662 359
37.59673 325
37.61685 301
37.63696 328
37.65708 332
37.67719 315
37.6973 361
37.71742 372
37.73753 303
37.75764 316
37.77776 314
37.79787 331
37.81798 335
37.8381 334
37.85821 327
37.87833 312
37.89844 348
37.91855 299
37.93867 319
37.95878 322
37.97889 298
37.99901 295
38.01912 291
38.03924 304
38.05935 298
38.07946 331
38.09958 290
38.11969 291
38.1398 298
38.15992 263
38.18003 333
38.20015 292
38.22026 278
38.24037 291
38.26049 305
38.2806 293
38.30071 295
38.32083 289
38.34094 326
38.36105 279
38.38117 283
38.40128 284
38.4214 291
38.44151 303
38.46162 289
38.48174 265
38.50185 287
38.52196 304
38.54208 304
38.56219 273
38.58231 283
38.60242 273
38.62253 277
38.64265 298
38.66276 287
38.68287 295
38.70299 300
38.7231 303
38.74321 290
38.76333 258
38.78344 253
38.80356 294
38.82367 309
38.84378 279
38.8639 288
38.88401 296
38.90412 298
38.92424 305
38.94435 296
38.96447 294
38.98458 292
39.00469 272
39.02481 287
39.04492 337
39.06503 322
39.08515 322
39.10526 321
39.12538 349
39.14549 338
39.1656 356
39.18572 350
39.20583 342
39.22594 393
39.24606 430
39.26617 472
39.28628 538
39.3064 607
39.32651 764
39.34663 907
39.36674 1019
39.38685 1178
39.40697 1357
39.42708 1547
39.44719 1537
39.46731 1429
39.48742 1228
39.50754 1059
39.52765 924
39.54776 809
39.56788 824
39.58799 622
39.6081 476
39.62822 404
39.64833 387
39.66845 305
39.68856 321
39.70867 319
39.72879 344
39.7489 313
39.76901 295
39.78913 323
39.80924 290
39.82935 306
39.84947 316
39.86958 322
39.8897 325
39.90981 327
39.92992 297
39.95004 341
39.97015 358
39.99026 340
40.01038 317
40.03049 325
40.05061 357
40.07072 361
40.09083 405
40.11095 415
40.13106 478
40.15117 514
40.17129 590
40.1914 685
40.21152 728
40.23163 796
40.25174 816
40.27186 786
40.29197 822
40.31208 708
40.3322 667
40.35231 563
40.37242 516
40.39254 533
40.41265 450
40.43277 366
40.45288 335
40.47299 316
40.49311 300
40.51322 305
40.53333 327
40.55345 288
40.57356 305
40.59368 305
40.61379 282
40.6339 298
40.65402 269
40.67413 267
40.69424 265
40.71436 307
40.73447 294
40.75458 280
40.7747 302
40.79481 337
40.81493 266
40.83504 274
40.85515 288
40.87527 307
40.89538 281
40.91549 303
40.93561 300
40.95572 277
40.97584 283
40.99595 288
41.01606 268
41.03618 286
41.05629 242
41.0764 321
41.09652 314
41.11663 273
41.13675 274
41.15686 296
41.17697 302
41.19709 270
41.2172 306
41.23731 272
41.25743 277
41.27754 282
41.29765 249
41.31777 260
41.33788 287
41.358 270
41.37811 275
41.39822 296
41.41834 248
41.43845 285
41.45856 288
41.47868 302
41.49879 290
41.51891 279
41.53902 292
41.55913 295
41.57925 280
41.59936 311
41.61947 334
41.63959 333
41.6597 329
41.67982 318
41.69993 314
41.72004 287
41.74016 327
41.76027 336
41.78038 332
41.8005 351
41.82061 338
41.84072 291
41.86084 340
41.88095 285
41.90107 290
41.92118 316
41.94129 282
41.96141 281
41.98152 290
42.00163 321
42.02175 295
42.04186 290
42.06198 278
42.08209 293
42.1022 304
42.12232 322
42.14243 321
42.16254 336
42.18266 315
42.20277 337
42.22289 415
42.243 433
42.26311 491
42.28323 509
42.30334 613
42.32345 674
42.34357 799
42.36368 934
42.38379 1019
42.40391 1110
42.42402 1181
42.44414 1050
42.46425 963
42.48436 819
42.50448 760
42.52459 740
42.5447 637
42.56482 548
42.58493 475
42.60505 395
42.62516 401
42.64527 333
42.66539 340
42.6855 345
42.70561 314
42.72573 329
42.74584 315
42.76595 348
42.78607 306
42.80618 312
42.8263 342
42.84641 329
42.86652 313
42.88664 278
42.90675 296
42.92686 301
42.94698 253
42.96709 314
42.98721 294
43.00732 304
43.02743 279
43.04755 286
43.06766 250
43.08777 256
43.10789 273
43.128 296
43.14812 258
43.16823 290
43.18834 288
43.20846 253
43.22857 291
43.24868 262
43.2688 249
43.28891 247
43.30902 269
43.32914 244
43.34925 258
43.36937 269
43.38948 236
43.40959 257
43.42971 248
43.44982 267
43.46993 222
43.49005 254
43.51016 257
43.53028 275
43.55039 260
43.5705 245
43.59062 291
43.61073 259
43.63084 262
43.65096 260
43.67107 272
43.69119 255
43.7113 248
43.73141 271
43.75153 232
43.77164 250
43.79175 280
43.81187 255
43.83198 246
43.85209 258
43.87221 245
43.89232 232
43.91244 258
43.93255 223
43.95266 225
43.97278 233
43.99289 270
44.013 265
44.03312 279
44.05323 238
44.07335 248
44.09346 269
44.11357 257
44.13369 230
44.1538 243
44.17391 238
44.19403 270
44.21414 248
44.23426 254
44.25437 272
44.27448 260
44.2946 239
44.31471 249
44.33482 265
44.35494 227
44.37505 260
44.39516 261
44.41528 259
44.43539 243
44.45551 239
44.47562 237
44.49573 233
44.51585 252
44.53596 233
44.55607 213
44.57619 249
44.5963 247
44.61642 256
44.63653 253
44.65664 253
44.67676 240
44.69687 235
44.71698 265
44.7371 272
44.75721 261
44.77732 282
44.79744 292
44.81755 249
44.83767 264
44.85778 259
44.87789 259
44.89801 276
44.91812 263
44.93823 237
44.95835 252
44.97846 241
44.99858 263
45.01869 281
45.0388 263
45.05892 249
45.07903 266
45.09914 279
45.11926 253
45.13937 289
45.15949 257
45.1796 247
45.19971 262
45.21983 273
45.23994 253
45.26005 279
45.28017 241
45.30028 249
45.32039 262
45.34051 242
45.36062 268
45.38074 258
45.40085 262
45.42096 265
45.44108 264
45.46119 267
45.4813 284
45.50142 288
45.52153 285
45.54165 317
45.56176 356
45.58187 352
45.60199 409
45.6221 411
45.64221 461
45.66233 538
45.68244 606
45.70256 657
45.72267 766
45.74278 758
45.7629 820
45.78301 724
45.80312 751
45.82324 636
45.84335 649
45.86346 614
45.88358 525
45.90369 489
45.92381 400
45.94392 399
45.96403 327
45.98415 293
46.00426 259
46.02437 265
46.04449 239
46.0646 267
46.08472 265
46.10483 248
46.12494 264
46.14506 239
46.16517 253
46.18528 254
46.2054 242
46.22551 245
46.24563 257
46.26574 230
46.28585 258
46.30597 234
46.32608 215
46.34619 226
46.36631 238
46.38642 215
46.40653 238
46.42665 228
46.44676 221
46.46688 216
46.48699 245
46.5071 225
46.52722 269
46.54733 231
46.56744 247
46.58756 241
46.60767 244
46.62779 217
46.6479 223
46.66801 240
46.68813 196
46.70824 224
46.72835 230
46.74847 240
46.76858 248
46.78869 216
46.80881 244
46.82892 221
46.84904 231
46.86915 218
46.88926 231
46.90938 254
46.92949 212
46.9496 207
46.96972 237
46.98983 241
47.00995 207
47.03006 242
47.05017 232
47.07029 229
47.0904 263
47.11051 226
47.13063 265
47.15074 238
47.17086 231
47.19097 222
47.21108 230
47.2312 240
47.25131 262
47.27142 220
47.29154 251
47.31165 247
47.33176 232
47.35188 240
47.37199 269
47.39211 233
47.41222 227
47.43233 247
47.45245 255
47.47256 273
47.49267 252
47.51279 249
47.5329 260
47.55302 246
47.57313 235
47.59324 258
47.61336 243
47.63347 213
47.65358 231
47.6737 219
47.69381 237
47.71393 215
47.73404 223
47.75415 217
47.77427 227
47.79438 200
47.81449 234
47.83461 213
47.85472 234
47.87483 221
47.89495 216
47.91506 243
47.93518 225
47.95529 218
47.9754 238
47.99552 234
48.01563 230
48.03574 234
48.05586 238
48.07597 226
48.09609 222
48.1162 212
48.13631 230
48.15643 267
48.17654 242
48.19665 250
48.21677 263
48.23688 235
48.257 254
48.27711 273
48.29722 243
48.31734 239
48.33745 257
48.35756 229
48.37768 271
48.39779 245
48.4179 254
48.43802 253
48.45813 266
48.47825 230
48.49836 247
48.51847 208
48.53859 255
48.5587 239
48.57881 221
48.59893 227
48.61904 226
48.63916 255
48.65927 267
48.67938 267
48.6995 268
48.71961 239
48.73972 207
48.75984 256
48.77995 283
48.80006 266
48.82018 245
48.84029 238
48.86041 234
48.88052 241
48.90063 226
48.92075 260
48.94086 242
48.96097 261
48.98109 263
49.0012 244
49.02132 274
49.04143 249
49.06154 269
49.08166 256
49.10177 276
49.12188 245
49.142 257
49.16211 264
49.18223 255
49.20234 262
49.22245 270
49.24257 261
49.26268 232
49.28279 261
49.30291 276
49.32302 250
49.34313 246
49.36325 246
49.38336 253
49.40348 271
49.42359 231
49.4437 277
49.46382 240
49.48393 254
49.50404 267
49.52416 261
49.54427 276
49.56439 241
49.5845 258
49.60461 292
49.62473 236
49.64484 286
49.66495 308
49.68507 297
49.70518 329
49.7253 306
49.74541 318
49.76552 337
49.78564 373
49.80575 371
49.82586 415
49.84598 486
49.86609 496
49.8862 491
49.90632 557
49.92643 609
49.94655 796
49.96666 883
49.98677 998
50.00689 1235
50.027 1495
50.04711 1707
50.06723 1989
50.08734 2133
50.10746 2060
50.12757 2000
50.14768 1801
50.1678 1440
50.18791 1261
50.20802 1260
50.22814 1178
50.24825 1034
50.26837 887
50.28848 750
50.30859 558
50.32871 446
50.34882 382
50.36893 322
50.38905 322
50.40916 314
50.42927 262
50.44939 308
50.4695 339
50.48962 317
50.50973 311
50.52984 333
50.54996 328
50.57007 294
50.59018 322
50.6103 293
50.63041 298
50.65053 315
50.67064 294
50.69075 306
50.71087 326
50.73098 317
50.75109 271
50.77121 295
50.79132 264
50.81143 256
50.83155 224
50.85166 255
50.87178 258
50.89189 206
50.912 246
50.93212 217
50.95223 225
50.97234 226
50.99246 225
51.01257 238
51.03269 231
51.0528 225
51.07291 220
51.09303 212
51.11314 240
51.13325 247
51.15337 229
51.17348 212
51.1936 222
51.21371 253
51.23382 256
51.25394 247
51.27405 276
51.29416 266
51.31428 242
51.33439 257
51.3545 247
51.37462 255
51.39473 218
51.41485 240
51.43496 246
51.45507 254
51.47519 234
51.4953 216
51.51541 184
51.53553 220
51.55564 218
51.57576 206
51.59587 225
51.61598 199
51.6361 220
51.65621 225
51.67632 156
51.69644 197
51.71655 192
51.73667 229
51.75678 230
51.77689 225
51.79701 201
51.81712 216
51.83723 218
51.85735 224
51.87746 201
51.89757 211
51.91769 192
51.9378 191
51.95792 217
51.97803 223
51.99814 224
52.01826 231
52.03837 213
52.05848 215
52.0786 215
52.09871 201
52.11883 216
52.13894 207
52.15905 224
52.17917 209
52.19928 188
52.21939 211
52.23951 229
52.25962 212
52.27974 227
52.29985 197
52.31996 231
52.34008 236
52.36019 213
52.3803 233
52.40042 228
52.42053 214
52.44064 204
52.46076 226
52.48087 216
52.50099 229
52.5211 230
52.54121 238
52.56133 249
52.58144 206
52.60155 217
52.62167 245
52.64178 227
52.6619 200
52.68201 224
52.70212 224
52.72224 231
52.74235 221
52.76246 209
52.78258 194
52.80269 248
52.8228 223
52.84292 224
52.86303 230
52.88315 231
52.90326 222
52.92337 244
52.94349 232
52.9636 246
52.98371 248
53.00383 251
53.02394 218
53.04406 262
53.06417 232
53.08428 232
53.1044 235
53.12451 212
53.14462 249
53.16474 269
53.18485 245
53.20497 253
53.22508 260
53.24519 240
53.26531 266
53.28542 263
53.30553 246
53.32565 258
53.34576 253
53.36587 265
53.38599 205
53.4061 226
53.42622 264
53.44633 236
53.46644 262
53.48656 265
53.50667 274
53.52678 251
53.5469 241
53.56701 247
53.58713 274
53.60724 253
53.62735 279
53.64747 280
53.66758 247
53.68769 270
53.70781 274
53.72792 256
53.74804 271
53.76815 278
53.78826 287
53.80838 261
53.82849 288
53.8486 255
53.86872 253
53.88883 293
53.90894 254
53.92906 268
53.94917 274
53.96929 278
53.9894 272
54.00951 256
54.02963 262
54.04974 286
54.06985 268
54.08997 277
54.11008 252
54.1302 266
54.15031 255
54.17042 253
54.19054 284
54.21065 240
54.23076 265
54.25088 258
54.27099 261
54.29111 277
54.31122 270
54.33133 250
54.35145 256
54.37156 258
54.39167 289
54.41179 283
54.4319 304
54.45201 257
54.47213 310
54.49224 303
54.51236 305
54.53247 296
54.55258 338
54.5727 340
54.59281 337
54.61292 337
54.63304 362
54.65315 357
54.67327 444
54.69338 480
54.71349 519
54.73361 574
54.75372 586
54.77383 661
54.79395 733
54.81406 869
54.83417 783
54.85429 726
54.8744 667
54.89452 606
54.91463 540
54.93474 544
54.95486 484
54.97497 514
54.99508 506
55.0152 446
55.03531 411
55.05543 389
55.07554 351
55.09565 376
55.11577 341
55.13588 373
55.15599 344
55.17611 381
55.19622 421
55.21634 446
55.23645 449
55.25656 476
55.27668 515
55.29679 478
55.3169 441
55.33702 446
55.35713 406
55.37724 382
55.39736 396
55.41747 374
55.43759 368
55.4577 328
55.47781 319
55.49793 311
55.51804 284
55.53815 275
55.55827 274
55.57838 288
55.5985 231
55.61861 266
55.63872 251
55.65884 218
55.67895 258
55.69906 247
55.71918 216
55.73929 254
55.75941 243
55.77952 234
55.79963 233
55.81975 224
55.83986 257
55.85997 232
55.88009 242
55.9002 255
55.92031 234
55.94043 233
55.96054 250
55.98066 230
56.00077 232
56.02088 265
56.041 270
56.06111 238
56.08122 252
56.10134 232
56.12145 228
56.14157 255
56.16168 240
56.18179 243
56.20191 230
56.22202 250
56.24213 200
56.26225 237
56.28236 255
56.30248 235
56.32259 249
56.3427 218
56.36282 261
56.38293 246
56.40304 224
56.42316 239
56.44327 263
56.46338 217
56.4835 258
56.50361 243
56.52373 236
56.54384 246
56.56395 238
56.58407 246
56.60418 219
56.62429 220
56.64441 224
56.66452 236
56.68464 254
56.70475 221
56.72486 220
56.74498 240
56.76509 264
56.7852 255
56.80532 229
56.82543 215
56.84554 214
56.86566 242
56.88577 236
56.90589 232
56.926 224
56.94611 240
56.96623 241
56.98634 246
57.00645 267
57.02657 253
57.04668 221
57.0668 259
57.08691 217
57.10702 246
57.12714 269
57.14725 245
57.16736 244
57.18748 265
57.20759 283
57.22771 294
57.24782 233
57.26793 255
57.28805 249
57.30816 256
57.32827 268
57.34839 259
57.3685 227
57.38861 261
57.40873 246
57.42884 244
57.44896 234
57.46907 242
57.48918 227
57.5093 237
57.52941 252
57.54952 235
57.56964 237
57.58975 228
57.60987 221
57.62998 223
57.65009 232
57.67021 221
57.69032 218
57.71043 208
57.73055 248
57.75066 229
57.77078 221
57.79089 223
57.811 230
57.83112 224
57.85123 237
57.87134 221
57.89146 241
57.91157 234
57.93168 243
57.9518 229
57.97191 204
57.99203 233
58.01214 221
58.03225 213
58.05237 225
58.07248 222
58.09259 245
58.11271 204
58.13282 202
58.15294 241
58.17305 205
58.19316 206
58.21328 219
58.23339 215
58.2535 224
58.27362 211
58.29373 221
58.31385 228
58.33396 235
58.35407 203
58.37419 248
58.3943 216
58.41441 209
58.43453 240
58.45464 254
58.47475 225
58.49487 212
58.51498 217
58.5351 207
58.55521 218
58.57532 229
58.59544 219
58.61555 221
58.63566 241
58.65578 224
58.67589 219
58.69601 242
58.71612 227
58.73623 238
58.75635 232
58.77646 229
58.79657 223
58.81669 232
58.8368 219
58.85691 228
58.87703 232
58.89714 207
58.91726 225
58.93737 216
58.95748 212
58.9776 222
58.99771 229
59.01782 209
59.03794 243
59.05805 229
59.07817 219
59.09828 219
59.11839 222
59.13851 239
59.15862 218
59.17873 224
59.19885 207
59.21896 206
59.23908 200
59.25919 224
59.2793 241
59.29942 209
59.31953 228
59.33964 219
59.35976 244
59.37987 234
59.39998 234
59.4201 259
59.44021 237
59.46033 279
59.48044 272
59.50055 295
59.52067 283
59.54078 280
59.56089 286
59.58101 286
59.60112 328
59.62124 353
59.64135 350
59.66146 382
59.68158 401
59.70169 427
59.7218 456
59.74192 532
59.76203 603
59.78215 725
59.80226 841
59.82237 964
59.84249 1072
59.8626 1222
59.88271 1343
59.90283 1351
59.92294 1334
59.94305 1249
59.96317 1075
59.98328 963
60.0034 826
60.02351 780
60.04362 815
60.06374 833
60.08385 771
60.10396 715
60.12408 624
60.14419 464
60.16431 389
60.18442 346
60.20453 326
60.22465 285
60.24476 263
60.26487 252
60.28499 227
60.3051 253
60.32522 256
60.34533 258
60.36544 249
60.38556 231
60.40567 207
60.42578 220
60.4459 221
60.46601 251
60.48612 245
60.50624 232
60.52635 216
60.54647 248
60.56658 215
60.58669 254
60.60681 265
60.62692 241
60.64703 235
60.66715 232
60.68726 220
60.70738 239
60.72749 209
60.7476 232
60.76772 231
60.78783 224
60.80794 270
60.82806 248
60.84817 224
60.86828 220
60.8884 216
60.90851 230
60.92863 224
60.94874 237
60.96885 239
60.98897 211
61.00908 232
61.02919 240
61.04931 228
61.06942 248
61.08954 246
61.10965 255
61.12976 243
61.14988 281
61.16999 267
61.1901 235
61.21022 247
61.23033 279
61.25045 278
61.27056 238
61.29067 261
61.31079 303
61.3309 264
61.35101 278
61.37113 295
61.39124 299
61.41135 247
61.43147 276
61.45158 304
61.4717 285
61.49181 322
61.51192 286
61.53204 296
61.55215 303
61.57226 294
61.59238 336
61.61249 318
61.63261 301
61.65272 311
61.67283 317
61.69295 293
61.71306 314
61.73317 356
61.75329 299
61.7734 292
61.79352 307
61.81363 274
61.83374 285
61.85386 334
61.87397 312
61.89408 289
61.9142 310
61.93431 278
61.95442 303
61.97454 274
61.99465 289
62.01477 294
62.03488 280
62.05499 298
62.07511 275
62.09522 289
62.11533 271
62.13545 311
62.15556 265
62.17568 280
62.19579 265
62.2159 226
62.23602 224
62.25613 280
62.27624 243
62.29636 254
62.31647 252
62.33659 231
62.3567 258
62.37681 262
62.39693 259
62.41704 270
62.43715 269
62.45727 220
62.47738 215
62.49749 226
62.51761 236
62.53772 271
62.55784 238
62.57795 239
62.59806 253
62.61818 238
62.63829 242
62.6584 218
62.67852 230
62.69863 217
62.71875 239
62.73886 258
62.75897 211
62.77909 214
62.7992 196
62.81931 205
62.83943 231
62.85954 204
62.87965 217
62.89977 221
62.91988 212
62.94 244
62.96011 211
62.98022 232
63.00034 218
63.02045 232
63.04056 218
63.06068 213
63.08079 221
63.10091 220
63.12102 240
63.14113 225
63.16125 221
63.18136 202
63.20147 205
63.22159 237
63.2417 214
63.26182 220
63.28193 209
63.30204 203
63.32216 221
63.34227 194
63.36238 221
63.3825 222
63.40261 242
63.42272 200
63.44284 218
63.46295 244
63.48307 209
63.50318 197
63.52329 205
63.54341 206
63.56352 216
63.58363 220
63.60375 250
63.62386 208
63.64398 272
63.66409 251
63.6842 270
63.70432 249
63.72443 280
63.74454 247
63.76466 278
63.78477 258
63.80489 241
63.825 268
63.84511 301
63.86523 335
63.88534 322
63.90545 345
63.92557 368
63.94568 382
63.96579 424
63.98591 466
64.00602 371
64.02614 408
64.04625 368
64.06636 298
64.08648 335
64.10659 326
64.1267 295
64.14682 301
64.16693 319
64.18705 287
64.20716 289
64.22727 263
64.24739 233
64.2675 246
64.28761 227
64.30773 226
64.32784 238
64.34796 198
64.36807 216
64.38818 203
64.4083 194
64.42841 214
64.44852 206
64.46864 214
64.48875 192
64.50886 202
64.52898 200
64.54909 201
64.56921 180
64.58932 186
64.60943 183
64.62955 199
64.64966 225
64.66977 204
64.68989 225
64.71 208
64.73012 203
64.75023 207
64.77034 215
64.79046 200
64.81057 218
64.83068 212
64.8508 200
64.87091 209
64.89102 211
64.91114 199
64.93125 212
64.95137 215
64.97148 186
64.99159 201
65.01171 218
65.03182 199
65.05193 215
65.07205 203
65.09216 210
65.11228 179
65.13239 212
65.1525 195
65.17262 209
65.19273 211
65.21284 210
65.23296 219
65.25307 217
65.27319 213
65.2933 207
65.31341 195
65.33353 207
65.35364 176
65.37375 223
65.39387 212
65.41398 206
65.43409 212
65.45421 225
65.47432 209
65.49444 209
65.51455 228
65.53466 232
65.55478 223
65.57489 221
65.595 218
65.61512 218
65.63523 212
65.65535 208
65.67546 213
65.69557 226
65.71569 245
65.7358 242
65.75591 286
65.77603 251
65.79614 218
65.81626 236
65.83637 210
65.85648 236
65.8766 250
65.89671 220
65.91682 225
65.93694 197
65.95705 235
65.97716 217
65.99728 192
66.01739 192
66.03751 197
66.05762 210
66.07773 214
66.09785 209
66.11796 222
66.13807 183
66.15819 205
66.1783 201
66.19842 194
66.21853 186
66.23864 191
66.25876 218
66.27887 186
66.29898 206
66.3191 213
66.33921 215
66.35933 213
66.37944 184
66.39955 217
66.41967 207
66.43978 202
66.45989 191
66.48001 201
66.50012 192
66.52023 224
66.54035 190
66.56046 196
66.58058 198
66.60069 221
66.6208 231
66.64092 209
66.66103 193
66.68114 197
66.70126 197
66.72137 210
66.74149 218
66.7616 191
66.78171 211
66.80183 224
66.82194 209
66.84205 201
66.86217 182
66.88228 205
66.90239 205
66.92251 214
66.94262 221
66.96274 227
66.98285 195
67.00296 211
67.02308 211
67.04319 198
67.0633 211
67.08342 216
67.10353 194
67.12365 231
67.14376 246
67.16387 222
67.18399 194
67.2041 220
67.22421 248
67.24433 199
67.26444 223
67.28456 241
67.30467 246
67.32478 247
67.3449 260
67.36501 281
67.38512 292
67.40524 274
67.42535 307
67.44546 281
67.46558 303
67.48569 333
67.50581 343
67.52592 397
67.54603 400
67.56615 530
67.58626 578
67.60637 577
67.62649 745
67.6466 790
67.66672 848
67.68683 775
67.70694 872
67.72706 778
67.74717 758
67.76728 648
67.7874 601
67.80751 607
67.82763 622
67.84774 617
67.86785 661
67.88797 687
67.90808 689
67.92819 661
67.94831 657
67.96842 703
67.98853 724
68.00865 790
68.02876 952
68.04888 986
68.06899 1014
68.0891 1158
68.10922 1100
68.12933 1086
68.14944 1013
68.16956 957
68.18967 999
68.20979 959
68.2299 1020
68.25001 1056
68.27013 1048
68.29024 967
68.31035 878
68.33047 820
68.35058 682
68.3707 625
68.39081 550
68.41092 529
68.43104 538
68.45115 489
68.47126 475
68.49138 430
68.51149 357
68.5316 365
68.55172 318
68.57183 280
68.59195 261
68.61206 249
68.63217 256
68.65229 221
68.6724 231
68.69251 225
68.71263 236
68.73274 226
68.75286 222
68.77297 221
68.79308 191
68.8132 215
68.83331 223
68.85342 226
68.87354 207
68.89365 238
68.91376 193
68.93388 215
68.95399 222
68.97411 184
68.99422 185
69.01433 193
69.03445 208
69.05456 213
69.07467 221
69.09479 202
69.1149 227
69.13502 227
69.15513 199
69.17524 215
69.19536 214
69.21547 218
69.23558 214
69.2557 222
69.27581 224
69.29593 205
69.31604 205
69.33615 206
69.35627 223
69.37638 199
69.39649 227
69.41661 204
69.43672 209
69.45683 223
69.47695 221
69.49706 158
69.51718 223
69.53729 215
69.5574 186
69.57752 202
69.59763 206
69.61774 207
69.63786 235
69.65797 247
69.67809 211
69.6982 192
69.71831 208
69.73843 197
69.75854 177
69.77865 194
69.79877 226
69.81888 202
69.839 213
69.85911 188
69.87922 193
69.89934 202
69.91945 196
69.93956 186
69.95968 198
69.97979 206
69.9999 167
70.02002 186
70.04013 187
70.06025 208
70.08036 220
70.10047 217
70.12059 207
70.1407 190
70.16081 198
70.18093 190
70.20104 203
70.22116 196
70.24127 184
70.26138 198
70.2815 210
70.30161 183
70.32172 207
70.34184 170
70.36195 163
70.38207 201
70.40218 185
70.42229 190
70.44241 172
70.46252 196
70.48263 173
70.50275 208
70.52286 194
70.54297 181
70.56309 201
70.5832 179
70.60332 202
70.62343 208
70.64354 195
70.66366 179
70.68377 195
70.70388 184
70.724 191
70.74411 190
70.76423 189
70.78434 188
70.80445 202
70.82457 190
70.84468 186
70.86479 200
70.88491 192
70.90502 180
70.92513 216
70.94525 182
70.96536 206
70.98548 182
71.00559 203
71.0257 204
71.04582 185
71.06593 218
71.08604 197
71.10616 211
71.12627 184
71.14639 189
71.1665 163
71.18661 185
71.20673 193
71.22684 214
71.24695 180
71.26707 215
71.28718 175
71.3073 207
71.32741 182
71.34752 194
71.36764 189
71.38775 198
71.40786 196
71.42798 164
71.44809 196
71.4682 191
71.48832 213
71.50843 194
71.52855 189
71.54866 215
71.56877 195
71.58889 224
71.609 183
71.62911 172
71.64923 201
71.66934 204
71.68946 176
71.70957 217
71.72968 196
71.7498 193
71.76991 187
71.79002 167
71.81014 198
71.83025 204
71.85037 196
71.87048 205
71.89059 185
71.91071 196
71.93082 199
71.95093 173
71.97105 225
71.99116 184
72.01127 210
72.03139 201
72.0515 197
72.07162 200
72.09173 193
72.11184 197
72.13196 192
72.15207 205
72.17218 202
72.1923 189
72.21241 201
72.23253 206
72.25264 201
72.27275 220
72.29287 199
72.31298 182
72.33309 204
72.35321 202
72.37332 208
72.39344 182
72.41355 212
72.43366 195
72.45378 217
72.47389 223
72.494 220
72.51412 203
72.53423 192
72.55434 193
72.57446 205
72.59457 208
72.61469 187
72.6348 215
72.65491 227
72.67503 202
72.69514 217
72.71525 197
72.73537 223
72.75548 196
72.7756 210
72.79571 239
72.81582 216
72.83594 249
72.85605 214
72.87616 224
72.89628 218
72.91639 229
72.9365 205
72.95662 208
72.97673 210
72.99685 254
73.01696 229
73.03707 240
73.05719 224
73.0773 227
73.09741 212
73.11753 239
73.13764 247
73.15776 254
73.17787 246
73.19798 292
73.2181 259
73.23821 263
73.25832 274
73.27844 282
73.29855 341
73.31867 340
73.33878 379
73.35889 370
73.37901 420
73.39912 434
73.41923 458
73.43935 424
73.45946 385
73.47957 353
73.49969 317
73.5198 272
73.53992 271
73.56003 301
73.58014 303
73.60026 270
73.62037 301
73.64048 299
73.6606 302
73.68071 275
73.70083 250
73.72094 234
73.74105 195
73.76117 231
73.78128 233
73.80139 221
73.82151 219
73.84162 208
73.86174 196
73.88185 204
73.90196 219
73.92208 202
73.94219 194
73.9623 211
73.98242 214
74.00253 219
74.02264 210
74.04276 190
74.06287 221
74.08299 204
74.1031 178
74.12321 181
74.14333 213
74.16344 183
74.18355 181
74.20367 175
74.22378 185
74.2439 185
74.26401 198
74.28412 198
74.30424 201
74.32435 218
74.34446 200
74.36458 190
74.38469 206
74.40481 168
74.42492 204
74.44503 190
74.46515 186
74.48526 175
74.50537 184
74.52549 172
74.5456 185
74.56571 215
74.58583 203
74.60594 211
74.62606 201
74.64617 197
74.66628 204
74.6864 215
74.70651 221
74.72662 212
74.74674 217
74.76685 194
74.78697 201
74.80708 187
74.82719 199
74.84731 218
74.86742 181
74.88753 194
74.90765 193
74.92776 192
74.94787 203
74.96799 200
74.9881 209
75.00822 185
