3.00117 21472.3957993081
3.02128 20708.4170574561
3.0414 20410
3.06151 19598.6940979961
3.08162 19273.6274794071
3.10174 18587.1708530061
3.12185 17822.7373691398
3.14197 17755.5800653589
3.16208 17010.579506513
3.18219 16769.119890004
3.20231 16262.6543603695
3.22242 15535.3243729296
3.24253 15062.7190306752
3.26265 14929.0420564155
3.28276 14325.9542994593
3.30288 13981.5343491412
3.32299 13370.1177287659
3.3431 13360
3.36322 12534.2577685564
3.38333 12160.6561109491
3.40344 11814.0195098756
3.42356 11349.4565457714
3.44367 11198.6483911191
3.46379 10521.2558200621
3.4839 10327
3.50401 10041.7834073941
3.52413 9577.42740738761
3.54424 9255.22900690023
3.56435 8828.77429198197
3.58447 8658.23387916958
3.60458 8358.46937629082
3.62469 7869.16050414313
3.64481 7660.83607057224
3.66492 7225.71255360075
3.68504 7169.02037976832
3.70515 6995.90463525962
3.72526 6473.66063364301
3.74538 6317.26453668536
3.76549 5908.14881414375
3.7856 5830
3.80572 5693.65439450774
3.82583 5284.63101018843
3.84595 5169.41620792623
3.86606 4826.37417167032
3.88617 4823.07591393985
3.90629 4606.13319176227
3.9264 4397
3.94651 4184.81517119082
3.96663 3802.79137688332
3.98674 3913.23275806671
4.00686 3793.70802448072
4.02697 3418.26482697705
4.04708 3389.14736732786
4.0672 3124
4.08731 3179.98320211885
4.10742 2939.69519297001
4.12754 2733.8438105703
4.14765 2704.2147988155
4.16776 2592.00210324137
4.18788 2653.06336746523
4.20799 2428.11717887178
4.22811 2288.95713343455
4.24822 2224.97131660365
4.26833 2187.84848525867
4.28845 2077.98445157419
4.30856 2130.09325599633
4.32867 1954.2656259543
4.34879 1894.97340889542
4.3689 1954
4.38902 1865.00160663014
4.40913 1904.82562276732
4.42924 1671.77224723989
4.44936 1726.91897114008
4.46947 1661.12099271412
4.48958 1643.96572943984
4.5097 1639
4.52981 1482.98733941496
4.54992 1555.97617621062
4.57004 1406.78630371268
4.59015 1443.70842988715
4.61027 1489.17210315802
4.63038 1292.11023060019
4.65049 1334.95232823898
4.67061 1358.96432030939
4.69072 1261.97213198662
4.71083 1304.0286004391
4.73095 1262.88546130663
4.75106 1244.02903291408
4.77118 1207.06279396843
4.79129 1159.99247616617
4.8114 1178
4.83152 1041.96951287284
4.85163 1128.08643409947
4.87174 1085.86132452754
4.89186 1059.96615806495
4.91197 1080.02369562201
4.93209 1027.025948775
4.9522 1011
4.97231 1020.98205987287
4.99243 959.960704328366
5.01254 962.935706994919
5.03265 887.155828814278
5.05277 877.957560902252
5.07288 900.012271008305
5.09299 870.999963227834
5.11311 894.998463203831
5.13322 839.919492235576
5.15334 792.035597372714
5.17345 829.949762633497
5.19356 766.02968153239
5.21368 794.027660125654
5.23379 713.016234764813
5.2539 754
5.27402 755.005849310191
5.29413 776.006595323802
5.31425 742.851156924659
5.33436 693.027087780965
5.35447 694.047881378427
5.37459 643.003860617409
5.3947 676
5.41481 658.008274551332
5.43493 697.985747645294
5.45504 617.802881732808
5.47516 571.943946371099
5.49527 622.996969205172
5.51538 586.990928893093
5.5355 627
5.55561 539.978674667004
5.57572 591.090112045259
5.59584 638.955090878025
5.61595 570.156024428691
5.63606 542.033789840577
5.65618 516.031247094658
5.67629 507.979806878939
5.69641 568.012368641504
5.71652 552.994837911522
5.73663 562.971602092255
5.75675 520.962956533125
5.77686 533.022224560822
5.79697 500.004967040673
5.81709 518.010353549021
5.8372 469
5.85732 509.019092764504
5.87743 485.970633519134
5.89754 479.945483782697
5.91766 432.064141539991
5.93777 444.922808471064
5.95788 486.012777547386
5.978 451
5.99811 508.003446462919
6.01823 454.949514521657
6.03834 472.041400274948
6.05845 468.025727295509
6.07857 454.049952032414
6.09868 420.996693759041
6.11879 457.984097635845
6.13891 455.986980180947
6.15902 430.991781894406
6.17913 437.003426177672
6.19925 443.087350607767
6.21936 487.98015757103
6.23948 460.024219524985
6.25959 457.002794651902
6.2797 442
6.29982 443.995361326585
6.31993 416.926429272876
6.34004 395.109308977813
6.36016 476.981996074086
6.38027 417.038472581804
6.40039 446.998191696391
6.4205 408
6.44061 436.013135386774
6.46073 428.959761336026
6.48084 410.006863291961
6.50095 433.9305001616
6.52107 434.064684520339
6.54118 385.001296062292
6.56129 419.996875171236
6.58141 379.980740813817
6.60152 388.052486600675
6.62164 442.027356800579
6.64175 410.902309348901
6.66186 385.054256249436
6.68198 371.968401748427
6.70209 427.985567107719
6.7222 412
6.74232 402.003883522753
6.76243 406.995700368287
6.78255 402.018898786671
6.80266 410.036640960668
6.82277 376.017807911983
6.84289 393.991093939044
6.863 395
6.88311 406.014395981794
6.90323 427.978964314364
6.92334 380.904725275795
6.94346 355.025928867617
6.96357 364.921884422442
6.98368 424.986663003314
7.0038 395
7.02391 399.987177627111
7.04402 363.022588072301
7.06414 431.056117836843
7.08425 397.083061505429
7.10436 387.052893769629
7.12448 354.986165421317
7.14459 400.993662399639
7.16471 379.003625722287
7.18482 421.018172549592
7.20493 406.000707602939
7.22505 415.912672112786
7.24516 360.989866213839
7.26527 422.946187152902
7.28539 396.021867178975
7.3055 374
7.32562 381.027380033189
7.34573 404.985195857101
7.36584 368.952042108583
7.38596 375.961640310891
7.40607 395.958227884284
7.42618 414.017157202724
7.4463 368
7.46641 349.998255547445
7.48653 350.004229889664
7.50664 358.03225365787
7.52675 375.974755828581
7.54687 384.964188181977
7.56698 398.039972179149
7.58709 342.994549935629
7.60721 411.017460424065
7.62732 378.956607091515
7.64743 366.00666249873
7.66755 380.071824351822
7.68766 411.964705840887
7.70778 395.054831559552
7.72789 344.999071575749
7.748 388
7.76812 367.961341782049
7.78823 358.058295024381
7.80834 403.98170906058
7.82846 353.033825795235
7.84857 388.951536210921
7.86869 381.014300546817
7.8888 375
7.90891 423.997660582464
7.92903 367.935965274332
7.94914 367.011268115751
7.96925 361.001695395582
7.98937 369.991030982212
8.00948 376.975474150144
8.0296 406
8.04971 381.988655727795
8.06982 378.003960780912
8.08994 380.001756306842
8.11005 376.973772942578
8.13016 371.965707390017
8.15028 403.97753283317
8.17039 400.011685295789
8.1905 374
8.21062 360.980857664242
8.23073 357.066528295046
8.25085 419.037652670862
8.27096 386.036240263793
8.29107 404.976482718404
8.31119 390.016271977248
8.3313 360
8.35141 364.016989354568
8.37153 399.000341345533
8.39164 379.019291116646
8.41176 404.047799250888
8.43187 348.009984252248
8.45198 387.997668693945
8.4721 343
8.49221 366.000649046381
8.51232 343.012040728339
8.53244 376.966928232483
8.55255 328.969059597157
8.57266 404.898887539613
8.59278 381.058854844055
8.61289 352.985097074468
8.63301 399.998058460334
8.65312 349.97659217606
8.67323 379.05265195691
8.69335 390.005708332064
8.71346 396.981264791055
8.73357 403.997057579538
8.75369 397.008581627889
8.7738 376
8.79392 375.018946905925
8.81403 403.032594491082
8.83414 413.014957071463
8.85426 402.108683308943
8.87437 343.993837656625
8.89448 392.989459449152
8.9146 356
8.93471 401.027036289366
8.95483 416.9637330821
8.97494 381.971515133018
8.99505 392.976239493927
9.01517 381.040002704094
9.03528 367.977396367067
9.05539 410.987191577357
9.07551 380.95687889558
9.09562 311.020921055942
9.11573 398.080600447467
9.13585 383.953954221361
9.15596 386.031409540336
9.17608 352.014060240862
9.19619 372.983486660803
9.2163 396
9.23642 418.048308287878
9.25653 444.909584410202
9.27664 339.918879979065
9.29676 382.925445558106
9.31687 379.98389307727
9.33699 415.990954317891
9.3571 396
9.37721 367.989975226455
9.39733 362.021125057707
9.41744 381.005213247486
9.43755 364.046003821683
9.45767 366.956113333943
9.47778 393.012217322582
9.4979 364
9.51801 405.002230762588
9.53812 359.959166954394
9.55824 362.061434717766
9.57835 390.018986805953
9.59846 384.985194021383
9.61858 399.010416317315
9.63869 375.996247088214
9.6588 400
9.67892 349.981792077235
9.69903 374.01832500769
9.71915 353.952679458144
9.73926 360.950721191836
9.75937 384.980661544956
9.77949 372.021623736126
9.7996 332
9.81971 369.01316149566
9.83983 370.009139615794
9.85994 388.01226925396
9.88006 370.060831044036
9.90017 352.983221852108
9.92028 382.975743758423
9.9404 390
9.96051 388.99225118463
9.98062 361.976082294792
10.00074 359.043456852493
10.02085 384.986278282195
10.04097 371.012023281325
10.06108 377.99438005843
10.08119 366.014678670804
10.10131 341.000718792317
10.12142 373.044601936751
10.14153 403.007773411568
10.16165 391.978064025366
10.18176 401.94639484375
10.20187 425.000011775585
10.22199 390.031180782926
10.2421 339
10.26222 370.031270252815
10.28233 383.019953574354
10.30244 397.998226205043
10.32256 380.037090335054
10.34267 371.008057856786
10.36278 367.995816601655
10.3829 382
10.40301 388.986372071065
10.42313 350.992593393612
10.44324 379.034953795398
10.46335 369.027995475949
10.48347 373.981533621665
10.50358 385.987354198755
10.52369 392.004577999286
10.54381 373.994106455366
10.56392 386.03847647066
10.58403 415.974883057576
10.60415 363.90628434109
10.62426 362.982563510468
10.64438 363.000157029093
10.66449 369.993598031665
10.6846 379
10.70472 378.024382259983
10.72483 416.024513038965
10.74494 397.939364811811
10.76506 363.105511710829
10.78517 329.941796403448
10.80529 405.987350829168
10.8254 366
10.84551 381.014955543572
10.86563 404.039327529281
10.88574 402.8614867655
10.90585 328.931979513034
10.92597 431.929308851641
10.94608 380.062955159781
10.9662 367
10.98631 380.010168064016
11.00642 392.985608013399
11.02654 357.942888410012
11.04665 358.932243008142
11.06676 387.98057057892
11.08688 385.985146869395
11.10699 404.010713082607
11.1271 356
11.14722 379.021128033989
11.16733 379.003882527742
11.18745 396.048383471133
11.20756 400.034656833395
11.22767 379.996808474186
11.24779 396.001660660191
11.2679 376
11.28801 396.003158584806
11.30813 387.012441810995
11.32824 410.00491622427
11.34836 386.041823123211
11.36847 381.007807428941
11.38858 372.997064943945
11.4087 391
11.42881 401.995312495433
11.44892 394.023217258933
11.46904 415.916550996979
11.48915 341.035281699256
11.50927 402.910617955066
11.52938 413.009229225581
11.54949 412.996374182235
11.56961 415.994572325331
11.58972 405.012286220649
11.60983 432.014357515252
11.62995 411.925249145466
11.65006 390.030109748614
11.67017 400.913725403848
11.69029 463.997234125685
11.7104 420
11.73052 442.019966722879
11.75063 441.008200742993
11.77074 449.964170751871
11.79086 407.069729807942
11.81097 417.906745537987
11.83108 469.029010895768
11.8512 403
11.87131 497.037133994809
11.89143 486.915723761427
11.91154 441.972561203344
11.93165 466.872264736585
11.95177 503.013194493865
11.97188 481.970837146102
11.99199 549.983919176476
12.01211 537.003258748146
12.03222 583.040447542722
12.05234 572.877791545655
12.07245 516.009495396044
12.09256 590.801898506913
12.11268 636.042429650187
12.13279 562.00772584016
12.1529 632
12.17302 689.025967919591
12.19313 716.082095517689
12.21324 777.035832231027
12.23336 758.002149156516
12.25347 798.922049201167
12.27359 827.000417683304
12.2937 818
12.31381 864.039284824475
12.33393 920.977308867321
12.35404 857.927034280028
12.37415 861.044432076634
12.39427 797.110995065393
12.41438 747.026509429166
12.4345 738
12.45461 722.969827348429
12.47472 621.891203915663
12.49484 551.9705594935
12.51495 559.050162416932
12.53506 514.036390815529
12.55518 538.967259651685
12.57529 530.032508218163
12.5954 455
12.61552 484.020684015263
12.63563 465.959668382358
12.65575 460.038334906978
12.67586 474.021085589166
12.69597 441.044900285909
12.71609 427.005045417004
12.7362 412
12.75631 396.992862708518
12.77643 394.029569855182
12.79654 419.002383764338
12.81666 392.060398043298
12.83677 377.008312836508
12.85688 374.998446277711
12.877 375
12.89711 362.994637991263
12.91722 366.022733884337
12.93734 385.976864660379
12.95745 358.993241052202
12.97757 385.003301846718
12.99768 348.026500231409
13.01779 362.978788803798
13.03791 391.994019030029
13.05802 364.008356085614
13.07813 400.00389306205
13.09825 359.922498353363
13.11836 351.048930961742
13.13847 320.980875834076
13.15859 369.985107293621
13.1787 357
13.19882 354.020181902714
13.21893 367.964782728482
13.23904 328.997801408415
13.25916 364.962607947257
13.27927 353.998918118034
13.29938 376.985896073157
13.3195 371
13.33961 360.981698244183
13.35973 317.991807478753
13.37984 353.06989262741
13.39995 358.037422903035
13.42007 346.989697998076
13.44018 364.991741750577
13.46029 354.009466777024
13.48041 339.996438607252
13.50052 345.020593541034
13.52064 360.974823487752
13.54075 334.999181366766
13.56086 366.936771044712
13.58098 374.009921037622
13.60109 361.004872338083
13.6212 362
13.64132 369.984286468799
13.66143 339.976011691216
13.68154 346.016426250222
13.70166 345.997920083686
13.72177 342.036487954489
13.74189 316.995073949641
13.762 351
13.78211 324.983609549078
13.80223 313.009095901947
13.82234 332.059078498201
13.84245 347.056881096102
13.86257 308.015277757294
13.88268 337.963632913515
13.9028 345
13.92291 318.001669994124
13.94302 348.020512173639
13.96314 341.972251617385
13.98325 332.031546331529
14.00336 318.014215061935
14.02348 324.979954756282
14.04359 346.993287535524
14.06371 335.979549244552
14.08382 301.012895081274
14.10393 334.979751892617
14.12405 285.990083987115
14.14416 341.899964639416
14.16427 353.990203258958
14.18439 359.012694328884
14.2045 312
14.22461 318.012059885503
14.24473 339.021563812326
14.26484 350.027718190309
14.28496 357.032187765558
14.30507 326.031717463557
14.32518 326.989002467875
14.3453 336
14.36541 341.001471473689
14.38552 340.996181898555
14.40564 335.994792252698
14.42575 337.986857956511
14.44587 342.99632257058
14.46598 339.012044938657
14.48609 328.998014952335
14.50621 334.992080009582
14.52632 312.008609638096
14.54643 344.012627362727
14.56655 318.945909599752
14.58666 320.980900347566
14.60677 320.020193204565
14.62689 301.007652911411
14.647 308
14.66712 344.991110293537
14.68723 308.999209953442
14.70734 336.974781774667
14.72746 284.046510803612
14.74757 304.984281532335
14.76768 291.994647715623
14.7878 335
14.80791 378.010600562381
14.82803 369.94307273778
14.84814 324.944559699572
14.86825 327.941337350196
14.88837 347.000647513006
14.90848 333.00666235076
14.92859 338.998425477127
14.94871 329.992559760979
14.96882 327.020596545124
14.98894 353.002365680149
15.00905 330.965780457943
15.02916 338.976451616198
15.04928 329.039321047741
15.06939 290.998818674352
15.0895 327
15.10962 314.974126571328
15.12973 305.021181323212
15.14984 319.968784018625
15.16996 294.962991693997
15.19007 340.993393560882
15.21019 304.004418612264
15.2303 340
15.25041 337.999287288238
15.27053 348.002507806607
15.29064 338.995238768758
15.31075 344.010178624388
15.33087 331.007726939596
15.35098 335.999268102962
15.3711 325
15.39121 313.998108192558
15.41132 313.9979591068
15.43144 310.000000151929
15.45155 321.935684328249
15.47166 341.021000638166
15.49178 307.028159976383
15.51189 306.989196932131
15.53201 319.990224470213
15.55212 294.017765664127
15.57223 350.057413782921
15.59235 343.945185964829
15.61246 324.05580094419
15.63257 297.009674444549
15.65269 318.980715192929
15.6728 340
15.69291 298.9899592007
15.71303 315.038008124278
15.73314 319.962577077099
15.75326 298.99628680905
15.77337 315.005168382173
15.79348 306.964064468694
15.8136 354
15.83371 285.999021291636
15.85382 356.038181213066
15.87394 320.90672117803
15.89405 305.008992073142
15.91417 316.925954536867
15.93428 365.014968957942
15.95439 301.018447612056
15.97451 312.002115193809
15.99462 306.03481763421
16.01473 368.035766902432
16.03485 338.919766573316
16.05496 341.9461521591
16.07508 345.057562798281
16.09519 268.008637454086
16.1153 325
16.13542 338.961961453579
16.15553 292.984644022404
16.17564 329.099036321327
16.19576 344.071250718745
16.21587 291.030948937493
16.23598 307.98961060474
16.2561 304
16.27621 334.999188171335
16.29633 302.978236005862
16.31644 310.976487677641
16.33655 280.017293059897
16.35667 305.963163878159
16.37678 309.004706042982
16.39689 310.995391732421
16.41701 330.015255809695
16.43712 356.003047647765
16.45724 337.962119574444
16.47735 329.987997417134
16.49746 321.024897577482
16.51758 314.990074962721
16.53769 330.000231448371
16.5578 322
16.57792 353.017621112984
16.59803 342.968749560463
16.61814 333.012088745599
16.63826 334.060079939881
16.65837 299.976523262746
16.67849 342.004560632912
16.6986 298
16.71871 368.013434078249
16.73883 319.914558879803
16.75894 308.044363026705
16.77905 344.89381459852
16.79917 362.04689796657
16.81928 301.048379196141
16.8394 303
16.85951 352.003153747426
16.87962 310.949956311055
16.89974 295.0477590495
16.91985 336.920567677402
16.93996 331.087555816418
16.96008 288.999630528345
16.98019 333.97449047188
17.00031 349.988802313035
17.02042 314.981824697197
17.04053 309.963666490273
17.06065 273.981459348867
17.08076 308.898666445698
17.10087 339.002214264389
17.12099 312.017770032682
17.1411 303
17.16121 357.012472546872
17.18133 344.983922282482
17.20144 340.940497824592
17.22156 302.990773074917
17.24167 331.027315050694
17.26178 275.014968221693
17.2819 329
17.30201 365.99961295699
17.32212 345.981974044618
17.34224 345.02054621044
17.36235 346.057366277581
17.38247 315.011897704514
17.40258 328.996255488306
17.42269 317.999011706292
17.44281 330.997128327679
17.46292 312.003026828519
17.48303 342.039937159894
17.50315 344.972071158314
17.52326 339.975924508577
17.54338 354.010084207654
17.56349 328.00370221238
17.5836 339
17.60372 304.959253886728
17.62383 288.0239948735
17.64394 326.079349659353
17.66406 343.021391356781
17.68417 318.031495129134
17.70428 316.983012072378
17.7244 339
17.74451 340.996047228807
17.76463 337.015060832495
17.78474 349.989342413419
17.80485 331.0163269997
17.82497 336.015394163775
17.84508 312.009021722498
17.86519 333.979866615993
17.88531 361.998564580086
17.90542 335.97711509742
17.92554 335.027839664236
17.94565 341.962791191124
17.96576 317.015999285187
17.98588 344.944033646318
18.00599 382.010977391875
18.0261 319
18.04622 324.031205816815
18.06633 351.024397822692
18.08645 364.057740935251
18.10656 383.026397724819
18.12667 348.027282754981
18.14679 346.012336604269
18.1669 304
18.18701 322.005362279713
18.20713 326.055816290991
18.22724 373.991682594285
18.24735 317.117517890395
18.26747 316.966544817222
18.28758 326.015469644135
18.3077 314
18.32781 368.008886067762
18.34792 341.981598439509
18.36804 362.076210659875
18.38815 368.140538825013
18.40826 300.990546231975
18.42838 371.951634468648
18.44849 353.021420535614
18.46861 333.003333612977
18.48872 345.995285798177
18.50883 316.946440846376
18.52895 295.99591170957
18.54906 317.910010778355
18.56917 355.999209214325
18.58929 330.005476546186
18.6094 348
18.62951 348.995032835482
18.64963 338.990222172217
18.66974 331.970543141224
18.68986 312.029866291653
18.70997 312.973091131306
18.73008 334.98828012098
18.7502 340
18.77031 355.993785248078
18.79042 329.000990985061
18.81054 367.082986472715
18.83065 367.133468097342
18.85077 306.014896154541
18.87088 340.984905959621
18.89099 319.005747866668
18.91111 338.010945204858
18.93122 339.986532517608
18.95133 325.994200204139
18.97145 333.020321593774
18.99156 341.962139010346
19.01168 365.985530916578
19.03179 357.015981568753
19.0519 334
19.07202 368.995982312057
19.09213 327.969957451131
19.11224 344.019562065166
19.13236 332.014134329268
19.15247 336.008040263497
19.17258 325.989333035602
19.1927 356
19.21281 354.993415616467
19.23293 355.041241413039
19.25304 386.997645314131
19.27315 361.012005435829
19.29327 376.018636148001
19.31338 335.022898286428
19.33349 350.985373908621
19.35361 359.990229214673
19.37372 336.004130989776
19.39384 369.060073349515
19.41395 369.94238895565
19.43406 348.994999588118
19.45418 362.010648199942
19.47429 337.996319902978
19.4944 386
19.51452 406.987514231435
19.53463 389.00912507518
19.55475 417.045460753832
19.57486 410.032336145109
19.59497 405.979600818589
19.61509 423.998286536349
19.6352 426
19.65531 483.021489376109
19.67543 483.952984894007
19.69554 451.979567697067
19.71565 478.857695215274
19.73577 537.941682590034
19.75588 564.955575987012
19.776 630
19.79611 660.003697702568
19.81622 676.049830356095
19.83634 734.028435610169
19.85645 722.91686238734
19.87656 783.996566781941
19.89668 720.048295929893
19.91679 725.990872467421
19.93691 739.015988526817
19.95702 777.006107731888
19.97713 746.950896291233
19.99725 739.028872431405
20.01736 743.050487417348
20.03747 703.026994682774
20.05759 707.005227121449
20.0777 676
20.09782 673.995024901735
20.11793 654.966844330197
20.13804 667.1453766814
20.15816 742.018901009396
20.17827 654.111420777324
20.19838 646.977289773242
20.2185 670
20.23861 693.996632979731
20.25872 656.956964547365
20.27884 645.065531864164
20.29895 682.033747857662
20.31907 630.035400833388
20.33918 653.975938808828
20.35929 659.991532834912
20.37941 685.000339006735
20.39952 663.9922095444
20.41963 681.028010620916
20.43975 675.92191539347
20.45986 640.031711409056
20.47998 667.928936820544
20.50009 718.017872386791
20.5202 648
20.54032 739.048465639982
20.56043 704.944930222333
20.58054 711.030102802119
20.60066 713.993311262252
20.62077 745.886257443509
20.64088 839.930854029194
20.661 876
20.68111 933.0326191208
20.70123 1041.29393118155
20.72134 1300.49420550522
20.74145 1557.11353000151
20.76157 2048.15187740375
20.78168 2645.36912593855
20.80179 3322.64307762756
20.82191 3967.22838192778
20.84202 4220.13608050489
20.86214 4198.38073556487
20.88225 3665.62195486723
20.90236 3108.47233411256
20.92248 2234.77226438683
20.94259 1669.23393971029
20.9627 1238
20.98282 1008.81626181672
21.00293 850.864201716634
21.02305 817.940604438284
21.04316 780.051849690438
21.06327 767.036562864391
21.08339 738.000918238783
21.1035 753
21.12361 737.019705661932
21.14373 786.930866541752
21.16384 671.900325262747
21.18395 722.864605062161
21.20407 706.097744782384
21.22418 656.990234849489
21.2443 703
21.26441 675.989870037432
21.28452 689.022563014878
21.30464 704.027145003667
21.32475 709.042841029673
21.34486 694.943882252024
21.36498 734.020898513222
21.38509 667.013875642697
21.40521 694.006171396692
21.42532 661.963261286093
21.44543 651.009543173636
21.46555 667.065824365957
21.48566 670.109516177702
21.50577 592.046640352477
21.52589 620.983809637728
21.546 610
21.56612 569.994534221407
21.58623 593.024109948986
21.60634 580.947641531276
21.62646 564.989657043665
21.64657 578.00489087229
21.66668 562.000949858494
21.6868 577
21.70691 547.971621785851
21.72702 511.026104897523
21.74714 581.102186636828
21.76725 568.150488859606
21.78737 518.993016008847
21.80748 564.967810083645
21.82759 558.008439205001
21.84771 536.975872995853
21.86782 493.015868266095
21.88793 550.03578856293
21.90805 527.982097460559
21.92816 549.990402926745
21.94828 520.035887484302
21.96839 490.020151918045
21.9885 460
22.00862 522.063681786122
22.02873 535.930769958533
22.04884 467.91885972275
22.06896 473.953171841306
22.08907 484.007805706654
22.10919 472.004225832557
22.1293 475
22.14941 477.98888182936
22.16953 448.998802861076
22.18964 476.039456036477
22.20975 466.068097456291
22.22987 445.004894717435
22.24998 460.974793835704
22.27009 489.981640095143
22.29021 508.985568033534
22.31032 458.986130140112
22.33044 492.067675458046
22.35055 488.9193869466
22.37066 454.036077218196
22.39078 459.981810306687
22.41089 460.018427499311
22.431 410
22.45112 434.038910505679
22.47123 448.97085227492
22.49135 415.962317638848
22.51146 432.936218846825
22.53157 460.967409937762
22.55169 462.016077244664
22.5718 440
22.59191 505.993099841796
22.61203 422.940026925759
22.63214 452.026324862265
22.65225 421.046046763815
22.67237 432.994322818144
22.69248 423.987712388236
22.7126 458
22.73271 460.004485732249
22.75282 466.969432573065
22.77294 423.005575523932
22.79305 460.003772744193
22.81316 413.053122784125
22.83328 426.991109972729
22.85339 412.005984047784
22.87351 427.019492005354
22.89362 446.960437989142
22.91373 380.972617177311
22.93385 420.081084176655
22.95396 417.00840756063
22.97407 437.943191197003
22.99419 466.999064715378
23.0143 454
23.03442 474.009078497858
23.05453 459.968458009037
23.07464 442.964999164719
23.09476 429.996762571903
23.11487 441.987735606629
23.13498 435.019330723985
23.1551 429
23.17521 472.004062455687
23.19532 439.969811145206
23.21544 445.06440591554
23.23555 472.008160412719
23.25567 444.033412112791
23.27578 441.997255919243
23.29589 429.01673772983
23.31601 403.007418923248
23.33612 443.016002383651
23.35623 419.957533729077
23.37635 422.08684127247
23.39646 457.000701213577
23.41658 419.042539248566
23.43669 412.980417192032
23.4568 450
23.47692 401.012016885806
23.49703 467.037181455427
23.51714 426.931873395218
23.53726 444.908908309192
23.55737 469.034147895448
23.57749 420.014361366205
23.5976 426
23.61771 427.006252860528
23.63783 442.987150841149
23.65794 429.055216153906
23.67805 475.016339127252
23.69817 419.047040253944
23.71828 433.990634770991
23.73839 422.997052549959
23.75851 458.019318008683
23.77862 466.970788879711
23.79874 447.09083446178
23.81885 522.03063685698
23.83896 463.093024952289
23.85908 469.981190104105
23.87919 481.986050181549
23.8993 500
23.91942 431.986577239361
23.93953 479.048468905228
23.95965 468.985874387157
23.97976 500.888828087282
23.99987 528.061188787629
24.01999 463.002651209257
24.0401 516
24.06021 488.989323536293
24.08033 493.990606311534
24.10044 475.008941747745
24.12056 505.952150792981
24.14067 505.01627000443
24.16078 483.049102894262
24.1809 436
24.20101 487.027626500985
24.22112 506.989369375016
24.24124 489.992334019914
24.26135 494.031823471561
24.28146 461.063303033373
24.30158 458.965261893816
24.32169 504.988074873676
24.34181 483.972270559582
24.36192 445.018957735805
24.38203 492.005579158042
24.40215 449.951836051816
24.42226 487.877720417845
24.44237 534.957753520643
24.46249 540.009202367386
24.4826 511
24.50272 499.000462814383
24.52283 514.049927891144
24.54294 549.031427586628
24.56306 524.131844879695
24.58317 467.990355706124
24.60328 540.909618188564
24.6234 593
24.64351 577.999803152905
24.66362 598.011432190226
24.68374 603.058554821914
24.70385 650.926948556479
24.72397 652.000385509477
24.74408 676.950620915055
24.76419 715.00464605272
24.78431 679.998464740343
24.80442 728.06057313254
24.82453 779.084413054911
24.84465 808.889788272786
24.86476 738.00433345393
24.88488 804.958804510794
24.90499 784.012587802675
24.9251 769
24.94522 680.909492213497
24.96533 637.024280840682
24.98544 690.106043460606
25.00556 695.110138979034
25.02567 621.058165471758
25.04579 626.996585330607
25.0659 622
25.08601 656.011072354597
25.10613 640.930423716595
25.12624 592.950502967169
25.14635 587.038825822269
25.16647 580.923104773617
25.18658 651.995874668385
25.20669 589.021743198478
25.22681 614.028163628864
25.24692 642.979237102862
25.26704 591.921741249248
25.28715 578.966297144342
25.30726 566.963084867034
25.32738 593.018528539162
25.34749 543.007884491661
25.3676 562
25.38772 510.964404409216
25.40783 505.979689186165
25.42795 475.962950385383
25.44806 495.914380606995
25.46817 525.01540291104
25.48829 478.027557123905
25.5084 446
25.52851 459.0092690565
25.54863 475.026172089073
25.56874 493.026345708346
25.58886 497.009065303038
25.60897 492.99268537529
25.62908 508.979237966432
25.6492 523
25.66931 512.992375354112
25.68942 507.011656321096
25.70954 524.002983716661
25.72965 510.021518394767
25.74976 519.958006218493
25.76988 531.012749703895
25.78999 512.995390780431
25.81011 535.995340745128
25.83022 494.974200645203
25.85033 516.079568962638
25.87045 559.011655664001
25.89056 527.077461618318
25.91067 515.966866971655
25.93079 550.989118360298
25.9509 555
25.97102 558.972894162855
25.99113 523.008260956166
26.01124 573.094510538671
26.03136 585.019253313383
26.05147 582.968810566662
26.07158 606.011000877859
26.0917 574
26.11181 603.007910277607
26.13193 609.066964015779
26.15204 687.113392661669
26.17215 701.985473977497
26.19227 724.950497254965
26.21238 749.99458206595
26.23249 755.98102495699
26.25261 815.018341928645
26.27272 841.068981866393
26.29283 920.001393723272
26.31295 862.981185864265
26.33306 962.68687109341
26.35318 1086.95107654547
26.37329 1095.97742717709
26.3934 1246
26.41352 1499.17757906527
26.43363 1668.45626411487
26.45374 2156.13081898938
26.47386 2799.38684719003
26.49397 3850.10504204602
26.51409 5433.00102792864
26.5342 7805
26.55431 10458.4108678175
26.57443 13513.7955938674
26.59454 16436.44890704
26.61465 17791.3220020012
26.63477 17746.5119068732
26.65488 15739.7678328717
26.67499 12733.4405645129
26.69511 10064.6817841761
26.71522 7345.35479180223
26.73534 4931.81039931553
26.75545 3179.48866324813
26.77556 2067.67169908162
26.79568 1472.3431800604
26.81579 1300.03974226483
26.8359 1203
26.85602 1040.87499760025
26.87613 969.920443395398
26.89625 900.797994920485
26.91636 831.075636584721
26.93647 820.013233436545
26.95659 800.00970175231
26.9767 773
26.99681 715.992051619013
27.01693 712.90746381136
27.03704 611.90352632636
27.05716 630.980036691394
27.07727 594.067815057918
27.09738 572.005280497036
27.1175 564
27.13761 531.989550326489
27.15772 536.023394075388
27.17784 557.003900319317
27.19795 531.114491109281
27.21806 491.03097735183
27.23818 504.970172657865
27.25829 519.010153663506
27.27841 484.995917468165
27.29852 514.038178954992
27.31863 522.953147681504
27.33875 477.947818595211
27.35886 497.919938154615
27.37897 532.962789037917
27.39909 555.983024182076
27.4192 586
27.43932 563.999701418317
27.45943 594.041554233932
27.47954 578.868004833051
27.49966 497.104850139609
27.51977 487.992564840764
27.53988 487.994335962832
27.56 485
27.58011 442.001747323988
27.60023 473.984736756142
27.62034 431.008004358437
27.64045 475.007402978228
27.66057 417.050763646525
27.68068 436.975339084416
27.70079 438.001050269968
27.72091 443.000827033761
27.74102 442.007407956926
27.76113 449.98443705305
27.78125 436.040345386227
27.80136 459.054361583694
27.82148 396.026789820565
27.84159 427.979196360255
27.8617 434
27.88182 425.05450783601
27.90193 497.999159030715
27.92204 423.888189489433
27.94216 432.939717119766
27.96227 434.051896590094
27.98239 394.003953061451
28.0025 411
28.02261 398.014947496015
28.04273 458.034898268153
28.06284 418.878404646098
28.08295 378.046083243139
28.10307 382.958663296467
28.12318 404.014313007554
28.1433 383
28.16341 441.002547929559
28.18352 393.982381813456
28.20364 423.023714922116
28.22375 393.92438434913
28.24386 398.925235927406
28.26398 421.038647554161
28.28409 368.986033999984
28.3042 444
28.32432 356.954972136471
28.34443 395.058559734899
28.36455 393.997751852152
28.38466 410.975599246562
28.40477 402.03611849178
28.42489 383.998195585841
28.445 400
28.46511 370.971549895952
28.48523 338.058565112791
28.50534 412.047095090032
28.52546 382.00377125976
28.54557 418.992656776741
28.56568 374.041237852175
28.5858 374
28.60591 382.982695880434
28.62602 339.008272747841
28.64614 389.03928192914
28.66625 367.008284434139
28.68636 389.012977095328
28.70648 357.99723122062
28.72659 399.985959464562
28.74671 386.985760024901
28.76682 376.014282311792
28.78693 401.019840292984
28.80705 387.921086827081
28.82716 366.976720237336
28.84727 398.972947532792
28.86739 392.004492737117
28.8875 385
28.90762 348.976069859001
28.92773 354.040803975568
28.94784 382.027394598215
28.96796 388.955509790407
28.98807 419.9841654459
29.00818 396.043351068677
29.0283 367
29.04841 385.99727540809
29.06853 359.994212103134
29.08864 388.054280220544
29.10875 394.008269001891
29.12887 390.012144416223
29.14898 368.041854785505
29.16909 338.988326670351
29.18921 393.01144668029
29.20932 367.971458861059
29.22943 363.002728611186
29.24955 356.971002791292
29.26966 352.970611727838
29.28978 369.01133897603
29.30989 347.992070963952
29.33 391
29.35012 366.987001642629
29.37023 380.008796143231
29.39034 364.966853178067
29.41046 372.921335364013
29.43057 410.009748915542
29.45069 370.010949011346
29.4708 390
29.49091 397.983953097023
29.51103 352.975318492862
29.53114 370.029279244057
29.55125 372.956393910342
29.57137 403.974764569283
29.59148 394.021906840932
29.6116 382
29.63171 391.997592771215
29.65182 371.984179177866
29.67194 371.010965511993
29.69205 375.007128121436
29.71216 376.998024243291
29.73228 371.018752615037
29.75239 357.991322346682
29.7725 384
29.79262 349.003663347837
29.81273 381.987339553479
29.83285 340.007426043214
29.85296 388.965228681824
29.87307 357.032952640487
29.89319 372.988728749654
29.9133 375
29.93341 352.987933172328
29.95353 340.009942657918
29.97364 358.025339231053
29.99376 359.001290350977
30.01387 362.992862977739
30.03398 364.003454903833
30.0541 354
30.07421 345.008940964876
30.09432 381.026901897186
30.11444 375.933759315455
30.13455 340.041214636302
30.15467 357.931627344331
30.17478 395.001821548296
30.19489 364.010084362891
30.21501 371.005406538983
30.23512 375.009706759674
30.25523 385.992725160676
30.27535 357.89690076135
30.29546 344.90527330746
30.31557 414.966969877439
30.33569 374.024190474446
30.3558 352
30.37592 343.021773331408
30.39603 376.001690045035
30.41614 354.01264700617
30.43626 385.993508731371
30.45637 356.020256856626
30.47648 372.988221815481
30.4966 359
30.51671 348.006004340781
30.53683 374.032041163294
30.55694 379.995898299087
30.57705 369.069734173784
30.59717 343.990459573704
30.61728 378.967955751546
30.63739 384.007540697104
30.65751 365.994772016753
30.67762 359.985283410853
30.69773 347.018901168411
30.71785 376.030558702475
30.73796 362.03344790637
30.75808 356.00499686863
30.77819 353.9935940565
30.7983 379
30.81842 386.99622608484
30.83853 384.011480558889
30.85864 393.988200200355
30.87876 374.027463050997
30.89887 379.971236815547
30.91899 396.997197910616
30.9391 384
30.95921 351.989287476016
30.97933 355.04326130045
30.99944 377.967407435175
31.01955 340.020609114224
31.03967 374.939425000839
31.05978 389.007015032192
31.0799 369
31.10001 351.007060540121
31.12012 373.988591713535
31.14024 329.937315263185
31.16035 336.934202941837
31.18046 345.058076017508
31.20058 310.987432599895
31.22069 359.988344812523
31.2408 355
31.26092 403.002537534695
31.28103 347.914463010773
31.30115 328.004746479188
31.32126 334.978747301259
31.34137 343.995084413898
31.36149 348.990951240662
31.3816 368
31.40171 340.987130493642
31.42183 336.017342209918
31.44194 351.018801686455
31.46206 349.020686639853
31.48217 343.983419204802
31.50228 362.992200252996
31.5224 356
31.54251 358.001355108613
31.56262 362.013425565264
31.58274 378.006601094222
31.60285 359.088350051117
31.62297 340.958328099978
31.64308 387.989542020347
31.66319 353.016781000038
31.68331 348.002189142415
31.70342 343.989134484075
31.72353 340.022835593155
31.74365 369.06181327461
31.76376 372.037331948918
31.78387 347.023706063845
31.80399 342.003882353211
31.8241 327
31.84422 334.035298359244
31.86433 371.004553617327
31.88444 346.982205980668
31.90456 359.006556309713
31.92467 334.025147662872
31.94478 345.968601544612
31.9649 376
31.98501 369.987218294543
32.00513 342.980964882514
32.02524 345.003670357287
32.04535 338.023705521108
32.06547 339.968224832945
32.08558 366.988817826432
32.10569 361.001564849489
32.12581 368.002152764645
32.14592 364.99781474806
32.16604 364.99097140833
32.18615 356.990778739327
32.20626 358.003170690862
32.22638 356.989947329125
32.24649 373.995459504429
32.2666 367
32.28672 355.000243343426
32.30683 358.987527485453
32.32694 351.042083484188
32.34706 383.00877949393
32.36717 352.001108922307
32.38729 378.003942281397
32.4074 340
32.42751 382.016891720989
32.44763 383.99942026323
32.46774 398.031265119547
32.48785 399.043300445334
32.50797 385.973278190927
32.52808 422.982525646823
32.5482 402
32.56831 377.002258823316
32.58842 401.018808750324
32.60854 397.965650967987
32.62865 382.016703966778
32.64876 397.912054089095
32.66888 430.026133505935
32.68899 362.023298320482
32.7091 369
32.72922 390.008652116486
32.74933 392.005453888457
32.76945 395.986780712179
32.78956 384.012604184264
32.80967 379.030187763885
32.82979 360.990867564188
32.8499 418
32.87001 448.995399044221
32.89013 414.946597075926
32.91024 397.999001741963
32.93036 406.972683917064
32.95047 431.92919372225
32.97058 474.002592035303
32.9907 440
33.01081 462.008763162979
33.03092 454.987271073703
33.05104 446.977240634239
33.07115 437.981156791319
33.09127 471.916315332385
33.11138 516.99498893166
33.13149 499.996020545887
33.15161 526.996443279922
33.17172 476.951675118618
33.19183 468.036708056867
33.21195 494.003165261459
33.23206 471.041015198507
33.25217 463.017420835544
33.27229 455.988889113697
33.2924 483
33.31252 435.988745572988
33.33263 472.04521215772
33.35274 461.936088430199
33.37286 440.989449828216
33.39297 459.992308613543
33.41308 437.037559859504
33.4332 406
33.45331 413.01499564201
33.47343 453.054554185981
33.49354 459.929264225747
33.51365 412.042368582478
33.53377 431.970200666898
33.55388 423.029631815084
33.57399 404.990930447932
33.59411 449.017278886287
33.61422 438.944959407311
33.63434 384.989090919097
33.65445 425.089110467643
33.67456 422.053379703567
33.69468 400.003605774547
33.71479 403.00784542278
33.7349 378
33.75502 396.994722969539
33.77513 360.954108293785
33.79524 356.01087100321
33.81536 359.988310947614
33.83547 367.989606230224
33.85559 374.994387425713
33.8757 387
33.89581 381.995081124965
33.91593 373.993515960303
33.93604 367.970676913561
33.95615 352.006434577398
33.97627 356.016114021542
33.99638 346.9693119632
34.0165 388
34.03661 325.986786884552
34.05672 360.039044879938
34.07684 364.973036763696
34.09695 352.022207477781
34.11706 357.943582289114
34.13718 386.999672477952
34.15729 360.011697591348
34.17741 359.004830088501
34.19752 367.005627955763
34.21763 367.99200416041
34.23775 358.979439256738
34.25786 357.983235391231
34.27797 366.006569981706
34.29809 357.995379540122
34.3182 381
34.33831 367.985987980141
34.35843 359.051542597694
34.37854 403.996467729619
34.39866 364.024343477268
34.41877 397.950913368296
34.43888 397.020111155262
34.459 379
34.47911 368.986070346717
34.49922 344.015874537821
34.51934 390.054418676608
34.53945 383.020973443523
34.55957 388.995187863833
34.57968 386.992486127691
34.59979 402.995763846412
34.61991 413.01812825194
34.64002 456.004741795741
34.66013 429.992992922302
34.68025 470.140143916877
34.70036 488.092925600288
34.72047 427.993725939229
34.74059 499.967535069708
34.7607 517
34.78082 510.961010338957
34.80093 473.034264552182
34.82104 543.087201039517
34.84116 527.071936671216
34.86127 519.952709141499
34.88138 569.962066620511
34.9015 575
34.92161 556.999633378728
34.94173 568.00156563476
34.96184 564.034755238779
34.98195 598.945829305647
35.00207 581.080197243296
35.02218 525.028463902784
35.04229 540.97613544253
35.06241 571.988853287775
35.08252 518.975672324713
35.10264 522.946921191623
35.12275 470.967084319222
35.14286 506.937290138309
35.16298 508.001937454836
35.18309 513.002831690273
35.2032 491
35.22332 484.023645907158
35.24343 512.995915089075
35.26354 481.962029686237
35.28366 501.908880188076
35.30377 543.96753359953
35.32389 538.01223815837
35.344 515
35.36411 531.022265911659
35.38423 559.949499384435
35.40434 502.006447235107
35.42445 565.904294308433
35.44457 550.019899157168
35.46468 568.976319802385
35.4848 567
35.50491 547.016773594909
35.52502 617.045880066339
35.54514 603.905556187118
35.56525 569.000028270276
35.58536 597.940745400207
35.60548 605.010946219467
35.62559 601.986910137798
35.64571 635.999319382113
35.66582 595.961214859303
35.68593 579.984162439059
35.70605 580.083410480289
35.72616 630.942068660966
35.74627 614.072217237364
35.76639 588.980795513643
35.7865 662
35.80661 623.957780467578
35.82673 566.020571748685
35.84684 630.09602390313
35.86696 624.06521980093
35.88707 592.046621386231
35.90718 558.040077555382
35.9273 533
35.94741 579.020758321134
35.96752 590.991669965629
35.98764 569.929686918138
36.00775 541.992726107638
36.02787 569.964475848608
36.04798 566.025918076774
36.06809 530.019650213895
36.08821 499.993063221415
36.10832 509.032174784755
36.12843 536.993456365623
36.14855 517.022506571791
36.16866 538.056962519952
36.18878 478.011422924768
36.20889 525.980948918831
36.229 521
36.24912 520.997388020053
36.26923 518.021107719408
36.28934 540.006277572369
36.30946 526.005401780641
36.32957 549.943728512305
36.34968 604.911668280097
36.3698 709
36.38991 769.033424523188
36.41003 854.122844076892
36.43014 947.273893378897
36.45025 1141.43173882472
36.47037 1355.74193418622
36.49048 1498.84948148147
36.51059 1599.02435279658
36.53071 1453.95526004789
36.55082 1443.94429845784
36.57094 1285.62057724975
36.59105 1129.6935766126
36.61116 1029.17094178298
36.63128 943.092193603202
36.65139 824.078814714602
36.6715 664
36.69162 609.958848049019
36.71173 559.946146880304
36.73184 545.987776098673
36.75196 529.063725669647
36.77207 500.005287889318
36.79219 530.974158082372
36.8123 556
36.83241 490.986744487929
36.85253 518.043317097369
36.87264 511.946862238141
36.89275 493.985415287436
36.91287 516.972610061408
36.93298 522.992261417527
36.9531 532
36.97321 518.999084099326
36.99332 517.970000614987
37.01344 479.004777355622
37.03355 523.904900674301
37.05366 528.017013480748
37.07378 524.00394207963
37.09389 509.016214763581
37.11401 473.992239550939
37.13412 474.993081907491
37.15423 457.993063211848
37.17435 483.12379812143
37.19446 511.070603820294
37.21457 444.037433505032
37.23469 465.999818677556
37.2548 436
37.27491 466.000555608007
37.29503 440.011744555807
37.31514 475.995464301912
37.33526 443.973501949652
37.35537 494.990866892123
37.37548 447.028221198159
37.3956 466
37.41571 460.99486625756
37.43582 456.994174429384
37.45594 448.995486467376
37.47605 450.014961654104
37.49617 447.965142439631
37.51628 461.054244442418
37.53639 382.001469073445
37.55651 463.035845382856
37.57662 473.990533085627
37.59673 473.99853699698
37.61685 461.943685105944
37.63696 454.93146678143
37.65708 502.992180001277
37.67719 468.013265587816
37.6973 478
37.71742 480.970652105644
37.73753 451.01964321617
37.75764 492.020190951364
37.77776 461.046829530007
37.79787 464.99531021882
37.81798 461.986082813321
37.8381 481
37.85821 450.998921353247
37.87833 477.011835838049
37.89844 444.904713810483
37.91855 423.938614857548
37.93867 468.96823170048
37.95878 459.004589801572
37.97889 463.010383493163
37.99901 436.009561853451
38.01912 486.013049321156
38.03924 449.940453110251
38.05935 468.131869276254
38.07946 507.022491941167
38.09958 464.020048279179
38.11969 473.005078076157
38.1398 450
38.15992 498.008954817242
38.18003 459.962165644674
38.20015 484.126196311281
38.22026 520.989848108795
38.24037 510.985983501095
38.26049 534.001918125618
38.2806 513
38.30071 556.010704296309
38.32083 526.915970874536
38.34094 491.017430665962
38.36105 533.895737110433
38.38117 545.021950054381
38.40128 524.012833308073
38.4214 529
38.44151 548.005928745088
38.46162 541.973175809432
38.48174 521.029740045359
38.50185 545.059067299078
38.52196 501.954176979309
38.54208 568.000130926347
38.56219 498.017002162489
38.58231 521.999337198499
38.60242 480.988372491035
38.62253 519.058718210566
38.64265 530.002884989765
38.66276 522.06925404288
38.68287 469.066773061406
38.70299 454.993720336086
38.7231 477
38.74321 480.996393833488
38.76333 474.002761520561
38.78344 477.981872502685
38.80356 458.02631477216
38.82367 468.94756029044
38.84378 496.013368282791
38.8639 467
38.88401 499.98706489877
38.90412 418.947238052564
38.92424 431.062532707342
38.94435 448.957536219329
38.96447 473.956839628392
38.98458 484.027575165253
39.00469 447.99795221648
39.02481 484.005516633321
39.04492 457.981468021327
39.06503 460.991818028939
39.08515 452.056066600504
39.10526 487.01339695543
39.12538 441.02861212521
39.14549 463.97380819021
39.1656 506
39.18572 501.006022197884
39.20583 533.065466262303
39.22594 565.020821170707
39.24606 557.027271600383
39.26617 548.009866457504
39.28628 578.894507844961
39.3064 715
39.32651 743.026659858453
39.34663 864.223533598905
39.36674 1026.39094450885
39.38685 1213.7210347967
39.40697 1284.80633524787
39.42708 1439.95375332971
39.44719 1375.02239514861
39.46731 1362.95145163564
39.48742 1164.8059381682
39.50754 1061.95056541761
39.52765 1035.77035784282
39.54776 878.310854421726
39.56788 773.06971497165
39.58799 690.063538250965
39.6081 544
39.62822 494.966712256714
39.64833 453.954794853494
39.66845 432.922081357498
39.68856 400.012224992357
39.70867 418.978806138964
39.72879 413.005752754783
39.7489 402
39.76901 393.013554875155
39.78913 433.004369874248
39.80924 393.927664228921
39.82935 384.010784434314
39.84947 387.946380862384
39.86958 430.001557511141
39.8897 392
39.90981 413.010019871096
39.92992 402.969876296968
39.95004 381.00992390233
39.97015 413.893081021785
39.99026 429.065946282706
40.01038 390.979091702011
40.03049 455.98517877096
40.05061 422.978084542199
40.07072 411.0115047055
40.09083 438.064038014435
40.11095 488.119154623082
40.13106 531.906888104365
40.15117 587.904145597457
40.17129 652.970515445808
40.1914 720
40.21152 823.071374015326
40.23163 870.101731165064
40.25174 936.995394868938
40.27186 887.015383997136
40.29197 902.106557137415
40.31208 751.113375754213
40.3322 726
40.35231 680.954421617186
40.37242 588.956820416678
40.39254 594.008874245161
40.41265 562.136796230229
40.43277 509.058362549529
40.45288 479.037513872047
40.47299 440.008485007655
40.49311 440.995938939773
40.51322 416.980732317888
40.53333 407.980107758851
40.55345 393.001663250477
40.57356 408.972954882225
40.59368 406.016036082254
40.61379 395.994062490306
40.6339 428
40.65402 446.000772256207
40.67413 428.948484679241
40.69424 404.022466611147
40.71436 438.961973471238
40.73447 415.081978743323
40.75458 371.003237029853
40.7747 406
40.79481 417.990758259695
40.81493 401.027846433219
40.83504 444.0442098132
40.85515 438.984230265708
40.87527 457.013104185395
40.89538 413.048736156393
40.91549 392.993692459083
40.93561 417.00504988124
40.95572 411.000651164415
40.97584 436.088274806067
40.99595 472.012245597864
41.01606 443.085308626005
41.03618 409.022076400368
41.05629 408.985310534907
41.0764 442
41.09652 410.964676041714
41.11663 398.010645743999
41.13675 407.99510943199
41.15686 399.986718182361
41.17697 416.001073257978
41.19709 390.016725117212
41.2172 380
41.23731 418.004301464847
41.25743 387.943401642865
41.27754 371.00432537053
41.29765 381.972214342506
41.31777 388.989472765503
41.33788 400.982481375629
41.358 408
41.37811 368.984299538283
41.39822 367.023710899361
41.41834 386.980565230731
41.43845 362.99184703155
41.45856 397.941002108686
41.47868 393.031520009985
41.49879 366.997912421506
41.51891 399.016313568241
41.53902 404.978642448258
41.55913 380.998529388702
41.57925 398.011344538591
41.59936 382.028271660937
41.61947 387.96670583001
41.63959 414.988128700764
41.6597 413
41.67982 361.988285510924
41.69993 389.027017024517
41.72004 379.986425757054
41.74016 381.029342697986
41.76027 359.991231609922
41.78038 385.99400518047
41.8005 379
41.82061 427.004121102904
41.84072 382.951775834
41.86084 363.993440860956
41.88095 363.988351161708
41.90107 365.018547902652
41.92118 352.987958742764
41.94129 378.997068407348
41.96141 355.986765866985
41.98152 355.028470922341
42.00163 393.034677256037
42.02175 389.958334085834
42.04186 373.031940619081
42.06198 363.996838873299
42.08209 367.007319802832
42.1022 353
42.12232 401.025624186779
42.14243 389.977656017099
42.16254 397.044276534663
42.18266 421.956837116969
42.20277 432.006430870741
42.22289 416.011111820963
42.243 414
42.26311 467.008254779857
42.28323 486.164257477534
42.30334 652.196709591469
42.32345 654.004944791389
42.34357 738.747561512096
42.36368 916.886686966594
42.38379 982.946414665606
42.40391 1121.03337519417
42.42402 1095.96280249723
42.44414 1066.84162143809
42.46425 936.696736909675
42.48436 851.157870517726
42.50448 757.098765207366
42.52459 685.010765781753
42.5447 676
42.56482 575.924408591299
42.58493 531.894694760288
42.60505 431.815852175746
42.62516 409.003383661712
42.64527 401.017314295546
42.66539 387.008891289545
42.6855 368
42.70561 356.995761138734
42.72573 355.016434327632
42.74584 379.060880504684
42.76595 398.011308809426
42.78607 364.085803706011
42.80618 319.999385423318
42.8263 346
42.84641 320.999688688567
42.86652 351.016768204893
42.88664 334.950364581258
42.90675 327.965303359136
42.92686 348.977675801318
42.94698 344.010618653847
42.96709 329.014172060674
42.98721 312.014276168753
43.00732 359.0037527226
43.02743 329.01045224863
43.04755 367.988704576031
43.06766 313.072882485561
43.08777 335.917475404035
43.10789 374.999361229483
43.128 348
43.14812 343.000004901835
43.16823 333.973504277999
43.18834 312.962105744098
43.20846 309.956405946492
43.22857 339.981431684856
43.24868 330.01144005798
43.2688 327
43.28891 312.991212055606
43.30902 306.013085882762
43.32914 326.008159570663
43.34925 314.013758479152
43.36937 328.959736667085
43.38948 350.991488385147
43.40959 349.000555796794
43.42971 348.994975718828
43.44982 329.984556877687
43.46993 332.031737035518
43.49005 355.013718408824
43.51016 342.026498419789
43.53028 338.00317993222
43.55039 330.004928568822
43.5705 328
43.59062 345.003548550064
43.61073 336.999738650458
43.63084 341.976494483632
43.65096 330.94158866134
43.67107 372.023223445668
43.69119 325.990848255912
43.7113 392
43.73141 312.967752583048
43.75153 311.021780346636
43.77164 315.024632707351
43.79175 334.980809073475
43.81187 335.970726706803
43.83198 357.020165850788
43.85209 307.012595563041
43.87221 333.02460649174
43.89232 355.974490140678
43.91244 310.974074416491
43.93255 328.992929853122
43.95266 314.927982740726
43.97278 376.001062635278
43.99289 317.012740077173
44.013 336
44.03312 289.008051568933
44.05323 354.057655532631
44.07335 332.922826172326
44.09346 331.961208341773
44.11357 348.998243441009
44.13369 335.007489628081
44.1538 325
44.17391 321.012359417442
44.19403 347.973931839427
44.21414 302.981490248057
44.23426 342.921722966111
44.25437 346.02876430026
44.27448 330.001117121477
44.2946 340
44.31471 336.999713229921
44.33482 340.999651192222
44.35494 334.991943411085
44.37505 342.94428139117
44.39516 355.050948077153
44.41528 311.015515235783
44.43539 333.987651715287
44.45551 329.986715912832
44.47562 299.98009105825
44.49573 307.056523632131
44.51585 352.061283999491
44.53596 346.03884318511
44.55607 334.996460549677
44.57619 342.001030832643
44.5963 330
44.61642 327.996353309032
44.63653 323.004043126865
44.65664 336.033659288721
44.67676 343.020699254222
44.69687 319.039338263912
44.71698 309.98329331272
44.7371 339
44.75721 342.001492257688
44.77732 345.990009171341
44.79744 326.98431450493
44.81755 338.949101483962
44.83767 349.011980673746
44.85778 332.009171324187
44.87789 329.007536508075
44.89801 315.009392590306
44.91812 352.008658031946
44.93823 331.995738406374
44.95835 360.067012063788
44.97846 361.035743471719
44.99858 337.024041046448
45.01869 332.984784737689
45.0388 357
45.05892 291.999640519099
45.07903 361.077886277971
45.09914 357.978599351738
45.11926 360.024183043206
45.13937 340.987401743195
45.15949 372.991478649497
45.1796 364
45.19971 366.998329246699
45.21983 358.005029522373
45.23994 376.033860956877
45.26005 379.021037695578
45.28017 362.037624299809
45.30028 346.986752965153
45.32039 383.981197512241
45.34051 396.992784763493
45.36062 380.008180074394
45.38074 409.03527962878
45.40085 398.944236915699
45.42096 380.029570227158
45.44108 371.001870175027
45.46119 378.990383968717
45.4813 407
45.50142 426.994523401241
45.52153 408.993117666905
45.54165 416.985183960669
45.56176 400.991183171489
45.58187 428.963780721454
45.60199 445.983300510834
45.6221 495
45.64221 539.04363919718
45.66233 633.035301354271
45.68244 623.137761972657
45.70256 772.765463441994
45.72267 811.962896461226
45.74278 849.986315457198
45.7629 833
45.78301 819.981635246769
45.80312 767.969461206367
45.82324 747.887995339607
45.84335 651.233932533532
45.86346 596.044885644955
45.88358 590.996079124278
45.90369 581.019024448299
45.92381 518.96672007736
45.94392 462.952102923137
45.96403 424.966411980797
45.98415 411.963306105823
46.00426 394.02246934079
46.02437 394.986425827828
46.04449 387.022942638365
46.0646 339
46.08472 392.03099665191
46.10483 379.986022903525
46.12494 376.923090539107
46.14506 326.989460165212
46.16517 380.955470776282
46.18528 357.034158733978
46.2054 349
46.22551 361.000148213224
46.24563 352.998952497962
46.26574 351.951326084958
46.28585 324.963629227765
46.30597 376.938884195102
46.32608 379.016190607762
46.34619 373.992436013448
46.36631 384.986747003896
46.38642 326.95048982942
46.40653 319.04159516418
46.42665 353.040810754609
46.44676 349.007233517831
46.46688 356.990014671874
46.48699 361.00025708517
46.5071 360
46.52722 353.975430231508
46.54733 330.011489793395
46.56744 365.054044990164
46.58756 355.081919608729
46.60767 324.973859833784
46.62779 377.980254498883
46.6479 370
46.66801 346.014659578617
46.68813 391.984167021134
46.70824 332.947192212874
46.72835 363.918981607914
46.74847 359.038362997952
46.76858 340.001618097014
46.78869 350.995964521032
46.80881 347.996612593372
46.82892 338.983210008423
46.84904 325.010593583047
46.86915 353.094137542153
46.88926 378.989986192875
46.90938 364.025150051532
46.92949 338.013366603426
46.9496 326
46.96972 357.008783716081
46.98983 341.990717159717
47.00995 353.010358743432
47.03006 349.973260497453
47.05017 377.974637416699
47.07029 365.018040451456
47.0904 333
47.11051 348.006316778943
47.13063 340.970166059525
47.15074 324.996530207732
47.17086 331.005993293714
47.19097 326.970517113121
47.21108 357.995201979089
47.2312 337
47.25131 353.007796986536
47.27142 347.97921526927
47.29154 341.063587587873
47.31165 390.946025944403
47.33176 362.111412302501
47.35188 319.013525009472
47.37199 332.988465618922
47.39211 347.002400122716
47.41222 334.963654997372
47.43233 308.036251700064
47.45245 361.043899457257
47.47256 328.069323109647
47.49267 329.957056612489
47.51279 355.998221838314
47.5329 350
47.55302 372.979496489818
47.57313 333.021275029649
47.59324 377.958078913916
47.61336 300.056588205374
47.63347 350.918969488452
47.65358 361.005585611577
47.6737 359
47.69381 358.013802713424
47.71393 391.993706506939
47.73404 347.917902987027
47.75415 335.996447453591
47.77427 339.982383917602
47.79438 356.985771257484
47.81449 359.005956149516
47.83461 354.012266306084
47.85472 386.99739656262
47.87483 351.96957057408
47.89495 376.128062493172
47.91506 410.023388369674
47.93518 365.037590207614
47.95529 365.984670878064
47.9754 388
47.99552 356.005468346289
48.01563 390.001182033942
48.03574 363.024022351692
48.05586 406.996670179884
48.07597 357.055191563116
48.09609 358.998991710649
48.1162 343
48.13631 355.019240884896
48.15643 386.985690131075
48.17654 341.921048092222
48.19665 334.969170586342
48.21677 364.911635477784
48.23688 410.024224334671
48.257 329
48.27711 329.029374921388
48.29722 380.989245958552
48.31734 330.980054084619
48.33745 365.008620690733
48.35756 328.025372178252
48.37768 362.958614362997
48.39779 371.012260697446
48.4179 330
48.43802 310.009326151335
48.45813 342.060546179168
48.47825 362.968279898426
48.49836 334.026800796622
48.51847 348.962975013965
48.53859 362.000891407156
48.5587 348
48.57881 334.000087899222
48.59893 347.025254346887
48.61904 348.954335344131
48.63916 326.970274431715
48.65927 370.956228887937
48.67938 364.020942890109
48.6995 354
48.71961 358.995199195506
48.73972 340.995676613828
48.75984 358.048043986094
48.77995 370.013263378087
48.80006 357.011819492688
48.82018 359.003989105738
48.84029 349.000994747369
48.86041 345.986547026253
48.88052 320.023038242152
48.90063 377.041271338879
48.92075 351.905100421693
48.94086 331.025365683108
48.96097 329.96498607558
48.98109 361.994172691213
49.0012 350
49.02132 351.999372507312
49.04143 342.987666276848
49.06154 345.025370178559
49.08166 362.966042199049
49.10177 375.982433971885
49.12188 386.992170262939
49.142 376
49.16211 330.998547439491
49.18223 376.082138981141
49.20234 388.913479467967
49.22245 331.039206439
49.24257 363.952492402409
49.26268 368.997533373042
49.28279 388.983463121249
49.30291 409.993780005521
49.32302 369.959883600943
49.34313 356.017742615467
49.36325 389.124319118086
49.38336 416.063493902018
49.40348 354.027403369082
49.42359 382.978669002414
49.4437 399
49.46382 382.993206856169
49.48393 395.036447969029
49.50404 405.956424932859
49.52416 375.987451745813
49.54427 401.026964275081
49.56439 356.99534359215
49.5845 419
49.60461 396.986324548503
49.62473 394.000737146899
49.64484 396.044793664774
49.66495 418.046182356843
49.68507 378.998875231574
49.70518 420.975890306026
49.7253 410
49.74541 413.986509628247
49.76552 377.013881901133
49.78564 425.008913831407
49.80575 388.001423133245
49.82586 454.835536352804
49.84598 497.004672210199
49.86609 485.985385642833
49.8862 549
49.90632 560.020228933867
49.92643 614.105679871515
49.94655 709.357409357012
49.96666 871.748062326178
49.98677 973.786872654574
50.00689 1184.88021466085
50.027 1405
50.04711 1610.14246364957
50.06723 1923.33071523976
50.08734 2012.06406865184
50.10746 2035.02949690739
50.12757 1952.22821635922
50.14768 1728.29246587284
50.1678 1435
50.18791 1324.98657926269
50.20802 1317.97906723039
50.22814 1262.85064524289
50.24825 1170.30185231769
50.26837 1002.32972187281
50.28848 771.190681191174
50.30859 638.05214518603
50.32871 524.93671031025
50.34882 420.96291666836
50.36893 439.027812672874
50.38905 416.876823527946
50.40916 391.923479781104
50.42927 446.025404345987
50.44939 373.013284911905
50.4695 410
50.48962 383.996645461893
50.50973 415.019334656241
50.52984 402.010637751175
50.54996 426.00293294091
50.57007 403.990435489728
50.59018 427.021271996094
50.6103 378
50.63041 430.012335508069
50.65053 397.939198810259
50.67064 381.988709819658
50.69075 376.998693986013
50.71087 380.003570258999
50.73098 377.9879908456
50.75109 391.006442370788
50.77121 358.991457302001
50.79132 367.009685508218
50.81143 358.967400378726
50.83155 348.051448698069
50.85166 382.978189079776
50.87178 364.016678789266
50.89189 361.004930908688
50.912 337
50.93212 332.021142318492
50.95223 366.039806514754
50.97234 363.936074490407
50.99246 331.005859478232
51.01257 346.014554608711
51.03269 326.984985217961
51.0528 386
51.07291 342.991114530734
51.09303 371.02630421183
51.11314 348.930440081886
51.13325 336.949728029326
51.15337 369.97435311934
51.17348 354.0375820955
51.1936 329
51.21371 354.998371056013
51.23382 320.978109843301
51.25394 333.050625382031
51.27405 342.041719640575
51.29416 318.006815311804
51.31428 336.984874360269
51.33439 334.00465682871
51.3545 326
51.37462 311.986395037544
51.39473 309.021619435246
51.41485 325.994477359956
51.43496 309.011129676776
51.45507 322.976634479843
51.47519 331.994035148492
51.4953 342
51.51541 320.990779467083
51.53553 317.008645024025
51.55564 320.990793143891
51.57576 315.980715230501
51.59587 326.028497366254
51.61598 299.981217152002
51.6361 357
51.65621 335.972072575605
51.67632 285.975389172831
51.69644 292.046262419359
51.71655 310.983657242098
51.73667 308.998093156954
51.75678 321.978830431812
51.77689 336.002689278057
51.79701 316.992744016602
51.81712 315.000792890817
51.83723 320.030477709814
51.85735 341.99640399934
51.87746 320.029016282796
51.89757 327.973321249153
51.91769 335.00594941489
51.9378 311
51.95792 307.011861204492
51.97803 325.022900687993
51.99814 329.991315287704
52.01826 322.013575812652
52.03837 319.001885514321
52.05848 318.997153345183
52.0786 321
52.09871 318.005441813862
52.11883 336.008135112252
52.13894 325.982322109191
52.15905 326.992323010664
52.17917 330.982737493544
52.19928 341.007350625575
52.21939 320.007421958962
52.23951 316.997529289581
52.25962 313.013704158151
52.27974 328.971902652077
52.29985 293.963669714671
52.31996 315.933492963273
52.34008 339.98130063524
52.36019 347.00773315527
52.3803 327
52.40042 351.009667947181
52.42053 339.993350902608
52.44064 344.980456402212
52.46076 322.020026984694
52.48087 330.987680092051
52.50099 322.011394571254
52.5211 307
52.54121 342.018537332088
52.56133 342.921502719029
52.58144 283.99785851041
52.60155 334.918863812044
52.62167 327.996351479386
52.64178 348.00344271142
52.6619 326
52.68201 359.007081163327
52.70212 344.994446181756
52.72224 352.980382668129
52.74235 328.014551615683
52.76246 344.981407936151
52.78258 330.025226282224
52.80269 314.998946782064
52.8228 319
52.84292 297.008561141359
52.86303 329.017794496452
52.88315 309.956415426907
52.90326 319.938194155065
52.92337 344.007077053196
52.94349 322.00290704525
52.9636 341
52.98371 347.00221845521
53.00383 349.985158346242
53.02394 334.998493015448
53.04406 352.956635490056
53.06417 363.003811599789
53.08428 347.029313929234
53.1044 334
53.12451 386.006242456111
53.14462 359.994254629227
53.16474 386.021275119953
53.18485 367.03955762363
53.20497 367.006066801082
53.22508 351.015717956267
53.24519 349.991926411361
53.26531 364.996423890143
53.28542 346.000476514874
53.30553 373.043910866594
53.32565 381.974418741593
53.34576 372.976821457589
53.36587 397.982500671198
53.38599 381.017106187394
53.4061 360
53.42622 393.022708088454
53.44633 395.002534358445
53.46644 407.024769989064
53.48656 411.007024935774
53.50667 396.046796425296
53.52678 372.98505748107
53.5469 408
53.56701 378.987437686466
53.58713 387.046357935478
53.60724 405.964151621756
53.62735 372.009583733565
53.64747 407.941075934244
53.66758 417.018936593113
53.68769 399.993647525611
53.70781 432.006388001261
53.72792 416.986826078168
53.74804 426.044226093956
53.76815 449.050733105662
53.78826 460.99796135611
53.80838 446.033457172379
53.82849 415.002209163573
53.8486 438
53.86872 447.994202846126
53.88883 433.976040098001
53.90894 416.954282626348
53.92906 419.869299782093
53.94917 496.999776290775
53.96929 423.028130318558
53.9894 432
54.00951 446.000643105113
54.02963 446.008633123134
54.04974 457.017160534672
54.06985 461.981054278182
54.08997 461.040538709836
54.11008 436.973960216425
54.1302 499
54.15031 473.97019498776
54.17042 426.987573693298
54.19054 448.063796437332
54.21065 469.967732215468
54.23076 469.042194571557
54.25088 453.976121100541
54.27099 507.979102839345
54.29111 501.976122651405
54.31122 461.008973380707
54.33133 511.058475709519
54.35145 491.818066101819
54.37156 434.949087169628
54.39167 507.971170702115
54.41179 450.028485432971
54.4319 442
54.45201 457.015474420078
54.47213 478.962290130065
54.49224 427.965471949425
54.51236 448.990756152127
54.53247 436.961618005806
54.55258 482.008747985638
54.5727 427
54.59281 464.017718368369
54.61292 458.973735783701
54.63304 453.073751544592
54.65315 523.819979081139
54.67327 564.986952987892
54.69338 548.034875581254
54.71349 540.970399322319
54.73361 661.067585874442
54.75372 763.062645665735
54.77383 803.056948765642
54.79395 850.113084223019
54.81406 891.907809879644
54.83417 919.036311336309
54.85429 867.011731321416
54.8744 861
54.89452 755.912638093204
54.91463 714.953556891927
54.93474 687.010575735297
54.95486 714.980678738533
54.97497 683.083961858456
54.99508 638.015502391086
55.0152 629
55.03531 558.976611584841
55.05543 544.969737473137
55.07554 501.91427638593
55.09565 476.034950288836
55.11577 485.923004861783
55.13588 540.000553048973
55.15599 485.025889446119
55.17611 487.024735626492
55.19622 531.994148626326
55.21634 514.108958225576
55.23645 627.180803688898
55.25656 625.025740864945
55.27668 636.991427204739
55.29679 632.00025798196
55.3169 630
55.33702 574.940043546366
55.35713 539.998074259364
55.37724 532.879569900535
55.39736 458.998221205523
55.41747 534.905215706652
55.43759 533.016240582349
55.4577 512
55.47781 503.976500525607
55.49793 438.957787916791
55.51804 437.925713078206
55.53815 363.123545664172
55.55827 373.933637044343
55.57838 402.011324779162
55.5985 373
55.61861 400.006074895157
55.63872 389.000783567844
55.65884 413.047262352218
55.67895 414.051672258221
55.69906 385.049060235486
55.71918 374.000703162347
55.73929 372.005757756844
55.75941 356.99803000275
55.77952 369.018376537689
55.79963 381.00308461009
55.81975 373.970598905926
55.83986 364.01129767365
55.85997 372.952822202475
55.88009 402.003443347098
55.9002 371
55.92031 399.018545359728
55.94043 410.971095318242
55.96054 386.002130614035
55.98066 401.029606895465
56.00077 365.006829455359
56.02088 387.009041460923
56.041 350
56.06111 385.009223047857
56.08122 363.971719745078
56.10134 352.99844133096
56.12145 356.973860609983
56.14157 364.012392624737
56.16168 346.010128926882
56.18179 350.995042966695
56.20191 353.997166687477
56.22202 351.012762996117
56.24213 364.981218890649
56.26225 337.995953450644
56.28236 362.974009992404
56.30248 358.987784256746
56.32259 380.005586241936
56.3427 343
56.36282 359.009242715267
56.38293 348.994000808224
56.40304 363.037640550144
56.42316 372.00541908869
56.44327 365.998742472847
56.46338 374.991753515745
56.4835 369
56.50361 339.993364186563
56.52373 348.022974760186
56.54384 362.035346873593
56.56395 382.954514196896
56.58407 391.006171205413
56.60418 373.031471095592
56.62429 348.997662591641
56.64441 365.99587997363
56.66452 337.995366271122
56.68464 366.053876357351
56.70475 363.935600363734
56.72486 348.949440950469
56.74498 392.988738527688
56.76509 366.009705474366
56.7852 362
56.80532 318.983864791462
56.82543 347.069312945482
56.84554 366.948963876329
56.86566 325.0190976498
56.88577 355.953213476132
56.90589 367.993395394704
56.926 379
56.94611 339.98231707373
56.96623 324.993529187543
56.98634 328.033721318899
57.00645 356.919900295505
57.02657 374.012025416257
57.04668 353.011722467375
57.0668 354
57.08691 344.002155028774
57.10702 365.020512042776
57.12714 373.000301224704
57.14725 370.01540748653
57.16736 371.956981718853
57.18748 396.002445341304
57.20759 375.001321227718
57.22771 390.999004110193
57.24782 369.995600362621
57.26793 386.007170946092
57.28805 361.902978894482
57.30816 332.020849732718
57.32827 342.963794803405
57.34839 366.990864107258
57.3685 371
57.38861 349.992753977773
57.40873 345.995494187334
57.42884 343.011210097834
57.44896 351.009034006831
57.46907 344.972467550324
57.48918 377.988494385706
57.5093 360
57.52941 358.003322287954
57.54952 352.971940240869
57.56964 325.014175682726
57.58975 355.978632984523
57.60987 337.008276573701
57.62998 352.995541432677
57.65009 338.004625563732
57.67021 345.004320985851
57.69032 353.019442019143
57.71043 374.000271218789
57.73055 361.008994799347
57.75066 376.017088423872
57.77078 347.0112019329
57.79089 362.992772403633
57.811 354
57.83112 339.016845846372
57.85123 372.018286488472
57.87134 362.005705967476
57.89146 380.993734827824
57.91157 354.058974858635
57.93168 330.995094721935
57.9518 346
57.97191 318.988322149267
57.99203 328.066233182446
58.01214 366.980151884897
58.03225 325.033075545518
58.05237 347.990653298017
58.07248 326.008569674704
58.09259 343.991996012778
58.11271 345.000633828594
58.13282 363.035702532579
58.15294 382.938537291141
58.17305 326.948344193437
58.19316 347.98195333993
58.21328 331.0034244411
58.23339 347.997692065695
58.2535 325
58.27362 313.022627425572
58.29373 345.003290569059
58.31385 317.95821373448
58.33396 332.942456325672
58.35407 350.004345551131
58.37419 338.999557593421
58.3943 339
58.41441 298.005382189345
58.43453 360.07987063057
58.45464 361.933811725535
58.47475 331.018116980545
58.49487 351.951343274776
58.51498 363.027009004311
58.5351 319
58.55521 331.011136793764
58.57532 334.981297152496
58.59544 314.003542746704
58.61555 345.889731817696
58.63566 370.02257931609
58.65578 337.025437324064
58.67589 334.995740899606
58.69601 341.001636027911
58.71612 346.011235655342
58.73623 352.981394704545
58.75635 330.983769338625
58.77646 336.024417567893
58.79657 320.961729255089
58.81669 370.992865083198
58.8368 320
58.85691 275.020665459362
58.87703 364.077421779052
58.89714 347.939084973177
58.91726 340.00270963533
58.93737 329.03090341602
58.95748 314.990825205115
58.9776 342
58.99771 347.999515124088
59.01782 351.0081903869
59.03794 357.996106117741
59.05805 355.963930248751
59.07817 373.016601561617
59.09828 336.029630874438
59.11839 335.990466506009
59.13851 347.994553882758
59.15862 324.991626020652
59.17873 338.021981842186
59.19885 349.053481490107
59.21896 372.991848413061
59.23908 354.022954650023
59.25919 342.00238604782
59.2793 345
59.29942 361.000832248148
59.31953 346.981082398331
59.33964 343.997859816743
59.35976 350.942665416692
59.37987 392.951255444174
59.39998 396.024180833496
59.4201 355
59.44021 327.00725226474
59.46033 371.058305775574
59.48044 382.99394101178
59.50055 379.999811167818
59.52067 380.009301376129
59.54078 374.990166846872
59.56089 394.994218478039
59.58101 382.983905873532
59.60112 367.033669685003
59.62124 422.028090509046
59.64135 414.125150431205
59.66146 491.017170618411
59.68158 419.99822737369
59.70169 525.947204837602
59.7218 572
59.74192 613.03575244064
59.76203 643.058928511012
59.78215 701.174831895755
59.80226 798.709727130354
59.82237 973.755673040668
59.84249 1105.94004577862
59.8626 1247
59.88271 1420.06374497889
59.90283 1478.01035240907
59.92294 1458.92211963807
59.94305 1379.3633560284
59.96317 1184.29854844782
59.98328 1028.10634467544
60.0034 961
60.02351 939.003385902934
60.04362 950.984610985459
60.06374 905.912239503132
60.08385 873.103334973346
60.10396 823.075835240491
60.12408 771.111552302369
60.14419 618.063750347089
60.16431 549.980889585777
60.18442 502.937030090338
60.20453 430.902220325908
60.22465 382.914086967228
60.24476 363.994097916381
60.26487 382.965809231469
60.28499 386.014220178472
60.3051 350
60.32522 371.013410668129
60.34533 360.979731123579
60.36544 361.02171798629
60.38556 371.000268050038
60.40567 359.024558105918
60.42578 348.003024130849
60.4459 345
60.46601 322.990934081254
60.48612 328.035218387193
60.50624 372.047172400791
60.52635 360.084876053795
60.54647 329.024088533991
60.56658 333.979572166748
60.58669 351.998530528158
60.60681 339.992888337389
60.62692 344.030141737099
60.64703 372.988295776906
60.66715 334.93485419374
60.68726 336.990507100377
60.70738 333.995764473554
60.72749 347.994444196764
60.7476 347
60.76772 345.019445674501
60.78783 359.956358193107
60.80794 308.978417999021
60.82806 333.016639310432
60.84817 299.974262109688
60.86828 358.983125512776
60.8884 318
60.90851 336.018519822775
60.92863 349.96682517567
60.94874 326.042925416299
60.96885 372.988250782074
60.98897 323.073905390192
61.00908 320.962932521571
61.02919 359.994364690528
61.04931 349.000768903247
61.06942 367.003550871829
61.08954 337.902505455756
61.10965 308.038483123617
61.12976 345.978035082487
61.14988 327.999845886395
61.16999 354.992408293105
61.1901 343
61.21022 334.989433542403
61.23033 322.99793242109
61.25045 336.047952912282
61.27056 350.983886447841
61.29067 354.992349968678
61.31079 353.011244554387
61.3309 328
61.35101 359.011562796394
61.37113 349.95312473804
61.39124 334.054588088156
61.41135 376.993837010472
61.43147 330.073772064244
61.45158 330.943141021204
61.4717 389
61.49181 336.985412188776
61.51192 348.999869224564
61.53204 328.005511321206
61.55215 365.901231015071
61.57226 371.06523700579
61.59238 331.013168369626
61.61249 351.985787123981
61.63261 376.016891682913
61.65272 397.973728206248
61.67283 349.990285427481
61.69295 387.049212416676
61.71306 370.02525831396
61.73317 372.020924732062
61.75329 347.99854334434
61.7734 391
61.79352 408.943212968638
61.81363 336.005751113256
61.83374 410.090162004192
61.85386 394.022107209918
61.87397 417.965734231972
61.89408 409.035444435756
61.9142 387
61.93431 446.019866465758
61.95442 434.957664116059
61.97454 403.002560299494
61.99465 440.863192015571
62.01477 468.039698263469
62.03488 433.969415100803
62.05499 506.989903785478
62.07511 455.977257108642
62.09522 468.045577381873
62.11533 509.032121008622
62.13545 511.999870151608
62.15556 516.000668193913
62.17568 511.998616884582
62.19579 513.007085394473
62.2159 500
62.23602 547.03753503337
62.25613 549.96908333183
62.27624 512.886499587923
62.29636 476.940147089045
62.31647 526.035620771414
62.33659 449.008922139717
62.3567 505
62.37681 482.994958208877
62.39693 505.012085067696
62.41704 480.943231719715
62.43715 466.026809180294
62.45727 466.955430641842
62.47738 495.021724215947
62.49749 439.013062606667
62.51761 459.009324911499
62.53772 451.990209014422
62.55784 441.939485932225
62.57795 400.946002362292
62.59806 414.928011526238
62.61818 446.985146514162
62.63829 421.038682610675
62.6584 356
62.67852 431.01459914156
62.69863 369.939650578133
62.71875 385.023442651498
62.73886 371.982795020101
62.75897 401.989660153264
62.77909 379.007515624884
62.7992 378
62.81931 350.001038266691
62.83943 380.024179649547
62.85954 362.943955270278
62.87965 345.020783984195
62.89977 346.97939060029
62.91988 360.001940871085
62.94 347
62.96011 359.011254308899
62.98022 370.987456378727
63.00034 347.989539391918
63.02045 354.042825781463
63.04056 324.989555582521
63.06068 366.965395925651
63.08079 369.006127014816
63.10091 359.996779936624
63.12102 361.01415410145
63.14113 378.005380629798
63.16125 362.943297365969
63.18136 358.939295281446
63.20147 392.018157518459
63.22159 347.008671893117
63.2417 360
63.26182 319.993107122414
63.28193 347.004629230908
63.30204 323.006542803237
63.32216 364.925693675541
63.34227 369.022323960641
63.36238 352.016309907812
63.3825 348
63.40261 376.009107264323
63.42272 373.98726368418
63.44284 358.963913294795
63.46295 345.003786773169
63.48307 346.021834845184
63.50318 333.973019955568
63.52329 388.982610609864
63.54341 375.979666869667
63.56352 342.990629821332
63.58363 348.996480637817
63.60375 342.039356009734
63.62386 385.901187545274
63.64398 401.037655663748
63.66409 346.008958747006
63.6842 370
63.70432 359.992982275099
63.72443 368.008282721496
63.74454 355.945757328626
63.76466 343.937419288435
63.78477 391.985747404506
63.80489 372.991183188059
63.825 435
63.84511 442.99912268752
63.86523 442.973940929109
63.88534 427.046861538663
63.90545 495.797343860518
63.92557 543.998659662289
63.94568 534.967899847669
63.96579 599.98118127863
63.98591 588.989319353765
64.00602 577.982210301409
64.02614 540.898273245648
64.04625 496.948635594281
64.06636 505.942813504145
64.08648 527.004297396243
64.10659 493.02502880155
64.1267 452
64.14682 460.028783283315
64.16693 485.004013263132
64.18705 470.983000738143
64.20716 475.010472251515
64.22727 437.110378601693
64.24739 376.99636313521
64.2675 434
64.28761 407.971892029909
64.30773 366.984365812005
64.32784 369.969289603062
64.34796 344.987363969127
64.36807 378.974354536414
64.38818 379.970080255236
64.4083 424
64.42841 364.967928497832
64.44852 348.032498337525
64.46864 376.939943405096
64.48875 322.967226093411
64.50886 385.990840293821
64.52898 328.015718359432
64.54909 377.982895303786
64.56921 351.975287784107
64.58932 332.026311012691
64.60943 373.010501314208
64.62955 341.938085096308
64.64966 342.000596723211
64.66977 331.010058104672
64.68989 336.993934382125
64.71 348
64.73012 353.000028803595
64.75023 341.959530651584
64.77034 318.006765028292
64.79046 350.920043707097
64.81057 357.070666775557
64.83068 306.98255177723
64.8508 369
64.87091 311.973286438394
64.89102 308.019065240942
64.91114 331.067886102199
64.93125 356.029285518805
64.95137 319.034503558312
64.97148 328.977022499491
64.99159 339.004622498999
65.01171 319.993602499721
65.03182 326.021687689634
65.05193 341.987570324279
65.07205 320.991021302896
65.09216 340.960821403083
65.11228 343.009196919415
65.13239 332.004801374284
65.1525 324
65.17262 324.022205006787
65.19273 353.010386897046
65.21284 344.019275479501
65.23296 371.977976264942
65.25307 350.053905469367
65.27319 328.997782722677
65.2933 331
65.31341 286.010820521423
65.33353 356.04010322316
65.35364 321.956641562169
65.37375 340.962257571623
65.39387 330.022094500539
65.41398 325.003922262685
65.43409 322.995242181402
65.45421 339.00380247103
65.47432 335.99882843146
65.49444 341.0061535939
65.51455 335.971971765326
65.53466 323.023639593592
65.55478 316.998065849963
65.57489 326.992012874223
65.595 336
65.61512 318.996708821486
65.63523 341.056055621076
65.65535 357.925288677588
65.67546 316.978890247431
65.69557 383.901820858094
65.71569 400.012232613003
65.7358 370
65.75591 378.999354162645
65.77603 364.999184587224
65.79614 379.007223411002
65.81626 357.074985229531
65.83637 329.999552875602
65.85648 353.972887537278
65.8766 361
65.89671 345.005448790249
65.91682 375.014465409259
65.93694 347.879951320565
65.95705 303.965065520971
65.97716 356.937463121736
65.99728 341.028217282718
66.01739 329.999463262243
66.03751 333.000001506727
66.05762 325.98694998633
66.07773 314.997699067035
66.09785 326.048226192708
66.11796 338.014085523062
66.13807 325.986897405397
66.15819 343.006576996916
66.1783 303
66.19842 310.013497935489
66.21853 322.04111218116
66.23864 356.028535028299
66.25876 338.073055142544
66.27887 310.008000409171
66.29898 322.987103151743
66.3191 332
66.33921 342.984520112353
66.35933 288.964025946576
66.37944 310.057554738379
66.39955 318.01157938913
66.41967 312.006662761682
66.43978 303.022370517521
66.45989 284.993309824005
66.48001 325.017204401275
66.50012 331.989172055967
66.52023 317.981950522121
66.54035 319.050624825087
66.56046 343.983029370068
66.58058 332.015594419802
66.60069 322.005876478602
66.6208 312
66.64092 328.018018606479
66.66103 333.985936500785
66.68114 319.991060903962
66.70126 326.987355965208
66.72137 332.973102228189
66.74149 348.007727037993
66.7616 317
66.78171 351.019808677656
66.80183 357.951394629485
66.82194 315.970717459886
66.84205 331.966676808551
66.86217 342.937162851837
66.88228 390.007942505343
66.90239 332.021318895754
66.92251 325.993689489309
66.94262 298.994532102669
66.96274 325.06334015448
66.98285 341.01010182148
67.00296 335.035888945372
67.02308 318.997857773174
67.04319 335.993867687985
67.0633 335
67.08342 343.022362599463
67.10353 364.000829729567
67.12365 343.945588169596
67.14376 332.017614448059
67.16387 333.959030109798
67.18399 364.002559167183
67.2041 336
67.22421 363.002637392763
67.24433 345.009777112843
67.26444 376.015424616826
67.28456 351.038552656698
67.30467 351.007634691526
67.32478 344.978241834919
67.3449 385
67.36501 367.984685033874
67.38512 360.028591319365
67.40524 394.993807329232
67.42535 371.951244155221
67.44546 429.94117447413
67.46558 414.011339072426
67.48569 434.984576365848
67.50581 462.015605105026
67.52592 488.002511061513
67.54603 494.08137278949
67.56615 606.333030877358
67.58626 697.958474001925
67.60637 699.905467408224
67.62649 819.954630023948
67.6466 865
67.66672 969.087739070192
67.68683 995.959764588206
67.70694 959.984951102218
67.72706 944.195264697968
67.74717 787.176606644652
67.76728 750.010992456184
67.7874 712
67.80751 653.986760549327
67.82763 675.086822935664
67.84774 723.001884897378
67.86785 700.960416094933
67.88797 752.96237751074
67.90808 748.972679248088
67.92819 801.994137143022
67.94831 758.977887671158
67.96842 740.983215452788
67.98853 745.1044996785
68.00865 878.369070883025
68.02876 995.825218666624
68.04888 1079.89599044886
68.06899 1193.95623787332
68.0891 1226
68.10922 1212.03917167776
68.12933 1254.9223096032
68.14944 1114.75529093624
68.16956 1060.07982684296
68.18967 1008.05443373719
68.20979 1013.97622076335
68.2299 1101
68.25001 1209.02018243305
68.27013 1189.97081323732
68.29024 1191.97381036628
68.31035 1098.50282507066
68.33047 869.217333826234
68.35058 827.029003894262
68.3707 748
68.39081 666.976284535585
68.41092 637.961690287062
68.43104 598.995409330277
68.45115 623.007730665229
68.47126 584.108966900738
68.49138 538.038517002275
68.51149 499.022608446631
68.5316 458
68.55172 451.982497390866
68.57183 422.977271813242
68.59195 421.971667678138
68.61206 387.093150966251
68.63217 356.994058108559
68.65229 385.986272300101
68.6724 381
68.69251 341.003462091752
68.71263 375.999362193828
68.73274 340.988841326813
68.75286 375.955033372212
68.77297 355.06405449488
68.79308 329.988907778387
68.8132 357
68.83331 335.995215701225
68.85342 351.016347966994
68.87354 347.959811584141
68.89365 322.055627721352
68.91376 318.954481980623
68.93388 347.991415704423
68.95399 336.003122283003
68.97411 340.997733190002
68.99422 322.985517255223
69.01433 332.053563517011
69.03445 373.052471261351
69.05456 362.060223812482
69.07467 333.029846186348
69.09479 327.995941581272
69.1149 340
69.13502 340.997570969053
69.15513 328.952839902936
69.17524 297.999552798551
69.19536 320.98329364205
69.21547 316.964957246241
69.23558 358.988586075609
69.2557 322
69.27581 295.006577319589
69.29593 323.006385307743
69.31604 306.004860796673
69.33615 328.990443525722
69.35627 315.981852339038
69.37638 345.004625818496
69.39649 309.007147028018
69.41661 325.001003681451
69.43672 303.99123387298
69.45683 324.04532787092
69.47695 333.943329006452
69.49706 296.045775669382
69.51718 304.972035582726
69.53729 336.983347382416
69.5574 356
69.57752 326.972671027888
69.59763 317.002924435666
69.61774 332.069137543755
69.63786 355.053741461998
69.65797 299.038629909394
69.67809 317.990449086617
69.6982 316
69.71831 328.005286642647
69.73843 323.972233896569
69.75854 313.037405189903
69.77865 348.954858239786
69.79877 332.05157514592
69.81888 305.011758491276
69.839 308
69.85911 312.998434777161
69.87922 304.993866824337
69.89934 299.977717015628
69.91945 303.112006513749
69.93956 362.960784473525
69.95968 326.05503095855
69.97979 294.002680174252
69.9999 312
70.02002 331.980305323084
70.04013 295.994418212944
70.06025 326.042339828807
70.08036 310.044419129496
70.10047 301.999570113949
70.12059 304.996958838571
70.1407 321
70.16081 355.007394673258
70.18093 341.957031668464
70.20104 322.002621019008
70.22116 331.01876625596
70.24127 312.98600881864
70.26138 336.013204515632
70.2815 303
70.30161 348.99824127623
70.32172 294.97615202258
70.34184 329.078975835691
70.36195 341.985144446432
70.38207 341.041570976952
70.40218 295.035177584721
70.42229 290.990461727166
70.44241 312.004768327492
70.46252 311.002439399222
70.48263 312.975540980138
70.50275 290.000075301585
70.52286 321.914394624409
70.54297 345.010974246529
70.56309 313.020073131462
70.5832 288
70.60332 306.028059217588
70.62343 328.014012567869
70.64354 321.96441252018
70.66366 311.971824871868
70.68377 331.01737076856
70.70388 299.006328912958
70.724 319
70.74411 289.987926190745
70.76423 295.036225547574
70.78434 320.034280954748
70.80445 324.015552194957
70.82457 307.046638092418
70.84468 280.000678493456
70.86479 310.977209020656
70.88491 336.994214259716
70.90502 309.997674143504
70.92513 328.995689177228
70.94525 299.95943952438
70.96536 313.954062735737
70.98548 317.024912833848
71.00559 280.012330595488
71.0257 282
71.04582 302.014127848077
71.06593 305.994043449476
71.08604 311.057303173573
71.10616 339.02455865946
71.12627 300.018885445124
71.14639 324.989720912281
71.1665 329
71.18661 355.000697145276
71.20673 326.957221016509
71.22684 313.980829698999
71.24695 302.019003651639
71.26707 301.993588452754
71.28718 306.994603638927
71.3073 310
71.32741 302.995294121972
71.34752 298.003820612106
71.36764 299.970326704675
71.38775 286.943426231199
71.40786 331.960458330332
71.42798 307.041619430421
71.44809 293.983328968547
71.4682 344
71.48832 320.973013154049
71.50843 320.026841464069
71.52855 327.94068963248
71.54866 292.01286782886
71.56877 320.956788891936
71.58889 329.997648844446
71.609 333
71.62911 304.983865514111
71.64923 295.041251898669
71.66934 345.08381579174
71.68946 354.038270860232
71.70957 321.055732586938
71.72968 306.972586288069
71.7498 351
71.76991 327.983996399207
71.79002 318.012779334176
71.81014 330.979713673664
71.83025 302.049360810136
71.85037 313.942253937471
71.87048 346.003058778792
71.89059 321.002588916691
71.91071 343.007367731564
71.93082 326.964024447328
71.95093 304.019166249553
71.97105 339.05224979528
71.99116 336.996123134189
72.01127 351.984998774174
72.03139 346.007499981293
72.0515 337
72.07162 351.008862917302
72.09173 349.997045347551
72.11184 354.016008012017
72.13196 360.994562646628
72.15207 350.046285918205
72.17218 321.995597461951
72.1923 352
72.21241 339.98661141335
72.23253 321.997875300412
72.25264 332.017357825104
72.27275 330.023460761803
72.29287 324.988070165747
72.31298 337.998638011167
72.33309 326.005172193874
72.35321 326.002094450972
72.37332 322.984603960384
72.39344 314.043223364768
72.41355 353.046938383507
72.43366 331.091604667999
72.45378 305.975736230716
72.47389 348.998882745463
72.494 308
72.51412 314.001738168457
72.53423 300.99873282792
72.55434 322.05137492828
72.57446 330.030754892586
72.59457 309.004652529174
72.61469 320.999625612693
72.6348 310
72.65491 327.002371321482
72.67503 316.998188454129
72.69514 321.970489694833
72.71525 307.916874614796
72.73537 359.011915161657
72.75548 308.001044411624
72.7756 361
72.79571 323.988899523453
72.81582 342.014480563351
72.83594 336.000037737171
72.85605 346.999160182422
72.87616 334.014641605908
72.89628 336.003982691987
72.91639 326.998810951447
72.9365 330
72.95662 298.005018520131
72.97673 341.054729892751
72.99685 338.927917703212
73.01696 310.026947293585
73.03707 319.960553178776
73.05719 344.993672560374
73.0773 348
73.09741 357.999682158604
73.11753 346.989258764102
73.13764 341.963108707675
73.15776 329.939678300474
73.17787 380.978626814095
73.19798 348.033066127585
73.2181 345
73.23821 363.017889872752
73.25832 404.022507865421
73.27844 407.010858778591
73.29855 423.961769703729
73.31867 445.925575726531
73.33878 510.954258752018
73.35889 528.992346790174
73.37901 548.001735723673
73.39912 545.018538422737
73.41923 581.031487842492
73.43935 570.937192929324
73.45946 546.049349839194
73.47957 514.068885391434
73.49969 458.027098765939
73.5198 414
73.53992 402.030238356063
73.56003 449.029169439259
73.58014 433.974423961624
73.60026 437.008182057395
73.62037 433.956231476458
73.64048 482.975562203467
73.6606 461
73.68071 419.986102681785
73.70083 398.958405797798
73.72094 361.930986607349
73.74105 346.973284207009
73.76117 365.994222290559
73.78128 342.040861867528
73.80139 305.011211939917
73.82151 308.014517569365
73.84162 341.013745084597
73.86174 338.010899812773
73.88185 354.008494898802
73.90196 335.055667659137
73.92208 317.999369127315
73.94219 330.993364500351
73.9623 336
73.98242 338.007577493553
74.00253 343.990335650956
74.02264 324.958553392917
74.04276 322.946810439112
74.06287 353.003061095976
74.08299 314.022492624437
74.1031 296
74.12321 321.009159354595
74.14333 322.993086071584
74.16344 319.994272669474
74.18355 316.011926526444
74.20367 315.984937207008
74.22378 331.987712912353
74.2439 330
74.26401 315.003239453106
74.28412 333.000443562582
74.30424 311.965368120754
74.32435 312.977130932308
74.34446 317.008549676256
74.36458 308.006886740137
74.38469 311.9915616994
74.40481 324.995033665249
74.42492 297.981004990714
74.44503 290.976728823463
74.46515 282.08335590297
74.48526 330.99723411025
74.50537 300.973826308469
74.52549 351.005967169007
74.5456 279
74.56571 321.031744691005
74.58583 343.962778453064
74.60594 307.993541402207
74.62606 335.972601498517
74.64617 315.046171842056
74.66628 306.97715062175
74.6864 336
74.70651 319.002695089293
74.72662 347.009448728411
74.74674 327.967085062861
74.76685 331.971003146409
74.78697 330.035834502716
74.80708 303.002465004852
74.82719 325.989168887337
74.84731 336.007168714954
74.86742 348.989654428087
74.88753 315.950811821919
74.90765 313.08562868588
74.92776 350.999776348334
74.94787 320.021175800072
74.96799 336.992822282859
74.9881 329
75.00822 315.988828596107
