3.00117 20766
3.02128 20540
3.0414 19647
3.06151 19151
3.08162 18858
3.10174 17811
3.12185 17709
3.14197 16962
3.16208 16676
3.18219 16039
3.20231 15097
3.22242 15379
3.24253 14725
3.26265 14036
3.28276 13970
3.30288 13188
3.32299 13068
3.3431 12248
3.36322 12121
3.38333 11590
3.40344 11080
3.42356 11212
3.44367 10532
3.46379 10111
3.4839 9847
3.50401 9404
3.52413 9377
3.54424 8799
3.56435 8609
3.58447 8096
3.60458 7601
3.62469 7820
3.64481 7347
3.66492 7167
3.68504 6722
3.70515 6178
3.72526 6306
3.74538 5962
3.76549 5485
3.7856 5557
3.80572 5307
3.82583 5041
3.84595 5074
3.86606 4607
3.88617 4484
3.90629 4152
3.9264 4197
3.94651 3886
3.96663 3736
3.98674 3534
4.00686 3264
4.02697 3260
4.04708 3203
4.0672 2810
4.08731 2882
4.10742 2548
4.12754 2633
4.14765 2660
4.16776 2316
4.18788 2311
4.20799 2129
4.22811 2100
4.24822 2050
4.26833 1932
4.28845 1847
4.30856 1900
4.32867 1814
4.34879 1784
4.3689 1546
4.38902 1556
4.40913 1535
4.42924 1498
4.44936 1535
4.46947 1393
4.48958 1422
4.5097 1334
4.52981 1376
4.54992 1342
4.57004 1186
4.59015 1243
4.61027 1104
4.63038 1166
4.65049 1183
4.67061 1087
4.69072 1077
4.71083 1053
4.73095 1052
4.75106 1037
4.77118 970
4.79129 1011
4.8114 950
4.83152 920
4.85163 938
4.87174 870
4.89186 881
4.91197 821
4.93209 846
4.9522 819
4.97231 714
4.99243 773
5.01254 700
5.03265 688
5.05277 736
5.07288 709
5.09299 654
5.11311 673
5.13322 618
5.15334 635
5.17345 568
5.19356 581
5.21368 581
5.23379 547
5.2539 618
5.27402 531
5.29413 549
5.31425 506
5.33436 474
5.35447 487
5.37459 434
5.3947 454
5.41481 485
5.43493 457
5.45504 467
5.47516 421
5.49527 374
5.51538 442
5.5355 417
5.55561 397
5.57572 421
5.59584 392
5.61595 369
5.63606 389
5.65618 335
5.67629 351
5.69641 316
5.71652 393
5.73663 324
5.75675 355
5.77686 338
5.79697 310
5.81709 329
5.8372 325
5.85732 304
5.87743 320
5.89754 281
5.91766 301
5.93777 286
5.95788 283
5.978 264
5.99811 297
6.01823 285
6.03834 310
6.05845 285
6.07857 282
6.09868 256
6.11879 296
6.13891 268
6.15902 285
6.17913 269
6.19925 251
6.21936 274
6.23948 281
6.25959 277
6.2797 251
6.29982 245
6.31993 254
6.34004 281
6.36016 299
6.38027 237
6.40039 246
6.4205 264
6.44061 294
6.46073 250
6.48084 292
6.50095 240
6.52107 256
6.54118 237
6.56129 270
6.58141 259
6.60152 201
6.62164 251
6.64175 262
6.66186 255
6.68198 257
6.70209 230
6.7222 250
6.74232 250
6.76243 244
6.78255 214
6.80266 223
6.82277 228
6.84289 208
6.863 207
6.88311 216
6.90323 246
6.92334 206
6.94346 220
6.96357 214
6.98368 238
7.0038 229
7.02391 248
7.04402 234
7.06414 239
7.08425 266
7.10436 233
7.12448 217
7.14459 234
7.16471 237
7.18482 232
7.20493 214
7.22505 261
7.24516 246
7.26527 244
7.28539 238
7.3055 290
7.32562 234
7.34573 220
7.36584 264
7.38596 262
7.40607 236
7.42618 234
7.4463 254
7.46641 271
7.48653 255
7.50664 260
7.52675 247
7.54687 246
7.56698 228
7.58709 221
7.60721 226
7.62732 255
7.64743 256
7.66755 272
7.68766 263
7.70778 235
7.72789 212
7.748 222
7.76812 249
7.78823 269
7.80834 262
7.82846 262
7.84857 261
7.86869 267
7.8888 257
7.90891 249
7.92903 254
7.94914 247
7.96925 226
7.98937 256
8.00948 254
8.0296 250
8.04971 258
8.06982 228
8.08994 218
8.11005 225
8.13016 244
8.15028 230
8.17039 254
8.1905 254
8.21062 256
8.23073 250
8.25085 222
8.27096 258
8.29107 276
8.31119 273
8.3313 257
8.35141 243
8.37153 265
8.39164 245
8.41176 266
8.43187 270
8.45198 274
8.4721 262
8.49221 270
8.51232 246
8.53244 275
8.55255 252
8.57266 292
8.59278 288
8.61289 257
8.63301 278
8.65312 268
8.67323 232
8.69335 286
8.71346 263
8.73357 253
8.75369 284
8.7738 275
8.79392 250
8.81403 267
8.83414 273
8.85426 273
8.87437 300
8.89448 282
8.9146 280
8.93471 283
8.95483 281
8.97494 271
8.99505 237
9.01517 275
9.03528 250
9.05539 281
9.07551 260
9.09562 275
9.11573 284
9.13585 247
9.15596 247
9.17608 266
9.19619 258
9.2163 276
9.23642 253
9.25653 253
9.27664 283
9.29676 241
9.31687 227
9.33699 266
9.3571 236
9.37721 240
9.39733 280
9.41744 244
9.43755 270
9.45767 266
9.47778 269
9.4979 242
9.51801 221
9.53812 259
9.55824 250
9.57835 276
9.59846 296
9.61858 234
9.63869 253
9.6588 275
9.67892 271
9.69903 277
9.71915 278
9.73926 280
9.75937 287
9.77949 275
9.7996 258
9.81971 275
9.83983 275
9.85994 202
9.88006 258
9.90017 283
9.92028 239
9.9404 267
9.96051 274
9.98062 257
10.00074 262
10.02085 238
10.04097 260
10.06108 229
10.08119 270
10.10131 267
10.12142 273
10.14153 259
10.16165 286
10.18176 256
10.20187 256
10.22199 232
10.2421 223
10.26222 245
10.28233 292
10.30244 266
10.32256 259
10.34267 264
10.36278 272
10.3829 256
10.40301 255
10.42313 289
10.44324 253
10.46335 247
10.48347 260
10.50358 256
10.52369 274
10.54381 237
10.56392 260
10.58403 260
10.60415 226
10.62426 256
10.64438 253
10.66449 279
10.6846 246
10.70472 292
10.72483 242
10.74494 306
10.76506 265
10.78517 255
10.80529 281
10.8254 271
10.84551 268
10.86563 282
10.88574 271
10.90585 260
10.92597 249
10.94608 266
10.9662 259
10.98631 242
11.00642 295
11.02654 275
11.04665 253
11.06676 316
11.08688 250
11.10699 240
11.1271 259
11.14722 269
11.16733 292
11.18745 265
11.20756 248
11.22767 277
11.24779 265
11.2679 243
11.28801 238
11.30813 276
11.32824 267
11.34836 277
11.36847 283
11.38858 276
11.4087 277
11.42881 277
11.44892 267
11.46904 295
11.48915 266
11.50927 300
11.52938 287
11.54949 277
11.56961 287
11.58972 299
11.60983 258
11.62995 252
11.65006 309
11.67017 289
11.69029 292
11.7104 303
11.73052 302
11.75063 257
11.77074 284
11.79086 274
11.81097 287
11.83108 298
11.8512 311
11.87131 277
11.89143 266
11.91154 293
11.93165 342
11.95177 345
11.97188 321
11.99199 340
12.01211 301
12.03222 283
12.05234 317
12.07245 346
12.09256 338
12.11268 341
12.13279 318
12.1529 359
12.17302 350
12.19313 341
12.21324 359
12.23336 349
12.25347 352
12.27359 394
12.2937 361
12.31381 356
12.33393 330
12.35404 345
12.37415 387
12.39427 297
12.41438 335
12.4345 295
12.45461 382
12.47472 314
12.49484 324
12.51495 298
12.53506 255
12.55518 267
12.57529 293
12.5954 275
12.61552 298
12.63563 293
12.65575 263
12.67586 269
12.69597 247
12.71609 261
12.7362 286
12.75631 275
12.77643 257
12.79654 234
12.81666 267
12.83677 266
12.85688 280
12.877 268
12.89711 310
12.91722 238
12.93734 261
12.95745 231
12.97757 242
12.99768 236
13.01779 284
13.03791 277
13.05802 294
13.07813 274
13.09825 281
13.11836 285
13.13847 287
13.15859 276
13.1787 254
13.19882 255
13.21893 252
13.23904 250
13.25916 261
13.27927 248
13.29938 213
13.3195 239
13.33961 268
13.35973 241
13.37984 244
13.39995 255
13.42007 255
13.44018 236
13.46029 246
13.48041 224
13.50052 275
13.52064 276
13.54075 251
13.56086 282
13.58098 308
13.60109 290
13.6212 286
13.64132 330
13.66143 289
13.68154 275
13.70166 301
13.72177 240
13.74189 251
13.762 235
13.78211 221
13.80223 255
13.82234 258
13.84245 249
13.86257 262
13.88268 234
13.9028 213
13.92291 243
13.94302 244
13.96314 266
13.98325 222
14.00336 218
14.02348 189
14.04359 211
14.06371 226
14.08382 208
14.10393 179
14.12405 250
14.14416 255
14.16427 211
14.18439 196
14.2045 204
14.22461 231
14.24473 232
14.26484 239
14.28496 207
14.30507 207
14.32518 210
14.3453 209
14.36541 212
14.38552 214
14.40564 232
14.42575 232
14.44587 224
14.46598 214
14.48609 220
14.50621 221
14.52632 191
14.54643 228
14.56655 215
14.58666 221
14.60677 199
14.62689 277
14.647 226
14.66712 210
14.68723 223
14.70734 239
14.72746 227
14.74757 250
14.76768 201
14.7878 261
14.80791 220
14.82803 263
14.84814 266
14.86825 281
14.88837 283
14.90848 237
14.92859 215
14.94871 285
14.96882 273
14.98894 254
15.00905 243
15.02916 249
15.04928 226
15.06939 255
15.0895 251
15.10962 239
15.12973 217
15.14984 225
15.16996 260
15.19007 233
15.21019 243
15.2303 223
15.25041 213
15.27053 227
15.29064 228
15.31075 209
15.33087 202
15.35098 227
15.3711 225
15.39121 211
15.41132 221
15.43144 216
15.45155 213
15.47166 214
15.49178 242
15.51189 208
15.53201 191
15.55212 229
15.57223 210
15.59235 218
15.61246 189
15.63257 209
15.65269 209
15.6728 227
15.69291 200
15.71303 209
15.73314 186
15.75326 203
15.77337 226
15.79348 204
15.8136 207
15.83371 234
15.85382 219
15.87394 203
15.89405 197
15.91417 207
15.93428 213
15.95439 195
15.97451 216
15.99462 215
16.01473 190
16.03485 193
16.05496 238
16.07508 202
16.09519 207
16.1153 215
16.13542 210
16.15553 180
16.17564 200
16.19576 196
16.21587 206
16.23598 198
16.2561 182
16.27621 220
16.29633 201
16.31644 229
16.33655 213
16.35667 203
16.37678 211
16.39689 211
16.41701 207
16.43712 214
16.45724 220
16.47735 204
16.49746 194
16.51758 198
16.53769 219
16.5578 186
16.57792 238
16.59803 241
16.61814 204
16.63826 221
16.65837 200
16.67849 219
16.6986 220
16.71871 207
16.73883 227
16.75894 188
16.77905 204
16.79917 192
16.81928 203
16.8394 188
16.85951 196
16.87962 210
16.89974 213
16.91985 211
16.93996 195
16.96008 166
16.98019 196
17.00031 219
17.02042 196
17.04053 221
17.06065 224
17.08076 202
17.10087 197
17.12099 174
17.1411 204
17.16121 197
17.18133 208
17.20144 214
17.22156 245
17.24167 192
17.26178 189
17.2819 185
17.30201 215
17.32212 210
17.34224 204
17.36235 213
17.38247 225
17.40258 200
17.42269 209
17.44281 213
17.46292 217
17.48303 237
17.50315 242
17.52326 210
17.54338 244
17.56349 215
17.5836 195
17.60372 241
17.62383 214
17.64394 213
17.66406 218
17.68417 219
17.70428 250
17.7244 215
17.74451 215
17.76463 186
17.78474 211
17.80485 218
17.82497 216
17.84508 211
17.86519 205
17.88531 226
17.90542 219
17.92554 215
17.94565 214
17.96576 236
17.98588 215
18.00599 219
18.0261 229
18.04622 214
18.06633 212
18.08645 218
18.10656 205
18.12667 218
18.14679 209
18.1669 210
18.18701 218
18.20713 230
18.22724 214
18.24735 225
18.26747 201
18.28758 208
18.3077 206
18.32781 186
18.34792 205
18.36804 230
18.38815 221
18.40826 216
18.42838 201
18.44849 201
18.46861 219
18.48872 205
18.50883 190
18.52895 206
18.54906 214
18.56917 211
18.58929 187
18.6094 216
18.62951 219
18.64963 195
18.66974 222
18.68986 202
18.70997 185
18.73008 205
18.7502 232
18.77031 230
18.79042 231
18.81054 243
18.83065 203
18.85077 217
18.87088 176
18.89099 209
18.91111 232
18.93122 238
18.95133 187
18.97145 225
18.99156 216
19.01168 233
19.03179 172
19.0519 195
19.07202 198
19.09213 226
19.11224 215
19.13236 234
19.15247 191
19.17258 236
19.1927 215
19.21281 241
19.23293 236
19.25304 259
19.27315 222
19.29327 246
19.31338 271
19.33349 236
19.35361 222
19.37372 215
19.39384 213
19.41395 248
19.43406 241
19.45418 240
19.47429 254
19.4944 259
19.51452 241
19.53463 228
19.55475 245
19.57486 253
19.59497 268
19.61509 257
19.6352 270
19.65531 286
19.67543 282
19.69554 306
19.71565 323
19.73577 358
19.75588 330
19.776 342
19.79611 351
19.81622 364
19.83634 415
19.85645 392
19.87656 436
19.89668 377
19.91679 384
19.93691 371
19.95702 380
19.97713 394
19.99725 394
20.01736 399
20.03747 339
20.05759 389
20.0777 333
20.09782 376
20.11793 359
20.13804 352
20.15816 391
20.17827 404
20.19838 356
20.2185 350
20.23861 394
20.25872 419
20.27884 374
20.29895 397
20.31907 372
20.33918 449
20.35929 408
20.37941 408
20.39952 408
20.41963 387
20.43975 440
20.45986 391
20.47998 427
20.50009 471
20.5202 488
20.54032 481
20.56043 495
20.58054 564
20.60066 605
20.62077 621
20.64088 758
20.661 907
20.68111 1201
20.70123 1603
20.72134 2130
20.74145 2946
20.76157 3754
20.78168 4631
20.80179 4982
20.82191 5328
20.84202 4969
20.86214 4109
20.88225 3431
20.90236 2473
20.92248 1842
20.94259 1341
20.9627 1197
20.98282 1091
21.00293 1055
21.02305 953
21.04316 885
21.06327 729
21.08339 675
21.1035 579
21.12361 532
21.14373 507
21.16384 458
21.18395 423
21.20407 435
21.22418 434
21.2443 430
21.26441 404
21.28452 398
21.30464 378
21.32475 405
21.34486 393
21.36498 406
21.38509 339
21.40521 398
21.42532 413
21.44543 386
21.46555 373
21.48566 333
21.50577 336
21.52589 380
21.546 324
21.56612 331
21.58623 346
21.60634 349
21.62646 349
21.64657 356
21.66668 338
21.6868 317
21.70691 322
21.72702 311
21.74714 319
21.76725 303
21.78737 300
21.80748 309
21.82759 328
21.84771 289
21.86782 320
21.88793 333
21.90805 313
21.92816 283
21.94828 300
21.96839 265
21.9885 265
22.00862 286
22.02873 318
22.04884 314
22.06896 338
22.08907 333
22.10919 306
22.1293 292
22.14941 323
22.16953 332
22.18964 397
22.20975 341
22.22987 362
22.24998 384
22.27009 428
22.29021 366
22.31032 377
22.33044 344
22.35055 352
22.37066 400
22.39078 331
22.41089 346
22.431 336
22.45112 348
22.47123 322
22.49135 337
22.51146 363
22.53157 323
22.55169 306
22.5718 320
22.59191 335
22.61203 295
22.63214 313
22.65225 313
22.67237 309
22.69248 298
22.7126 310
22.73271 284
22.75282 275
22.77294 278
22.79305 256
22.81316 294
22.83328 298
22.85339 283
22.87351 278
22.89362 312
22.91373 304
22.93385 300
22.95396 330
22.97407 316
22.99419 329
23.0143 360
23.03442 400
23.05453 364
23.07464 429
23.09476 433
23.11487 412
23.13498 428
23.1551 484
23.17521 455
23.19532 455
23.21544 448
23.23555 440
23.25567 364
23.27578 382
23.29589 374
23.31601 334
23.33612 325
23.35623 317
23.37635 313
23.39646 310
23.41658 357
23.43669 355
23.4568 321
23.47692 349
23.49703 327
23.51714 317
23.53726 338
23.55737 292
23.57749 311
23.5976 343
23.61771 334
23.63783 333
23.65794 330
23.67805 350
23.69817 323
23.71828 329
23.73839 349
23.75851 402
23.77862 370
23.79874 368
23.81885 431
23.83896 398
23.85908 429
23.87919 427
23.8993 512
23.91942 521
23.93953 555
23.95965 522
23.97976 488
23.99987 482
24.01999 426
24.0401 411
24.06021 370
24.08033 360
24.10044 328
24.12056 314
24.14067 309
24.16078 324
24.1809 359
24.20101 322
24.22112 386
24.24124 366
24.26135 343
24.28146 382
24.30158 347
24.32169 351
24.34181 331
24.36192 346
24.38203 331
24.40215 372
24.42226 352
24.44237 365
24.46249 347
24.4826 314
24.50272 295
24.52283 340
24.54294 341
24.56306 360
24.58317 354
24.60328 378
24.6234 370
24.64351 389
24.66362 403
24.68374 385
24.70385 383
24.72397 446
24.74408 380
24.76419 350
24.78431 360
24.80442 397
24.82453 425
24.84465 381
24.86476 389
24.88488 367
24.90499 418
24.9251 373
24.94522 369
24.96533 393
24.98544 341
25.00556 379
25.02567 358
25.04579 347
25.0659 388
25.08601 389
25.10613 378
25.12624 394
25.14635 328
25.16647 361
25.18658 334
25.20669 385
25.22681 413
25.24692 399
25.26704 368
25.28715 374
25.30726 407
25.32738 424
25.34749 387
25.3676 396
25.38772 417
25.40783 420
25.42795 513
25.44806 547
25.46817 564
25.48829 578
25.5084 595
25.52851 629
25.54863 661
25.56874 669
25.58886 659
25.60897 587
25.62908 595
25.6492 598
25.66931 589
25.68942 547
25.70954 507
25.72965 478
25.74976 446
25.76988 477
25.78999 453
25.81011 411
25.83022 432
25.85033 459
25.87045 443
25.89056 458
25.91067 449
25.93079 478
25.9509 505
25.97102 488
25.99113 436
26.01124 502
26.03136 512
26.05147 510
26.07158 524
26.0917 590
26.11181 580
26.13193 657
26.15204 676
26.17215 709
26.19227 779
26.21238 807
26.23249 834
26.25261 930
26.27272 1106
26.29283 1196
26.31295 1231
26.33306 1515
26.35318 1773
26.37329 1958
26.3934 2482
26.41352 3034
26.43363 3973
26.45374 5243
26.47386 7394
26.49397 9748
26.51409 13092
26.5342 16572
26.55431 20012
26.57443 22563
26.59454 23381
26.61465 21522
26.63477 18896
26.65488 15081
26.67499 11420
26.69511 7996
26.71522 5335
26.73534 3456
26.75545 2188
26.77556 1644
26.79568 1236
26.81579 1204
26.8359 1150
26.85602 1045
26.87613 1029
26.89625 989
26.91636 963
26.93647 1004
26.95659 1002
26.9767 1056
26.99681 1039
27.01693 1030
27.03704 1004
27.05716 929
27.07727 860
27.09738 860
27.1175 726
27.13761 697
27.15772 653
27.17784 648
27.19795 649
27.21806 675
27.23818 717
27.25829 736
27.27841 799
27.29852 868
27.31863 1060
27.33875 1091
27.35886 1221
27.37897 1306
27.39909 1417
27.4192 1321
27.43932 1268
27.45943 1272
27.47954 1087
27.49966 921
27.51977 832
27.53988 708
27.56 605
27.58011 506
27.60023 439
27.62034 414
27.64045 394
27.66057 396
27.68068 339
27.70079 386
27.72091 338
27.74102 360
27.76113 352
27.78125 332
27.80136 354
27.82148 327
27.84159 341
27.8617 331
27.88182 316
27.90193 338
27.92204 334
27.94216 334
27.96227 319
27.98239 312
28.0025 310
28.02261 310
28.04273 321
28.06284 291
28.08295 277
28.10307 273
28.12318 295
28.1433 266
28.16341 270
28.18352 278
28.20364 274
28.22375 289
28.24386 273
28.26398 316
28.28409 272
28.3042 301
28.32432 258
28.34443 245
28.36455 279
28.38466 269
28.40477 240
28.42489 297
28.445 275
28.46511 271
28.48523 282
28.50534 287
28.52546 247
28.54557 269
28.56568 283
28.5858 289
28.60591 252
28.62602 287
28.64614 258
28.66625 256
28.68636 277
28.70648 273
28.72659 269
28.74671 268
28.76682 276
28.78693 254
28.80705 279
28.82716 278
28.84727 264
28.86739 261
28.8875 272
28.90762 276
28.92773 267
28.94784 294
28.96796 281
28.98807 268
29.00818 245
29.0283 279
29.04841 284
29.06853 286
29.08864 258
29.10875 300
29.12887 258
29.14898 266
29.16909 268
29.18921 249
29.20932 273
29.22943 314
29.24955 288
29.26966 282
29.28978 285
29.30989 330
29.33 343
29.35012 339
29.37023 394
29.39034 403
29.41046 404
29.43057 368
29.45069 374
29.4708 370
29.49091 359
29.51103 346
29.53114 350
29.55125 333
29.57137 287
29.59148 308
29.6116 303
29.63171 324
29.65182 300
29.67194 288
29.69205 285
29.71216 299
29.73228 303
29.75239 320
29.7725 310
29.79262 278
29.81273 306
29.83285 266
29.85296 302
29.87307 306
29.89319 309
29.9133 302
29.93341 315
29.95353 296
29.97364 334
29.99376 335
30.01387 343
30.03398 356
30.0541 418
30.07421 380
30.09432 365
30.11444 448
30.13455 413
30.15467 447
30.17478 422
30.19489 421
30.21501 411
30.23512 374
30.25523 367
30.27535 348
30.29546 293
30.31557 281
30.33569 289
30.3558 298
30.37592 291
30.39603 297
30.41614 277
30.43626 283
30.45637 263
30.47648 301
30.4966 279
30.51671 291
30.53683 314
30.55694 289
30.57705 313
30.59717 315
30.61728 375
30.63739 364
30.65751 390
30.67762 397
30.69773 428
30.71785 437
30.73796 418
30.75808 444
30.77819 413
30.7983 447
30.81842 412
30.83853 419
30.85864 349
30.87876 356
30.89887 316
30.91899 292
30.9391 279
30.95921 274
30.97933 266
30.99944 240
31.01955 243
31.03967 280
31.05978 241
31.0799 239
31.10001 228
31.12012 220
31.14024 239
31.16035 232
31.18046 266
31.20058 236
31.22069 246
31.2408 263
31.26092 245
31.28103 222
31.30115 216
31.32126 215
31.34137 217
31.36149 236
31.3816 216
31.40171 231
31.42183 240
31.44194 223
31.46206 223
31.48217 237
31.50228 229
31.5224 245
31.54251 215
31.56262 242
31.58274 225
31.60285 216
31.62297 202
31.64308 259
31.66319 219
31.68331 202
31.70342 227
31.72353 193
31.74365 210
31.76376 201
31.78387 220
31.80399 220
31.8241 214
31.84422 204
31.86433 236
31.88444 235
31.90456 246
31.92467 251
31.94478 235
31.9649 236
31.98501 241
32.00513 262
32.02524 251
32.04535 269
32.06547 278
32.08558 262
32.10569 268
32.12581 260
32.14592 299
32.16604 279
32.18615 286
32.20626 296
32.22638 248
32.24649 289
32.2666 286
32.28672 310
32.30683 312
32.32694 335
32.34706 326
32.36717 329
32.38729 311
32.4074 331
32.42751 312
32.44763 254
32.46774 305
32.48785 262
32.50797 240
32.52808 232
32.5482 291
32.56831 222
32.58842 238
32.60854 249
32.62865 239
32.64876 234
32.66888 236
32.68899 220
32.7091 232
32.72922 251
32.74933 191
32.76945 213
32.78956 253
32.80967 211
32.82979 234
32.8499 235
32.87001 222
32.89013 250
32.91024 232
32.93036 245
32.95047 218
32.97058 258
32.9907 252
33.01081 236
33.03092 224
33.05104 239
33.07115 275
33.09127 255
33.11138 259
33.13149 231
33.15161 247
33.17172 237
33.19183 224
33.21195 203
33.23206 234
33.25217 232
33.27229 248
33.2924 238
33.31252 218
33.33263 233
33.35274 248
33.37286 224
33.39297 237
33.41308 270
33.4332 237
33.45331 221
33.47343 216
33.49354 244
33.51365 228
33.53377 243
33.55388 220
33.57399 239
33.59411 211
33.61422 239
33.63434 223
33.65445 271
33.67456 239
33.69468 240
33.71479 205
33.7349 253
33.75502 236
33.77513 256
33.79524 211
33.81536 232
33.83547 239
33.85559 220
33.8757 215
33.89581 211
33.91593 237
33.93604 233
33.95615 272
33.97627 248
33.99638 248
34.0165 266
34.03661 283
34.05672 294
34.07684 323
34.09695 312
34.11706 331
34.13718 337
34.15729 338
34.17741 321
34.19752 316
34.21763 341
34.23775 332
34.25786 349
34.27797 310
34.29809 289
34.3182 275
34.33831 268
34.35843 302
34.37854 239
34.39866 294
34.41877 298
34.43888 285
34.459 293
34.47911 295
34.49922 287
34.51934 287
34.53945 329
34.55957 298
34.57968 318
34.59979 325
34.61991 309
34.64002 289
34.66013 324
34.68025 320
34.70036 332
34.72047 338
34.74059 341
34.7607 313
34.78082 385
34.80093 365
34.82104 370
34.84116 360
34.86127 363
34.88138 372
34.9015 395
34.92161 360
34.94173 381
34.96184 373
34.98195 398
35.00207 394
35.02218 354
35.04229 344
35.06241 397
35.08252 322
35.10264 312
35.12275 348
35.14286 342
35.16298 336
35.18309 317
35.2032 344
35.22332 366
35.24343 320
35.26354 355
35.28366 336
35.30377 338
35.32389 379
35.344 347
35.36411 334
35.38423 371
35.40434 383
35.42445 408
35.44457 384
35.46468 372
35.4848 395
35.50491 429
35.52502 394
35.54514 426
35.56525 384
35.58536 361
35.60548 370
35.62559 342
35.64571 338
35.66582 333
35.68593 332
35.70605 369
35.72616 312
35.74627 369
35.76639 369
35.7865 356
35.80661 317
35.82673 343
35.84684 328
35.86696 320
35.88707 337
35.90718 334
35.9273 321
35.94741 314
35.96752 279
35.98764 291
36.00775 315
36.02787 231
36.04798 302
36.06809 309
36.08821 319
36.10832 298
36.12843 314
36.14855 314
36.16866 293
36.18878 292
36.20889 357
36.229 318
36.24912 350
36.26923 381
36.28934 450
36.30946 501
36.32957 572
36.34968 624
36.3698 798
36.38991 994
36.41003 1217
36.43014 1351
36.45025 1592
36.47037 1726
36.49048 1748
36.51059 1640
36.53071 1486
36.55082 1274
36.57094 1153
36.59105 958
36.61116 820
36.63128 613
36.65139 512
36.6715 448
36.69162 376
36.71173 388
36.73184 356
36.75196 336
36.77207 329
36.79219 338
36.8123 337
36.83241 311
36.85253 370
36.87264 360
36.89275 350
36.91287 356
36.93298 326
36.9531 326
36.97321 345
36.99332 354
37.01344 356
37.03355 348
37.05366 323
37.07378 341
37.09389 329
37.11401 282
37.13412 297
37.15423 306
37.17435 276
37.19446 289
37.21457 267
37.23469 245
37.2548 286
37.27491 295
37.29503 269
37.31514 257
37.33526 248
37.35537 266
37.37548 288
37.3956 248
37.41571 273
37.43582 266
37.45594 252
37.47605 256
37.49617 278
37.51628 259
37.53639 284
37.55651 285
37.57662 255
37.59673 296
37.61685 312
37.63696 297
37.65708 280
37.67719 256
37.6973 273
37.71742 277
37.73753 272
37.75764 276
37.77776 287
37.79787 272
37.81798 294
37.8381 254
37.85821 265
37.87833 266
37.89844 236
37.91855 226
37.93867 270
37.95878 258
37.97889 278
37.99901 254
38.01912 263
38.03924 276
38.05935 280
38.07946 274
38.09958 268
38.11969 245
38.1398 283
38.15992 283
38.18003 264
38.20015 257
38.22026 276
38.24037 253
38.26049 308
38.2806 260
38.30071 318
38.32083 274
38.34094 299
38.36105 326
38.38117 291
38.40128 346
38.4214 299
38.44151 325
38.46162 321
38.48174 323
38.50185 335
38.52196 299
38.54208 314
38.56219 320
38.58231 318
38.60242 316
38.62253 272
38.64265 278
38.66276 280
38.68287 267
38.70299 273
38.7231 274
38.74321 294
38.76333 259
38.78344 262
38.80356 250
38.82367 295
38.84378 268
38.8639 255
38.88401 271
38.90412 262
38.92424 238
38.94435 279
38.96447 266
38.98458 263
39.00469 282
39.02481 263
39.04492 268
39.06503 264
39.08515 304
39.10526 311
39.12538 328
39.14549 339
39.1656 354
39.18572 375
39.20583 403
39.22594 451
39.24606 536
39.26617 634
39.28628 718
39.3064 873
39.32651 1124
39.34663 1229
39.36674 1465
39.38685 1573
39.40697 1643
39.42708 1508
39.44719 1377
39.46731 1239
39.48742 1110
39.50754 927
39.52765 833
39.54776 674
39.56788 531
39.58799 414
39.6081 334
39.62822 304
39.64833 296
39.66845 297
39.68856 306
39.70867 276
39.72879 290
39.7489 254
39.76901 222
39.78913 231
39.80924 270
39.82935 256
39.84947 260
39.86958 249
39.8897 244
39.90981 286
39.92992 270
39.95004 267
39.97015 280
39.99026 295
40.01038 313
40.03049 353
40.05061 369
40.07072 360
40.09083 416
40.11095 534
40.13106 572
40.15117 662
40.17129 788
40.1914 831
40.21152 891
40.23163 907
40.25174 841
40.27186 811
40.29197 723
40.31208 621
40.3322 576
40.35231 522
40.37242 460
40.39254 402
40.41265 383
40.43277 283
40.45288 292
40.47299 297
40.49311 271
40.51322 267
40.53333 269
40.55345 250
40.57356 228
40.59368 254
40.61379 243
40.6339 273
40.65402 262
40.67413 236
40.69424 241
40.71436 241
40.73447 248
40.75458 246
40.7747 248
40.79481 220
40.81493 255
40.83504 236
40.85515 241
40.87527 218
40.89538 233
40.91549 246
40.93561 260
40.95572 259
40.97584 255
40.99595 245
41.01606 254
41.03618 245
41.05629 236
41.0764 253
41.09652 231
41.11663 254
41.13675 229
41.15686 255
41.17697 237
41.19709 222
41.2172 247
41.23731 256
41.25743 240
41.27754 184
41.29765 235
41.31777 233
41.33788 262
41.358 233
41.37811 249
41.39822 254
41.41834 248
41.43845 262
41.45856 252
41.47868 231
41.49879 258
41.51891 260
41.53902 282
41.55913 292
41.57925 288
41.59936 328
41.61947 333
41.63959 346
41.6597 400
41.67982 378
41.69993 416
41.72004 412
41.74016 380
41.76027 416
41.78038 389
41.8005 356
41.82061 366
41.84072 350
41.86084 315
41.88095 318
41.90107 301
41.92118 247
41.94129 252
41.96141 276
41.98152 301
42.00163 272
42.02175 255
42.04186 285
42.06198 277
42.08209 275
42.1022 264
42.12232 294
42.14243 298
42.16254 334
42.18266 334
42.20277 378
42.22289 438
42.243 458
42.26311 576
42.28323 689
42.30334 744
42.32345 893
42.34357 1007
42.36368 1084
42.38379 1061
42.40391 1116
42.42402 1090
42.44414 904
42.46425 868
42.48436 757
42.50448 693
42.52459 585
42.5447 506
42.56482 428
42.58493 348
42.60505 342
42.62516 293
42.64527 319
42.66539 268
42.6855 279
42.70561 268
42.72573 256
42.74584 253
42.76595 244
42.78607 272
42.80618 234
42.8263 238
42.84641 259
42.86652 260
42.88664 213
42.90675 228
42.92686 227
42.94698 222
42.96709 199
42.98721 226
43.00732 189
43.02743 205
43.04755 195
43.06766 260
43.08777 228
43.10789 247
43.128 231
43.14812 219
43.16823 244
43.18834 224
43.20846 207
43.22857 215
43.24868 215
43.2688 234
43.28891 225
43.30902 207
43.32914 202
43.34925 211
43.36937 206
43.38948 204
43.40959 213
43.42971 241
43.44982 216
43.46993 227
43.49005 216
43.51016 207
43.53028 191
43.55039 207
43.5705 228
43.59062 253
43.61073 215
43.63084 248
43.65096 219
43.67107 218
43.69119 202
43.7113 213
43.73141 199
43.75153 213
43.77164 218
43.79175 204
43.81187 201
43.83198 212
43.85209 207
43.87221 218
43.89232 221
43.91244 204
43.93255 222
43.95266 226
43.97278 203
43.99289 238
44.013 226
44.03312 218
44.05323 219
44.07335 215
44.09346 209
44.11357 216
44.13369 233
44.1538 227
44.17391 212
44.19403 221
44.21414 219
44.23426 210
44.25437 197
44.27448 235
44.2946 208
44.31471 197
44.33482 230
44.35494 192
44.37505 199
44.39516 205
44.41528 204
44.43539 184
44.45551 206
44.47562 213
44.49573 233
44.51585 207
44.53596 210
44.55607 226
44.57619 205
44.5963 213
44.61642 215
44.63653 230
44.65664 231
44.67676 212
44.69687 217
44.71698 186
44.7371 209
44.75721 197
44.77732 217
44.79744 204
44.81755 189
44.83767 194
44.85778 184
44.87789 171
44.89801 222
44.91812 228
44.93823 202
44.95835 214
44.97846 221
44.99858 219
45.01869 213
45.0388 218
45.05892 214
45.07903 188
45.09914 210
45.11926 231
45.13937 218
45.15949 238
45.1796 211
45.19971 247
45.21983 230
45.23994 233
45.26005 241
45.28017 219
45.30028 233
45.32039 241
45.34051 259
45.36062 260
45.38074 274
45.40085 298
45.42096 303
45.44108 313
45.46119 312
45.4813 313
45.50142 333
45.52153 345
45.54165 346
45.56176 409
45.58187 486
45.60199 497
45.6221 564
45.64221 591
45.66233 711
45.68244 749
45.70256 865
45.72267 842
45.74278 791
45.7629 801
45.78301 710
45.80312 624
45.82324 567
45.84335 565
45.86346 515
45.88358 461
45.90369 381
45.92381 310
45.94392 278
45.96403 252
45.98415 257
46.00426 266
46.02437 256
46.04449 238
46.0646 221
46.08472 222
46.10483 235
46.12494 246
46.14506 221
46.16517 248
46.18528 245
46.2054 240
46.22551 244
46.24563 217
46.26574 225
46.28585 212
46.30597 223
46.32608 234
46.34619 203
46.36631 214
46.38642 213
46.40653 205
46.42665 197
46.44676 213
46.46688 215
46.48699 222
46.5071 209
46.52722 188
46.54733 211
46.56744 219
46.58756 207
46.60767 197
46.62779 168
46.6479 191
46.66801 206
46.68813 180
46.70824 193
46.72835 211
46.74847 199
46.76858 224
46.78869 218
46.80881 229
46.82892 212
46.84904 185
46.86915 188
46.88926 206
46.90938 221
46.92949 208
46.9496 225
46.96972 224
46.98983 246
47.00995 219
47.03006 239
47.05017 237
47.07029 257
47.0904 278
47.11051 254
47.13063 221
47.15074 237
47.17086 237
47.19097 210
47.21108 220
47.2312 237
47.25131 232
47.27142 257
47.29154 214
47.31165 237
47.33176 226
47.35188 192
47.37199 235
47.39211 246
47.41222 229
47.43233 241
47.45245 218
47.47256 222
47.49267 207
47.51279 233
47.5329 242
47.55302 231
47.57313 252
47.59324 207
47.61336 199
47.63347 210
47.65358 213
47.6737 202
47.69381 197
47.71393 228
47.73404 202
47.75415 192
47.77427 216
47.79438 228
47.81449 213
47.83461 188
47.85472 199
47.87483 219
47.89495 234
47.91506 184
47.93518 203
47.95529 183
47.9754 220
47.99552 181
48.01563 227
48.03574 210
48.05586 237
48.07597 205
48.09609 220
48.1162 210
48.13631 221
48.15643 208
48.17654 205
48.19665 207
48.21677 210
48.23688 174
48.257 225
48.27711 185
48.29722 209
48.31734 205
48.33745 194
48.35756 212
48.37768 183
48.39779 194
48.4179 184
48.43802 199
48.45813 210
48.47825 204
48.49836 210
48.51847 226
48.53859 233
48.5587 203
48.57881 219
48.59893 223
48.61904 237
48.63916 223
48.65927 237
48.67938 232
48.6995 242
48.71961 234
48.73972 256
48.75984 255
48.77995 240
48.80006 255
48.82018 252
48.84029 239
48.86041 254
48.88052 267
48.90063 271
48.92075 258
48.94086 238
48.96097 229
48.98109 269
49.0012 284
49.02132 260
49.04143 241
49.06154 274
49.08166 221
49.10177 230
49.12188 220
49.142 239
49.16211 232
49.18223 219
49.20234 217
49.22245 229
49.24257 204
49.26268 194
49.28279 214
49.30291 212
49.32302 237
49.34313 226
49.36325 235
49.38336 190
49.40348 234
49.42359 225
49.4437 236
49.46382 235
49.48393 240
49.50404 238
49.52416 240
49.54427 215
49.56439 267
49.5845 218
49.60461 249
49.62473 247
49.64484 305
49.66495 252
49.68507 320
49.70518 288
49.7253 302
49.74541 318
49.76552 343
49.78564 393
49.80575 407
49.82586 446
49.84598 537
49.86609 592
49.8862 625
49.90632 784
49.92643 895
49.94655 1099
49.96666 1294
49.98677 1612
50.00689 1841
50.027 2065
50.04711 2435
50.06723 2430
50.08734 2356
50.10746 2170
50.12757 1836
50.14768 1602
50.1678 1501
50.18791 1407
50.20802 1341
50.22814 1156
50.24825 982
50.26837 730
50.28848 613
50.30859 463
50.32871 468
50.34882 402
50.36893 396
50.38905 417
50.40916 401
50.42927 422
50.44939 452
50.4695 457
50.48962 418
50.50973 466
50.52984 430
50.54996 440
50.57007 428
50.59018 407
50.6103 388
50.63041 398
50.65053 351
50.67064 386
50.69075 319
50.71087 340
50.73098 336
50.75109 324
50.77121 328
50.79132 291
50.81143 269
50.83155 287
50.85166 256
50.87178 257
50.89189 253
50.912 242
50.93212 272
50.95223 262
50.97234 230
50.99246 256
51.01257 242
51.03269 202
51.0528 226
51.07291 234
51.09303 216
51.11314 255
51.13325 208
51.15337 226
51.17348 209
51.1936 203
51.21371 204
51.23382 189
51.25394 185
51.27405 200
51.29416 198
51.31428 172
51.33439 218
51.3545 172
51.37462 199
51.39473 212
51.41485 190
51.43496 163
51.45507 199
51.47519 174
51.4953 194
51.51541 199
51.53553 189
51.55564 198
51.57576 193
51.59587 189
51.61598 201
51.6361 180
51.65621 157
51.67632 239
51.69644 185
51.71655 194
51.73667 169
51.75678 196
51.77689 161
51.79701 168
51.81712 176
51.83723 173
51.85735 218
51.87746 163
51.89757 196
51.91769 188
51.9378 195
51.95792 180
51.97803 211
51.99814 195
52.01826 182
52.03837 203
52.05848 200
52.0786 191
52.09871 185
52.11883 222
52.13894 195
52.15905 174
52.17917 180
52.19928 189
52.21939 191
52.23951 188
52.25962 222
52.27974 191
52.29985 179
52.31996 168
52.34008 217
52.36019 195
52.3803 209
52.40042 203
52.42053 207
52.44064 211
52.46076 219
52.48087 208
52.50099 193
52.5211 206
52.54121 214
52.56133 188
52.58144 212
52.60155 215
52.62167 210
52.64178 205
52.6619 219
52.68201 224
52.70212 195
52.72224 197
52.74235 199
52.76246 225
52.78258 211
52.80269 211
52.8228 172
52.84292 217
52.86303 219
52.88315 213
52.90326 219
52.92337 216
52.94349 224
52.9636 234
52.98371 221
53.00383 202
53.02394 198
53.04406 215
53.06417 203
53.08428 222
53.1044 233
53.12451 201
53.14462 199
53.16474 207
53.18485 216
53.20497 198
53.22508 182
53.24519 218
53.26531 214
53.28542 232
53.30553 216
53.32565 232
53.34576 219
53.36587 242
53.38599 232
53.4061 216
53.42622 204
53.44633 229
53.46644 214
53.48656 218
53.50667 252
53.52678 262
53.5469 257
53.56701 259
53.58713 246
53.60724 233
53.62735 221
53.64747 241
53.66758 212
53.68769 244
53.70781 243
53.72792 226
53.74804 248
53.76815 229
53.78826 269
53.80838 225
53.82849 224
53.8486 248
53.86872 238
53.88883 244
53.90894 202
53.92906 246
53.94917 238
53.96929 219
53.9894 235
54.00951 228
54.02963 237
54.04974 252
54.06985 238
54.08997 233
54.11008 223
54.1302 236
54.15031 270
54.17042 228
54.19054 269
54.21065 274
54.23076 255
54.25088 264
54.27099 254
54.29111 248
54.31122 252
54.33133 260
54.35145 233
54.37156 267
54.39167 259
54.41179 282
54.4319 257
54.45201 256
54.47213 308
54.49224 298
54.51236 262
54.53247 275
54.55258 262
54.5727 335
54.59281 342
54.61292 356
54.63304 422
54.65315 421
54.67327 487
54.69338 557
54.71349 633
54.73361 704
54.75372 742
54.77383 831
54.79395 851
54.81406 860
54.83417 832
54.85429 699
54.8744 660
54.89452 592
54.91463 639
54.93474 556
54.95486 541
54.97497 529
54.99508 484
55.0152 418
55.03531 352
55.05543 343
55.07554 342
55.09565 351
55.11577 338
55.13588 409
55.15599 466
55.17611 449
55.19622 449
55.21634 501
55.23645 463
55.25656 509
55.27668 488
55.29679 464
55.3169 457
55.33702 409
55.35713 424
55.37724 387
55.39736 356
55.41747 355
55.43759 346
55.4577 321
55.47781 301
55.49793 302
55.51804 281
55.53815 260
55.55827 264
55.57838 264
55.5985 230
55.61861 250
55.63872 218
55.65884 248
55.67895 221
55.69906 232
55.71918 221
55.73929 222
55.75941 245
55.77952 230
55.79963 234
55.81975 222
55.83986 195
55.85997 205
55.88009 206
55.9002 188
55.92031 206
55.94043 215
55.96054 182
55.98066 215
56.00077 212
56.02088 224
56.041 193
56.06111 224
56.08122 206
56.10134 186
56.12145 184
56.14157 195
56.16168 195
56.18179 200
56.20191 219
56.22202 189
56.24213 221
56.26225 193
56.28236 211
56.30248 212
56.32259 183
56.3427 208
56.36282 194
56.38293 211
56.40304 212
56.42316 214
56.44327 216
56.46338 234
56.4835 189
56.50361 211
56.52373 233
56.54384 227
56.56395 215
56.58407 212
56.60418 217
56.62429 176
56.64441 216
56.66452 213
56.68464 221
56.70475 205
56.72486 200
56.74498 219
56.76509 208
56.7852 212
56.80532 219
56.82543 218
56.84554 223
56.86566 192
56.88577 221
56.90589 190
56.926 234
56.94611 205
56.96623 193
56.98634 223
57.00645 203
57.02657 207
57.04668 212
57.0668 207
57.08691 217
57.10702 227
57.12714 251
57.14725 241
57.16736 234
57.18748 224
57.20759 228
57.22771 248
57.24782 229
57.26793 238
57.28805 221
57.30816 239
57.32827 198
57.34839 238
57.3685 216
57.38861 201
57.40873 197
57.42884 217
57.44896 204
57.46907 230
57.48918 219
57.5093 200
57.52941 218
57.54952 201
57.56964 219
57.58975 219
57.60987 217
57.62998 198
57.65009 208
57.67021 188
57.69032 207
57.71043 189
57.73055 209
57.75066 181
57.77078 200
57.79089 176
57.811 191
57.83112 185
57.85123 210
57.87134 203
57.89146 199
57.91157 204
57.93168 192
57.9518 202
57.97191 219
57.99203 171
58.01214 204
58.03225 226
58.05237 196
58.07248 201
58.09259 206
58.11271 187
58.13282 211
58.15294 209
58.17305 174
58.19316 203
58.21328 205
58.23339 188
58.2535 200
58.27362 184
58.29373 230
58.31385 196
58.33396 202
58.35407 222
58.37419 246
58.3943 204
58.41441 238
58.43453 202
58.45464 220
58.47475 231
58.49487 208
58.51498 224
58.5351 223
58.55521 224
58.57532 220
58.59544 202
58.61555 206
58.63566 219
58.65578 206
58.67589 219
58.69601 223
58.71612 207
58.73623 192
58.75635 203
58.77646 204
58.79657 219
58.81669 201
58.8368 210
58.85691 210
58.87703 201
58.89714 190
58.91726 193
58.93737 204
58.95748 203
58.9776 188
58.99771 195
59.01782 214
59.03794 193
59.05805 220
59.07817 187
59.09828 191
59.11839 176
59.13851 198
59.15862 206
59.17873 187
59.19885 214
59.21896 197
59.23908 209
59.25919 211
59.2793 207
59.29942 208
59.31953 230
59.33964 217
59.35976 254
59.37987 216
59.39998 225
59.4201 230
59.44021 220
59.46033 251
59.48044 248
59.50055 287
59.52067 303
59.54078 315
59.56089 319
59.58101 327
59.60112 348
59.62124 387
59.64135 385
59.66146 426
59.68158 486
59.70169 559
59.7218 662
59.74192 760
59.76203 857
59.78215 1016
59.80226 1140
59.82237 1334
59.84249 1495
59.8626 1659
59.88271 1616
59.90283 1614
59.92294 1424
59.94305 1234
59.96317 1081
59.98328 1021
60.0034 967
60.02351 963
60.04362 923
60.06374 837
60.08385 730
60.10396 623
60.12408 499
60.14419 372
60.16431 368
60.18442 300
60.20453 254
60.22465 248
60.24476 238
60.26487 258
60.28499 226
60.3051 257
60.32522 223
60.34533 221
60.36544 213
60.38556 229
60.40567 224
60.42578 223
60.4459 227
60.46601 197
60.48612 204
60.50624 207
60.52635 195
60.54647 213
60.56658 207
60.58669 195
60.60681 221
60.62692 208
60.64703 190
60.66715 198
60.68726 198
60.70738 221
60.72749 183
60.7476 205
60.76772 196
60.78783 206
60.80794 188
60.82806 206
60.84817 231
60.86828 225
60.8884 222
60.90851 206
60.92863 222
60.94874 218
60.96885 226
60.98897 227
61.00908 197
61.02919 239
61.04931 236
61.06942 230
61.08954 250
61.10965 230
61.12976 255
61.14988 265
61.16999 249
61.1901 239
61.21022 212
61.23033 220
61.25045 233
61.27056 202
61.29067 224
61.31079 241
61.3309 203
61.35101 199
61.37113 199
61.39124 212
61.41135 196
61.43147 244
61.45158 208
61.4717 210
61.49181 203
61.51192 225
61.53204 223
61.55215 207
61.57226 199
61.59238 205
61.61249 210
61.63261 184
61.65272 231
61.67283 216
61.69295 232
61.71306 242
61.73317 212
61.75329 216
61.7734 210
61.79352 233
61.81363 216
61.83374 224
61.85386 214
61.87397 206
61.89408 225
61.9142 229
61.93431 235
61.95442 223
61.97454 240
61.99465 264
62.01477 234
62.03488 228
62.05499 251
62.07511 249
62.09522 244
62.11533 245
62.13545 251
62.15556 259
62.17568 286
62.19579 265
62.2159 264
62.23602 214
62.25613 264
62.27624 238
62.29636 239
62.31647 266
62.33659 215
62.3567 267
62.37681 227
62.39693 224
62.41704 249
62.43715 230
62.45727 248
62.47738 237
62.49749 221
62.51761 217
62.53772 209
62.55784 232
62.57795 233
62.59806 225
62.61818 239
62.63829 238
62.6584 244
62.67852 222
62.69863 228
62.71875 250
62.73886 243
62.75897 202
62.77909 227
62.7992 226
62.81931 239
62.83943 226
62.85954 211
62.87965 239
62.89977 233
62.91988 220
62.94 226
62.96011 219
62.98022 218
63.00034 236
63.02045 246
63.04056 229
63.06068 222
63.08079 227
63.10091 242
63.12102 265
63.14113 216
63.16125 237
63.18136 241
63.20147 234
63.22159 217
63.2417 233
63.26182 223
63.28193 190
63.30204 222
63.32216 212
63.34227 230
63.36238 211
63.3825 212
63.40261 210
63.42272 227
63.44284 201
63.46295 219
63.48307 198
63.50318 211
63.52329 219
63.54341 218
63.56352 221
63.58363 234
63.60375 205
63.62386 211
63.64398 219
63.66409 254
63.6842 264
63.70432 273
63.72443 281
63.74454 304
63.76466 311
63.78477 283
63.80489 327
63.825 330
63.84511 385
63.86523 376
63.88534 436
63.90545 427
63.92557 501
63.94568 504
63.96579 454
63.98591 489
64.00602 466
64.02614 380
64.04625 385
64.06636 353
64.08648 320
64.10659 345
64.1267 365
64.14682 370
64.16693 294
64.18705 263
64.20716 259
64.22727 235
64.24739 219
64.2675 216
64.28761 205
64.30773 206
64.32784 211
64.34796 237
64.36807 186
64.38818 183
64.4083 189
64.42841 198
64.44852 195
64.46864 221
64.48875 184
64.50886 185
64.52898 195
64.54909 212
64.56921 190
64.58932 207
64.60943 203
64.62955 187
64.64966 197
64.66977 207
64.68989 189
64.71 197
64.73012 218
64.75023 159
64.77034 185
64.79046 180
64.81057 215
64.83068 209
64.8508 231
64.87091 186
64.89102 200
64.91114 197
64.93125 189
64.95137 224
64.97148 209
64.99159 191
65.01171 206
65.03182 210
65.05193 203
65.07205 241
65.09216 230
65.11228 207
65.13239 201
65.1525 197
65.17262 228
65.19273 203
65.21284 227
65.23296 232
65.25307 212
65.27319 213
65.2933 202
65.31341 188
65.33353 230
65.35364 192
65.37375 194
65.39387 220
65.41398 215
65.43409 223
65.45421 207
65.47432 224
65.49444 212
65.51455 208
65.53466 211
65.55478 240
65.57489 204
65.595 234
65.61512 190
65.63523 255
65.65535 237
65.67546 243
65.69557 255
65.71569 232
65.7358 235
65.75591 228
65.77603 216
65.79614 227
65.81626 223
65.83637 215
65.85648 216
65.8766 227
65.89671 239
65.91682 202
65.93694 204
65.95705 198
65.97716 215
65.99728 200
66.01739 183
66.03751 195
66.05762 169
66.07773 234
66.09785 204
66.11796 204
66.13807 194
66.15819 182
66.1783 207
66.19842 213
66.21853 230
66.23864 235
66.25876 245
66.27887 214
66.29898 191
66.3191 230
66.33921 209
66.35933 199
66.37944 204
66.39955 204
66.41967 232
66.43978 236
66.45989 188
66.48001 234
66.50012 216
66.52023 203
66.54035 184
66.56046 183
66.58058 205
66.60069 210
66.6208 218
66.64092 203
66.66103 179
66.68114 189
66.70126 209
66.72137 187
66.74149 204
66.7616 216
66.78171 185
66.80183 199
66.82194 192
66.84205 167
66.86217 214
66.88228 187
66.90239 212
66.92251 209
66.94262 219
66.96274 197
66.98285 185
67.00296 187
67.02308 221
67.04319 221
67.0633 213
67.08342 215
67.10353 215
67.12365 234
67.14376 211
67.16387 223
67.18399 257
67.2041 215
67.22421 246
67.24433 229
67.26444 268
67.28456 232
67.30467 215
67.32478 243
67.3449 252
67.36501 271
67.38512 294
67.40524 303
67.42535 314
67.44546 353
67.46558 399
67.48569 401
67.50581 486
67.52592 508
67.54603 588
67.56615 702
67.58626 716
67.60637 831
67.62649 936
67.6466 1053
67.66672 958
67.68683 965
67.70694 925
67.72706 802
67.74717 755
67.76728 672
67.7874 693
67.80751 753
67.82763 766
67.84774 849
67.86785 786
67.88797 781
67.90808 838
67.92819 817
67.94831 846
67.96842 895
67.98853 1061
68.00865 1097
68.02876 1284
68.04888 1376
68.06899 1330
68.0891 1353
68.10922 1229
68.12933 1182
68.14944 1163
68.16956 1131
68.18967 1119
68.20979 1277
68.2299 1222
68.25001 1220
68.27013 1147
68.29024 971
68.31035 869
68.33047 738
68.35058 673
68.3707 602
68.39081 592
68.41092 565
68.43104 517
68.45115 504
68.47126 437
68.49138 369
68.51149 330
68.5316 286
68.55172 264
68.57183 243
68.59195 238
68.61206 255
68.63217 225
68.65229 199
68.6724 212
68.69251 240
68.71263 224
68.73274 211
68.75286 217
68.77297 190
68.79308 194
68.8132 180
68.83331 185
68.85342 181
68.87354 222
68.89365 197
68.91376 199
68.93388 215
68.95399 188
68.97411 192
68.99422 193
69.01433 201
69.03445 197
69.05456 168
69.07467 192
69.09479 200
69.1149 182
69.13502 175
69.15513 195
69.17524 175
69.19536 172
69.21547 192
69.23558 169
69.2557 161
69.27581 188
69.29593 181
69.31604 187
69.33615 184
69.35627 200
69.37638 211
69.39649 193
69.41661 176
69.43672 185
69.45683 194
69.47695 153
69.49706 176
69.51718 190
69.53729 187
69.5574 169
69.57752 186
69.59763 178
69.61774 190
69.63786 175
69.65797 213
69.67809 182
69.6982 202
69.71831 152
69.73843 185
69.75854 185
69.77865 198
69.79877 173
69.81888 181
69.839 180
69.85911 184
69.87922 169
69.89934 181
69.91945 182
69.93956 183
69.95968 166
69.97979 183
69.9999 194
70.02002 192
70.04013 191
70.06025 192
70.08036 199
70.10047 189
70.12059 212
70.1407 181
70.16081 185
70.18093 202
70.20104 180
70.22116 181
70.24127 178
70.26138 191
70.2815 195
70.30161 188
70.32172 176
70.34184 184
70.36195 200
70.38207 194
70.40218 194
70.42229 191
70.44241 203
70.46252 191
70.48263 186
70.50275 177
70.52286 204
70.54297 180
70.56309 180
70.5832 169
70.60332 184
70.62343 170
70.64354 184
70.66366 191
70.68377 202
70.70388 186
70.724 198
70.74411 194
70.76423 181
70.78434 170
70.80445 192
70.82457 181
70.84468 170
70.86479 193
70.88491 180
70.90502 187
70.92513 189
70.94525 177
70.96536 187
70.98548 180
71.00559 208
71.0257 172
71.04582 172
71.06593 170
71.08604 153
71.10616 168
71.12627 184
71.14639 176
71.1665 188
71.18661 179
71.20673 198
71.22684 165
71.24695 175
71.26707 187
71.28718 170
71.3073 199
71.32741 163
71.34752 185
71.36764 177
71.38775 189
71.40786 207
71.42798 160
71.44809 191
71.4682 211
71.48832 183
71.50843 188
71.52855 195
71.54866 173
71.56877 182
71.58889 178
71.609 201
71.62911 203
71.64923 184
71.66934 180
71.68946 199
71.70957 194
71.72968 199
71.7498 181
71.76991 200
71.79002 198
71.81014 213
71.83025 200
71.85037 185
71.87048 183
71.89059 185
71.91071 194
71.93082 194
71.95093 191
71.97105 176
71.99116 197
72.01127 183
72.03139 191
72.0515 191
72.07162 204
72.09173 208
72.11184 177
72.13196 214
72.15207 208
72.17218 185
72.1923 195
72.21241 195
72.23253 216
72.25264 205
72.27275 202
72.29287 182
72.31298 185
72.33309 187
72.35321 180
72.37332 174
72.39344 184
72.41355 178
72.43366 204
72.45378 187
72.47389 216
72.494 199
72.51412 200
72.53423 208
72.55434 224
72.57446 193
72.59457 195
72.61469 198
72.6348 178
72.65491 202
72.67503 186
72.69514 175
72.71525 196
72.73537 214
72.75548 203
72.7756 201
72.79571 191
72.81582 198
72.83594 199
72.85605 185
72.87616 175
72.89628 195
72.91639 200
72.9365 182
72.95662 222
72.97673 204
72.99685 218
73.01696 236
73.03707 231
73.05719 235
73.0773 234
73.09741 210
73.11753 237
73.13764 243
73.15776 238
73.17787 270
73.19798 268
73.2181 287
73.23821 293
73.25832 296
73.27844 351
73.29855 371
73.31867 419
73.33878 449
73.35889 485
73.37901 495
73.39912 462
73.41923 446
73.43935 422
73.45946 391
73.47957 353
73.49969 330
73.5198 308
73.53992 309
73.56003 337
73.58014 354
73.60026 324
73.62037 304
73.64048 286
73.6606 283
73.68071 241
73.70083 244
73.72094 224
73.74105 211
73.76117 195
73.78128 223
73.80139 205
73.82151 179
73.84162 208
73.86174 210
73.88185 169
73.90196 186
73.92208 181
73.94219 172
73.9623 185
73.98242 204
74.00253 170
74.02264 187
74.04276 189
74.06287 172
74.08299 169
74.1031 201
74.12321 200
74.14333 176
74.16344 192
74.18355 168
74.20367 199
74.22378 181
74.2439 183
74.26401 181
74.28412 208
74.30424 177
74.32435 194
74.34446 183
74.36458 178
74.38469 191
74.40481 171
74.42492 198
74.44503 198
74.46515 198
74.48526 182
74.50537 203
74.52549 177
74.5456 199
74.56571 172
74.58583 185
74.60594 187
74.62606 194
74.64617 193
74.66628 175
74.6864 209
74.70651 201
74.72662 220
74.74674 186
74.76685 193
74.78697 190
74.80708 196
74.82719 192
74.84731 186
74.86742 207
74.88753 180
74.90765 191
74.92776 225
74.94787 182
74.96799 187
74.9881 202
75.00822 197
