3.00117 20619
3.02128 20184
3.0414 19766
3.06151 19091
3.08162 18822
3.10174 18094
3.12185 17680
3.14197 16953
3.16208 16441
3.18219 16313
3.20231 15675
3.22242 15418
3.24253 14811
3.26265 14261
3.28276 13994
3.30288 13322
3.32299 12969
3.3431 12780
3.36322 11965
3.38333 11968
3.40344 11523
3.42356 11105
3.44367 10670
3.46379 10243
3.4839 9901
3.50401 9533
3.52413 9157
3.54424 8995
3.56435 8410
3.58447 8349
3.60458 7997
3.62469 7875
3.64481 7395
3.66492 6956
3.68504 7075
3.70515 6471
3.72526 6119
3.74538 6217
3.76549 5827
3.7856 5589
3.80572 5281
3.82583 5204
3.84595 5002
3.86606 4521
3.88617 4629
3.90629 4389
3.9264 4168
3.94651 3983
3.96663 3733
3.98674 3675
4.00686 3433
4.02697 3170
4.04708 3300
4.0672 2954
4.08731 3086
4.10742 2651
4.12754 2647
4.14765 2651
4.16776 2365
4.18788 2407
4.20799 2171
4.22811 2055
4.24822 2128
4.26833 2025
4.28845 1919
4.30856 1720
4.32867 1774
4.34879 1716
4.3689 1714
4.38902 1676
4.40913 1478
4.42924 1538
4.44936 1488
4.46947 1462
4.48958 1439
4.5097 1376
4.52981 1244
4.54992 1392
4.57004 1332
4.59015 1238
4.61027 1184
4.63038 1124
4.65049 1203
4.67061 1098
4.69072 1138
4.71083 1034
4.73095 997
4.75106 1023
4.77118 1015
4.79129 947
4.8114 973
4.83152 919
4.85163 925
4.87174 895
4.89186 863
4.91197 769
4.93209 824
4.9522 781
4.97231 823
4.99243 803
5.01254 802
5.03265 772
5.05277 776
5.07288 737
5.09299 679
5.11311 647
5.13322 668
5.15334 698
5.17345 666
5.19356 632
5.21368 616
5.23379 604
5.2539 582
5.27402 586
5.29413 534
5.31425 562
5.33436 544
5.35447 495
5.37459 542
5.3947 482
5.41481 526
5.43493 524
5.45504 448
5.47516 495
5.49527 432
5.51538 455
5.5355 467
5.55561 434
5.57572 427
5.59584 416
5.61595 383
5.63606 451
5.65618 398
5.67629 422
5.69641 404
5.71652 398
5.73663 392
5.75675 417
5.77686 373
5.79697 376
5.81709 383
5.8372 358
5.85732 363
5.87743 357
5.89754 307
5.91766 368
5.93777 371
5.95788 351
5.978 312
5.99811 352
6.01823 344
6.03834 310
6.05845 327
6.07857 293
6.09868 333
6.11879 363
6.13891 346
6.15902 339
6.17913 333
6.19925 318
6.21936 323
6.23948 317
6.25959 328
6.2797 324
6.29982 303
6.31993 315
6.34004 322
6.36016 313
6.38027 307
6.40039 315
6.4205 287
6.44061 296
6.46073 329
6.48084 313
6.50095 281
6.52107 302
6.54118 310
6.56129 283
6.58141 274
6.60152 304
6.62164 301
6.64175 266
6.66186 283
6.68198 296
6.70209 294
6.7222 284
6.74232 292
6.76243 325
6.78255 295
6.80266 295
6.82277 299
6.84289 305
6.863 298
6.88311 267
6.90323 273
6.92334 308
6.94346 279
6.96357 312
6.98368 271
7.0038 276
7.02391 309
7.04402 322
7.06414 284
7.08425 304
7.10436 296
7.12448 317
7.14459 283
7.16471 299
7.18482 309
7.20493 346
7.22505 319
7.24516 293
7.26527 316
7.28539 322
7.3055 315
7.32562 319
7.34573 311
7.36584 328
7.38596 313
7.40607 277
7.42618 361
7.4463 345
7.46641 344
7.48653 336
7.50664 360
7.52675 332
7.54687 329
7.56698 321
7.58709 336
7.60721 360
7.62732 341
7.64743 347
7.66755 362
7.68766 390
7.70778 337
7.72789 316
7.748 346
7.76812 330
7.78823 342
7.80834 306
7.82846 352
7.84857 319
7.86869 347
7.8888 364
7.90891 367
7.92903 310
7.94914 316
7.96925 334
7.98937 337
8.00948 312
8.0296 354
8.04971 339
8.06982 326
8.08994 350
8.11005 319
8.13016 330
8.15028 362
8.17039 327
8.1905 325
8.21062 351
8.23073 346
8.25085 362
8.27096 357
8.29107 348
8.31119 326
8.3313 338
8.35141 360
8.37153 367
8.39164 340
8.41176 395
8.43187 371
8.45198 378
8.4721 375
8.49221 380
8.51232 405
8.53244 402
8.55255 392
8.57266 460
8.59278 400
8.61289 449
8.63301 465
8.65312 468
8.67323 468
8.69335 488
8.71346 546
8.73357 639
8.75369 646
8.7738 873
8.79392 1031
8.81403 1151
8.83414 1342
8.85426 1572
8.87437 1723
8.89448 1802
8.9146 1644
8.93471 1351
8.95483 983
8.97494 713
8.99505 553
9.01517 479
9.03528 406
9.05539 387
9.07551 404
9.09562 354
9.11573 364
9.13585 312
9.15596 358
9.17608 320
9.19619 290
9.2163 301
9.23642 283
9.25653 302
9.27664 315
9.29676 311
9.31687 303
9.33699 280
9.3571 318
9.37721 316
9.39733 318
9.41744 307
9.43755 301
9.45767 286
9.47778 309
9.4979 257
9.51801 288
9.53812 326
9.55824 275
9.57835 325
9.59846 287
9.61858 287
9.63869 276
9.6588 319
9.67892 314
9.69903 308
9.71915 291
9.73926 293
9.75937 276
9.77949 301
9.7996 290
9.81971 297
9.83983 272
9.85994 307
9.88006 328
9.90017 298
9.92028 294
9.9404 276
9.96051 281
9.98062 298
10.00074 291
10.02085 322
10.04097 322
10.06108 307
10.08119 281
10.10131 275
10.12142 322
10.14153 267
10.16165 309
10.18176 285
10.20187 308
10.22199 319
10.2421 272
10.26222 312
10.28233 279
10.30244 287
10.32256 316
10.34267 248
10.36278 278
10.3829 270
10.40301 260
10.42313 280
10.44324 297
10.46335 299
10.48347 303
10.50358 269
10.52369 276
10.54381 275
10.56392 319
10.58403 271
10.60415 304
10.62426 288
10.64438 303
10.66449 294
10.6846 272
10.70472 295
10.72483 287
10.74494 289
10.76506 285
10.78517 289
10.80529 310
10.8254 298
10.84551 283
10.86563 266
10.88574 278
10.90585 290
10.92597 283
10.94608 304
10.9662 276
10.98631 307
11.00642 255
11.02654 297
11.04665 321
11.06676 305
11.08688 297
11.10699 291
11.1271 252
11.14722 270
11.16733 301
11.18745 258
11.20756 306
11.22767 258
11.24779 281
11.2679 288
11.28801 290
11.30813 309
11.32824 298
11.34836 319
11.36847 261
11.38858 324
11.4087 283
11.42881 295
11.44892 290
11.46904 228
11.48915 272
11.50927 287
11.52938 306
11.54949 292
11.56961 332
11.58972 297
11.60983 329
11.62995 281
11.65006 314
11.67017 263
11.69029 313
11.7104 281
11.73052 276
11.75063 337
11.77074 291
11.79086 290
11.81097 324
11.83108 274
11.8512 310
11.87131 290
11.89143 327
11.91154 299
11.93165 341
11.95177 323
11.97188 322
11.99199 314
12.01211 309
12.03222 282
12.05234 328
12.07245 312
12.09256 361
12.11268 352
12.13279 312
12.1529 342
12.17302 298
12.19313 327
12.21324 341
12.23336 335
12.25347 364
12.27359 297
12.2937 341
12.31381 339
12.33393 331
12.35404 333
12.37415 325
12.39427 359
12.41438 303
12.4345 306
12.45461 304
12.47472 280
12.49484 291
12.51495 313
12.53506 327
12.55518 311
12.57529 299
12.5954 307
12.61552 311
12.63563 316
12.65575 290
12.67586 285
12.69597 299
12.71609 298
12.7362 251
12.75631 297
12.77643 262
12.79654 278
12.81666 294
12.83677 260
12.85688 275
12.877 285
12.89711 278
12.91722 276
12.93734 234
12.95745 280
12.97757 261
12.99768 266
13.01779 259
13.03791 267
13.05802 260
13.07813 296
13.09825 292
13.11836 270
13.13847 297
13.15859 285
13.1787 259
13.19882 245
13.21893 277
13.23904 300
13.25916 276
13.27927 291
13.29938 264
13.3195 258
13.33961 256
13.35973 269
13.37984 279
13.39995 252
13.42007 253
13.44018 257
13.46029 272
13.48041 273
13.50052 278
13.52064 247
13.54075 279
13.56086 264
13.58098 243
13.60109 277
13.6212 294
13.64132 293
13.66143 275
13.68154 268
13.70166 273
13.72177 271
13.74189 286
13.762 288
13.78211 299
13.80223 285
13.82234 299
13.84245 284
13.86257 289
13.88268 303
13.9028 289
13.92291 305
13.94302 269
13.96314 268
13.98325 278
14.00336 308
14.02348 237
14.04359 280
14.06371 263
14.08382 259
14.10393 282
14.12405 279
14.14416 273
14.16427 233
14.18439 272
14.2045 273
14.22461 248
14.24473 228
14.26484 257
14.28496 258
14.30507 263
14.32518 263
14.3453 267
14.36541 295
14.38552 280
14.40564 239
14.42575 270
14.44587 260
14.46598 271
14.48609 256
14.50621 272
14.52632 266
14.54643 256
14.56655 263
14.58666 269
14.60677 245
14.62689 258
14.647 238
14.66712 258
14.68723 248
14.70734 274
14.72746 254
14.74757 235
14.76768 243
14.7878 236
14.80791 249
14.82803 257
14.84814 258
14.86825 297
14.88837 239
14.90848 255
14.92859 275
14.94871 260
14.96882 258
14.98894 294
15.00905 246
15.02916 272
15.04928 293
15.06939 283
15.0895 267
15.10962 249
15.12973 254
15.14984 259
15.16996 262
15.19007 254
15.21019 253
15.2303 269
15.25041 272
15.27053 238
15.29064 229
15.31075 257
15.33087 254
15.35098 245
15.3711 268
15.39121 251
15.41132 234
15.43144 261
15.45155 274
15.47166 251
15.49178 250
15.51189 242
15.53201 260
15.55212 269
15.57223 253
15.59235 260
15.61246 259
15.63257 269
15.65269 236
15.6728 252
15.69291 234
15.71303 229
15.73314 242
15.75326 243
15.77337 240
15.79348 257
15.8136 272
15.83371 260
15.85382 246
15.87394 237
15.89405 234
15.91417 232
15.93428 256
15.95439 207
15.97451 272
15.99462 260
16.01473 266
16.03485 244
16.05496 216
16.07508 249
16.09519 224
16.1153 262
16.13542 293
16.15553 227
16.17564 216
16.19576 251
16.21587 242
16.23598 247
16.2561 237
16.27621 204
16.29633 261
16.31644 260
16.33655 237
16.35667 259
16.37678 239
16.39689 300
16.41701 255
16.43712 251
16.45724 274
16.47735 227
16.49746 243
16.51758 242
16.53769 249
16.5578 242
16.57792 253
16.59803 235
16.61814 221
16.63826 214
16.65837 257
16.67849 259
16.6986 249
16.71871 259
16.73883 222
16.75894 278
16.77905 222
16.79917 252
16.81928 242
16.8394 267
16.85951 229
16.87962 240
16.89974 247
16.91985 259
16.93996 244
16.96008 223
16.98019 248
17.00031 249
17.02042 261
17.04053 253
17.06065 255
17.08076 259
17.10087 241
17.12099 260
17.1411 256
17.16121 259
17.18133 213
17.20144 229
17.22156 232
17.24167 234
17.26178 221
17.2819 262
17.30201 254
17.32212 225
17.34224 216
17.36235 222
17.38247 190
17.40258 220
17.42269 254
17.44281 237
17.46292 213
17.48303 252
17.50315 262
17.52326 248
17.54338 240
17.56349 273
17.5836 256
17.60372 275
17.62383 283
17.64394 272
17.66406 293
17.68417 318
17.70428 279
17.7244 352
17.74451 387
17.76463 455
17.78474 487
17.80485 518
17.82497 482
17.84508 411
17.86519 363
17.88531 319
17.90542 299
17.92554 265
17.94565 272
17.96576 274
17.98588 249
18.00599 264
18.0261 237
18.04622 255
18.06633 280
18.08645 258
18.10656 259
18.12667 241
18.14679 244
18.1669 280
18.18701 256
18.20713 249
18.22724 244
18.24735 238
18.26747 255
18.28758 242
18.3077 259
18.32781 264
18.34792 260
18.36804 254
18.38815 265
18.40826 221
18.42838 259
18.44849 254
18.46861 235
18.48872 237
18.50883 253
18.52895 222
18.54906 213
18.56917 244
18.58929 244
18.6094 267
18.62951 265
18.64963 261
18.66974 261
18.68986 263
18.70997 247
18.73008 263
18.7502 250
18.77031 241
18.79042 257
18.81054 282
18.83065 267
18.85077 223
18.87088 250
18.89099 244
18.91111 235
18.93122 235
18.95133 262
18.97145 217
18.99156 278
19.01168 254
19.03179 258
19.0519 241
19.07202 260
19.09213 271
19.11224 284
19.13236 254
19.15247 271
19.17258 281
19.1927 266
19.21281 268
19.23293 311
19.25304 300
19.27315 316
19.29327 265
19.31338 327
19.33349 307
19.35361 314
19.37372 303
19.39384 277
19.41395 299
19.43406 282
19.45418 291
19.47429 296
19.4944 302
19.51452 304
19.53463 324
19.55475 335
19.57486 353
19.59497 412
19.61509 491
19.6352 481
19.65531 539
19.67543 554
19.69554 610
19.71565 610
19.73577 602
19.75588 706
19.776 674
19.79611 771
19.81622 684
19.83634 666
19.85645 653
19.87656 589
19.89668 489
19.91679 420
19.93691 407
19.95702 415
19.97713 386
19.99725 369
20.01736 382
20.03747 387
20.05759 382
20.0777 384
20.09782 404
20.11793 407
20.13804 365
20.15816 402
20.17827 364
20.19838 389
20.2185 412
20.23861 342
20.25872 377
20.27884 370
20.29895 373
20.31907 350
20.33918 365
20.35929 362
20.37941 416
20.39952 373
20.41963 384
20.43975 392
20.45986 445
20.47998 443
20.50009 457
20.5202 525
20.54032 518
20.56043 504
20.58054 485
20.60066 521
20.62077 520
20.64088 533
20.661 555
20.68111 706
20.70123 810
20.72134 1005
20.74145 1310
20.76157 1803
20.78168 2393
20.80179 3274
20.82191 4168
20.84202 4901
20.86214 5206
20.88225 4680
20.90236 3807
20.92248 2675
20.94259 1896
20.9627 1192
20.98282 810
21.00293 634
21.02305 570
21.04316 549
21.06327 553
21.08339 454
21.1035 468
21.12361 422
21.14373 390
21.16384 414
21.18395 392
21.20407 401
21.22418 375
21.2443 314
21.26441 365
21.28452 346
21.30464 330
21.32475 357
21.34486 345
21.36498 357
21.38509 346
21.40521 334
21.42532 378
21.44543 326
21.46555 394
21.48566 377
21.50577 398
21.52589 403
21.546 437
21.56612 388
21.58623 467
21.60634 357
21.62646 333
21.64657 326
21.66668 346
21.6868 307
21.70691 333
21.72702 330
21.74714 310
21.76725 337
21.78737 322
21.80748 316
21.82759 328
21.84771 350
21.86782 297
21.88793 364
21.90805 339
21.92816 380
21.94828 346
21.96839 379
21.9885 410
22.00862 442
22.02873 412
22.04884 489
22.06896 405
22.08907 409
22.10919 382
22.1293 376
22.14941 333
22.16953 301
22.18964 343
22.20975 364
22.22987 341
22.24998 333
22.27009 373
22.29021 325
22.31032 359
22.33044 397
22.35055 364
22.37066 358
22.39078 365
22.41089 334
22.431 340
22.45112 332
22.47123 344
22.49135 348
22.51146 336
22.53157 332
22.55169 318
22.5718 316
22.59191 349
22.61203 348
22.63214 351
22.65225 313
22.67237 368
22.69248 386
22.7126 403
22.73271 433
22.75282 446
22.77294 455
22.79305 550
22.81316 547
22.83328 519
22.85339 563
22.87351 496
22.89362 452
22.91373 446
22.93385 428
22.95396 374
22.97407 365
22.99419 354
23.0143 337
23.03442 372
23.05453 332
23.07464 356
23.09476 362
23.11487 329
23.13498 334
23.1551 333
23.17521 342
23.19532 320
23.21544 375
23.23555 382
23.25567 343
23.27578 351
23.29589 316
23.31601 334
23.33612 336
23.35623 343
23.37635 340
23.39646 343
23.41658 341
23.43669 341
23.4568 365
23.47692 370
23.49703 407
23.51714 406
23.53726 457
23.55737 454
23.57749 489
23.5976 435
23.61771 432
23.63783 460
23.65794 459
23.67805 458
23.69817 540
23.71828 557
23.73839 531
23.75851 489
23.77862 511
23.79874 507
23.81885 455
23.83896 414
23.85908 393
23.87919 408
23.8993 421
23.91942 411
23.93953 396
23.95965 431
23.97976 470
23.99987 475
24.01999 466
24.0401 470
24.06021 490
24.08033 465
24.10044 504
24.12056 501
24.14067 529
24.16078 469
24.1809 443
24.20101 492
24.22112 391
24.24124 393
24.26135 412
24.28146 367
24.30158 419
24.32169 432
24.34181 394
24.36192 405
24.38203 338
24.40215 337
24.42226 328
24.44237 334
24.46249 351
24.4826 326
24.50272 313
24.52283 327
24.54294 319
24.56306 310
24.58317 321
24.60328 334
24.6234 333
24.64351 346
24.66362 354
24.68374 358
24.70385 389
24.72397 386
24.74408 330
24.76419 345
24.78431 370
24.80442 394
24.82453 339
24.84465 395
24.86476 378
24.88488 365
24.90499 365
24.9251 383
24.94522 378
24.96533 348
24.98544 369
25.00556 373
25.02567 356
25.04579 355
25.0659 343
25.08601 350
25.10613 342
25.12624 332
25.14635 421
25.16647 384
25.18658 355
25.20669 364
25.22681 377
25.24692 422
25.26704 410
25.28715 418
25.30726 470
25.32738 503
25.34749 538
25.3676 580
25.38772 595
25.40783 651
25.42795 674
25.44806 671
25.46817 652
25.48829 653
25.5084 568
25.52851 570
25.54863 533
25.56874 506
25.58886 462
25.60897 523
25.62908 459
25.6492 496
25.66931 468
25.68942 514
25.70954 478
25.72965 487
25.74976 461
25.76988 475
25.78999 475
25.81011 436
25.83022 453
25.85033 449
25.87045 456
25.89056 500
25.91067 487
25.93079 519
25.9509 512
25.97102 522
25.99113 491
26.01124 539
26.03136 489
26.05147 581
26.07158 541
26.0917 521
26.11181 571
26.13193 570
26.15204 631
26.17215 634
26.19227 672
26.21238 690
26.23249 773
26.25261 787
26.27272 827
26.29283 841
26.31295 959
26.33306 1031
26.35318 1185
26.37329 1343
26.3934 1429
26.41352 1634
26.43363 1933
26.45374 2460
26.47386 3210
26.49397 4189
26.51409 5603
26.5342 7725
26.55431 10334
26.57443 14012
26.59454 18052
26.61465 21468
26.63477 23625
26.65488 21633
26.67499 17214
26.69511 13419
26.71522 10633
26.73534 7374
26.75545 4275
26.77556 2768
26.79568 2305
26.81579 2159
26.8359 1857
26.85602 1673
26.87613 1422
26.89625 1308
26.91636 1096
26.93647 929
26.95659 828
26.9767 822
26.99681 756
27.01693 676
27.03704 711
27.05716 699
27.07727 643
27.09738 590
27.1175 606
27.13761 559
27.15772 536
27.17784 516
27.19795 483
27.21806 509
27.23818 493
27.25829 500
27.27841 557
27.29852 547
27.31863 515
27.33875 607
27.35886 630
27.37897 691
27.39909 695
27.4192 739
27.43932 705
27.45943 691
27.47954 708
27.49966 733
27.51977 656
27.53988 578
27.56 582
27.58011 523
27.60023 557
27.62034 526
27.64045 564
27.66057 583
27.68068 661
27.70079 632
27.72091 683
27.74102 732
27.76113 816
27.78125 841
27.80136 798
27.82148 784
27.84159 818
27.8617 794
27.88182 819
27.90193 822
27.92204 815
27.94216 749
27.96227 640
27.98239 633
28.0025 582
28.02261 521
28.04273 508
28.06284 492
28.08295 464
28.10307 452
28.12318 459
28.1433 414
28.16341 443
28.18352 428
28.20364 436
28.22375 378
28.24386 355
28.26398 393
28.28409 427
28.3042 357
28.32432 368
28.34443 391
28.36455 371
28.38466 355
28.40477 399
28.42489 348
28.445 353
28.46511 350
28.48523 376
28.50534 382
28.52546 348
28.54557 343
28.56568 339
28.5858 339
28.60591 365
28.62602 330
28.64614 327
28.66625 324
28.68636 315
28.70648 338
28.72659 340
28.74671 307
28.76682 327
28.78693 320
28.80705 305
28.82716 309
28.84727 311
28.86739 313
28.8875 312
28.90762 289
28.92773 341
28.94784 322
28.96796 309
28.98807 301
29.00818 324
29.0283 331
29.04841 286
29.06853 302
29.08864 321
29.10875 303
29.12887 306
29.14898 335
29.16909 299
29.18921 294
29.20932 295
29.22943 300
29.24955 300
29.26966 327
29.28978 322
29.30989 309
29.33 319
29.35012 326
29.37023 337
29.39034 291
29.41046 317
29.43057 339
29.45069 351
29.4708 342
29.49091 368
29.51103 399
29.53114 399
29.55125 356
29.57137 375
29.59148 384
29.6116 326
29.63171 378
29.65182 409
29.67194 481
29.69205 455
29.71216 481
29.73228 515
29.75239 604
29.7725 627
29.79262 705
29.81273 653
29.83285 679
29.85296 632
29.87307 589
29.89319 562
29.9133 503
29.93341 502
29.95353 455
29.97364 456
29.99376 379
30.01387 416
30.03398 392
30.0541 369
30.07421 374
30.09432 353
30.11444 350
30.13455 363
30.15467 361
30.17478 383
30.19489 374
30.21501 362
30.23512 376
30.25523 345
30.27535 376
30.29546 367
30.31557 340
30.33569 329
30.3558 329
30.37592 363
30.39603 349
30.41614 349
30.43626 377
30.45637 387
30.47648 351
30.4966 348
30.51671 319
30.53683 302
30.55694 318
30.57705 314
30.59717 323
30.61728 319
30.63739 303
30.65751 322
30.67762 321
30.69773 325
30.71785 351
30.73796 341
30.75808 367
30.77819 344
30.7983 335
30.81842 358
30.83853 326
30.85864 333
30.87876 321
30.89887 334
30.91899 328
30.9391 336
30.95921 334
30.97933 307
30.99944 345
31.01955 354
31.03967 363
31.05978 396
31.0799 412
31.10001 437
31.12012 448
31.14024 521
31.16035 515
31.18046 518
31.20058 526
31.22069 481
31.2408 478
31.26092 463
31.28103 472
31.30115 415
31.32126 374
31.34137 303
31.36149 348
31.3816 315
31.40171 335
31.42183 316
31.44194 286
31.46206 299
31.48217 286
31.50228 313
31.5224 306
31.54251 300
31.56262 309
31.58274 289
31.60285 289
31.62297 316
31.64308 288
31.66319 280
31.68331 265
31.70342 313
31.72353 290
31.74365 294
31.76376 310
31.78387 332
31.80399 350
31.8241 306
31.84422 339
31.86433 328
31.88444 374
31.90456 383
31.92467 367
31.94478 431
31.9649 418
31.98501 409
32.00513 443
32.02524 442
32.04535 430
32.06547 396
32.08558 392
32.10569 362
32.12581 341
32.14592 339
32.16604 342
32.18615 319
32.20626 312
32.22638 337
32.24649 309
32.2666 292
32.28672 301
32.30683 306
32.32694 283
32.34706 268
32.36717 256
32.38729 292
32.4074 295
32.42751 277
32.44763 277
32.46774 293
32.48785 280
32.50797 296
32.52808 283
32.5482 272
32.56831 273
32.58842 262
32.60854 264
32.62865 275
32.64876 234
32.66888 274
32.68899 243
32.7091 281
32.72922 248
32.74933 298
32.76945 279
32.78956 275
32.80967 277
32.82979 271
32.8499 307
32.87001 310
32.89013 292
32.91024 300
32.93036 306
32.95047 344
32.97058 353
32.9907 359
33.01081 406
33.03092 459
33.05104 500
33.07115 491
33.09127 549
33.11138 552
33.13149 508
33.15161 488
33.17172 483
33.19183 446
33.21195 375
33.23206 387
33.25217 324
33.27229 337
33.2924 293
33.31252 282
33.33263 287
33.35274 301
33.37286 258
33.39297 272
33.41308 259
33.4332 259
33.45331 276
33.47343 258
33.49354 281
33.51365 265
33.53377 257
33.55388 285
33.57399 262
33.59411 261
33.61422 246
33.63434 265
33.65445 259
33.67456 278
33.69468 256
33.71479 283
33.7349 278
33.75502 290
33.77513 267
33.79524 270
33.81536 312
33.83547 302
33.85559 283
33.8757 289
33.89581 303
33.91593 279
33.93604 327
33.95615 260
33.97627 307
33.99638 316
34.0165 340
34.03661 351
34.05672 331
34.07684 331
34.09695 361
34.11706 332
34.13718 355
34.15729 377
34.17741 383
34.19752 384
34.21763 430
34.23775 457
34.25786 460
34.27797 447
34.29809 421
34.3182 471
34.33831 486
34.35843 520
34.37854 484
34.39866 505
34.41877 472
34.43888 477
34.459 479
34.47911 452
34.49922 454
34.51934 454
34.53945 439
34.55957 408
34.57968 431
34.59979 437
34.61991 471
34.64002 481
34.66013 548
34.68025 524
34.70036 579
34.72047 639
34.74059 654
34.7607 721
34.78082 786
34.80093 742
34.82104 749
34.84116 855
34.86127 792
34.88138 726
34.9015 709
34.92161 634
34.94173 558
34.96184 531
34.98195 511
35.00207 475
35.02218 456
35.04229 406
35.06241 398
35.08252 360
35.10264 385
35.12275 392
35.14286 356
35.16298 343
35.18309 335
35.2032 329
35.22332 329
35.24343 330
35.26354 332
35.28366 342
35.30377 305
35.32389 349
35.344 326
35.36411 366
35.38423 374
35.40434 353
35.42445 368
35.44457 391
35.46468 407
35.4848 410
35.50491 472
35.52502 460
35.54514 514
35.56525 583
35.58536 514
35.60548 537
35.62559 489
35.64571 484
35.66582 484
35.68593 424
35.70605 436
35.72616 392
35.74627 371
35.76639 372
35.7865 370
35.80661 374
35.82673 381
35.84684 364
35.86696 374
35.88707 352
35.90718 342
35.9273 381
35.94741 366
35.96752 377
35.98764 377
36.00775 367
36.02787 394
36.04798 400
36.06809 373
36.08821 383
36.10832 363
36.12843 334
36.14855 350
36.16866 362
36.18878 377
36.20889 382
36.229 398
36.24912 384
36.26923 427
36.28934 440
36.30946 436
36.32957 475
36.34968 472
36.3698 573
36.38991 622
36.41003 699
36.43014 854
36.45025 1030
36.47037 1181
36.49048 1408
36.51059 1555
36.53071 1699
36.55082 1701
36.57094 1420
36.59105 1153
36.61116 1017
36.63128 913
36.65139 858
36.6715 605
36.69162 482
36.71173 402
36.73184 336
36.75196 370
36.77207 342
36.79219 355
36.8123 335
36.83241 330
36.85253 334
36.87264 324
36.89275 331
36.91287 341
36.93298 323
36.9531 324
36.97321 315
36.99332 311
37.01344 347
37.03355 331
37.05366 364
37.07378 330
37.09389 329
37.11401 340
37.13412 294
37.15423 317
37.17435 356
37.19446 304
37.21457 322
37.23469 364
37.2548 389
37.27491 371
37.29503 390
37.31514 391
37.33526 360
37.35537 403
37.37548 391
37.3956 451
37.41571 414
37.43582 372
37.45594 419
37.47605 407
37.49617 405
37.51628 381
37.53639 439
37.55651 408
37.57662 462
37.59673 464
37.61685 422
37.63696 461
37.65708 415
37.67719 373
37.6973 393
37.71742 343
37.73753 364
37.75764 343
37.77776 352
37.79787 292
37.81798 315
37.8381 260
37.85821 281
37.87833 290
37.89844 268
37.91855 241
37.93867 260
37.95878 277
37.97889 270
37.99901 288
38.01912 258
38.03924 263
38.05935 277
38.07946 279
38.09958 279
38.11969 297
38.1398 283
38.15992 292
38.18003 294
38.20015 270
38.22026 284
38.24037 300
38.26049 268
38.2806 291
38.30071 277
38.32083 291
38.34094 266
38.36105 257
38.38117 276
38.40128 311
38.4214 281
38.44151 300
38.46162 284
38.48174 286
38.50185 260
38.52196 266
38.54208 268
38.56219 286
38.58231 296
38.60242 260
38.62253 312
38.64265 275
38.66276 268
38.68287 289
38.70299 275
38.7231 283
38.74321 296
38.76333 308
38.78344 258
38.80356 272
38.82367 276
38.84378 268
38.8639 291
38.88401 303
38.90412 272
38.92424 300
38.94435 290
38.96447 318
38.98458 317
39.00469 305
39.02481 283
39.04492 297
39.06503 283
39.08515 301
39.10526 314
39.12538 316
39.14549 353
39.1656 370
39.18572 333
39.20583 354
39.22594 348
39.24606 428
39.26617 403
39.28628 498
39.3064 498
39.32651 598
39.34663 748
39.36674 913
39.38685 1046
39.40697 1218
39.42708 1488
39.44719 1576
39.46731 1428
39.48742 1224
39.50754 1057
39.52765 903
39.54776 916
39.56788 863
39.58799 667
39.6081 502
39.62822 429
39.64833 380
39.66845 337
39.68856 328
39.70867 328
39.72879 338
39.7489 308
39.76901 351
39.78913 331
39.80924 351
39.82935 329
39.84947 351
39.86958 333
39.8897 337
39.90981 333
39.92992 349
39.95004 338
39.97015 347
39.99026 325
40.01038 350
40.03049 334
40.05061 332
40.07072 361
40.09083 378
40.11095 403
40.13106 423
40.15117 471
40.17129 555
40.1914 600
40.21152 686
40.23163 786
40.25174 829
40.27186 904
40.29197 852
40.31208 753
40.3322 650
40.35231 619
40.37242 561
40.39254 562
40.41265 462
40.43277 407
40.45288 364
40.47299 313
40.49311 310
40.51322 278
40.53333 332
40.55345 272
40.57356 305
40.59368 340
40.61379 305
40.6339 283
40.65402 337
40.67413 336
40.69424 295
40.71436 370
40.73447 348
40.75458 377
40.7747 329
40.79481 328
40.81493 356
40.83504 333
40.85515 345
40.87527 330
40.89538 318
40.91549 330
40.93561 313
40.95572 295
40.97584 316
40.99595 288
41.01606 340
41.03618 287
41.05629 322
41.0764 317
41.09652 296
41.11663 304
41.13675 342
41.15686 304
41.17697 344
41.19709 321
41.2172 318
41.23731 284
41.25743 300
41.27754 312
41.29765 325
41.31777 289
41.33788 310
41.358 290
41.37811 310
41.39822 270
41.41834 312
41.43845 284
41.45856 269
41.47868 280
41.49879 273
41.51891 280
41.53902 280
41.55913 307
41.57925 297
41.59936 291
41.61947 301
41.63959 318
41.6597 315
41.67982 311
41.69993 321
41.72004 338
41.74016 341
41.76027 350
41.78038 369
41.8005 396
41.82061 379
41.84072 346
41.86084 374
41.88095 384
41.90107 341
41.92118 386
41.94129 368
41.96141 353
41.98152 355
42.00163 345
42.02175 357
42.04186 359
42.06198 353
42.08209 336
42.1022 386
42.12232 363
42.14243 390
42.16254 391
42.18266 413
42.20277 464
42.22289 538
42.243 558
42.26311 580
42.28323 638
42.30334 634
42.32345 780
42.34357 865
42.36368 952
42.38379 1012
42.40391 1142
42.42402 1237
42.44414 1193
42.46425 1047
42.48436 856
42.50448 824
42.52459 728
42.5447 730
42.56482 659
42.58493 536
42.60505 378
42.62516 317
42.64527 338
42.66539 316
42.6855 299
42.70561 289
42.72573 300
42.74584 281
42.76595 289
42.78607 271
42.80618 272
42.8263 244
42.84641 264
42.86652 258
42.88664 280
42.90675 248
42.92686 275
42.94698 252
42.96709 246
42.98721 276
43.00732 251
43.02743 243
43.04755 242
43.06766 271
43.08777 220
43.10789 250
43.128 235
43.14812 258
43.16823 210
43.18834 259
43.20846 248
43.22857 231
43.24868 269
43.2688 240
43.28891 240
43.30902 239
43.32914 234
43.34925 263
43.36937 267
43.38948 264
43.40959 260
43.42971 261
43.44982 234
43.46993 260
43.49005 261
43.51016 243
43.53028 247
43.55039 247
43.5705 247
43.59062 261
43.61073 247
43.63084 248
43.65096 249
43.67107 252
43.69119 236
43.7113 261
43.73141 224
43.75153 246
43.77164 236
43.79175 248
43.81187 257
43.83198 261
43.85209 284
43.87221 284
43.89232 248
43.91244 246
43.93255 266
43.95266 233
43.97278 241
43.99289 281
44.013 233
44.03312 262
44.05323 230
44.07335 256
44.09346 264
44.11357 246
44.13369 231
44.1538 228
44.17391 249
44.19403 236
44.21414 228
44.23426 258
44.25437 253
44.27448 214
44.2946 247
44.31471 260
44.33482 239
44.35494 248
44.37505 266
44.39516 235
44.41528 238
44.43539 246
44.45551 274
44.47562 259
44.49573 238
44.51585 259
44.53596 233
44.55607 275
44.57619 235
44.5963 247
44.61642 242
44.63653 252
44.65664 249
44.67676 257
44.69687 238
44.71698 273
44.7371 252
44.75721 282
44.77732 265
44.79744 249
44.81755 252
44.83767 274
44.85778 247
44.87789 249
44.89801 276
44.91812 263
44.93823 251
44.95835 234
44.97846 305
44.99858 251
45.01869 271
45.0388 282
45.05892 280
45.07903 278
45.09914 265
45.11926 266
45.13937 272
45.15949 264
45.1796 283
45.19971 266
45.21983 305
45.23994 311
45.26005 335
45.28017 351
45.30028 317
45.32039 335
45.34051 391
45.36062 407
45.38074 412
45.40085 449
45.42096 447
45.44108 505
45.46119 480
45.4813 486
45.50142 453
45.52153 432
45.54165 461
45.56176 449
45.58187 459
45.60199 451
45.6221 453
45.64221 494
45.66233 521
45.68244 573
45.70256 616
45.72267 736
45.74278 793
45.7629 832
45.78301 876
45.80312 788
45.82324 659
45.84335 607
45.86346 578
45.88358 594
45.90369 546
45.92381 543
45.94392 455
45.96403 342
45.98415 334
46.00426 285
46.02437 293
46.04449 289
46.0646 324
46.08472 258
46.10483 293
46.12494 235
46.14506 229
46.16517 238
46.18528 257
46.2054 255
46.22551 265
46.24563 272
46.26574 237
46.28585 252
46.30597 280
46.32608 245
46.34619 256
46.36631 280
46.38642 256
46.40653 271
46.42665 254
46.44676 272
46.46688 256
46.48699 231
46.5071 243
46.52722 243
46.54733 260
46.56744 278
46.58756 271
46.60767 248
46.62779 241
46.6479 233
46.66801 249
46.68813 226
46.70824 254
46.72835 205
46.74847 229
46.76858 242
46.78869 215
46.80881 251
46.82892 228
46.84904 227
46.86915 240
46.88926 229
46.90938 204
46.92949 231
46.9496 237
46.96972 233
46.98983 216
47.00995 248
47.03006 226
47.05017 231
47.07029 240
47.0904 228
47.11051 253
47.13063 249
47.15074 226
47.17086 242
47.19097 236
47.21108 209
47.2312 221
47.25131 225
47.27142 215
47.29154 237
47.31165 247
47.33176 237
47.35188 247
47.37199 197
47.39211 230
47.41222 236
47.43233 249
47.45245 223
47.47256 238
47.49267 228
47.51279 217
47.5329 225
47.55302 235
47.57313 232
47.59324 196
47.61336 245
47.63347 212
47.65358 227
47.6737 223
47.69381 246
47.71393 224
47.73404 219
47.75415 228
47.77427 223
47.79438 240
47.81449 188
47.83461 225
47.85472 220
47.87483 243
47.89495 233
47.91506 235
47.93518 228
47.95529 220
47.9754 262
47.99552 241
48.01563 228
48.03574 238
48.05586 232
48.07597 225
48.09609 252
48.1162 231
48.13631 265
48.15643 217
48.17654 241
48.19665 243
48.21677 240
48.23688 239
48.257 238
48.27711 226
48.29722 232
48.31734 235
48.33745 190
48.35756 261
48.37768 241
48.39779 250
48.4179 248
48.43802 230
48.45813 220
48.47825 248
48.49836 233
48.51847 255
48.53859 251
48.5587 217
48.57881 272
48.59893 244
48.61904 232
48.63916 227
48.65927 247
48.67938 232
48.6995 254
48.71961 250
48.73972 258
48.75984 248
48.77995 214
48.80006 255
48.82018 244
48.84029 238
48.86041 237
48.88052 250
48.90063 242
48.92075 243
48.94086 242
48.96097 263
48.98109 241
49.0012 282
49.02132 258
49.04143 220
49.06154 242
49.08166 265
49.10177 261
49.12188 263
49.142 259
49.16211 276
49.18223 264
49.20234 271
49.22245 253
49.24257 294
49.26268 286
49.28279 290
49.30291 300
49.32302 281
49.34313 307
49.36325 338
49.38336 331
49.40348 321
49.42359 335
49.4437 283
49.46382 327
49.48393 310
49.50404 311
49.52416 326
49.54427 281
49.56439 285
49.5845 283
49.60461 280
49.62473 277
49.64484 292
49.66495 318
49.68507 308
49.70518 296
49.7253 322
49.74541 321
49.76552 361
49.78564 345
49.80575 327
49.82586 413
49.84598 424
49.86609 461
49.8862 468
49.90632 527
49.92643 618
49.94655 723
49.96666 794
49.98677 917
50.00689 1125
50.027 1302
50.04711 1552
50.06723 1811
50.08734 2028
50.10746 2221
50.12757 2216
50.14768 1956
50.1678 1638
50.18791 1343
50.20802 1165
50.22814 1145
50.24825 1176
50.26837 1076
50.28848 818
50.30859 640
50.32871 483
50.34882 402
50.36893 396
50.38905 343
50.40916 343
50.42927 307
50.44939 299
50.4695 278
50.48962 331
50.50973 306
50.52984 333
50.54996 342
50.57007 324
50.59018 353
50.6103 319
50.63041 290
50.65053 311
50.67064 310
50.69075 284
50.71087 277
50.73098 295
50.75109 295
50.77121 274
50.79132 268
50.81143 270
50.83155 230
50.85166 268
50.87178 224
50.89189 204
50.912 229
50.93212 277
50.95223 227
50.97234 240
50.99246 235
51.01257 248
51.03269 240
51.0528 228
51.07291 214
51.09303 215
51.11314 218
51.13325 223
51.15337 246
51.17348 272
51.1936 250
51.21371 220
51.23382 209
51.25394 228
51.27405 244
51.29416 233
51.31428 235
51.33439 264
51.3545 238
51.37462 214
51.39473 220
51.41485 211
51.43496 225
51.45507 216
51.47519 220
51.4953 223
51.51541 218
51.53553 210
51.55564 241
51.57576 220
51.59587 218
51.61598 198
51.6361 230
51.65621 220
51.67632 225
51.69644 212
51.71655 242
51.73667 247
51.75678 247
51.77689 215
51.79701 231
51.81712 205
51.83723 208
51.85735 203
51.87746 238
51.89757 205
51.91769 214
51.9378 223
51.95792 228
51.97803 216
51.99814 218
52.01826 236
52.03837 250
52.05848 226
52.0786 243
52.09871 226
52.11883 237
52.13894 214
52.15905 226
52.17917 231
52.19928 212
52.21939 236
52.23951 237
52.25962 242
52.27974 225
52.29985 228
52.31996 219
52.34008 247
52.36019 264
52.3803 226
52.40042 232
52.42053 236
52.44064 234
52.46076 238
52.48087 208
52.50099 223
52.5211 231
52.54121 259
52.56133 199
52.58144 265
52.60155 251
52.62167 268
52.64178 235
52.6619 241
52.68201 261
52.70212 272
52.72224 245
52.74235 243
52.76246 255
52.78258 234
52.80269 243
52.8228 253
52.84292 249
52.86303 246
52.88315 267
52.90326 245
52.92337 226
52.94349 215
52.9636 230
52.98371 240
53.00383 252
53.02394 246
53.04406 247
53.06417 215
53.08428 244
53.1044 230
53.12451 215
53.14462 227
53.16474 245
53.18485 248
53.20497 246
53.22508 240
53.24519 238
53.26531 237
53.28542 236
53.30553 219
53.32565 228
53.34576 248
53.36587 272
53.38599 268
53.4061 274
53.42622 230
53.44633 247
53.46644 264
53.48656 259
53.50667 245
53.52678 262
53.5469 263
53.56701 282
53.58713 273
53.60724 243
53.62735 257
53.64747 247
53.66758 249
53.68769 266
53.70781 265
53.72792 255
53.74804 288
53.76815 281
53.78826 251
53.80838 277
53.82849 296
53.8486 297
53.86872 299
53.88883 310
53.90894 316
53.92906 314
53.94917 343
53.96929 314
53.9894 310
54.00951 311
54.02963 325
54.04974 299
54.06985 324
54.08997 316
54.11008 290
54.1302 297
54.15031 290
54.17042 289
54.19054 289
54.21065 275
54.23076 288
54.25088 345
54.27099 295
54.29111 284
54.31122 286
54.33133 275
54.35145 266
54.37156 304
54.39167 273
54.41179 296
54.4319 293
54.45201 270
54.47213 282
54.49224 304
54.51236 278
54.53247 264
54.55258 322
54.5727 277
54.59281 298
54.61292 314
54.63304 369
54.65315 387
54.67327 379
54.69338 400
54.71349 424
54.73361 449
54.75372 547
54.77383 580
54.79395 717
54.81406 734
54.83417 793
54.85429 853
54.8744 744
54.89452 692
54.91463 552
54.93474 535
54.95486 519
54.97497 563
54.99508 573
55.0152 527
55.03531 520
55.05543 482
55.07554 416
55.09565 384
55.11577 378
55.13588 426
55.15599 385
55.17611 397
55.19622 437
55.21634 454
55.23645 475
55.25656 484
55.27668 500
55.29679 532
55.3169 534
55.33702 482
55.35713 442
55.37724 368
55.39736 395
55.41747 381
55.43759 413
55.4577 413
55.47781 411
55.49793 359
55.51804 329
55.53815 318
55.55827 345
55.57838 376
55.5985 354
55.61861 355
55.63872 337
55.65884 361
55.67895 350
55.69906 340
55.71918 347
55.73929 343
55.75941 314
55.77952 342
55.79963 342
55.81975 301
55.83986 300
55.85997 292
55.88009 320
55.9002 302
55.92031 263
55.94043 260
55.96054 279
55.98066 282
56.00077 267
56.02088 247
56.041 238
56.06111 261
56.08122 253
56.10134 276
56.12145 221
56.14157 242
56.16168 251
56.18179 261
56.20191 258
56.22202 259
56.24213 248
56.26225 242
56.28236 261
56.30248 239
56.32259 242
56.3427 240
56.36282 227
56.38293 264
56.40304 269
56.42316 224
56.44327 229
56.46338 234
56.4835 234
56.50361 250
56.52373 244
56.54384 239
56.56395 229
56.58407 248
56.60418 242
56.62429 255
56.64441 235
56.66452 269
56.68464 257
56.70475 235
56.72486 245
56.74498 245
56.76509 292
56.7852 252
56.80532 238
56.82543 235
56.84554 232
56.86566 212
56.88577 229
56.90589 223
56.926 263
56.94611 224
56.96623 233
56.98634 251
57.00645 251
57.02657 228
57.04668 226
57.0668 245
57.08691 219
57.10702 257
57.12714 275
57.14725 248
57.16736 284
57.18748 276
57.20759 271
57.22771 274
57.24782 278
57.26793 258
57.28805 261
57.30816 252
57.32827 276
57.34839 257
57.3685 296
57.38861 272
57.40873 275
57.42884 268
57.44896 254
57.46907 268
57.48918 258
57.5093 257
57.52941 223
57.54952 224
57.56964 223
57.58975 246
57.60987 227
57.62998 242
57.65009 222
57.67021 236
57.69032 217
57.71043 207
57.73055 207
57.75066 236
57.77078 219
57.79089 229
57.811 201
57.83112 208
57.85123 216
57.87134 222
57.89146 215
57.91157 192
57.93168 216
57.9518 218
57.97191 205
57.99203 227
58.01214 220
58.03225 209
58.05237 214
58.07248 203
58.09259 191
58.11271 215
58.13282 231
58.15294 220
58.17305 212
58.19316 215
58.21328 228
58.23339 200
58.2535 235
58.27362 229
58.29373 251
58.31385 227
58.33396 208
58.35407 257
58.37419 211
58.3943 213
58.41441 196
58.43453 213
58.45464 203
58.47475 241
58.49487 233
58.51498 214
58.5351 218
58.55521 210
58.57532 241
58.59544 220
58.61555 204
58.63566 229
58.65578 219
58.67589 229
58.69601 204
58.71612 207
58.73623 226
58.75635 222
58.77646 230
58.79657 226
58.81669 255
58.8368 197
58.85691 207
58.87703 222
58.89714 235
58.91726 243
58.93737 236
58.95748 272
58.9776 242
58.99771 239
59.01782 233
59.03794 232
59.05805 237
59.07817 242
59.09828 235
59.11839 293
59.13851 253
59.15862 251
59.17873 235
59.19885 254
59.21896 258
59.23908 234
59.25919 231
59.2793 219
59.29942 261
59.31953 233
59.33964 267
59.35976 227
59.37987 240
59.39998 250
59.4201 261
59.44021 222
59.46033 264
59.48044 269
59.50055 249
59.52067 265
59.54078 276
59.56089 315
59.58101 278
59.60112 312
59.62124 324
59.64135 366
59.66146 346
59.68158 406
59.70169 404
59.7218 466
59.74192 456
59.76203 543
59.78215 626
59.80226 725
59.82237 771
59.84249 921
59.8626 1075
59.88271 1228
59.90283 1355
59.92294 1363
59.94305 1384
59.96317 1197
59.98328 992
60.0034 828
60.02351 716
60.04362 802
60.06374 862
60.08385 759
60.10396 756
60.12408 722
60.14419 583
60.16431 442
60.18442 390
60.20453 318
60.22465 360
60.24476 302
60.26487 340
60.28499 295
60.3051 297
60.32522 272
60.34533 289
60.36544 341
60.38556 320
60.40567 298
60.42578 264
60.4459 268
60.46601 256
60.48612 250
60.50624 283
60.52635 271
60.54647 298
60.56658 280
60.58669 277
60.60681 273
60.62692 284
60.64703 289
60.66715 293
60.68726 245
60.70738 272
60.72749 273
60.7476 279
60.76772 263
60.78783 281
60.80794 264
60.82806 252
60.84817 252
60.86828 248
60.8884 247
60.90851 234
60.92863 239
60.94874 241
60.96885 256
60.98897 246
61.00908 249
61.02919 257
61.04931 251
61.06942 267
61.08954 276
61.10965 255
61.12976 272
61.14988 275
61.16999 278
61.1901 285
61.21022 340
61.23033 331
61.25045 324
61.27056 351
61.29067 303
61.31079 338
61.3309 365
61.35101 375
61.37113 341
61.39124 362
61.41135 360
61.43147 321
61.45158 340
61.4717 335
61.49181 333
61.51192 319
61.53204 303
61.55215 329
61.57226 283
61.59238 273
61.61249 273
61.63261 275
61.65272 282
61.67283 244
61.69295 246
61.71306 271
61.73317 234
61.75329 254
61.7734 234
61.79352 230
61.81363 220
61.83374 218
61.85386 229
61.87397 269
61.89408 232
61.9142 217
61.93431 253
61.95442 248
61.97454 249
61.99465 220
62.01477 254
62.03488 250
62.05499 239
62.07511 247
62.09522 263
62.11533 250
62.13545 239
62.15556 267
62.17568 269
62.19579 241
62.2159 255
62.23602 277
62.25613 258
62.27624 247
62.29636 279
62.31647 281
62.33659 275
62.3567 286
62.37681 301
62.39693 255
62.41704 264
62.43715 238
62.45727 277
62.47738 279
62.49749 246
62.51761 259
62.53772 212
62.55784 245
62.57795 238
62.59806 217
62.61818 230
62.63829 232
62.6584 246
62.67852 207
62.69863 211
62.71875 229
62.73886 224
62.75897 239
62.77909 228
62.7992 220
62.81931 227
62.83943 240
62.85954 226
62.87965 204
62.89977 236
62.91988 202
62.94 213
62.96011 230
62.98022 195
63.00034 235
63.02045 233
63.04056 216
63.06068 227
63.08079 225
63.10091 229
63.12102 216
63.14113 217
63.16125 217
63.18136 219
63.20147 202
63.22159 189
63.2417 229
63.26182 206
63.28193 204
63.30204 187
63.32216 215
63.34227 220
63.36238 219
63.3825 221
63.40261 242
63.42272 217
63.44284 215
63.46295 206
63.48307 243
63.50318 233
63.52329 241
63.54341 196
63.56352 232
63.58363 227
63.60375 241
63.62386 230
63.64398 235
63.66409 250
63.6842 233
63.70432 254
63.72443 260
63.74454 243
63.76466 273
63.78477 281
63.80489 302
63.825 277
63.84511 338
63.86523 322
63.88534 333
63.90545 393
63.92557 399
63.94568 395
63.96579 478
63.98591 445
64.00602 471
64.02614 432
64.04625 373
64.06636 371
64.08648 333
64.10659 355
64.1267 311
64.14682 323
64.16693 306
64.18705 314
64.20716 302
64.22727 279
64.24739 248
64.2675 234
64.28761 198
64.30773 217
64.32784 220
64.34796 221
64.36807 206
64.38818 188
64.4083 217
64.42841 210
64.44852 225
64.46864 231
64.48875 191
64.50886 211
64.52898 178
64.54909 195
64.56921 196
64.58932 229
64.60943 220
64.62955 227
64.64966 193
64.66977 182
64.68989 215
64.71 179
64.73012 197
64.75023 197
64.77034 228
64.79046 190
64.81057 192
64.83068 215
64.8508 190
64.87091 191
64.89102 212
64.91114 201
64.93125 234
64.95137 207
64.97148 227
64.99159 201
65.01171 204
65.03182 201
65.05193 204
65.07205 232
65.09216 202
65.11228 218
65.13239 227
65.1525 204
65.17262 212
65.19273 202
65.21284 208
65.23296 220
65.25307 200
65.27319 218
65.2933 206
65.31341 227
65.33353 206
65.35364 222
65.37375 205
65.39387 201
65.41398 202
65.43409 195
65.45421 246
65.47432 214
65.49444 246
65.51455 231
65.53466 231
65.55478 236
65.57489 236
65.595 241
65.61512 213
65.63523 246
65.65535 228
65.67546 237
65.69557 266
65.71569 247
65.7358 256
65.75591 214
65.77603 247
65.79614 233
65.81626 241
65.83637 229
65.85648 229
65.8766 225
65.89671 224
65.91682 246
65.93694 230
65.95705 220
65.97716 223
65.99728 222
66.01739 204
66.03751 195
66.05762 205
66.07773 199
66.09785 202
66.11796 201
66.13807 194
66.15819 212
66.1783 187
66.19842 197
66.21853 202
66.23864 217
66.25876 221
66.27887 211
66.29898 196
66.3191 204
66.33921 188
66.35933 198
66.37944 193
66.39955 178
66.41967 215
66.43978 199
66.45989 226
66.48001 212
66.50012 184
66.52023 204
66.54035 185
66.56046 179
66.58058 195
66.60069 171
66.6208 192
66.64092 220
66.66103 210
66.68114 203
66.70126 197
66.72137 201
66.74149 207
66.7616 192
66.78171 192
66.80183 195
66.82194 209
66.84205 173
66.86217 213
66.88228 200
66.90239 192
66.92251 200
66.94262 238
66.96274 205
66.98285 197
67.00296 197
67.02308 206
67.04319 213
67.0633 224
67.08342 196
67.10353 229
67.12365 244
67.14376 229
67.16387 206
67.18399 236
67.2041 216
67.22421 231
67.24433 258
67.26444 251
67.28456 217
67.30467 264
67.32478 243
67.3449 237
67.36501 283
67.38512 244
67.40524 268
67.42535 295
67.44546 267
67.46558 324
67.48569 329
67.50581 332
67.52592 370
67.54603 419
67.56615 469
67.58626 486
67.60637 549
67.62649 589
67.6466 705
67.66672 723
67.68683 756
67.70694 836
67.72706 820
67.74717 782
67.76728 682
67.7874 576
67.80751 522
67.82763 532
67.84774 569
67.86785 600
67.88797 635
67.90808 670
67.92819 687
67.94831 618
67.96842 653
67.98853 654
68.00865 689
68.02876 823
68.04888 857
68.06899 974
68.0891 1002
68.10922 1055
68.12933 1020
68.14944 996
68.16956 889
68.18967 890
68.20979 790
68.2299 900
68.25001 918
68.27013 945
68.29024 922
68.31035 901
68.33047 768
68.35058 720
68.3707 560
68.39081 481
68.41092 474
68.43104 472
68.45115 433
68.47126 397
68.49138 427
68.51149 376
68.5316 339
68.55172 294
68.57183 259
68.59195 274
68.61206 277
68.63217 245
68.65229 232
68.6724 222
68.69251 230
68.71263 216
68.73274 193
68.75286 224
68.77297 231
68.79308 216
68.8132 216
68.83331 200
68.85342 206
68.87354 198
68.89365 239
68.91376 209
68.93388 255
68.95399 239
68.97411 226
68.99422 218
69.01433 226
69.03445 237
69.05456 205
69.07467 234
69.09479 207
69.1149 202
69.13502 224
69.15513 266
69.17524 279
69.19536 234
69.21547 255
69.23558 233
69.2557 232
69.27581 233
69.29593 276
69.31604 233
69.33615 251
69.35627 232
69.37638 251
69.39649 237
69.41661 255
69.43672 244
69.45683 242
69.47695 254
69.49706 223
69.51718 272
69.53729 236
69.5574 215
69.57752 231
69.59763 223
69.61774 217
69.63786 235
69.65797 225
69.67809 229
69.6982 196
69.71831 213
69.73843 259
69.75854 232
69.77865 245
69.79877 191
69.81888 223
69.839 238
69.85911 206
69.87922 212
69.89934 219
69.91945 221
69.93956 200
69.95968 233
69.97979 176
69.9999 214
70.02002 216
70.04013 202
70.06025 235
70.08036 227
70.10047 203
70.12059 227
70.1407 217
70.16081 239
70.18093 226
70.20104 231
70.22116 216
70.24127 206
70.26138 224
70.2815 247
70.30161 195
70.32172 192
70.34184 195
70.36195 213
70.38207 199
70.40218 203
70.42229 215
70.44241 200
70.46252 197
70.48263 208
70.50275 185
70.52286 195
70.54297 193
70.56309 201
70.5832 200
70.60332 185
70.62343 208
70.64354 205
70.66366 195
70.68377 182
70.70388 174
70.724 178
70.74411 226
70.76423 205
70.78434 207
70.80445 181
70.82457 191
70.84468 188
70.86479 172
70.88491 204
70.90502 193
70.92513 205
70.94525 208
70.96536 198
70.98548 204
71.00559 227
71.0257 201
71.04582 203
71.06593 223
71.08604 203
71.10616 200
71.12627 209
71.14639 194
71.1665 189
71.18661 190
71.20673 195
71.22684 202
71.24695 211
71.26707 203
71.28718 244
71.3073 196
71.32741 236
71.34752 207
71.36764 180
71.38775 189
71.40786 192
71.42798 218
71.44809 194
71.4682 211
71.48832 192
71.50843 183
71.52855 217
71.54866 180
71.56877 192
71.58889 183
71.609 207
71.62911 203
71.64923 217
71.66934 212
71.68946 215
71.70957 193
71.72968 220
71.7498 220
71.76991 187
71.79002 216
71.81014 188
71.83025 207
71.85037 194
71.87048 215
71.89059 214
71.91071 216
71.93082 181
71.95093 211
71.97105 236
71.99116 222
72.01127 204
72.03139 217
72.0515 181
72.07162 193
72.09173 220
72.11184 223
72.13196 216
72.15207 209
72.17218 213
72.1923 200
72.21241 196
72.23253 236
72.25264 232
72.27275 228
72.29287 207
72.31298 216
72.33309 239
72.35321 248
72.37332 249
72.39344 223
72.41355 196
72.43366 217
72.45378 219
72.47389 244
72.494 234
72.51412 235
72.53423 195
72.55434 224
72.57446 235
72.59457 225
72.61469 217
72.6348 225
72.65491 206
72.67503 211
72.69514 209
72.71525 216
72.73537 206
72.75548 228
72.7756 213
72.79571 190
72.81582 226
72.83594 216
72.85605 217
72.87616 223
72.89628 216
72.91639 236
72.9365 205
72.95662 224
72.97673 210
72.99685 237
73.01696 226
73.03707 231
73.05719 229
73.0773 224
73.09741 254
73.11753 230
73.13764 221
73.15776 224
73.17787 203
73.19798 206
73.2181 228
73.23821 236
73.25832 278
73.27844 300
73.29855 300
73.31867 296
73.33878 303
73.35889 322
73.37901 341
73.39912 378
73.41923 384
73.43935 372
73.45946 347
73.47957 348
73.49969 317
73.5198 297
73.53992 266
73.56003 268
73.58014 276
73.60026 265
73.62037 300
73.64048 291
73.6606 281
73.68071 234
73.70083 278
73.72094 240
73.74105 204
73.76117 205
73.78128 222
73.80139 227
73.82151 192
73.84162 210
73.86174 210
73.88185 193
73.90196 215
73.92208 212
73.94219 195
73.9623 197
73.98242 191
74.00253 205
74.02264 178
74.04276 195
74.06287 177
74.08299 194
74.1031 199
74.12321 210
74.14333 204
74.16344 182
74.18355 182
74.20367 182
74.22378 207
74.2439 194
74.26401 174
74.28412 185
74.30424 193
74.32435 188
74.34446 190
74.36458 190
74.38469 188
74.40481 192
74.42492 200
74.44503 179
74.46515 214
74.48526 192
74.50537 221
74.52549 179
74.5456 181
74.56571 203
74.58583 186
74.60594 177
74.62606 197
74.64617 171
74.66628 171
74.6864 201
74.70651 212
74.72662 176
74.74674 185
74.76685 186
74.78697 208
74.80708 183
74.82719 174
74.84731 189
74.86742 187
74.88753 196
74.90765 205
74.92776 168
74.94787 195
74.96799 188
74.9881 183
75.00822 195
