3.00117 20248
3.02128 19523
3.0414 19191
3.06151 18812
3.08162 18117
3.10174 17944
3.12185 17085
3.14197 17012
3.16208 16650
3.18219 15930
3.20231 15765
3.22242 15265
3.24253 14304
3.26265 14117
3.28276 13711
3.30288 13734
3.32299 12548
3.3431 12648
3.36322 12501
3.38333 11826
3.40344 11742
3.42356 11075
3.44367 10736
3.46379 10748
3.4839 10017
3.50401 9933
3.52413 9465
3.54424 9146
3.56435 8949
3.58447 8526
3.60458 8285
3.62469 7758
3.64481 7772
3.66492 7638
3.68504 6993
3.70515 6935
3.72526 6863
3.74538 6498
3.76549 6283
3.7856 5962
3.80572 5784
3.82583 5625
3.84595 5143
3.86606 5215
3.88617 4821
3.90629 4761
3.9264 4667
3.94651 4438
3.96663 4359
3.98674 4036
4.00686 4150
4.02697 3954
4.04708 3581
4.0672 3697
4.08731 3294
4.10742 3431
4.12754 3218
4.14765 3014
4.16776 3035
4.18788 2793
4.20799 2840
4.22811 2725
4.24822 2565
4.26833 2677
4.28845 2349
4.30856 2498
4.32867 2388
4.34879 2344
4.3689 2245
4.38902 2229
4.40913 2139
4.42924 2112
4.44936 2066
4.46947 2028
4.48958 1918
4.5097 1935
4.52981 1859
4.54992 1848
4.57004 1918
4.59015 1759
4.61027 1742
4.63038 1774
4.65049 1692
4.67061 1672
4.69072 1554
4.71083 1617
4.73095 1499
4.75106 1532
4.77118 1617
4.79129 1544
4.8114 1455
4.83152 1449
4.85163 1470
4.87174 1574
4.89186 1374
4.91197 1404
4.93209 1413
4.9522 1336
4.97231 1425
4.99243 1351
5.01254 1269
5.03265 1302
5.05277 1352
5.07288 1370
5.09299 1237
5.11311 1195
5.13322 1269
5.15334 1224
5.17345 1183
5.19356 1036
5.21368 1088
5.23379 1221
5.2539 1090
5.27402 1046
5.29413 1160
5.31425 1049
5.33436 1063
5.35447 1021
5.37459 1017
5.3947 978
5.41481 1008
5.43493 1005
5.45504 1035
5.47516 1017
5.49527 1009
5.51538 923
5.5355 932
5.55561 963
5.57572 884
5.59584 938
5.61595 945
5.63606 930
5.65618 885
5.67629 874
5.69641 871
5.71652 857
5.73663 893
5.75675 859
5.77686 849
5.79697 809
5.81709 866
5.8372 794
5.85732 855
5.87743 808
5.89754 817
5.91766 792
5.93777 803
5.95788 832
5.978 813
5.99811 790
6.01823 780
6.03834 765
6.05845 812
6.07857 740
6.09868 778
6.11879 793
6.13891 804
6.15902 822
6.17913 757
6.19925 737
6.21936 788
6.23948 757
6.25959 747
6.2797 716
6.29982 748
6.31993 755
6.34004 729
6.36016 812
6.38027 732
6.40039 717
6.4205 755
6.44061 729
6.46073 718
6.48084 744
6.50095 703
6.52107 764
6.54118 707
6.56129 740
6.58141 691
6.60152 680
6.62164 687
6.64175 669
6.66186 687
6.68198 664
6.70209 672
6.7222 686
6.74232 699
6.76243 666
6.78255 666
6.80266 677
6.82277 640
6.84289 677
6.863 665
6.88311 710
6.90323 741
6.92334 713
6.94346 665
6.96357 677
6.98368 680
7.0038 654
7.02391 663
7.04402 616
7.06414 714
7.08425 671
7.10436 652
7.12448 712
7.14459 654
7.16471 640
7.18482 671
7.20493 680
7.22505 675
7.24516 646
7.26527 585
7.28539 670
7.3055 647
7.32562 651
7.34573 652
7.36584 660
7.38596 640
7.40607 683
7.42618 695
7.4463 627
7.46641 671
7.48653 665
7.50664 612
7.52675 704
7.54687 668
7.56698 595
7.58709 600
7.60721 678
7.62732 654
7.64743 656
7.66755 582
7.68766 636
7.70778 639
7.72789 592
7.748 642
7.76812 648
7.78823 667
7.80834 627
7.82846 590
7.84857 655
7.86869 623
7.8888 612
7.90891 631
7.92903 624
7.94914 668
7.96925 659
7.98937 621
8.00948 601
8.0296 574
8.04971 600
8.06982 623
8.08994 624
8.11005 610
8.13016 641
8.15028 570
8.17039 641
8.1905 645
8.21062 643
8.23073 647
8.25085 636
8.27096 581
8.29107 668
8.31119 587
8.3313 635
8.35141 617
8.37153 646
8.39164 627
8.41176 617
8.43187 618
8.45198 618
8.4721 658
8.49221 616
8.51232 655
8.53244 599
8.55255 581
8.57266 616
8.59278 585
8.61289 643
8.63301 625
8.65312 617
8.67323 600
8.69335 608
8.71346 615
8.73357 557
8.75369 633
8.7738 608
8.79392 633
8.81403 679
8.83414 688
8.85426 643
8.87437 724
8.89448 628
8.9146 636
8.93471 576
8.95483 600
8.97494 619
8.99505 604
9.01517 586
9.03528 595
9.05539 597
9.07551 585
9.09562 595
9.11573 585
9.13585 583
9.15596 569
9.17608 621
9.19619 579
9.2163 585
9.23642 601
9.25653 582
9.27664 587
9.29676 596
9.31687 638
9.33699 565
9.3571 573
9.37721 579
9.39733 537
9.41744 596
9.43755 584
9.45767 561
9.47778 553
9.4979 593
9.51801 548
9.53812 552
9.55824 562
9.57835 566
9.59846 540
9.61858 585
9.63869 579
9.6588 618
9.67892 597
9.69903 596
9.71915 629
9.73926 586
9.75937 607
9.77949 598
9.7996 569
9.81971 590
9.83983 577
9.85994 578
9.88006 589
9.90017 583
9.92028 526
9.9404 577
9.96051 544
9.98062 543
10.00074 588
10.02085 574
10.04097 585
10.06108 587
10.08119 528
10.10131 603
10.12142 599
10.14153 558
10.16165 572
10.18176 635
10.20187 549
10.22199 533
10.2421 623
10.26222 628
10.28233 566
10.30244 596
10.32256 598
10.34267 567
10.36278 580
10.3829 635
10.40301 616
10.42313 595
10.44324 565
10.46335 686
10.48347 616
10.50358 630
10.52369 615
10.54381 621
10.56392 562
10.58403 567
10.60415 568
10.62426 570
10.64438 594
10.66449 630
10.6846 598
10.70472 527
10.72483 562
10.74494 620
10.76506 563
10.78517 601
10.80529 568
10.8254 557
10.84551 602
10.86563 578
10.88574 543
10.90585 583
10.92597 620
10.94608 593
10.9662 589
10.98631 575
11.00642 617
11.02654 574
11.04665 567
11.06676 614
11.08688 559
11.10699 633
11.1271 589
11.14722 577
11.16733 579
11.18745 613
11.20756 596
11.22767 596
11.24779 581
11.2679 605
11.28801 598
11.30813 608
11.32824 596
11.34836 630
11.36847 588
11.38858 599
11.4087 600
11.42881 587
11.44892 611
11.46904 582
11.48915 588
11.50927 563
11.52938 591
11.54949 660
11.56961 627
11.58972 576
11.60983 635
11.62995 601
11.65006 646
11.67017 615
11.69029 613
11.7104 603
11.73052 648
11.75063 649
11.77074 656
11.79086 657
11.81097 635
11.83108 670
11.8512 622
11.87131 664
11.89143 640
11.91154 674
11.93165 631
11.95177 636
11.97188 667
11.99199 648
12.01211 697
12.03222 619
12.05234 708
12.07245 665
12.09256 643
12.11268 648
12.13279 643
12.1529 704
12.17302 611
12.19313 627
12.21324 712
12.23336 607
12.25347 653
12.27359 644
12.2937 606
12.31381 662
12.33393 639
12.35404 610
12.37415 631
12.39427 624
12.41438 644
12.4345 630
12.45461 620
12.47472 624
12.49484 591
12.51495 586
12.53506 573
12.55518 567
12.57529 562
12.5954 561
12.61552 573
12.63563 564
12.65575 544
12.67586 549
12.69597 549
12.71609 602
12.7362 511
12.75631 554
12.77643 540
12.79654 580
12.81666 536
12.83677 514
12.85688 543
12.877 515
12.89711 572
12.91722 556
12.93734 551
12.95745 507
12.97757 534
12.99768 529
13.01779 529
13.03791 539
13.05802 524
13.07813 530
13.09825 527
13.11836 505
13.13847 519
13.15859 535
13.1787 511
13.19882 541
13.21893 530
13.23904 511
13.25916 495
13.27927 510
13.29938 528
13.3195 534
13.33961 533
13.35973 552
13.37984 520
13.39995 543
13.42007 540
13.44018 630
13.46029 573
13.48041 546
13.50052 569
13.52064 538
13.54075 522
13.56086 511
13.58098 541
13.60109 524
13.6212 563
13.64132 533
13.66143 594
13.68154 554
13.70166 545
13.72177 535
13.74189 535
13.762 557
13.78211 581
13.80223 541
13.82234 543
13.84245 525
13.86257 554
13.88268 538
13.9028 473
13.92291 561
13.94302 514
13.96314 513
13.98325 477
14.00336 542
14.02348 504
14.04359 523
14.06371 511
14.08382 529
14.10393 585
14.12405 581
14.14416 497
14.16427 518
14.18439 476
14.2045 537
14.22461 474
14.24473 563
14.26484 527
14.28496 531
14.30507 508
14.32518 556
14.3453 501
14.36541 498
14.38552 546
14.40564 513
14.42575 530
14.44587 521
14.46598 547
14.48609 502
14.50621 525
14.52632 541
14.54643 489
14.56655 513
14.58666 467
14.60677 507
14.62689 531
14.647 586
14.66712 469
14.68723 525
14.70734 484
14.72746 544
14.74757 508
14.76768 495
14.7878 484
14.80791 550
14.82803 477
14.84814 532
14.86825 490
14.88837 526
14.90848 516
14.92859 496
14.94871 485
14.96882 524
14.98894 518
15.00905 532
15.02916 516
15.04928 513
15.06939 513
15.0895 533
15.10962 541
15.12973 473
15.14984 483
15.16996 488
15.19007 516
15.21019 515
15.2303 512
15.25041 497
15.27053 519
15.29064 485
15.31075 522
15.33087 504
15.35098 487
15.3711 503
15.39121 517
15.41132 499
15.43144 503
15.45155 501
15.47166 544
15.49178 537
15.51189 485
15.53201 539
15.55212 497
15.57223 509
15.59235 540
15.61246 535
15.63257 543
15.65269 475
15.6728 525
15.69291 527
15.71303 467
15.73314 534
15.75326 501
15.77337 495
15.79348 524
15.8136 518
15.83371 489
15.85382 531
15.87394 503
15.89405 518
15.91417 488
15.93428 530
15.95439 490
15.97451 550
15.99462 520
16.01473 482
16.03485 498
16.05496 543
16.07508 520
16.09519 517
16.1153 521
16.13542 549
16.15553 540
16.17564 523
16.19576 510
16.21587 503
16.23598 509
16.2561 523
16.27621 531
16.29633 466
16.31644 520
16.33655 534
16.35667 576
16.37678 535
16.39689 480
16.41701 515
16.43712 485
16.45724 526
16.47735 522
16.49746 559
16.51758 535
16.53769 495
16.5578 514
16.57792 505
16.59803 503
16.61814 526
16.63826 513
16.65837 540
16.67849 550
16.6986 572
16.71871 501
16.73883 516
16.75894 502
16.77905 488
16.79917 505
16.81928 550
16.8394 529
16.85951 531
16.87962 505
16.89974 509
16.91985 516
16.93996 557
16.96008 508
16.98019 559
17.00031 484
17.02042 484
17.04053 521
17.06065 537
17.08076 510
17.10087 532
17.12099 535
17.1411 549
17.16121 521
17.18133 507
17.20144 530
17.22156 545
17.24167 554
17.26178 527
17.2819 531
17.30201 532
17.32212 527
17.34224 547
17.36235 537
17.38247 479
17.40258 483
17.42269 507
17.44281 534
17.46292 497
17.48303 483
17.50315 493
17.52326 503
17.54338 514
17.56349 509
17.5836 550
17.60372 540
17.62383 502
17.64394 515
17.66406 508
17.68417 513
17.70428 551
17.7244 534
17.74451 518
17.76463 483
17.78474 568
17.80485 529
17.82497 537
17.84508 506
17.86519 558
17.88531 558
17.90542 575
17.92554 564
17.94565 510
17.96576 492
17.98588 531
18.00599 578
18.0261 555
18.04622 530
18.06633 559
18.08645 586
18.10656 570
18.12667 585
18.14679 639
18.1669 625
18.18701 613
18.20713 592
18.22724 623
18.24735 624
18.26747 599
18.28758 586
18.3077 568
18.32781 557
18.34792 568
18.36804 517
18.38815 518
18.40826 508
18.42838 556
18.44849 540
18.46861 508
18.48872 546
18.50883 538
18.52895 540
18.54906 588
18.56917 523
18.58929 510
18.6094 553
18.62951 472
18.64963 519
18.66974 585
18.68986 536
18.70997 545
18.73008 575
18.7502 544
18.77031 493
18.79042 556
18.81054 570
18.83065 576
18.85077 545
18.87088 577
18.89099 559
18.91111 538
18.93122 546
18.95133 530
18.97145 537
18.99156 566
19.01168 545
19.03179 617
19.0519 565
19.07202 543
19.09213 587
19.11224 567
19.13236 569
19.15247 547
19.17258 532
19.1927 570
19.21281 578
19.23293 547
19.25304 601
19.27315 556
19.29327 526
19.31338 601
19.33349 559
19.35361 586
19.37372 575
19.39384 589
19.41395 565
19.43406 554
19.45418 602
19.47429 626
19.4944 595
19.51452 648
19.53463 679
19.55475 620
19.57486 637
19.59497 672
19.61509 652
19.6352 699
19.65531 672
19.67543 686
19.69554 724
19.71565 731
19.73577 675
19.75588 697
19.776 710
19.79611 709
19.81622 706
19.83634 737
19.85645 762
19.87656 735
19.89668 799
19.91679 763
19.93691 800
19.95702 781
19.97713 753
19.99725 774
20.01736 802
20.03747 757
20.05759 738
20.0777 753
20.09782 829
20.11793 820
20.13804 725
20.15816 738
20.17827 767
20.19838 766
20.2185 730
20.23861 728
20.25872 816
20.27884 743
20.29895 728
20.31907 746
20.33918 720
20.35929 693
20.37941 714
20.39952 687
20.41963 671
20.43975 661
20.45986 728
20.47998 676
20.50009 721
20.5202 717
20.54032 653
20.56043 711
20.58054 738
20.60066 679
20.62077 686
20.64088 683
20.661 700
20.68111 730
20.70123 709
20.72134 740
20.74145 751
20.76157 829
20.78168 809
20.80179 847
20.82191 906
20.84202 854
20.86214 824
20.88225 786
20.90236 737
20.92248 735
20.94259 705
20.9627 681
20.98282 785
21.00293 753
21.02305 728
21.04316 720
21.06327 723
21.08339 682
21.1035 675
21.12361 654
21.14373 704
21.16384 649
21.18395 689
21.20407 662
21.22418 707
21.2443 619
21.26441 646
21.28452 647
21.30464 667
21.32475 692
21.34486 609
21.36498 692
21.38509 647
21.40521 699
21.42532 623
21.44543 585
21.46555 678
21.48566 615
21.50577 662
21.52589 649
21.546 647
21.56612 631
21.58623 646
21.60634 656
21.62646 654
21.64657 650
21.66668 654
21.6868 648
21.70691 614
21.72702 646
21.74714 602
21.76725 649
21.78737 630
21.80748 665
21.82759 697
21.84771 664
21.86782 689
21.88793 737
21.90805 716
21.92816 718
21.94828 735
21.96839 730
21.9885 750
22.00862 728
22.02873 684
22.04884 662
22.06896 638
22.08907 669
22.10919 628
22.1293 636
22.14941 670
22.16953 644
22.18964 626
22.20975 668
22.22987 648
22.24998 600
22.27009 644
22.29021 646
22.31032 618
22.33044 641
22.35055 622
22.37066 611
22.39078 649
22.41089 621
22.431 637
22.45112 636
22.47123 627
22.49135 640
22.51146 640
22.53157 589
22.55169 619
22.5718 621
22.59191 657
22.61203 620
22.63214 684
22.65225 600
22.67237 656
22.69248 647
22.7126 664
22.73271 675
22.75282 682
22.77294 652
22.79305 688
22.81316 660
22.83328 706
22.85339 642
22.87351 691
22.89362 666
22.91373 664
22.93385 641
22.95396 585
22.97407 651
22.99419 660
23.0143 610
23.03442 608
23.05453 656
23.07464 654
23.09476 689
23.11487 636
23.13498 651
23.1551 653
23.17521 654
23.19532 660
23.21544 614
23.23555 600
23.25567 652
23.27578 581
23.29589 629
23.31601 616
23.33612 575
23.35623 618
23.37635 625
23.39646 641
23.41658 701
23.43669 664
23.4568 697
23.47692 693
23.49703 727
23.51714 699
23.53726 770
23.55737 717
23.57749 733
23.5976 702
23.61771 690
23.63783 732
23.65794 670
23.67805 697
23.69817 688
23.71828 674
23.73839 700
23.75851 680
23.77862 727
23.79874 727
23.81885 704
23.83896 725
23.85908 712
23.87919 702
23.8993 685
23.91942 739
23.93953 740
23.95965 673
23.97976 660
23.99987 656
24.01999 669
24.0401 730
24.06021 711
24.08033 705
24.10044 744
24.12056 731
24.14067 790
24.16078 736
24.1809 671
24.20101 717
24.22112 744
24.24124 706
24.26135 729
24.28146 735
24.30158 725
24.32169 729
24.34181 710
24.36192 681
24.38203 707
24.40215 704
24.42226 628
24.44237 658
24.46249 693
24.4826 721
24.50272 629
24.52283 688
24.54294 661
24.56306 650
24.58317 650
24.60328 687
24.6234 698
24.64351 620
24.66362 659
24.68374 707
24.70385 668
24.72397 652
24.74408 700
24.76419 670
24.78431 679
24.80442 712
24.82453 673
24.84465 649
24.86476 641
24.88488 691
24.90499 623
24.9251 694
24.94522 658
24.96533 704
24.98544 629
25.00556 699
25.02567 681
25.04579 650
25.0659 603
25.08601 705
25.10613 660
25.12624 677
25.14635 663
25.16647 647
25.18658 685
25.20669 634
25.22681 655
25.24692 636
25.26704 682
25.28715 692
25.30726 666
25.32738 629
25.34749 665
25.3676 663
25.38772 713
25.40783 584
25.42795 697
25.44806 697
25.46817 690
25.48829 661
25.5084 695
25.52851 732
25.54863 641
25.56874 705
25.58886 729
25.60897 677
25.62908 689
25.6492 655
25.66931 635
25.68942 650
25.70954 656
25.72965 647
25.74976 665
25.76988 636
25.78999 665
25.81011 660
25.83022 673
25.85033 648
25.87045 642
25.89056 676
25.91067 600
25.93079 620
25.9509 643
25.97102 645
25.99113 587
26.01124 659
26.03136 653
26.05147 627
26.07158 636
26.0917 640
26.11181 630
26.13193 655
26.15204 641
26.17215 669
26.19227 629
26.21238 674
26.23249 683
26.25261 672
26.27272 681
26.29283 700
26.31295 699
26.33306 722
26.35318 720
26.37329 690
26.3934 775
26.41352 721
26.43363 773
26.45374 829
26.47386 923
26.49397 962
26.51409 1151
26.5342 1304
26.55431 1412
26.57443 1532
26.59454 1582
26.61465 1501
26.63477 1437
26.65488 1207
26.67499 1168
26.69511 938
26.71522 871
26.73534 802
26.75545 725
26.77556 671
26.79568 633
26.81579 666
26.8359 645
26.85602 705
26.87613 693
26.89625 670
26.91636 664
26.93647 679
26.95659 647
26.9767 659
26.99681 711
27.01693 626
27.03704 739
27.05716 698
27.07727 724
27.09738 729
27.1175 661
27.13761 698
27.15772 641
27.17784 649
27.19795 634
27.21806 628
27.23818 670
27.25829 634
27.27841 688
27.29852 648
27.31863 717
27.33875 704
27.35886 751
27.37897 723
27.39909 759
27.4192 772
27.43932 791
27.45943 790
27.47954 748
27.49966 789
27.51977 764
27.53988 785
27.56 794
27.58011 741
27.60023 730
27.62034 736
27.64045 791
27.66057 788
27.68068 809
27.70079 833
27.72091 790
27.74102 801
27.76113 760
27.78125 796
27.80136 810
27.82148 752
27.84159 750
27.8617 784
27.88182 739
27.90193 825
27.92204 728
27.94216 769
27.96227 769
27.98239 761
28.0025 696
28.02261 693
28.04273 654
28.06284 666
28.08295 661
28.10307 622
28.12318 615
28.1433 608
28.16341 681
28.18352 662
28.20364 663
28.22375 627
28.24386 631
28.26398 672
28.28409 623
28.3042 648
28.32432 644
28.34443 619
28.36455 642
28.38466 644
28.40477 668
28.42489 653
28.445 635
28.46511 628
28.48523 652
28.50534 613
28.52546 589
28.54557 597
28.56568 571
28.5858 540
28.60591 542
28.62602 574
28.64614 586
28.66625 601
28.68636 572
28.70648 632
28.72659 599
28.74671 630
28.76682 569
28.78693 565
28.80705 591
28.82716 585
28.84727 593
28.86739 615
28.8875 618
28.90762 577
28.92773 635
28.94784 584
28.96796 613
28.98807 599
29.00818 606
29.0283 580
29.04841 583
29.06853 610
29.08864 557
29.10875 574
29.12887 587
29.14898 583
29.16909 560
29.18921 552
29.20932 546
29.22943 596
29.24955 593
29.26966 591
29.28978 566
29.30989 620
29.33 636
29.35012 610
29.37023 671
29.39034 619
29.41046 615
29.43057 550
29.45069 650
29.4708 643
29.49091 617
29.51103 589
29.53114 672
29.55125 646
29.57137 704
29.59148 618
29.6116 713
29.63171 711
29.65182 741
29.67194 768
29.69205 844
29.71216 910
29.73228 982
29.75239 975
29.7725 1005
29.79262 1037
29.81273 963
29.83285 932
29.85296 1007
29.87307 968
29.89319 927
29.9133 935
29.93341 936
29.95353 842
29.97364 873
29.99376 851
30.01387 781
30.03398 782
30.0541 833
30.07421 770
30.09432 778
30.11444 755
30.13455 786
30.15467 727
30.17478 809
30.19489 746
30.21501 723
30.23512 720
30.25523 787
30.27535 742
30.29546 729
30.31557 733
30.33569 718
30.3558 730
30.37592 683
30.39603 633
30.41614 678
30.43626 689
30.45637 658
30.47648 634
30.4966 602
30.51671 620
30.53683 628
30.55694 631
30.57705 638
30.59717 613
30.61728 674
30.63739 654
30.65751 633
30.67762 665
30.69773 672
30.71785 664
30.73796 687
30.75808 701
30.77819 673
30.7983 675
30.81842 602
30.83853 659
30.85864 664
30.87876 638
30.89887 681
30.91899 615
30.9391 606
30.95921 604
30.97933 552
30.99944 573
31.01955 639
31.03967 569
31.05978 552
31.0799 564
31.10001 583
31.12012 551
31.14024 577
31.16035 574
31.18046 587
31.20058 595
31.22069 625
31.2408 582
31.26092 569
31.28103 597
31.30115 584
31.32126 585
31.34137 598
31.36149 593
31.3816 565
31.40171 595
31.42183 578
31.44194 597
31.46206 582
31.48217 602
31.50228 567
31.5224 584
31.54251 587
31.56262 606
31.58274 600
31.60285 581
31.62297 597
31.64308 587
31.66319 594
31.68331 624
31.70342 546
31.72353 626
31.74365 597
31.76376 618
31.78387 594
31.80399 657
31.8241 602
31.84422 590
31.86433 618
31.88444 591
31.90456 609
31.92467 530
31.94478 599
31.9649 622
31.98501 607
32.00513 646
32.02524 622
32.04535 577
32.06547 627
32.08558 629
32.10569 702
32.12581 702
32.14592 677
32.16604 685
32.18615 650
32.20626 631
32.22638 655
32.24649 624
32.2666 635
32.28672 609
32.30683 580
32.32694 681
32.34706 596
32.36717 613
32.38729 624
32.4074 600
32.42751 600
32.44763 610
32.46774 609
32.48785 599
32.50797 625
32.52808 586
32.5482 592
32.56831 597
32.58842 610
32.60854 620
32.62865 605
32.64876 627
32.66888 635
32.68899 602
32.7091 641
32.72922 559
32.74933 574
32.76945 649
32.78956 650
32.80967 594
32.82979 648
32.8499 643
32.87001 678
32.89013 625
32.91024 650
32.93036 680
32.95047 682
32.97058 700
32.9907 731
33.01081 674
33.03092 772
33.05104 694
33.07115 759
33.09127 729
33.11138 730
33.13149 685
33.15161 662
33.17172 686
33.19183 657
33.21195 629
33.23206 621
33.25217 629
33.27229 576
33.2924 593
33.31252 568
33.33263 575
33.35274 574
33.37286 600
33.39297 574
33.41308 600
33.4332 607
33.45331 578
33.47343 551
33.49354 569
33.51365 584
33.53377 565
33.55388 588
33.57399 549
33.59411 577
33.61422 584
33.63434 604
33.65445 597
33.67456 603
33.69468 567
33.71479 619
33.7349 624
33.75502 579
33.77513 615
33.79524 605
33.81536 595
33.83547 601
33.85559 625
33.8757 585
33.89581 612
33.91593 564
33.93604 608
33.95615 608
33.97627 556
33.99638 607
34.0165 653
34.03661 605
34.05672 618
34.07684 614
34.09695 609
34.11706 649
34.13718 598
34.15729 649
34.17741 592
34.19752 655
34.21763 570
34.23775 591
34.25786 618
34.27797 634
34.29809 646
34.3182 644
34.33831 614
34.35843 664
34.37854 678
34.39866 629
34.41877 666
34.43888 660
34.459 670
34.47911 721
34.49922 688
34.51934 656
34.53945 596
34.55957 690
34.57968 675
34.59979 667
34.61991 707
34.64002 650
34.66013 603
34.68025 711
34.70036 700
34.72047 672
34.74059 685
34.7607 742
34.78082 763
34.80093 791
34.82104 742
34.84116 759
34.86127 816
34.88138 861
34.9015 914
34.92161 834
34.94173 837
34.96184 928
34.98195 933
35.00207 894
35.02218 953
35.04229 886
35.06241 1013
35.08252 1040
35.10264 1048
35.12275 1227
35.14286 1231
35.16298 1319
35.18309 1351
35.2032 1452
35.22332 1434
35.24343 1331
35.26354 1442
35.28366 1369
35.30377 1325
35.32389 1391
35.344 1277
35.36411 1232
35.38423 1183
35.40434 1201
35.42445 1193
35.44457 1177
35.46468 1120
35.4848 1135
35.50491 1130
35.52502 1094
35.54514 1065
35.56525 1098
35.58536 1028
35.60548 983
35.62559 976
35.64571 927
35.66582 928
35.68593 870
35.70605 817
35.72616 820
35.74627 782
35.76639 819
35.7865 693
35.80661 738
35.82673 762
35.84684 719
35.86696 709
35.88707 694
35.90718 744
35.9273 699
35.94741 731
35.96752 760
35.98764 698
36.00775 717
36.02787 682
36.04798 717
36.06809 681
36.08821 714
36.10832 706
36.12843 730
36.14855 735
36.16866 692
36.18878 713
36.20889 677
36.229 649
36.24912 746
36.26923 757
36.28934 715
36.30946 782
36.32957 695
36.34968 713
36.3698 715
36.38991 755
36.41003 726
36.43014 726
36.45025 709
36.47037 742
36.49048 729
36.51059 747
36.53071 736
36.55082 712
36.57094 747
36.59105 674
36.61116 735
36.63128 711
36.65139 687
36.6715 689
36.69162 720
36.71173 706
36.73184 679
36.75196 678
36.77207 647
36.79219 698
36.8123 673
36.83241 633
36.85253 695
36.87264 645
36.89275 720
36.91287 688
36.93298 659
36.9531 697
36.97321 673
36.99332 661
37.01344 679
37.03355 683
37.05366 676
37.07378 647
37.09389 643
37.11401 645
37.13412 671
37.15423 682
37.17435 597
37.19446 623
37.21457 593
37.23469 653
37.2548 622
37.27491 668
37.29503 630
37.31514 615
37.33526 617
37.35537 651
37.37548 664
37.3956 636
37.41571 655
37.43582 648
37.45594 630
37.47605 658
37.49617 609
37.51628 709
37.53639 651
37.55651 605
37.57662 656
37.59673 649
37.61685 682
37.63696 641
37.65708 631
37.67719 641
37.6973 636
37.71742 646
37.73753 663
37.75764 659
37.77776 643
37.79787 639
37.81798 621
37.8381 614
37.85821 672
37.87833 575
37.89844 612
37.91855 656
37.93867 628
37.95878 623
37.97889 656
37.99901 620
38.01912 684
38.03924 627
38.05935 612
38.07946 692
38.09958 659
38.11969 670
38.1398 623
38.15992 627
38.18003 622
38.20015 702
38.22026 644
38.24037 666
38.26049 585
38.2806 639
38.30071 626
38.32083 669
38.34094 656
38.36105 647
38.38117 630
38.40128 693
38.4214 623
38.44151 657
38.46162 615
38.48174 642
38.50185 670
38.52196 654
38.54208 636
38.56219 658
38.58231 625
38.60242 625
38.62253 594
38.64265 578
38.66276 651
38.68287 628
38.70299 641
38.7231 609
38.74321 639
38.76333 651
38.78344 657
38.80356 630
38.82367 632
38.84378 618
38.8639 597
38.88401 624
38.90412 630
38.92424 643
38.94435 661
38.96447 609
38.98458 676
39.00469 665
39.02481 633
39.04492 680
39.06503 586
39.08515 657
39.10526 620
39.12538 669
39.14549 667
39.1656 599
39.18572 650
39.20583 654
39.22594 627
39.24606 603
39.26617 649
39.28628 616
39.3064 660
39.32651 660
39.34663 625
39.36674 655
39.38685 641
39.40697 658
39.42708 707
39.44719 656
39.46731 641
39.48742 683
39.50754 619
39.52765 644
39.54776 614
39.56788 667
39.58799 632
39.6081 612
39.62822 623
39.64833 592
39.66845 614
39.68856 612
39.70867 649
39.72879 630
39.7489 597
39.76901 632
39.78913 646
39.80924 645
39.82935 598
39.84947 626
39.86958 651
39.8897 633
39.90981 636
39.92992 641
39.95004 589
39.97015 589
39.99026 614
40.01038 554
40.03049 572
40.05061 581
40.07072 561
40.09083 614
40.11095 639
40.13106 613
40.15117 621
40.17129 630
40.1914 588
40.21152 671
40.23163 690
40.25174 669
40.27186 662
40.29197 621
40.31208 627
40.3322 676
40.35231 664
40.37242 632
40.39254 628
40.41265 658
40.43277 653
40.45288 623
40.47299 620
40.49311 588
40.51322 646
40.53333 636
40.55345 642
40.57356 578
40.59368 658
40.61379 640
40.6339 631
40.65402 630
40.67413 581
40.69424 667
40.71436 630
40.73447 620
40.75458 640
40.7747 602
40.79481 583
40.81493 593
40.83504 602
40.85515 626
40.87527 563
40.89538 611
40.91549 635
40.93561 575
40.95572 614
40.97584 607
40.99595 652
41.01606 576
41.03618 565
41.05629 576
41.0764 588
41.09652 587
41.11663 562
41.13675 598
41.15686 616
41.17697 557
41.19709 580
41.2172 613
41.23731 584
41.25743 600
41.27754 586
41.29765 625
41.31777 634
41.33788 572
41.358 569
41.37811 586
41.39822 582
41.41834 622
41.43845 576
41.45856 560
41.47868 577
41.49879 577
41.51891 591
41.53902 636
41.55913 601
41.57925 622
41.59936 645
41.61947 612
41.63959 628
41.6597 652
41.67982 608
41.69993 625
41.72004 614
41.74016 571
41.76027 660
41.78038 606
41.8005 598
41.82061 612
41.84072 603
41.86084 611
41.88095 649
41.90107 625
41.92118 618
41.94129 600
41.96141 621
41.98152 591
42.00163 573
42.02175 618
42.04186 617
42.06198 555
42.08209 587
42.1022 570
42.12232 584
42.14243 601
42.16254 627
42.18266 587
42.20277 592
42.22289 637
42.243 626
42.26311 627
42.28323 627
42.30334 622
42.32345 660
42.34357 607
42.36368 645
42.38379 664
42.40391 642
42.42402 624
42.44414 613
42.46425 597
42.48436 612
42.50448 641
42.52459 602
42.5447 614
42.56482 576
42.58493 647
42.60505 612
42.62516 608
42.64527 586
42.66539 629
42.6855 609
42.70561 646
42.72573 649
42.74584 661
42.76595 702
42.78607 678
42.80618 728
42.8263 762
42.84641 706
42.86652 691
42.88664 620
42.90675 681
42.92686 641
42.94698 681
42.96709 700
42.98721 641
43.00732 628
43.02743 604
43.04755 587
43.06766 639
43.08777 617
43.10789 624
43.128 597
43.14812 610
43.16823 603
43.18834 629
43.20846 557
43.22857 581
43.24868 556
43.2688 563
43.28891 514
43.30902 583
43.32914 590
43.34925 591
43.36937 580
43.38948 577
43.40959 565
43.42971 590
43.44982 556
43.46993 583
43.49005 567
43.51016 542
43.53028 541
43.55039 570
43.5705 556
43.59062 565
43.61073 550
43.63084 591
43.65096 617
43.67107 582
43.69119 641
43.7113 547
43.73141 564
43.75153 579
43.77164 558
43.79175 557
43.81187 563
43.83198 591
43.85209 559
43.87221 579
43.89232 558
43.91244 539
43.93255 554
43.95266 542
43.97278 550
43.99289 539
44.013 542
44.03312 555
44.05323 530
44.07335 592
44.09346 598
44.11357 552
44.13369 559
44.1538 574
44.17391 632
44.19403 611
44.21414 553
44.23426 558
44.25437 560
44.27448 564
44.2946 594
44.31471 590
44.33482 603
44.35494 581
44.37505 592
44.39516 556
44.41528 629
44.43539 613
44.45551 587
44.47562 572
44.49573 579
44.51585 608
44.53596 582
44.55607 626
44.57619 573
44.5963 579
44.61642 574
44.63653 607
44.65664 642
44.67676 616
44.69687 572
44.71698 602
44.7371 626
44.75721 538
44.77732 612
44.79744 568
44.81755 586
44.83767 572
44.85778 605
44.87789 587
44.89801 576
44.91812 561
44.93823 582
44.95835 565
44.97846 582
44.99858 570
45.01869 578
45.0388 578
45.05892 587
45.07903 590
45.09914 600
45.11926 540
45.13937 577
45.15949 549
45.1796 555
45.19971 558
45.21983 591
45.23994 563
45.26005 515
45.28017 572
45.30028 561
45.32039 556
45.34051 558
45.36062 588
45.38074 585
45.40085 524
45.42096 523
45.44108 592
45.46119 550
45.4813 579
45.50142 592
45.52153 586
45.54165 600
45.56176 600
45.58187 598
45.60199 551
45.6221 567
45.64221 578
45.66233 573
45.68244 567
45.70256 588
45.72267 587
45.74278 575
45.7629 578
45.78301 570
45.80312 580
45.82324 609
45.84335 611
45.86346 561
45.88358 601
45.90369 542
45.92381 589
45.94392 543
45.96403 579
45.98415 558
46.00426 561
46.02437 554
46.04449 548
46.0646 511
46.08472 589
46.10483 552
46.12494 542
46.14506 583
46.16517 511
46.18528 543
46.2054 545
46.22551 546
46.24563 557
46.26574 547
46.28585 545
46.30597 558
46.32608 496
46.34619 531
46.36631 552
46.38642 543
46.40653 543
46.42665 533
46.44676 563
46.46688 539
46.48699 533
46.5071 542
46.52722 551
46.54733 532
46.56744 560
46.58756 563
46.60767 527
46.62779 566
46.6479 551
46.66801 526
46.68813 536
46.70824 552
46.72835 564
46.74847 563
46.76858 609
46.78869 542
46.80881 569
46.82892 529
46.84904 551
46.86915 580
46.88926 528
46.90938 570
46.92949 550
46.9496 532
46.96972 524
46.98983 541
47.00995 572
47.03006 574
47.05017 542
47.07029 542
47.0904 537
47.11051 521
47.13063 539
47.15074 521
47.17086 582
47.19097 525
47.21108 572
47.2312 561
47.25131 555
47.27142 537
47.29154 566
47.31165 551
47.33176 542
47.35188 543
47.37199 558
47.39211 554
47.41222 536
47.43233 535
47.45245 573
47.47256 546
47.49267 562
47.51279 549
47.5329 544
47.55302 527
47.57313 551
47.59324 533
47.61336 504
47.63347 542
47.65358 551
47.6737 550
47.69381 518
47.71393 563
47.73404 551
47.75415 525
47.77427 551
47.79438 558
47.81449 520
47.83461 513
47.85472 536
47.87483 547
47.89495 566
47.91506 498
47.93518 564
47.95529 513
47.9754 579
47.99552 551
48.01563 556
48.03574 539
48.05586 535
48.07597 564
48.09609 521
48.1162 542
48.13631 559
48.15643 574
48.17654 566
48.19665 540
48.21677 536
48.23688 558
48.257 559
48.27711 538
48.29722 540
48.31734 560
48.33745 515
48.35756 569
48.37768 589
48.39779 560
48.4179 543
48.43802 523
48.45813 522
48.47825 523
48.49836 487
48.51847 545
48.53859 555
48.5587 545
48.57881 527
48.59893 568
48.61904 553
48.63916 531
48.65927 528
48.67938 587
48.6995 594
48.71961 559
48.73972 546
48.75984 573
48.77995 524
48.80006 565
48.82018 541
48.84029 559
48.86041 566
48.88052 587
48.90063 556
48.92075 551
48.94086 566
48.96097 549
48.98109 547
49.0012 565
49.02132 527
49.04143 567
49.06154 532
49.08166 572
49.10177 546
49.12188 579
49.142 574
49.16211 529
49.18223 562
49.20234 563
49.22245 570
49.24257 606
49.26268 577
49.28279 596
49.30291 573
49.32302 588
49.34313 578
49.36325 550
49.38336 579
49.40348 610
49.42359 587
49.4437 566
49.46382 582
49.48393 623
49.50404 568
49.52416 552
49.54427 552
49.56439 565
49.5845 520
49.60461 534
49.62473 590
49.64484 627
49.66495 594
49.68507 560
49.70518 575
49.7253 558
49.74541 526
49.76552 554
49.78564 560
49.80575 557
49.82586 568
49.84598 557
49.86609 571
49.8862 575
49.90632 560
49.92643 571
49.94655 614
49.96666 606
49.98677 635
50.00689 591
50.027 583
50.04711 654
50.06723 657
50.08734 675
50.10746 633
50.12757 629
50.14768 636
50.1678 604
50.18791 584
50.20802 621
50.22814 604
50.24825 547
50.26837 562
50.28848 609
50.30859 565
50.32871 590
50.34882 509
50.36893 551
50.38905 526
50.40916 547
50.42927 559
50.44939 558
50.4695 599
50.48962 555
50.50973 544
50.52984 568
50.54996 618
50.57007 537
50.59018 594
50.6103 590
50.63041 580
50.65053 565
50.67064 583
50.69075 629
50.71087 542
50.73098 572
50.75109 580
50.77121 491
50.79132 543
50.81143 545
50.83155 583
50.85166 552
50.87178 528
50.89189 585
50.912 597
50.93212 557
50.95223 500
50.97234 543
50.99246 580
51.01257 557
51.03269 596
51.0528 546
51.07291 569
51.09303 594
51.11314 529
51.13325 524
51.15337 541
51.17348 578
51.1936 565
51.21371 550
51.23382 527
51.25394 598
51.27405 583
51.29416 545
51.31428 558
51.33439 564
51.3545 542
51.37462 558
51.39473 505
51.41485 542
51.43496 545
51.45507 521
51.47519 541
51.4953 598
51.51541 545
51.53553 557
51.55564 521
51.57576 551
51.59587 533
51.61598 534
51.6361 537
51.65621 522
51.67632 583
51.69644 536
51.71655 544
51.73667 574
51.75678 575
51.77689 516
51.79701 566
51.81712 543
51.83723 558
51.85735 582
51.87746 538
51.89757 599
51.91769 514
51.9378 575
51.95792 565
51.97803 574
51.99814 592
52.01826 579
52.03837 600
52.05848 596
52.0786 591
52.09871 620
52.11883 559
52.13894 548
52.15905 567
52.17917 589
52.19928 617
52.21939 595
52.23951 597
52.25962 591
52.27974 584
52.29985 613
52.31996 570
52.34008 555
52.36019 573
52.3803 587
52.40042 545
52.42053 575
52.44064 621
52.46076 567
52.48087 583
52.50099 546
52.5211 569
52.54121 574
52.56133 553
52.58144 546
52.60155 581
52.62167 580
52.64178 545
52.6619 584
52.68201 537
52.70212 566
52.72224 548
52.74235 597
52.76246 592
52.78258 580
52.80269 545
52.8228 551
52.84292 533
52.86303 537
52.88315 530
52.90326 574
52.92337 550
52.94349 562
52.9636 552
52.98371 603
53.00383 567
53.02394 580
53.04406 579
53.06417 600
53.08428 595
53.1044 648
53.12451 591
53.14462 642
53.16474 660
53.18485 605
53.20497 616
53.22508 587
53.24519 609
53.26531 608
53.28542 620
53.30553 601
53.32565 595
53.34576 628
53.36587 549
53.38599 570
53.4061 612
53.42622 591
53.44633 578
53.46644 544
53.48656 599
53.50667 547
53.52678 580
53.5469 583
53.56701 630
53.58713 594
53.60724 586
53.62735 579
53.64747 576
53.66758 592
53.68769 569
53.70781 559
53.72792 602
53.74804 578
53.76815 582
53.78826 569
53.80838 608
53.82849 656
53.8486 602
53.86872 607
53.88883 573
53.90894 635
53.92906 620
53.94917 600
53.96929 612
53.9894 613
54.00951 635
54.02963 665
54.04974 621
54.06985 577
54.08997 581
54.11008 628
54.1302 580
54.15031 602
54.17042 580
54.19054 601
54.21065 630
54.23076 584
54.25088 609
54.27099 644
54.29111 579
54.31122 609
54.33133 569
54.35145 596
54.37156 588
54.39167 594
54.41179 583
54.4319 624
54.45201 587
54.47213 562
54.49224 599
54.51236 617
54.53247 586
54.55258 557
54.5727 629
54.59281 589
54.61292 584
54.63304 590
54.65315 617
54.67327 605
54.69338 585
54.71349 654
54.73361 607
54.75372 631
54.77383 627
54.79395 665
54.81406 622
54.83417 643
54.85429 632
54.8744 644
54.89452 624
54.91463 598
54.93474 608
54.95486 591
54.97497 588
54.99508 581
55.0152 583
55.03531 579
55.05543 576
55.07554 644
55.09565 592
55.11577 545
55.13588 616
55.15599 544
55.17611 578
55.19622 607
55.21634 612
55.23645 550
55.25656 596
55.27668 570
55.29679 579
55.3169 575
55.33702 547
55.35713 577
55.37724 596
55.39736 567
55.41747 570
55.43759 564
55.4577 585
55.47781 606
55.49793 561
55.51804 551
55.53815 566
55.55827 578
55.57838 560
55.5985 539
55.61861 558
55.63872 633
55.65884 577
55.67895 602
55.69906 602
55.71918 562
55.73929 612
55.75941 581
55.77952 582
55.79963 592
55.81975 609
55.83986 586
55.85997 630
55.88009 571
55.9002 612
55.92031 616
55.94043 587
55.96054 594
55.98066 562
56.00077 609
56.02088 593
56.041 602
56.06111 572
56.08122 572
56.10134 596
56.12145 621
56.14157 602
56.16168 558
56.18179 566
56.20191 582
56.22202 586
56.24213 646
56.26225 609
56.28236 604
56.30248 547
56.32259 598
56.3427 634
56.36282 605
56.38293 596
56.40304 659
56.42316 668
56.44327 622
56.46338 656
56.4835 701
56.50361 705
56.52373 681
56.54384 682
56.56395 735
56.58407 740
56.60418 705
56.62429 770
56.64441 743
56.66452 694
56.68464 750
56.70475 681
56.72486 697
56.74498 700
56.76509 684
56.7852 682
56.80532 689
56.82543 656
56.84554 666
56.86566 596
56.88577 639
56.90589 635
56.926 650
56.94611 674
56.96623 631
56.98634 602
57.00645 630
57.02657 664
57.04668 611
57.0668 611
57.08691 624
57.10702 630
57.12714 633
57.14725 565
57.16736 579
57.18748 601
57.20759 596
57.22771 553
57.24782 588
57.26793 560
57.28805 566
57.30816 555
57.32827 587
57.34839 555
57.3685 559
57.38861 526
57.40873 536
57.42884 560
57.44896 629
57.46907 591
57.48918 520
57.5093 560
57.52941 616
57.54952 567
57.56964 561
57.58975 591
57.60987 554
57.62998 549
57.65009 562
57.67021 567
57.69032 604
57.71043 569
57.73055 552
57.75066 560
57.77078 499
57.79089 546
57.811 530
57.83112 579
57.85123 553
57.87134 538
57.89146 543
57.91157 547
57.93168 544
57.9518 544
57.97191 542
57.99203 548
58.01214 530
58.03225 579
58.05237 570
58.07248 558
58.09259 594
58.11271 526
58.13282 584
58.15294 578
58.17305 546
58.19316 556
58.21328 549
58.23339 535
58.2535 537
58.27362 560
58.29373 535
58.31385 536
58.33396 528
58.35407 545
58.37419 566
58.3943 549
58.41441 558
58.43453 532
58.45464 562
58.47475 567
58.49487 560
58.51498 548
58.5351 581
58.55521 524
58.57532 568
58.59544 529
58.61555 545
58.63566 553
58.65578 590
58.67589 575
58.69601 531
58.71612 522
58.73623 541
58.75635 552
58.77646 533
58.79657 536
58.81669 529
58.8368 566
58.85691 530
58.87703 535
58.89714 559
58.91726 564
58.93737 536
58.95748 584
58.9776 555
58.99771 537
59.01782 542
59.03794 545
59.05805 546
59.07817 543
59.09828 530
59.11839 535
59.13851 575
59.15862 549
59.17873 532
59.19885 534
59.21896 563
59.23908 554
59.25919 533
59.2793 550
59.29942 555
59.31953 554
59.33964 536
59.35976 536
59.37987 566
59.39998 524
59.4201 531
59.44021 524
59.46033 536
59.48044 501
59.50055 557
59.52067 553
59.54078 487
59.56089 531
59.58101 520
59.60112 535
59.62124 557
59.64135 572
59.66146 488
59.68158 521
59.70169 562
59.7218 602
59.74192 562
59.76203 599
59.78215 564
59.80226 612
59.82237 592
59.84249 606
59.8626 623
59.88271 601
59.90283 616
59.92294 620
59.94305 612
59.96317 584
59.98328 581
60.0034 600
60.02351 556
60.04362 615
60.06374 620
60.08385 584
60.10396 572
60.12408 562
60.14419 605
60.16431 589
60.18442 581
60.20453 560
60.22465 553
60.24476 560
60.26487 559
60.28499 568
60.3051 534
60.32522 574
60.34533 572
60.36544 578
60.38556 568
60.40567 564
60.42578 535
60.4459 561
60.46601 587
60.48612 584
60.50624 587
60.52635 605
60.54647 546
60.56658 591
60.58669 585
60.60681 536
60.62692 571
60.64703 611
60.66715 569
60.68726 527
60.70738 587
60.72749 572
60.7476 535
60.76772 580
60.78783 537
60.80794 602
60.82806 591
60.84817 578
60.86828 537
60.8884 592
60.90851 564
60.92863 556
60.94874 569
60.96885 571
60.98897 610
61.00908 540
61.02919 617
61.04931 560
61.06942 577
61.08954 588
61.10965 605
61.12976 602
61.14988 615
61.16999 533
61.1901 582
61.21022 577
61.23033 546
61.25045 620
61.27056 606
61.29067 586
61.31079 562
61.3309 601
61.35101 595
61.37113 596
61.39124 608
61.41135 568
61.43147 590
61.45158 566
61.4717 617
61.49181 626
61.51192 616
61.53204 565
61.55215 620
61.57226 564
61.59238 657
61.61249 619
61.63261 586
61.65272 605
61.67283 622
61.69295 602
61.71306 615
61.73317 618
61.75329 650
61.7734 660
61.79352 577
61.81363 644
61.83374 626
61.85386 618
61.87397 670
61.89408 628
61.9142 626
61.93431 622
61.95442 675
61.97454 631
61.99465 712
62.01477 665
62.03488 673
62.05499 757
62.07511 763
62.09522 744
62.11533 738
62.13545 768
62.15556 793
62.17568 831
62.19579 847
62.2159 799
62.23602 780
62.25613 787
62.27624 786
62.29636 801
62.31647 776
62.33659 777
62.3567 765
62.37681 732
62.39693 760
62.41704 760
62.43715 739
62.45727 773
62.47738 689
62.49749 704
62.51761 671
62.53772 709
62.55784 691
62.57795 677
62.59806 656
62.61818 681
62.63829 681
62.6584 628
62.67852 665
62.69863 659
62.71875 643
62.73886 661
62.75897 625
62.77909 607
62.7992 598
62.81931 591
62.83943 600
62.85954 582
62.87965 593
62.89977 627
62.91988 605
62.94 584
62.96011 642
62.98022 588
63.00034 596
63.02045 593
63.04056 638
63.06068 595
63.08079 614
63.10091 600
63.12102 597
63.14113 596
63.16125 564
63.18136 589
63.20147 624
63.22159 629
63.2417 552
63.26182 582
63.28193 591
63.30204 608
63.32216 553
63.34227 584
63.36238 550
63.3825 552
63.40261 628
63.42272 588
63.44284 548
63.46295 605
63.48307 568
63.50318 570
63.52329 613
63.54341 525
63.56352 585
63.58363 546
63.60375 573
63.62386 582
63.64398 573
63.66409 594
63.6842 592
63.70432 586
63.72443 570
63.74454 562
63.76466 610
63.78477 591
63.80489 550
63.825 582
63.84511 576
63.86523 588
63.88534 567
63.90545 620
63.92557 619
63.94568 586
63.96579 579
63.98591 565
64.00602 606
64.02614 610
64.04625 600
64.06636 584
64.08648 592
64.10659 547
64.1267 580
64.14682 564
64.16693 572
64.18705 579
64.20716 583
64.22727 577
64.24739 565
64.2675 567
64.28761 594
64.30773 576
64.32784 560
64.34796 575
64.36807 514
64.38818 570
64.4083 578
64.42841 518
64.44852 537
64.46864 560
64.48875 558
64.50886 547
64.52898 598
64.54909 521
64.56921 529
64.58932 518
64.60943 540
64.62955 551
64.64966 536
64.66977 532
64.68989 522
64.71 524
64.73012 519
64.75023 527
64.77034 556
64.79046 548
64.81057 561
64.83068 557
64.8508 557
64.87091 585
64.89102 542
64.91114 547
64.93125 498
64.95137 515
64.97148 538
64.99159 559
65.01171 545
65.03182 567
65.05193 554
65.07205 561
65.09216 550
65.11228 517
65.13239 515
65.1525 570
65.17262 568
65.19273 586
65.21284 568
65.23296 546
65.25307 531
65.27319 570
65.2933 511
65.31341 507
65.33353 598
65.35364 570
65.37375 567
65.39387 536
65.41398 560
65.43409 506
65.45421 554
65.47432 514
65.49444 558
65.51455 556
65.53466 605
65.55478 577
65.57489 563
65.595 564
65.61512 552
65.63523 547
65.65535 551
65.67546 572
65.69557 558
65.71569 542
65.7358 559
65.75591 551
65.77603 564
65.79614 520
65.81626 540
65.83637 548
65.85648 554
65.8766 531
65.89671 517
65.91682 532
65.93694 504
65.95705 553
65.97716 570
65.99728 546
66.01739 535
66.03751 504
66.05762 529
66.07773 545
66.09785 500
66.11796 489
66.13807 567
66.15819 554
66.1783 547
66.19842 566
66.21853 576
66.23864 555
66.25876 535
66.27887 551
66.29898 597
66.3191 556
66.33921 525
66.35933 516
66.37944 579
66.39955 518
66.41967 546
66.43978 539
66.45989 596
66.48001 513
66.50012 551
66.52023 555
66.54035 555
66.56046 551
66.58058 513
66.60069 560
66.6208 543
66.64092 574
66.66103 542
66.68114 541
66.70126 549
66.72137 556
66.74149 527
66.7616 547
66.78171 544
66.80183 499
66.82194 524
66.84205 545
66.86217 548
66.88228 510
66.90239 580
66.92251 496
66.94262 549
66.96274 502
66.98285 542
67.00296 506
67.02308 514
67.04319 523
67.0633 577
67.08342 506
67.10353 561
67.12365 524
67.14376 510
67.16387 532
67.18399 575
67.2041 518
67.22421 530
67.24433 535
67.26444 518
67.28456 550
67.30467 507
67.32478 532
67.3449 547
67.36501 539
67.38512 544
67.40524 582
67.42535 540
67.44546 565
67.46558 516
67.48569 511
67.50581 548
67.52592 543
67.54603 539
67.56615 536
67.58626 561
67.60637 528
67.62649 545
67.6466 568
67.66672 528
67.68683 541
67.70694 536
67.72706 544
67.74717 524
67.76728 538
67.7874 536
67.80751 523
67.82763 528
67.84774 531
67.86785 587
67.88797 571
67.90808 583
67.92819 571
67.94831 578
67.96842 554
67.98853 541
68.00865 510
68.02876 521
68.04888 555
68.06899 579
68.0891 548
68.10922 563
68.12933 577
68.14944 585
68.16956 579
68.18967 549
68.20979 596
68.2299 547
68.25001 568
68.27013 543
68.29024 527
68.31035 524
68.33047 541
68.35058 554
68.3707 577
68.39081 569
68.41092 535
68.43104 525
68.45115 522
68.47126 548
68.49138 553
68.51149 556
68.5316 498
68.55172 521
68.57183 513
68.59195 483
68.61206 511
68.63217 545
68.65229 527
68.6724 551
68.69251 516
68.71263 520
68.73274 509
68.75286 496
68.77297 517
68.79308 538
68.8132 511
68.83331 495
68.85342 509
68.87354 512
68.89365 523
68.91376 510
68.93388 493
68.95399 516
68.97411 539
68.99422 524
69.01433 539
69.03445 523
69.05456 538
69.07467 498
69.09479 542
69.1149 542
69.13502 508
69.15513 509
69.17524 556
69.19536 547
69.21547 533
69.23558 467
69.2557 578
69.27581 566
69.29593 505
69.31604 529
69.33615 497
69.35627 558
69.37638 547
69.39649 495
69.41661 521
69.43672 532
69.45683 486
69.47695 526
69.49706 535
69.51718 536
69.53729 512
69.5574 518
69.57752 505
69.59763 518
69.61774 497
69.63786 499
69.65797 506
69.67809 526
69.6982 510
69.71831 509
69.73843 509
69.75854 520
69.77865 556
69.79877 537
69.81888 482
69.839 491
69.85911 530
69.87922 499
69.89934 554
69.91945 502
69.93956 502
69.95968 520
69.97979 554
69.9999 556
70.02002 503
70.04013 529
70.06025 495
70.08036 502
70.10047 513
70.12059 536
70.1407 514
70.16081 515
70.18093 564
70.20104 495
70.22116 525
70.24127 536
70.26138 528
70.2815 536
70.30161 508
70.32172 515
70.34184 560
70.36195 522
70.38207 547
70.40218 557
70.42229 503
70.44241 531
70.46252 503
70.48263 514
70.50275 512
70.52286 504
70.54297 497
70.56309 490
70.5832 535
70.60332 505
70.62343 535
70.64354 552
70.66366 537
70.68377 518
70.70388 525
70.724 539
70.74411 564
70.76423 510
70.78434 516
70.80445 525
70.82457 493
70.84468 514
70.86479 526
70.88491 537
70.90502 525
70.92513 509
70.94525 519
70.96536 533
70.98548 522
71.00559 526
71.0257 516
71.04582 527
71.06593 569
71.08604 513
71.10616 515
71.12627 501
71.14639 480
71.1665 504
71.18661 524
71.20673 513
71.22684 557
71.24695 539
71.26707 510
71.28718 525
71.3073 536
71.32741 514
71.34752 530
71.36764 546
71.38775 530
71.40786 524
71.42798 485
71.44809 518
71.4682 540
71.48832 570
71.50843 500
71.52855 516
71.54866 520
71.56877 516
71.58889 545
71.609 554
71.62911 502
71.64923 497
71.66934 529
71.68946 552
71.70957 522
71.72968 550
71.7498 512
71.76991 524
71.79002 501
71.81014 527
71.83025 517
71.85037 529
71.87048 543
71.89059 539
71.91071 481
71.93082 502
71.95093 519
71.97105 506
71.99116 527
72.01127 490
72.03139 540
72.0515 529
72.07162 509
72.09173 496
72.11184 504
72.13196 535
72.15207 511
72.17218 488
72.1923 552
72.21241 491
72.23253 490
72.25264 518
72.27275 477
72.29287 527
72.31298 560
72.33309 486
72.35321 515
72.37332 513
72.39344 486
72.41355 494
72.43366 532
72.45378 525
72.47389 531
72.494 521
72.51412 506
72.53423 496
72.55434 536
72.57446 504
72.59457 495
72.61469 522
72.6348 518
72.65491 528
72.67503 572
72.69514 503
72.71525 519
72.73537 531
72.75548 508
72.7756 491
72.79571 497
72.81582 523
72.83594 475
72.85605 500
72.87616 537
72.89628 529
72.91639 505
72.9365 526
72.95662 477
72.97673 523
72.99685 500
73.01696 504
73.03707 535
73.05719 545
73.0773 531
73.09741 543
73.11753 558
73.13764 504
73.15776 544
73.17787 531
73.19798 524
73.2181 491
73.23821 529
73.25832 524
73.27844 542
73.29855 545
73.31867 539
73.33878 524
73.35889 533
73.37901 543
73.39912 566
73.41923 539
73.43935 532
73.45946 531
73.47957 537
73.49969 570
73.5198 593
73.53992 550
73.56003 567
73.58014 575
73.60026 554
73.62037 559
73.64048 554
73.6606 557
73.68071 526
73.70083 561
73.72094 547
73.74105 498
73.76117 531
73.78128 535
73.80139 550
73.82151 548
73.84162 552
73.86174 538
73.88185 501
73.90196 503
73.92208 504
73.94219 550
73.9623 544
73.98242 540
74.00253 562
74.02264 551
74.04276 525
74.06287 506
74.08299 539
74.1031 536
74.12321 504
74.14333 496
74.16344 539
74.18355 483
74.20367 539
74.22378 539
74.2439 564
74.26401 527
74.28412 530
74.30424 544
74.32435 524
74.34446 505
74.36458 549
74.38469 541
74.40481 511
74.42492 527
74.44503 551
74.46515 536
74.48526 528
74.50537 506
74.52549 521
74.5456 503
74.56571 512
74.58583 503
74.60594 519
74.62606 556
74.64617 502
74.66628 547
74.6864 503
74.70651 550
74.72662 555
74.74674 534
74.76685 506
74.78697 530
74.80708 483
74.82719 520
74.84731 504
74.86742 500
74.88753 513
74.90765 484
74.92776 534
74.94787 523
74.96799 521
74.9881 491
75.00822 519
