3.00117 18792
3.02128 18485
3.0414 18098
3.06151 17449
3.08162 17020
3.10174 16613
3.12185 16220
3.14197 15546
3.16208 15030
3.18219 14748
3.20231 14287
3.22242 13851
3.24253 13677
3.26265 12911
3.28276 12833
3.30288 12210
3.32299 11814
3.3431 11416
3.36322 11068
3.38333 10763
3.40344 10320
3.42356 10084
3.44367 9682
3.46379 9175
3.4839 9099
3.50401 8494
3.52413 8510
3.54424 8346
3.56435 7640
3.58447 7641
3.60458 7197
3.62469 7113
3.64481 6814
3.66492 6411
3.68504 6418
3.70515 5941
3.72526 5750
3.74538 5606
3.76549 5162
3.7856 5159
3.80572 4778
3.82583 4737
3.84595 4581
3.86606 4353
3.88617 4090
3.90629 3930
3.9264 3811
3.94651 3643
3.96663 3387
3.98674 3233
4.00686 3015
4.02697 2977
4.04708 3049
4.0672 2722
4.08731 2626
4.10742 2556
4.12754 2368
4.14765 2435
4.16776 2037
4.18788 2203
4.20799 2093
4.22811 1989
4.24822 2029
4.26833 1749
4.28845 1911
4.30856 1775
4.32867 1700
4.34879 1693
4.3689 1560
4.38902 1614
4.40913 1549
4.42924 1530
4.44936 1520
4.46947 1413
4.48958 1387
4.5097 1354
4.52981 1305
4.54992 1352
4.57004 1150
4.59015 1180
4.61027 1228
4.63038 1135
4.65049 1191
4.67061 1105
4.69072 1132
4.71083 1114
4.73095 1080
4.75106 973
4.77118 980
4.79129 921
4.8114 1027
4.83152 951
4.85163 979
4.87174 935
4.89186 855
4.91197 859
4.93209 839
4.9522 819
4.97231 829
4.99243 775
5.01254 772
5.03265 827
5.05277 794
5.07288 732
5.09299 777
5.11311 760
5.13322 723
5.15334 746
5.17345 667
5.19356 639
5.21368 684
5.23379 667
5.2539 654
5.27402 618
5.29413 597
5.31425 579
5.33436 634
5.35447 562
5.37459 545
5.3947 567
5.41481 524
5.43493 572
5.45504 525
5.47516 529
5.49527 457
5.51538 522
5.5355 520
5.55561 498
5.57572 537
5.59584 468
5.61595 461
5.63606 483
5.65618 505
5.67629 479
5.69641 433
5.71652 450
5.73663 411
5.75675 408
5.77686 438
5.79697 432
5.81709 422
5.8372 418
5.85732 426
5.87743 412
5.89754 383
5.91766 375
5.93777 404
5.95788 372
5.978 335
5.99811 389
6.01823 397
6.03834 387
6.05845 406
6.07857 374
6.09868 373
6.11879 354
6.13891 386
6.15902 371
6.17913 356
6.19925 361
6.21936 354
6.23948 386
6.25959 353
6.2797 335
6.29982 368
6.31993 409
6.34004 387
6.36016 333
6.38027 364
6.40039 353
6.4205 357
6.44061 336
6.46073 332
6.48084 388
6.50095 328
6.52107 343
6.54118 351
6.56129 366
6.58141 328
6.60152 331
6.62164 355
6.64175 344
6.66186 393
6.68198 324
6.70209 361
6.7222 343
6.74232 331
6.76243 355
6.78255 352
6.80266 320
6.82277 369
6.84289 384
6.863 358
6.88311 340
6.90323 307
6.92334 307
6.94346 308
6.96357 341
6.98368 329
7.0038 363
7.02391 343
7.04402 329
7.06414 326
7.08425 330
7.10436 341
7.12448 356
7.14459 332
7.16471 326
7.18482 349
7.20493 350
7.22505 327
7.24516 318
7.26527 353
7.28539 360
7.3055 348
7.32562 362
7.34573 359
7.36584 312
7.38596 369
7.40607 330
7.42618 337
7.4463 344
7.46641 315
7.48653 342
7.50664 320
7.52675 346
7.54687 335
7.56698 362
7.58709 338
7.60721 342
7.62732 348
7.64743 358
7.66755 290
7.68766 384
7.70778 366
7.72789 337
7.748 372
7.76812 325
7.78823 344
7.80834 358
7.82846 322
7.84857 378
7.86869 394
7.8888 365
7.90891 327
7.92903 363
7.94914 326
7.96925 341
7.98937 318
8.00948 337
8.0296 361
8.04971 346
8.06982 363
8.08994 311
8.11005 349
8.13016 363
8.15028 362
8.17039 380
8.1905 342
8.21062 355
8.23073 323
8.25085 334
8.27096 379
8.29107 336
8.31119 362
8.3313 361
8.35141 358
8.37153 346
8.39164 392
8.41176 381
8.43187 367
8.45198 330
8.4721 319
8.49221 359
8.51232 354
8.53244 363
8.55255 358
8.57266 355
8.59278 336
8.61289 364
8.63301 363
8.65312 399
8.67323 324
8.69335 381
8.71346 365
8.73357 396
8.75369 375
8.7738 389
8.79392 391
8.81403 351
8.83414 414
8.85426 388
8.87437 395
8.89448 350
8.9146 361
8.93471 403
8.95483 386
8.97494 360
8.99505 391
9.01517 324
9.03528 362
9.05539 374
9.07551 329
9.09562 340
9.11573 339
9.13585 370
9.15596 368
9.17608 364
9.19619 354
9.2163 367
9.23642 358
9.25653 379
9.27664 362
9.29676 356
9.31687 381
9.33699 369
9.3571 362
9.37721 344
9.39733 382
9.41744 362
9.43755 356
9.45767 379
9.47778 366
9.4979 336
9.51801 372
9.53812 336
9.55824 328
9.57835 354
9.59846 329
9.61858 375
9.63869 374
9.6588 373
9.67892 345
9.69903 376
9.71915 338
9.73926 361
9.75937 357
9.77949 349
9.7996 377
9.81971 384
9.83983 322
9.85994 341
9.88006 374
9.90017 361
9.92028 350
9.9404 338
9.96051 379
9.98062 361
10.00074 353
10.02085 384
10.04097 340
10.06108 358
10.08119 320
10.10131 340
10.12142 422
10.14153 372
10.16165 369
10.18176 351
10.20187 371
10.22199 350
10.2421 346
10.26222 370
10.28233 342
10.30244 358
10.32256 374
10.34267 358
10.36278 361
10.3829 334
10.40301 382
10.42313 342
10.44324 334
10.46335 347
10.48347 347
10.50358 346
10.52369 386
10.54381 353
10.56392 356
10.58403 360
10.60415 360
10.62426 372
10.64438 381
10.66449 347
10.6846 310
10.70472 359
10.72483 356
10.74494 366
10.76506 311
10.78517 361
10.80529 375
10.8254 340
10.84551 390
10.86563 365
10.88574 341
10.90585 407
10.92597 335
10.94608 357
10.9662 387
10.98631 376
11.00642 369
11.02654 400
11.04665 364
11.06676 334
11.08688 369
11.10699 373
11.1271 303
11.14722 342
11.16733 345
11.18745 344
11.20756 328
11.22767 338
11.24779 388
11.2679 378
11.28801 367
11.30813 383
11.32824 346
11.34836 372
11.36847 396
11.38858 346
11.4087 380
11.42881 374
11.44892 354
11.46904 397
11.48915 352
11.50927 375
11.52938 373
11.54949 368
11.56961 393
11.58972 377
11.60983 406
11.62995 341
11.65006 368
11.67017 389
11.69029 429
11.7104 380
11.73052 402
11.75063 357
11.77074 401
11.79086 321
11.81097 389
11.83108 396
11.8512 390
11.87131 395
11.89143 415
11.91154 444
11.93165 447
11.95177 448
11.97188 409
11.99199 391
12.01211 445
12.03222 423
12.05234 409
12.07245 464
12.09256 482
12.11268 491
12.13279 508
12.1529 568
12.17302 533
12.19313 604
12.21324 643
12.23336 677
12.25347 732
12.27359 723
12.2937 710
12.31381 786
12.33393 813
12.35404 745
12.37415 800
12.39427 743
12.41438 666
12.4345 661
12.45461 654
12.47472 622
12.49484 515
12.51495 541
12.53506 490
12.55518 464
12.57529 447
12.5954 431
12.61552 413
12.63563 419
12.65575 427
12.67586 437
12.69597 430
12.71609 383
12.7362 395
12.75631 397
12.77643 386
12.79654 396
12.81666 347
12.83677 384
12.85688 338
12.877 438
12.89711 360
12.91722 337
12.93734 378
12.95745 375
12.97757 381
12.99768 347
13.01779 333
13.03791 353
13.05802 322
13.07813 369
13.09825 375
13.11836 353
13.13847 324
13.15859 323
13.1787 314
13.19882 343
13.21893 325
13.23904 322
13.25916 360
13.27927 334
13.29938 328
13.3195 345
13.33961 311
13.35973 325
13.37984 338
13.39995 348
13.42007 342
13.44018 346
13.46029 346
13.48041 353
13.50052 363
13.52064 357
13.54075 370
13.56086 361
13.58098 355
13.60109 325
13.6212 341
13.64132 347
13.66143 327
13.68154 337
13.70166 321
13.72177 342
13.74189 349
13.762 312
13.78211 346
13.80223 340
13.82234 333
13.84245 314
13.86257 371
13.88268 351
13.9028 346
13.92291 345
13.94302 350
13.96314 356
13.98325 294
14.00336 307
14.02348 331
14.04359 309
14.06371 338
14.08382 356
14.10393 338
14.12405 346
14.14416 342
14.16427 322
14.18439 334
14.2045 323
14.22461 313
14.24473 378
14.26484 334
14.28496 310
14.30507 343
14.32518 364
14.3453 322
14.36541 321
14.38552 342
14.40564 331
14.42575 288
14.44587 349
14.46598 362
14.48609 352
14.50621 338
14.52632 329
14.54643 365
14.56655 311
14.58666 339
14.60677 325
14.62689 294
14.647 349
14.66712 345
14.68723 324
14.70734 335
14.72746 315
14.74757 324
14.76768 326
14.7878 332
14.80791 333
14.82803 300
14.84814 334
14.86825 337
14.88837 340
14.90848 328
14.92859 341
14.94871 312
14.96882 325
14.98894 370
15.00905 364
15.02916 326
15.04928 325
15.06939 326
15.0895 321
15.10962 369
15.12973 346
15.14984 368
15.16996 336
15.19007 350
15.21019 324
15.2303 336
15.25041 287
15.27053 321
15.29064 312
15.31075 343
15.33087 306
15.35098 335
15.3711 347
15.39121 326
15.41132 374
15.43144 337
15.45155 309
15.47166 325
15.49178 329
15.51189 317
15.53201 352
15.55212 316
15.57223 367
15.59235 333
15.61246 307
15.63257 366
15.65269 310
15.6728 316
15.69291 327
15.71303 304
15.73314 341
15.75326 348
15.77337 330
15.79348 306
15.8136 322
15.83371 362
15.85382 345
15.87394 326
15.89405 347
15.91417 346
15.93428 319
15.95439 332
15.97451 293
15.99462 318
16.01473 308
16.03485 325
16.05496 324
16.07508 352
16.09519 329
16.1153 338
16.13542 355
16.15553 322
16.17564 320
16.19576 304
16.21587 335
16.23598 301
16.2561 324
16.27621 312
16.29633 318
16.31644 332
16.33655 320
16.35667 349
16.37678 325
16.39689 312
16.41701 321
16.43712 318
16.45724 298
16.47735 327
16.49746 334
16.51758 307
16.53769 317
16.5578 340
16.57792 323
16.59803 278
16.61814 311
16.63826 337
16.65837 332
16.67849 322
16.6986 354
16.71871 357
16.73883 346
16.75894 348
16.77905 365
16.79917 308
16.81928 297
16.8394 319
16.85951 330
16.87962 338
16.89974 319
16.91985 334
16.93996 335
16.96008 325
16.98019 333
17.00031 332
17.02042 311
17.04053 340
17.06065 333
17.08076 292
17.10087 326
17.12099 337
17.1411 298
17.16121 311
17.18133 333
17.20144 290
17.22156 320
17.24167 327
17.26178 322
17.2819 296
17.30201 283
17.32212 314
17.34224 319
17.36235 294
17.38247 313
17.40258 334
17.42269 284
17.44281 321
17.46292 321
17.48303 370
17.50315 375
17.52326 353
17.54338 378
17.56349 298
17.5836 340
17.60372 350
17.62383 325
17.64394 360
17.66406 314
17.68417 335
17.70428 330
17.7244 384
17.74451 357
17.76463 373
17.78474 351
17.80485 327
17.82497 309
17.84508 356
17.86519 353
17.88531 318
17.90542 298
17.92554 324
17.94565 356
17.96576 358
17.98588 345
18.00599 353
18.0261 328
18.04622 332
18.06633 329
18.08645 339
18.10656 308
18.12667 348
18.14679 338
18.1669 320
18.18701 338
18.20713 337
18.22724 305
18.24735 327
18.26747 305
18.28758 318
18.3077 326
18.32781 331
18.34792 332
18.36804 315
18.38815 317
18.40826 325
18.42838 327
18.44849 308
18.46861 350
18.48872 329
18.50883 329
18.52895 329
18.54906 337
18.56917 325
18.58929 313
18.6094 304
18.62951 311
18.64963 324
18.66974 345
18.68986 360
18.70997 344
18.73008 331
18.7502 340
18.77031 309
18.79042 339
18.81054 330
18.83065 337
18.85077 346
18.87088 327
18.89099 316
18.91111 298
18.93122 333
18.95133 325
18.97145 331
18.99156 304
19.01168 325
19.03179 341
19.0519 302
19.07202 321
19.09213 326
19.11224 352
19.13236 322
19.15247 332
19.17258 317
19.1927 342
19.21281 377
19.23293 351
19.25304 302
19.27315 374
19.29327 313
19.31338 338
19.33349 333
19.35361 316
19.37372 347
19.39384 358
19.41395 384
19.43406 329
19.45418 330
19.47429 324
19.4944 355
19.51452 373
19.53463 357
19.55475 314
19.57486 356
19.59497 369
19.61509 372
19.6352 360
19.65531 386
19.67543 431
19.69554 415
19.71565 467
19.73577 464
19.75588 488
19.776 479
19.79611 535
19.81622 557
19.83634 547
19.85645 551
19.87656 568
19.89668 622
19.91679 568
19.93691 597
19.95702 577
19.97713 575
19.99725 552
20.01736 544
20.03747 517
20.05759 546
20.0777 504
20.09782 515
20.11793 556
20.13804 521
20.15816 531
20.17827 571
20.19838 526
20.2185 553
20.23861 555
20.25872 519
20.27884 570
20.29895 538
20.31907 560
20.33918 539
20.35929 618
20.37941 544
20.39952 546
20.41963 557
20.43975 590
20.45986 547
20.47998 592
20.50009 566
20.5202 580
20.54032 598
20.56043 632
20.58054 663
20.60066 655
20.62077 660
20.64088 778
20.661 791
20.68111 972
20.70123 1188
20.72134 1411
20.74145 1871
20.76157 2483
20.78168 3180
20.80179 4059
20.82191 4919
20.84202 5258
20.86214 5131
20.88225 4633
20.90236 3508
20.92248 2549
20.94259 1784
20.9627 1263
20.98282 931
21.00293 788
21.02305 766
21.04316 680
21.06327 667
21.08339 703
21.1035 640
21.12361 629
21.14373 628
21.16384 571
21.18395 641
21.20407 666
21.22418 604
21.2443 627
21.26441 623
21.28452 582
21.30464 607
21.32475 605
21.34486 623
21.36498 573
21.38509 624
21.40521 627
21.42532 595
21.44543 619
21.46555 605
21.48566 589
21.50577 544
21.52589 547
21.546 519
21.56612 548
21.58623 469
21.60634 477
21.62646 485
21.64657 499
21.66668 490
21.6868 467
21.70691 517
21.72702 484
21.74714 483
21.76725 487
21.78737 483
21.80748 533
21.82759 448
21.84771 448
21.86782 496
21.88793 463
21.90805 435
21.92816 459
21.94828 481
21.96839 481
21.9885 407
22.00862 450
22.02873 438
22.04884 451
22.06896 447
22.08907 431
22.10919 422
22.1293 455
22.14941 437
22.16953 470
22.18964 454
22.20975 426
22.22987 431
22.24998 409
22.27009 419
22.29021 418
22.31032 468
22.33044 437
22.35055 424
22.37066 429
22.39078 405
22.41089 399
22.431 396
22.45112 432
22.47123 399
22.49135 452
22.51146 418
22.53157 431
22.55169 445
22.5718 406
22.59191 425
22.61203 403
22.63214 432
22.65225 408
22.67237 463
22.69248 395
22.7126 396
22.73271 437
22.75282 429
22.77294 395
22.79305 396
22.81316 440
22.83328 396
22.85339 395
22.87351 441
22.89362 357
22.91373 419
22.93385 413
22.95396 399
22.97407 413
22.99419 405
23.0143 421
23.03442 407
23.05453 419
23.07464 390
23.09476 395
23.11487 429
23.13498 410
23.1551 403
23.17521 416
23.19532 389
23.21544 408
23.23555 385
23.25567 427
23.27578 394
23.29589 409
23.31601 444
23.33612 413
23.35623 401
23.37635 389
23.39646 373
23.41658 380
23.43669 411
23.4568 409
23.47692 402
23.49703 406
23.51714 377
23.53726 393
23.55737 374
23.57749 394
23.5976 402
23.61771 404
23.63783 383
23.65794 416
23.67805 403
23.69817 414
23.71828 408
23.73839 388
23.75851 384
23.77862 373
23.79874 434
23.81885 426
23.83896 410
23.85908 395
23.87919 442
23.8993 465
23.91942 443
23.93953 411
23.95965 483
23.97976 490
23.99987 468
24.01999 477
24.0401 475
24.06021 460
24.08033 469
24.10044 458
24.12056 454
24.14067 477
24.16078 449
24.1809 425
24.20101 417
24.22112 428
24.24124 458
24.26135 477
24.28146 413
24.30158 420
24.32169 453
24.34181 432
24.36192 433
24.38203 458
24.40215 468
24.42226 433
24.44237 462
24.46249 409
24.4826 450
24.50272 467
24.52283 438
24.54294 462
24.56306 484
24.58317 469
24.60328 471
24.6234 504
24.64351 532
24.66362 485
24.68374 542
24.70385 544
24.72397 576
24.74408 583
24.76419 649
24.78431 657
24.80442 681
24.82453 699
24.84465 696
24.86476 660
24.88488 679
24.90499 711
24.9251 662
24.94522 651
24.96533 663
24.98544 626
25.00556 560
25.02567 542
25.04579 522
25.0659 497
25.08601 527
25.10613 493
25.12624 521
25.14635 472
25.16647 492
25.18658 430
25.20669 462
25.22681 478
25.24692 486
25.26704 485
25.28715 471
25.30726 471
25.32738 473
25.34749 461
25.3676 453
25.38772 414
25.40783 456
25.42795 444
25.44806 470
25.46817 443
25.48829 439
25.5084 399
25.52851 431
25.54863 493
25.56874 456
25.58886 438
25.60897 424
25.62908 465
25.6492 465
25.66931 491
25.68942 495
25.70954 488
25.72965 526
25.74976 488
25.76988 555
25.78999 536
25.81011 519
25.83022 547
25.85033 561
25.87045 543
25.89056 530
25.91067 545
25.93079 556
25.9509 524
25.97102 564
25.99113 580
26.01124 550
26.03136 571
26.05147 568
26.07158 582
26.0917 602
26.11181 615
26.13193 664
26.15204 667
26.17215 676
26.19227 771
26.21238 765
26.23249 876
26.25261 894
26.27272 905
26.29283 936
26.31295 1041
26.33306 1074
26.35318 1157
26.37329 1205
26.3934 1524
26.41352 1795
26.43363 2258
26.45374 2979
26.47386 4013
26.49397 5320
26.51409 7427
26.5342 10172
26.55431 13262
26.57443 17493
26.59454 20886
26.61465 22973
26.63477 23094
26.65488 20209
26.67499 16312
26.69511 12284
26.71522 8814
26.73534 5853
26.75545 3617
26.77556 2205
26.79568 1663
26.81579 1399
26.8359 1216
26.85602 1182
26.87613 1021
26.89625 995
26.91636 927
26.93647 880
26.95659 807
26.9767 737
26.99681 690
27.01693 611
27.03704 627
27.05716 637
27.07727 598
27.09738 540
27.1175 564
27.13761 549
27.15772 536
27.17784 515
27.19795 487
27.21806 463
27.23818 497
27.25829 487
27.27841 503
27.29852 492
27.31863 491
27.33875 510
27.35886 536
27.37897 478
27.39909 526
27.4192 526
27.43932 534
27.45943 510
27.47954 514
27.49966 514
27.51977 486
27.53988 471
27.56 451
27.58011 448
27.60023 446
27.62034 435
27.64045 447
27.66057 415
27.68068 428
27.70079 481
27.72091 443
27.74102 440
27.76113 464
27.78125 455
27.80136 435
27.82148 436
27.84159 476
27.8617 415
27.88182 448
27.90193 460
27.92204 443
27.94216 381
27.96227 407
27.98239 392
28.0025 406
28.02261 411
28.04273 423
28.06284 424
28.08295 427
28.10307 418
28.12318 404
28.1433 372
28.16341 427
28.18352 467
28.20364 392
28.22375 400
28.24386 418
28.26398 384
28.28409 415
28.3042 373
28.32432 396
28.34443 380
28.36455 431
28.38466 383
28.40477 417
28.42489 382
28.445 429
28.46511 409
28.48523 394
28.50534 371
28.52546 380
28.54557 401
28.56568 378
28.5858 423
28.60591 381
28.62602 363
28.64614 401
28.66625 410
28.68636 395
28.70648 393
28.72659 375
28.74671 359
28.76682 406
28.78693 390
28.80705 343
28.82716 397
28.84727 372
28.86739 387
28.8875 343
28.90762 416
28.92773 378
28.94784 363
28.96796 390
28.98807 387
29.00818 366
29.0283 387
29.04841 341
29.06853 426
29.08864 381
29.10875 347
29.12887 357
29.14898 362
29.16909 343
29.18921 363
29.20932 361
29.22943 415
29.24955 384
29.26966 368
29.28978 363
29.30989 417
29.33 366
29.35012 373
29.37023 372
29.39034 371
29.41046 393
29.43057 404
29.45069 381
29.4708 335
29.49091 382
29.51103 358
29.53114 367
29.55125 360
29.57137 381
29.59148 375
29.6116 360
29.63171 389
29.65182 394
29.67194 372
29.69205 367
29.71216 346
29.73228 376
29.75239 348
29.7725 372
29.79262 353
29.81273 358
29.83285 363
29.85296 417
29.87307 328
29.89319 392
29.9133 356
29.93341 367
29.95353 370
29.97364 398
29.99376 388
30.01387 370
30.03398 356
30.0541 386
30.07421 343
30.09432 369
30.11444 366
30.13455 383
30.15467 356
30.17478 375
30.19489 401
30.21501 373
30.23512 377
30.25523 366
30.27535 408
30.29546 381
30.31557 370
30.33569 364
30.3558 352
30.37592 356
30.39603 380
30.41614 394
30.43626 385
30.45637 362
30.47648 400
30.4966 359
30.51671 390
30.53683 365
30.55694 372
30.57705 322
30.59717 353
30.61728 360
30.63739 332
30.65751 353
30.67762 345
30.69773 353
30.71785 350
30.73796 385
30.75808 381
30.77819 349
30.7983 349
30.81842 359
30.83853 336
30.85864 366
30.87876 371
30.89887 339
30.91899 330
30.9391 351
30.95921 328
30.97933 329
30.99944 353
31.01955 342
31.03967 375
31.05978 366
31.0799 352
31.10001 346
31.12012 364
31.14024 343
31.16035 386
31.18046 336
31.20058 373
31.22069 392
31.2408 355
31.26092 322
31.28103 377
31.30115 374
31.32126 328
31.34137 340
31.36149 325
31.3816 355
31.40171 342
31.42183 373
31.44194 355
31.46206 338
31.48217 366
31.50228 345
31.5224 366
31.54251 340
31.56262 331
31.58274 370
31.60285 348
31.62297 380
31.64308 339
31.66319 354
31.68331 353
31.70342 358
31.72353 349
31.74365 363
31.76376 372
31.78387 377
31.80399 360
31.8241 342
31.84422 342
31.86433 357
31.88444 312
31.90456 374
31.92467 389
31.94478 376
31.9649 412
31.98501 375
32.00513 380
32.02524 372
32.04535 341
32.06547 365
32.08558 343
32.10569 383
32.12581 361
32.14592 364
32.16604 373
32.18615 408
32.20626 381
32.22638 383
32.24649 398
32.2666 392
32.28672 384
32.30683 361
32.32694 390
32.34706 315
32.36717 363
32.38729 399
32.4074 370
32.42751 387
32.44763 387
32.46774 384
32.48785 385
32.50797 373
32.52808 392
32.5482 417
32.56831 399
32.58842 377
32.60854 392
32.62865 340
32.64876 397
32.66888 443
32.68899 408
32.7091 406
32.72922 433
32.74933 391
32.76945 404
32.78956 388
32.80967 408
32.82979 390
32.8499 437
32.87001 464
32.89013 429
32.91024 457
32.93036 450
32.95047 439
32.97058 512
32.9907 496
33.01081 472
33.03092 466
33.05104 474
33.07115 545
33.09127 581
33.11138 500
33.13149 472
33.15161 528
33.17172 573
33.19183 534
33.21195 532
33.23206 475
33.25217 529
33.27229 506
33.2924 487
33.31252 537
33.33263 468
33.35274 473
33.37286 471
33.39297 475
33.41308 450
33.4332 494
33.45331 420
33.47343 438
33.49354 430
33.51365 424
33.53377 454
33.55388 420
33.57399 433
33.59411 446
33.61422 390
33.63434 409
33.65445 409
33.67456 379
33.69468 384
33.71479 377
33.7349 383
33.75502 401
33.77513 396
33.79524 387
33.81536 417
33.83547 377
33.85559 374
33.8757 376
33.89581 392
33.91593 361
33.93604 374
33.95615 339
33.97627 363
33.99638 368
34.0165 374
34.03661 369
34.05672 335
34.07684 369
34.09695 380
34.11706 337
34.13718 360
34.15729 342
34.17741 369
34.19752 392
34.21763 366
34.23775 346
34.25786 380
34.27797 358
34.29809 351
34.3182 385
34.33831 378
34.35843 385
34.37854 320
34.39866 362
34.41877 392
34.43888 389
34.459 371
34.47911 397
34.49922 376
34.51934 380
34.53945 389
34.55957 360
34.57968 400
34.59979 367
34.61991 392
34.64002 391
34.66013 398
34.68025 417
34.70036 428
34.72047 421
34.74059 458
34.7607 431
34.78082 444
34.80093 450
34.82104 454
34.84116 475
34.86127 486
34.88138 497
34.9015 494
34.92161 550
34.94173 529
34.96184 512
34.98195 503
35.00207 499
35.02218 490
35.04229 504
35.06241 470
35.08252 497
35.10264 474
35.12275 430
35.14286 439
35.16298 509
35.18309 435
35.2032 456
35.22332 492
35.24343 460
35.26354 493
35.28366 473
35.30377 444
35.32389 469
35.344 467
35.36411 500
35.38423 492
35.40434 480
35.42445 517
35.44457 528
35.46468 532
35.4848 537
35.50491 541
35.52502 567
35.54514 513
35.56525 548
35.58536 533
35.60548 577
35.62559 612
35.64571 540
35.66582 634
35.68593 598
35.70605 580
35.72616 624
35.74627 600
35.76639 615
35.7865 581
35.80661 620
35.82673 577
35.84684 579
35.86696 549
35.88707 566
35.90718 528
35.9273 538
35.94741 583
35.96752 517
35.98764 524
36.00775 509
36.02787 488
36.04798 466
36.06809 484
36.08821 487
36.10832 433
36.12843 466
36.14855 467
36.16866 456
36.18878 472
36.20889 489
36.229 533
36.24912 464
36.26923 539
36.28934 531
36.30946 527
36.32957 553
36.34968 655
36.3698 725
36.38991 848
36.41003 931
36.43014 1144
36.45025 1289
36.47037 1557
36.49048 1735
36.51059 1827
36.53071 1839
36.55082 1677
36.57094 1426
36.59105 1230
36.61116 1137
36.63128 978
36.65139 883
36.6715 676
36.69162 545
36.71173 512
36.73184 482
36.75196 477
36.77207 467
36.79219 508
36.8123 476
36.83241 449
36.85253 438
36.87264 452
36.89275 522
36.91287 466
36.93298 427
36.9531 439
36.97321 461
36.99332 474
37.01344 446
37.03355 482
37.05366 425
37.07378 434
37.09389 446
37.11401 450
37.13412 459
37.15423 422
37.17435 426
37.19446 409
37.21457 427
37.23469 396
37.2548 403
37.27491 409
37.29503 412
37.31514 366
37.33526 375
37.35537 410
37.37548 376
37.3956 372
37.41571 395
37.43582 411
37.45594 399
37.47605 370
37.49617 422
37.51628 397
37.53639 380
37.55651 381
37.57662 419
37.59673 421
37.61685 413
37.63696 405
37.65708 420
37.67719 392
37.6973 410
37.71742 412
37.73753 408
37.75764 397
37.77776 406
37.79787 412
37.81798 381
37.8381 441
37.85821 369
37.87833 406
37.89844 373
37.91855 388
37.93867 397
37.95878 390
37.97889 385
37.99901 412
38.01912 371
38.03924 376
38.05935 414
38.07946 424
38.09958 383
38.11969 414
38.1398 411
38.15992 453
38.18003 398
38.20015 458
38.22026 445
38.24037 485
38.26049 435
38.2806 506
38.30071 503
38.32083 486
38.34094 500
38.36105 467
38.38117 476
38.40128 508
38.4214 498
38.44151 484
38.46162 481
38.48174 446
38.50185 450
38.52196 481
38.54208 450
38.56219 431
38.58231 452
38.60242 462
38.62253 467
38.64265 422
38.66276 414
38.68287 406
38.70299 420
38.7231 413
38.74321 429
38.76333 399
38.78344 411
38.80356 364
38.82367 382
38.84378 413
38.8639 375
38.88401 430
38.90412 417
38.92424 399
38.94435 431
38.96447 457
38.98458 374
39.00469 445
39.02481 470
39.04492 446
39.06503 437
39.08515 409
39.10526 477
39.12538 529
39.14549 460
39.1656 475
39.18572 509
39.20583 519
39.22594 558
39.24606 628
39.26617 599
39.28628 719
39.3064 792
39.32651 938
39.34663 1042
39.36674 1184
39.38685 1372
39.40697 1529
39.42708 1694
39.44719 1672
39.46731 1555
39.48742 1302
39.50754 1213
39.52765 1058
39.54776 1003
39.56788 886
39.58799 715
39.6081 579
39.62822 458
39.64833 505
39.66845 440
39.68856 373
39.70867 424
39.72879 368
39.7489 386
39.76901 405
39.78913 398
39.80924 376
39.82935 430
39.84947 398
39.86958 411
39.8897 369
39.90981 380
39.92992 418
39.95004 391
39.97015 372
39.99026 438
40.01038 402
40.03049 453
40.05061 439
40.07072 452
40.09083 471
40.11095 503
40.13106 633
40.15117 626
40.17129 682
40.1914 784
40.21152 904
40.23163 1030
40.25174 967
40.27186 1037
40.29197 987
40.31208 854
40.3322 807
40.35231 699
40.37242 723
40.39254 631
40.41265 588
40.43277 526
40.45288 400
40.47299 380
40.49311 452
40.51322 409
40.53333 400
40.55345 398
40.57356 390
40.59368 410
40.61379 394
40.6339 401
40.65402 440
40.67413 416
40.69424 408
40.71436 383
40.73447 396
40.75458 393
40.7747 418
40.79481 367
40.81493 411
40.83504 387
40.85515 413
40.87527 409
40.89538 451
40.91549 429
40.93561 409
40.95572 414
40.97584 424
40.99595 432
41.01606 423
41.03618 423
41.05629 397
41.0764 386
41.09652 429
41.11663 401
41.13675 418
41.15686 407
41.17697 408
41.19709 389
41.2172 423
41.23731 398
41.25743 385
41.27754 398
41.29765 348
41.31777 379
41.33788 352
41.358 374
41.37811 393
41.39822 377
41.41834 355
41.43845 388
41.45856 379
41.47868 374
41.49879 391
41.51891 390
41.53902 363
41.55913 387
41.57925 364
41.59936 372
41.61947 386
41.63959 373
41.6597 382
41.67982 370
41.69993 374
41.72004 365
41.74016 345
41.76027 361
41.78038 351
41.8005 367
41.82061 374
41.84072 382
41.86084 358
41.88095 388
41.90107 336
41.92118 375
41.94129 386
41.96141 380
41.98152 372
42.00163 350
42.02175 371
42.04186 375
42.06198 370
42.08209 372
42.1022 364
42.12232 381
42.14243 361
42.16254 398
42.18266 417
42.20277 428
42.22289 452
42.243 489
42.26311 565
42.28323 605
42.30334 678
42.32345 780
42.34357 963
42.36368 1079
42.38379 1161
42.40391 1239
42.42402 1227
42.44414 1217
42.46425 1105
42.48436 941
42.50448 872
42.52459 797
42.5447 750
42.56482 642
42.58493 524
42.60505 498
42.62516 407
42.64527 402
42.66539 365
42.6855 346
42.70561 339
42.72573 364
42.74584 334
42.76595 336
42.78607 335
42.80618 327
42.8263 340
42.84641 366
42.86652 339
42.88664 308
42.90675 365
42.92686 321
42.94698 296
42.96709 309
42.98721 339
43.00732 320
43.02743 331
43.04755 362
43.06766 329
43.08777 317
43.10789 302
43.128 327
43.14812 325
43.16823 322
43.18834 333
43.20846 314
43.22857 343
43.24868 310
43.2688 360
43.28891 323
43.30902 320
43.32914 308
43.34925 338
43.36937 311
43.38948 313
43.40959 313
43.42971 326
43.44982 335
43.46993 313
43.49005 327
43.51016 317
43.53028 339
43.55039 331
43.5705 309
43.59062 317
43.61073 319
43.63084 286
43.65096 344
43.67107 360
43.69119 335
43.7113 328
43.73141 326
43.75153 312
43.77164 325
43.79175 316
43.81187 338
43.83198 320
43.85209 295
43.87221 352
43.89232 343
43.91244 328
43.93255 292
43.95266 334
43.97278 349
43.99289 338
44.013 354
44.03312 323
44.05323 321
44.07335 347
44.09346 296
44.11357 332
44.13369 341
44.1538 323
44.17391 283
44.19403 334
44.21414 303
44.23426 336
44.25437 314
44.27448 347
44.2946 290
44.31471 326
44.33482 309
44.35494 327
44.37505 353
44.39516 329
44.41528 320
44.43539 304
44.45551 333
44.47562 278
44.49573 324
44.51585 301
44.53596 316
44.55607 305
44.57619 315
44.5963 328
44.61642 339
44.63653 330
44.65664 293
44.67676 321
44.69687 295
44.71698 310
44.7371 278
44.75721 365
44.77732 332
44.79744 355
44.81755 341
44.83767 319
44.85778 315
44.87789 313
44.89801 360
44.91812 329
44.93823 304
44.95835 328
44.97846 344
44.99858 333
45.01869 346
45.0388 358
45.05892 338
45.07903 341
45.09914 325
45.11926 341
45.13937 348
45.15949 352
45.1796 331
45.19971 356
45.21983 335
45.23994 360
45.26005 353
45.28017 337
45.30028 379
45.32039 388
45.34051 355
45.36062 351
45.38074 355
45.40085 390
45.42096 380
45.44108 396
45.46119 371
45.4813 411
45.50142 412
45.52153 391
45.54165 418
45.56176 429
45.58187 428
45.60199 455
45.6221 514
45.64221 626
45.66233 653
45.68244 697
45.70256 782
45.72267 913
45.74278 922
45.7629 936
45.78301 929
45.80312 811
45.82324 775
45.84335 700
45.86346 698
45.88358 608
45.90369 550
45.92381 551
45.94392 421
45.96403 386
45.98415 372
46.00426 369
46.02437 365
46.04449 350
46.0646 320
46.08472 356
46.10483 336
46.12494 330
46.14506 368
46.16517 360
46.18528 343
46.2054 352
46.22551 326
46.24563 345
46.26574 307
46.28585 347
46.30597 331
46.32608 345
46.34619 340
46.36631 330
46.38642 336
46.40653 322
46.42665 325
46.44676 329
46.46688 372
46.48699 331
46.5071 329
46.52722 346
46.54733 318
46.56744 358
46.58756 340
46.60767 327
46.62779 338
46.6479 353
46.66801 328
46.68813 338
46.70824 288
46.72835 312
46.74847 347
46.76858 331
46.78869 337
46.80881 338
46.82892 328
46.84904 339
46.86915 363
46.88926 350
46.90938 329
46.92949 329
46.9496 308
46.96972 344
46.98983 335
47.00995 366
47.03006 356
47.05017 349
47.07029 328
47.0904 299
47.11051 340
47.13063 340
47.15074 332
47.17086 306
47.19097 344
47.21108 354
47.2312 361
47.25131 330
47.27142 350
47.29154 306
47.31165 318
47.33176 311
47.35188 329
47.37199 333
47.39211 343
47.41222 328
47.43233 330
47.45245 320
47.47256 328
47.49267 378
47.51279 342
47.5329 332
47.55302 353
47.57313 323
47.59324 362
47.61336 318
47.63347 314
47.65358 330
47.6737 339
47.69381 319
47.71393 332
47.73404 296
47.75415 353
47.77427 372
47.79438 367
47.81449 345
47.83461 339
47.85472 344
47.87483 342
47.89495 322
47.91506 362
47.93518 335
47.95529 346
47.9754 328
47.99552 329
48.01563 361
48.03574 325
48.05586 338
48.07597 333
48.09609 344
48.1162 341
48.13631 327
48.15643 316
48.17654 340
48.19665 342
48.21677 355
48.23688 313
48.257 323
48.27711 329
48.29722 342
48.31734 350
48.33745 340
48.35756 338
48.37768 316
48.39779 334
48.4179 338
48.43802 362
48.45813 347
48.47825 337
48.49836 326
48.51847 361
48.53859 335
48.5587 324
48.57881 326
48.59893 356
48.61904 307
48.63916 351
48.65927 344
48.67938 365
48.6995 354
48.71961 330
48.73972 339
48.75984 331
48.77995 348
48.80006 380
48.82018 355
48.84029 362
48.86041 334
48.88052 335
48.90063 367
48.92075 324
48.94086 332
48.96097 346
48.98109 353
49.0012 340
49.02132 327
49.04143 340
49.06154 339
49.08166 368
49.10177 350
49.12188 379
49.142 388
49.16211 372
49.18223 343
49.20234 404
49.22245 379
49.24257 385
49.26268 408
49.28279 362
49.30291 369
49.32302 373
49.34313 351
49.36325 389
49.38336 356
49.40348 418
49.42359 399
49.4437 435
49.46382 408
49.48393 387
49.50404 382
49.52416 388
49.54427 380
49.56439 405
49.5845 376
49.60461 397
49.62473 390
49.64484 424
49.66495 387
49.68507 397
49.70518 433
49.7253 451
49.74541 453
49.76552 474
49.78564 504
49.80575 483
49.82586 512
49.84598 573
49.86609 537
49.8862 640
49.90632 723
49.92643 759
49.94655 895
49.96666 1008
49.98677 1189
50.00689 1455
50.027 1722
50.04711 2025
50.06723 2261
50.08734 2486
50.10746 2461
50.12757 2290
50.14768 1939
50.1678 1717
50.18791 1540
50.20802 1436
50.22814 1449
50.24825 1340
50.26837 1158
50.28848 878
50.30859 707
50.32871 555
50.34882 502
50.36893 442
50.38905 456
50.40916 407
50.42927 398
50.44939 391
50.4695 407
50.48962 406
50.50973 423
50.52984 382
50.54996 419
50.57007 381
50.59018 418
50.6103 390
50.63041 390
50.65053 382
50.67064 396
50.69075 362
50.71087 399
50.73098 359
50.75109 394
50.77121 355
50.79132 377
50.81143 372
50.83155 342
50.85166 369
50.87178 342
50.89189 331
50.912 357
50.93212 350
50.95223 318
50.97234 370
50.99246 358
51.01257 341
51.03269 351
51.0528 323
51.07291 372
51.09303 318
51.11314 345
51.13325 303
51.15337 367
51.17348 351
51.1936 339
51.21371 342
51.23382 318
51.25394 305
51.27405 317
51.29416 328
51.31428 323
51.33439 286
51.3545 306
51.37462 305
51.39473 330
51.41485 306
51.43496 336
51.45507 325
51.47519 330
51.4953 320
51.51541 309
51.53553 326
51.55564 318
51.57576 319
51.59587 314
51.61598 306
51.6361 334
51.65621 334
51.67632 319
51.69644 316
51.71655 309
51.73667 293
51.75678 324
51.77689 315
51.79701 340
51.81712 330
51.83723 332
51.85735 334
51.87746 312
51.89757 307
51.91769 324
51.9378 316
51.95792 322
51.97803 304
51.99814 304
52.01826 315
52.03837 284
52.05848 321
52.0786 309
52.09871 344
52.11883 334
52.13894 297
52.15905 344
52.17917 322
52.19928 290
52.21939 309
52.23951 287
52.25962 286
52.27974 311
52.29985 299
52.31996 286
52.34008 329
52.36019 327
52.3803 288
52.40042 331
52.42053 340
52.44064 312
52.46076 297
52.48087 301
52.50099 347
52.5211 326
52.54121 314
52.56133 300
52.58144 343
52.60155 311
52.62167 327
52.64178 314
52.6619 312
52.68201 311
52.70212 308
52.72224 342
52.74235 295
52.76246 314
52.78258 318
52.80269 318
52.8228 339
52.84292 299
52.86303 334
52.88315 346
52.90326 366
52.92337 351
52.94349 328
52.9636 335
52.98371 309
53.00383 318
53.02394 303
53.04406 308
53.06417 369
53.08428 325
53.1044 356
53.12451 333
53.14462 306
53.16474 311
53.18485 329
53.20497 328
53.22508 349
53.24519 343
53.26531 300
53.28542 337
53.30553 324
53.32565 368
53.34576 360
53.36587 368
53.38599 352
53.4061 352
53.42622 348
53.44633 354
53.46644 378
53.48656 351
53.50667 383
53.52678 380
53.5469 376
53.56701 368
53.58713 414
53.60724 390
53.62735 412
53.64747 403
53.66758 373
53.68769 355
53.70781 435
53.72792 393
53.74804 409
53.76815 431
53.78826 380
53.80838 407
53.82849 430
53.8486 449
53.86872 404
53.88883 393
53.90894 425
53.92906 415
53.94917 408
53.96929 411
53.9894 421
54.00951 429
54.02963 450
54.04974 438
54.06985 445
54.08997 442
54.11008 443
54.1302 465
54.15031 402
54.17042 490
54.19054 465
54.21065 456
54.23076 441
54.25088 457
54.27099 434
54.29111 454
54.31122 433
54.33133 402
54.35145 402
54.37156 453
54.39167 411
54.41179 405
54.4319 427
54.45201 392
54.47213 405
54.49224 426
54.51236 435
54.53247 415
54.55258 412
54.5727 430
54.59281 421
54.61292 453
54.63304 440
54.65315 522
54.67327 552
54.69338 555
54.71349 623
54.73361 675
54.75372 731
54.77383 821
54.79395 889
54.81406 940
54.83417 999
54.85429 945
54.8744 876
54.89452 790
54.91463 769
54.93474 731
54.95486 719
54.97497 693
54.99508 711
55.0152 686
55.03531 613
55.05543 534
55.07554 472
55.09565 471
55.11577 489
55.13588 455
55.15599 455
55.17611 508
55.19622 500
55.21634 589
55.23645 519
55.25656 627
55.27668 615
55.29679 600
55.3169 604
55.33702 615
55.35713 501
55.37724 514
55.39736 487
55.41747 499
55.43759 481
55.4577 481
55.47781 416
55.49793 409
55.51804 414
55.53815 371
55.55827 380
55.57838 333
55.5985 347
55.61861 346
55.63872 337
55.65884 370
55.67895 359
55.69906 368
55.71918 360
55.73929 359
55.75941 354
55.77952 365
55.79963 333
55.81975 349
55.83986 361
55.85997 337
55.88009 311
55.9002 338
55.92031 357
55.94043 345
55.96054 354
55.98066 334
56.00077 335
56.02088 300
56.041 363
56.06111 343
56.08122 349
56.10134 298
56.12145 325
56.14157 359
56.16168 312
56.18179 353
56.20191 355
56.22202 355
56.24213 329
56.26225 314
56.28236 290
56.30248 351
56.32259 312
56.3427 339
56.36282 337
56.38293 344
56.40304 336
56.42316 343
56.44327 335
56.46338 316
56.4835 348
56.50361 322
56.52373 357
56.54384 328
56.56395 322
56.58407 330
56.60418 352
56.62429 314
56.64441 329
56.66452 325
56.68464 345
56.70475 346
56.72486 343
56.74498 332
56.76509 342
56.7852 328
56.80532 359
56.82543 331
56.84554 304
56.86566 309
56.88577 357
56.90589 311
56.926 348
56.94611 348
56.96623 344
56.98634 320
57.00645 336
57.02657 309
57.04668 299
57.0668 361
57.08691 356
57.10702 328
57.12714 347
57.14725 356
57.16736 355
57.18748 378
57.20759 365
57.22771 351
57.24782 342
57.26793 347
57.28805 349
57.30816 366
57.32827 340
57.34839 365
57.3685 297
57.38861 338
57.40873 331
57.42884 315
57.44896 340
57.46907 335
57.48918 324
57.5093 343
57.52941 331
57.54952 304
57.56964 341
57.58975 358
57.60987 336
57.62998 306
57.65009 308
57.67021 327
57.69032 311
57.71043 347
57.73055 353
57.75066 321
57.77078 346
57.79089 358
57.811 311
57.83112 344
57.85123 314
57.87134 331
57.89146 329
57.91157 358
57.93168 349
57.9518 324
57.97191 332
57.99203 322
58.01214 298
58.03225 333
58.05237 309
58.07248 369
58.09259 318
58.11271 326
58.13282 320
58.15294 341
58.17305 332
58.19316 326
58.21328 320
58.23339 339
58.2535 352
58.27362 331
58.29373 346
58.31385 315
58.33396 309
58.35407 312
58.37419 318
58.3943 339
58.41441 327
58.43453 322
58.45464 309
58.47475 311
58.49487 317
58.51498 264
58.5351 321
58.55521 313
58.57532 321
58.59544 288
58.61555 304
58.63566 311
58.65578 340
58.67589 338
58.69601 329
58.71612 311
58.73623 347
58.75635 289
58.77646 334
58.79657 332
58.81669 320
58.8368 341
58.85691 313
58.87703 303
58.89714 328
58.91726 305
58.93737 293
58.95748 307
58.9776 315
58.99771 352
59.01782 279
59.03794 304
59.05805 338
59.07817 331
59.09828 335
59.11839 317
59.13851 327
59.15862 313
59.17873 345
59.19885 337
59.21896 349
59.23908 318
59.25919 333
59.2793 321
59.29942 341
59.31953 318
59.33964 344
59.35976 388
59.37987 329
59.39998 357
59.4201 372
59.44021 335
59.46033 384
59.48044 380
59.50055 352
59.52067 355
59.54078 404
59.56089 382
59.58101 444
59.60112 445
59.62124 433
59.64135 466
59.66146 481
59.68158 531
59.70169 567
59.7218 587
59.74192 670
59.76203 736
59.78215 788
59.80226 939
59.82237 1060
59.84249 1283
59.8626 1441
59.88271 1570
59.90283 1605
59.92294 1634
59.94305 1502
59.96317 1377
59.98328 1133
60.0034 997
60.02351 987
60.04362 1000
60.06374 942
60.08385 1005
60.10396 874
60.12408 768
60.14419 604
60.16431 502
60.18442 447
60.20453 393
60.22465 405
60.24476 399
60.26487 370
60.28499 366
60.3051 341
60.32522 395
60.34533 368
60.36544 315
60.38556 343
60.40567 355
60.42578 341
60.4459 339
60.46601 340
60.48612 308
60.50624 334
60.52635 301
60.54647 355
60.56658 334
60.58669 332
60.60681 336
60.62692 320
60.64703 318
60.66715 322
60.68726 333
60.70738 322
60.72749 319
60.7476 323
60.76772 328
60.78783 299
60.80794 314
60.82806 315
60.84817 304
60.86828 297
60.8884 312
60.90851 337
60.92863 332
60.94874 309
60.96885 310
60.98897 313
61.00908 328
61.02919 331
61.04931 319
61.06942 318
61.08954 301
61.10965 324
61.12976 328
61.14988 342
61.16999 319
61.1901 317
61.21022 321
61.23033 304
61.25045 337
61.27056 312
61.29067 319
61.31079 293
61.3309 328
61.35101 320
61.37113 322
61.39124 319
61.41135 300
61.43147 309
61.45158 325
61.4717 368
61.49181 337
61.51192 352
61.53204 327
61.55215 337
61.57226 319
61.59238 328
61.61249 327
61.63261 357
61.65272 346
61.67283 344
61.69295 328
61.71306 349
61.73317 341
61.75329 343
61.7734 374
61.79352 342
61.81363 351
61.83374 351
61.85386 358
61.87397 337
61.89408 359
61.9142 330
61.93431 331
61.95442 347
61.97454 356
61.99465 348
62.01477 400
62.03488 387
62.05499 370
62.07511 406
62.09522 408
62.11533 436
62.13545 412
62.15556 448
62.17568 401
62.19579 392
62.2159 435
62.23602 412
62.25613 377
62.27624 426
62.29636 437
62.31647 400
62.33659 425
62.3567 436
62.37681 409
62.39693 395
62.41704 406
62.43715 430
62.45727 467
62.47738 416
62.49749 391
62.51761 375
62.53772 376
62.55784 381
62.57795 399
62.59806 379
62.61818 348
62.63829 327
62.6584 348
62.67852 367
62.69863 360
62.71875 341
62.73886 353
62.75897 374
62.77909 336
62.7992 332
62.81931 350
62.83943 331
62.85954 344
62.87965 333
62.89977 365
62.91988 345
62.94 307
62.96011 371
62.98022 340
63.00034 278
63.02045 353
63.04056 289
63.06068 328
63.08079 332
63.10091 341
63.12102 310
63.14113 302
63.16125 348
63.18136 326
63.20147 319
63.22159 358
63.2417 341
63.26182 340
63.28193 298
63.30204 322
63.32216 336
63.34227 328
63.36238 309
63.3825 327
63.40261 327
63.42272 370
63.44284 341
63.46295 338
63.48307 344
63.50318 322
63.52329 338
63.54341 347
63.56352 333
63.58363 356
63.60375 339
63.62386 365
63.64398 357
63.66409 374
63.6842 342
63.70432 348
63.72443 352
63.74454 390
63.76466 378
63.78477 369
63.80489 407
63.825 424
63.84511 395
63.86523 438
63.88534 434
63.90545 492
63.92557 572
63.94568 561
63.96579 575
63.98591 554
64.00602 577
64.02614 544
64.04625 540
64.06636 480
64.08648 431
64.10659 514
64.1267 455
64.14682 480
64.16693 488
64.18705 497
64.20716 478
64.22727 428
64.24739 417
64.2675 398
64.28761 361
64.30773 381
64.32784 364
64.34796 349
64.36807 347
64.38818 358
64.4083 340
64.42841 378
64.44852 340
64.46864 342
64.48875 347
64.50886 310
64.52898 318
64.54909 344
64.56921 326
64.58932 297
64.60943 323
64.62955 323
64.64966 338
64.66977 306
64.68989 323
64.71 308
64.73012 317
64.75023 331
64.77034 313
64.79046 299
64.81057 321
64.83068 310
64.8508 319
64.87091 324
64.89102 296
64.91114 308
64.93125 319
64.95137 299
64.97148 281
64.99159 288
65.01171 321
65.03182 345
65.05193 329
65.07205 301
65.09216 337
65.11228 311
65.13239 331
65.1525 296
65.17262 320
65.19273 306
65.21284 327
65.23296 295
65.25307 288
65.27319 303
65.2933 314
65.31341 278
65.33353 310
65.35364 329
65.37375 303
65.39387 307
65.41398 292
65.43409 295
65.45421 307
65.47432 312
65.49444 285
65.51455 315
65.53466 300
65.55478 327
65.57489 339
65.595 318
65.61512 350
65.63523 308
65.65535 313
65.67546 328
65.69557 340
65.71569 353
65.7358 368
65.75591 344
65.77603 348
65.79614 318
65.81626 356
65.83637 307
65.85648 360
65.8766 328
65.89671 341
65.91682 380
65.93694 331
65.95705 319
65.97716 330
65.99728 301
66.01739 297
66.03751 297
66.05762 308
66.07773 309
66.09785 317
66.11796 321
66.13807 297
66.15819 316
66.1783 297
66.19842 322
66.21853 325
66.23864 293
66.25876 288
66.27887 311
66.29898 294
66.3191 325
66.33921 326
66.35933 313
66.37944 282
66.39955 299
66.41967 346
66.43978 307
66.45989 311
66.48001 323
66.50012 305
66.52023 320
66.54035 314
66.56046 319
66.58058 307
66.60069 318
66.6208 309
66.64092 318
66.66103 326
66.68114 304
66.70126 314
66.72137 290
66.74149 316
66.7616 319
66.78171 303
66.80183 350
66.82194 304
66.84205 295
66.86217 283
66.88228 313
66.90239 319
66.92251 324
66.94262 320
66.96274 347
66.98285 342
67.00296 302
67.02308 309
67.04319 310
67.0633 311
67.08342 314
67.10353 343
67.12365 314
67.14376 337
67.16387 353
67.18399 358
67.2041 323
67.22421 333
67.24433 323
67.26444 358
67.28456 381
67.30467 349
67.32478 348
67.3449 352
67.36501 387
67.38512 408
67.40524 410
67.42535 377
67.44546 438
67.46558 437
67.48569 437
67.50581 500
67.52592 529
67.54603 541
67.56615 622
67.58626 680
67.60637 793
67.62649 825
67.6466 907
67.66672 1076
67.68683 1028
67.70694 1092
67.72706 1025
67.74717 953
67.76728 849
67.7874 790
67.80751 761
67.82763 709
67.84774 779
67.86785 825
67.88797 831
67.90808 863
67.92819 860
67.94831 841
67.96842 884
67.98853 934
68.00865 1001
68.02876 1070
68.04888 1143
68.06899 1274
68.0891 1343
68.10922 1345
68.12933 1300
68.14944 1208
68.16956 1178
68.18967 1091
68.20979 1185
68.2299 1214
68.25001 1303
68.27013 1270
68.29024 1262
68.31035 1156
68.33047 954
68.35058 841
68.3707 776
68.39081 710
68.41092 636
68.43104 636
68.45115 595
68.47126 618
68.49138 539
68.51149 537
68.5316 446
68.55172 407
68.57183 378
68.59195 354
68.61206 357
68.63217 374
68.65229 337
68.6724 358
68.69251 344
68.71263 332
68.73274 305
68.75286 362
68.77297 336
68.79308 324
68.8132 368
68.83331 320
68.85342 356
68.87354 312
68.89365 336
68.91376 310
68.93388 304
68.95399 334
68.97411 346
68.99422 309
69.01433 333
69.03445 332
69.05456 302
69.07467 318
69.09479 300
69.1149 303
69.13502 332
69.15513 309
69.17524 315
69.19536 303
69.21547 316
69.23558 279
69.2557 330
69.27581 308
69.29593 284
69.31604 285
69.33615 301
69.35627 350
69.37638 331
69.39649 301
69.41661 322
69.43672 321
69.45683 284
69.47695 294
69.49706 302
69.51718 356
69.53729 310
69.5574 319
69.57752 326
69.59763 331
69.61774 323
69.63786 315
69.65797 289
69.67809 313
69.6982 311
69.71831 310
69.73843 315
69.75854 297
69.77865 310
69.79877 349
69.81888 316
69.839 324
69.85911 308
69.87922 301
69.89934 317
69.91945 277
69.93956 320
69.95968 310
69.97979 332
69.9999 310
70.02002 277
70.04013 329
70.06025 319
70.08036 300
70.10047 295
70.12059 286
70.1407 328
70.16081 320
70.18093 324
70.20104 328
70.22116 339
70.24127 295
70.26138 310
70.2815 297
70.30161 293
70.32172 288
70.34184 321
70.36195 306
70.38207 305
70.40218 312
70.42229 291
70.44241 321
70.46252 297
70.48263 302
70.50275 301
70.52286 281
70.54297 281
70.56309 306
70.5832 284
70.60332 327
70.62343 309
70.64354 314
70.66366 294
70.68377 337
70.70388 304
70.724 332
70.74411 296
70.76423 304
70.78434 290
70.80445 306
70.82457 324
70.84468 289
70.86479 273
70.88491 294
70.90502 292
70.92513 277
70.94525 300
70.96536 311
70.98548 267
71.00559 315
71.0257 269
71.04582 329
71.06593 290
71.08604 313
71.10616 291
71.12627 297
71.14639 315
71.1665 270
71.18661 280
71.20673 293
71.22684 326
71.24695 339
71.26707 302
71.28718 315
71.3073 275
71.32741 295
71.34752 266
71.36764 286
71.38775 313
71.40786 287
71.42798 314
71.44809 325
71.4682 315
71.48832 261
71.50843 268
71.52855 308
71.54866 304
71.56877 309
71.58889 310
71.609 308
71.62911 293
71.64923 316
71.66934 320
71.68946 289
71.70957 290
71.72968 291
71.7498 295
71.76991 323
71.79002 307
71.81014 336
71.83025 298
71.85037 301
71.87048 312
71.89059 330
71.91071 301
71.93082 315
71.95093 336
71.97105 353
71.99116 312
72.01127 317
72.03139 332
72.0515 349
72.07162 302
72.09173 339
72.11184 351
72.13196 337
72.15207 336
72.17218 311
72.1923 316
72.21241 371
72.23253 333
72.25264 313
72.27275 313
72.29287 336
72.31298 300
72.33309 335
72.35321 332
72.37332 312
72.39344 320
72.41355 303
72.43366 308
72.45378 326
72.47389 312
72.494 297
72.51412 295
72.53423 301
72.55434 330
72.57446 317
72.59457 273
72.61469 334
72.6348 308
72.65491 305
72.67503 313
72.69514 331
72.71525 288
72.73537 323
72.75548 345
72.7756 307
72.79571 298
72.81582 320
72.83594 289
72.85605 281
72.87616 315
72.89628 315
72.91639 304
72.9365 320
72.95662 331
72.97673 322
72.99685 306
73.01696 305
73.03707 291
73.05719 295
73.0773 317
73.09741 311
73.11753 298
73.13764 333
73.15776 351
73.17787 343
73.19798 322
73.2181 380
73.23821 375
73.25832 417
73.27844 382
73.29855 436
73.31867 473
73.33878 466
73.35889 512
73.37901 501
73.39912 544
73.41923 557
73.43935 555
73.45946 507
73.47957 532
73.49969 445
73.5198 429
73.53992 420
73.56003 443
73.58014 434
73.60026 447
73.62037 405
73.64048 403
73.6606 422
73.68071 426
73.70083 353
73.72094 343
73.74105 364
73.76117 303
73.78128 337
73.80139 324
73.82151 328
73.84162 311
73.86174 317
73.88185 340
73.90196 337
73.92208 306
73.94219 295
73.9623 292
73.98242 318
74.00253 270
74.02264 265
74.04276 293
74.06287 280
74.08299 287
74.1031 297
74.12321 269
74.14333 310
74.16344 276
74.18355 267
74.20367 306
74.22378 288
74.2439 275
74.26401 298
74.28412 345
74.30424 299
74.32435 271
74.34446 332
74.36458 306
74.38469 300
74.40481 285
74.42492 316
74.44503 300
74.46515 293
74.48526 308
74.50537 314
74.52549 303
74.5456 292
74.56571 276
74.58583 290
74.60594 298
74.62606 312
74.64617 286
74.66628 282
74.6864 303
74.70651 292
74.72662 320
74.74674 316
74.76685 324
74.78697 295
74.80708 323
74.82719 305
74.84731 328
74.86742 304
74.88753 312
74.90765 321
74.92776 295
74.94787 320
74.96799 280
74.9881 282
75.00822 311
