3.00117 16489
3.02128 15764
3.0414 15385
3.06151 14962
3.08162 14288
3.10174 14099
3.12185 13654
3.14197 13346
3.16208 12886
3.18219 12251
3.20231 12206
3.22242 11565
3.24253 11140
3.26265 11053
3.28276 10439
3.30288 10245
3.32299 9769
3.3431 9395
3.36322 9299
3.38333 8800
3.40344 8445
3.42356 8181
3.44367 7943
3.46379 7834
3.4839 7155
3.50401 7162
3.52413 6830
3.54424 6536
3.56435 6441
3.58447 5878
3.60458 5775
3.62469 5474
3.64481 5308
3.66492 5118
3.68504 4777
3.70515 4768
3.72526 4406
3.74538 4319
3.76549 4298
3.7856 3876
3.80572 3889
3.82583 3584
3.84595 3436
3.86606 3368
3.88617 3054
3.90629 2952
3.9264 2889
3.94651 2759
3.96663 2766
3.98674 2547
4.00686 2432
4.02697 2269
4.04708 2238
4.0672 2303
4.08731 1930
4.10742 2033
4.12754 2018
4.14765 1877
4.16776 1950
4.18788 1731
4.20799 1705
4.22811 1746
4.24822 1633
4.26833 1638
4.28845 1464
4.30856 1452
4.32867 1530
4.34879 1304
4.3689 1534
4.38902 1334
4.40913 1352
4.42924 1285
4.44936 1209
4.46947 1252
4.48958 1084
4.5097 1216
4.52981 1115
4.54992 1072
4.57004 1001
4.59015 999
4.61027 923
4.63038 967
4.65049 890
4.67061 986
4.69072 835
4.71083 899
4.73095 920
4.75106 869
4.77118 826
4.79129 841
4.8114 773
4.83152 780
4.85163 721
4.87174 751
4.89186 739
4.91197 667
4.93209 691
4.9522 689
4.97231 714
4.99243 616
5.01254 574
5.03265 621
5.05277 655
5.07288 620
5.09299 549
5.11311 538
5.13322 570
5.15334 559
5.17345 552
5.19356 546
5.21368 518
5.23379 483
5.2539 531
5.27402 462
5.29413 484
5.31425 448
5.33436 438
5.35447 408
5.37459 389
5.3947 448
5.41481 398
5.43493 396
5.45504 369
5.47516 355
5.49527 390
5.51538 376
5.5355 337
5.55561 382
5.57572 326
5.59584 348
5.61595 338
5.63606 347
5.65618 374
5.67629 312
5.69641 310
5.71652 292
5.73663 278
5.75675 321
5.77686 307
5.79697 327
5.81709 316
5.8372 332
5.85732 310
5.87743 293
5.89754 273
5.91766 289
5.93777 270
5.95788 308
5.978 271
5.99811 271
6.01823 270
6.03834 270
6.05845 260
6.07857 284
6.09868 290
6.11879 269
6.13891 294
6.15902 279
6.17913 257
6.19925 291
6.21936 235
6.23948 285
6.25959 216
6.2797 257
6.29982 247
6.31993 264
6.34004 273
6.36016 236
6.38027 252
6.40039 244
6.4205 259
6.44061 254
6.46073 216
6.48084 255
6.50095 271
6.52107 232
6.54118 248
6.56129 245
6.58141 225
6.60152 213
6.62164 231
6.64175 237
6.66186 260
6.68198 220
6.70209 239
6.7222 224
6.74232 248
6.76243 221
6.78255 238
6.80266 257
6.82277 224
6.84289 223
6.863 243
6.88311 229
6.90323 248
6.92334 243
6.94346 212
6.96357 250
6.98368 242
7.0038 247
7.02391 225
7.04402 211
7.06414 241
7.08425 226
7.10436 229
7.12448 239
7.14459 275
7.16471 226
7.18482 226
7.20493 231
7.22505 228
7.24516 212
7.26527 253
7.28539 213
7.3055 230
7.32562 218
7.34573 216
7.36584 225
7.38596 264
7.40607 221
7.42618 232
7.4463 210
7.46641 211
7.48653 222
7.50664 225
7.52675 208
7.54687 231
7.56698 250
7.58709 240
7.60721 241
7.62732 220
7.64743 228
7.66755 258
7.68766 226
7.70778 225
7.72789 230
7.748 240
7.76812 247
7.78823 243
7.80834 252
7.82846 223
7.84857 217
7.86869 245
7.8888 246
7.90891 265
7.92903 248
7.94914 227
7.96925 274
7.98937 238
8.00948 219
8.0296 215
8.04971 221
8.06982 252
8.08994 251
8.11005 251
8.13016 251
8.15028 250
8.17039 254
8.1905 253
8.21062 231
8.23073 252
8.25085 245
8.27096 220
8.29107 228
8.31119 252
8.3313 230
8.35141 258
8.37153 247
8.39164 211
8.41176 251
8.43187 258
8.45198 250
8.4721 222
8.49221 247
8.51232 272
8.53244 249
8.55255 249
8.57266 256
8.59278 232
8.61289 239
8.63301 251
8.65312 277
8.67323 247
8.69335 262
8.71346 251
8.73357 258
8.75369 250
8.7738 254
8.79392 264
8.81403 265
8.83414 268
8.85426 234
8.87437 262
8.89448 235
8.9146 274
8.93471 240
8.95483 251
8.97494 239
8.99505 273
9.01517 253
9.03528 234
9.05539 246
9.07551 239
9.09562 270
9.11573 256
9.13585 248
9.15596 267
9.17608 278
9.19619 255
9.2163 272
9.23642 253
9.25653 276
9.27664 255
9.29676 252
9.31687 238
9.33699 240
9.3571 248
9.37721 252
9.39733 243
9.41744 255
9.43755 254
9.45767 215
9.47778 257
9.4979 216
9.51801 225
9.53812 242
9.55824 247
9.57835 247
9.59846 223
9.61858 235
9.63869 270
9.6588 265
9.67892 266
9.69903 236
9.71915 219
9.73926 226
9.75937 264
9.77949 271
9.7996 226
9.81971 249
9.83983 252
9.85994 245
9.88006 248
9.90017 255
9.92028 243
9.9404 254
9.96051 252
9.98062 210
10.00074 252
10.02085 237
10.04097 205
10.06108 234
10.08119 240
10.10131 250
10.12142 220
10.14153 230
10.16165 279
10.18176 277
10.20187 223
10.22199 296
10.2421 241
10.26222 254
10.28233 292
10.30244 254
10.32256 264
10.34267 240
10.36278 244
10.3829 274
10.40301 232
10.42313 248
10.44324 270
10.46335 255
10.48347 242
10.50358 265
10.52369 237
10.54381 257
10.56392 285
10.58403 266
10.60415 270
10.62426 241
10.64438 244
10.66449 245
10.6846 255
10.70472 236
10.72483 268
10.74494 222
10.76506 279
10.78517 283
10.80529 233
10.8254 253
10.84551 234
10.86563 273
10.88574 258
10.90585 279
10.92597 241
10.94608 260
10.9662 281
10.98631 274
11.00642 265
11.02654 240
11.04665 275
11.06676 229
11.08688 258
11.10699 263
11.1271 269
11.14722 264
11.16733 273
11.18745 269
11.20756 215
11.22767 263
11.24779 269
11.2679 278
11.28801 262
11.30813 252
11.32824 267
11.34836 273
11.36847 283
11.38858 251
11.4087 255
11.42881 281
11.44892 286
11.46904 265
11.48915 254
11.50927 297
11.52938 307
11.54949 308
11.56961 275
11.58972 269
11.60983 304
11.62995 283
11.65006 273
11.67017 300
11.69029 284
11.7104 252
11.73052 268
11.75063 289
11.77074 279
11.79086 307
11.81097 316
11.83108 257
11.8512 328
11.87131 334
11.89143 320
11.91154 311
11.93165 309
11.95177 281
11.97188 288
11.99199 300
12.01211 271
12.03222 300
12.05234 290
12.07245 294
12.09256 282
12.11268 279
12.13279 286
12.1529 312
12.17302 267
12.19313 280
12.21324 281
12.23336 296
12.25347 247
12.27359 279
12.2937 263
12.31381 288
12.33393 283
12.35404 270
12.37415 259
12.39427 239
12.41438 267
12.4345 280
12.45461 269
12.47472 246
12.49484 248
12.51495 258
12.53506 266
12.55518 227
12.57529 258
12.5954 257
12.61552 256
12.63563 242
12.65575 262
12.67586 250
12.69597 236
12.71609 228
12.7362 249
12.75631 245
12.77643 243
12.79654 234
12.81666 241
12.83677 235
12.85688 219
12.877 236
12.89711 225
12.91722 245
12.93734 241
12.95745 236
12.97757 232
12.99768 257
13.01779 243
13.03791 242
13.05802 234
13.07813 244
13.09825 278
13.11836 275
13.13847 283
13.15859 227
13.1787 260
13.19882 231
13.21893 249
13.23904 239
13.25916 253
13.27927 241
13.29938 252
13.3195 243
13.33961 265
13.35973 265
13.37984 255
13.39995 210
13.42007 220
13.44018 229
13.46029 256
13.48041 284
13.50052 263
13.52064 253
13.54075 286
13.56086 262
13.58098 273
13.60109 267
13.6212 269
13.64132 261
13.66143 258
13.68154 258
13.70166 247
13.72177 240
13.74189 248
13.762 250
13.78211 264
13.80223 263
13.82234 261
13.84245 239
13.86257 237
13.88268 246
13.9028 238
13.92291 235
13.94302 243
13.96314 218
13.98325 186
14.00336 224
14.02348 220
14.04359 219
14.06371 211
14.08382 214
14.10393 205
14.12405 217
14.14416 227
14.16427 211
14.18439 216
14.2045 225
14.22461 244
14.24473 231
14.26484 214
14.28496 210
14.30507 244
14.32518 228
14.3453 231
14.36541 219
14.38552 211
14.40564 217
14.42575 236
14.44587 213
14.46598 213
14.48609 193
14.50621 217
14.52632 226
14.54643 205
14.56655 212
14.58666 199
14.60677 207
14.62689 231
14.647 190
14.66712 228
14.68723 183
14.70734 192
14.72746 197
14.74757 202
14.76768 222
14.7878 190
14.80791 223
14.82803 248
14.84814 233
14.86825 223
14.88837 239
14.90848 255
14.92859 244
14.94871 245
14.96882 253
14.98894 231
15.00905 231
15.02916 227
15.04928 243
15.06939 231
15.0895 237
15.10962 232
15.12973 211
15.14984 209
15.16996 197
15.19007 212
15.21019 195
15.2303 213
15.25041 200
15.27053 244
15.29064 217
15.31075 207
15.33087 231
15.35098 201
15.3711 198
15.39121 200
15.41132 191
15.43144 219
15.45155 196
15.47166 210
15.49178 189
15.51189 190
15.53201 194
15.55212 187
15.57223 219
15.59235 213
15.61246 211
15.63257 242
15.65269 217
15.6728 180
15.69291 247
15.71303 213
15.73314 210
15.75326 199
15.77337 220
15.79348 198
15.8136 202
15.83371 224
15.85382 211
15.87394 222
15.89405 214
15.91417 198
15.93428 200
15.95439 187
15.97451 199
15.99462 206
16.01473 185
16.03485 215
16.05496 204
16.07508 188
16.09519 198
16.1153 185
16.13542 198
16.15553 193
16.17564 195
16.19576 181
16.21587 182
16.23598 190
16.2561 210
16.27621 201
16.29633 195
16.31644 196
16.33655 206
16.35667 213
16.37678 199
16.39689 197
16.41701 188
16.43712 193
16.45724 193
16.47735 207
16.49746 194
16.51758 219
16.53769 219
16.5578 168
16.57792 210
16.59803 222
16.61814 227
16.63826 220
16.65837 202
16.67849 222
16.6986 199
16.71871 188
16.73883 184
16.75894 204
16.77905 181
16.79917 210
16.81928 202
16.8394 182
16.85951 219
16.87962 188
16.89974 164
16.91985 186
16.93996 182
16.96008 213
16.98019 187
17.00031 183
17.02042 194
17.04053 195
17.06065 191
17.08076 189
17.10087 190
17.12099 223
17.1411 207
17.16121 185
17.18133 197
17.20144 214
17.22156 196
17.24167 183
17.26178 187
17.2819 216
17.30201 189
17.32212 196
17.34224 201
17.36235 212
17.38247 188
17.40258 199
17.42269 179
17.44281 173
17.46292 207
17.48303 188
17.50315 219
17.52326 198
17.54338 203
17.56349 207
17.5836 201
17.60372 189
17.62383 189
17.64394 193
17.66406 199
17.68417 232
17.70428 204
17.7244 169
17.74451 193
17.76463 166
17.78474 197
17.80485 190
17.82497 202
17.84508 189
17.86519 224
17.88531 182
17.90542 215
17.92554 181
17.94565 214
17.96576 202
17.98588 243
18.00599 200
18.0261 210
18.04622 206
18.06633 191
18.08645 193
18.10656 193
18.12667 197
18.14679 216
18.1669 213
18.18701 197
18.20713 191
18.22724 192
18.24735 190
18.26747 195
18.28758 185
18.3077 200
18.32781 203
18.34792 207
18.36804 198
18.38815 189
18.40826 208
18.42838 183
18.44849 219
18.46861 184
18.48872 198
18.50883 196
18.52895 201
18.54906 186
18.56917 203
18.58929 170
18.6094 207
18.62951 223
18.64963 206
18.66974 221
18.68986 218
18.70997 187
18.73008 224
18.7502 211
18.77031 211
18.79042 192
18.81054 193
18.83065 183
18.85077 205
18.87088 196
18.89099 188
18.91111 196
18.93122 198
18.95133 188
18.97145 191
18.99156 230
19.01168 212
19.03179 201
19.0519 209
19.07202 226
19.09213 193
19.11224 210
19.13236 234
19.15247 210
19.17258 224
19.1927 258
19.21281 210
19.23293 243
19.25304 236
19.27315 243
19.29327 235
19.31338 250
19.33349 225
19.35361 240
19.37372 190
19.39384 251
19.41395 220
19.43406 244
19.45418 257
19.47429 233
19.4944 248
19.51452 242
19.53463 279
19.55475 285
19.57486 263
19.59497 258
19.61509 283
19.6352 260
19.65531 273
19.67543 326
19.69554 311
19.71565 365
19.73577 339
19.75588 367
19.776 312
19.79611 368
19.81622 388
19.83634 419
19.85645 377
19.87656 383
19.89668 366
19.91679 373
19.93691 382
19.95702 412
19.97713 386
19.99725 380
20.01736 409
20.03747 390
20.05759 371
20.0777 359
20.09782 369
20.11793 388
20.13804 415
20.15816 362
20.17827 341
20.19838 360
20.2185 410
20.23861 397
20.25872 368
20.27884 394
20.29895 426
20.31907 378
20.33918 397
20.35929 421
20.37941 425
20.39952 446
20.41963 446
20.43975 456
20.45986 526
20.47998 461
20.50009 506
20.5202 567
20.54032 543
20.56043 666
20.58054 734
20.60066 812
20.62077 928
20.64088 1068
20.661 1407
20.68111 1711
20.70123 2186
20.72134 2741
20.74145 3386
20.76157 3759
20.78168 4092
20.80179 4098
20.82191 3818
20.84202 3290
20.86214 2787
20.88225 2131
20.90236 1733
20.92248 1340
20.94259 1151
20.9627 997
20.98282 923
21.00293 857
21.02305 723
21.04316 690
21.06327 629
21.08339 537
21.1035 491
21.12361 466
21.14373 461
21.16384 416
21.18395 386
21.20407 400
21.22418 379
21.2443 378
21.26441 373
21.28452 398
21.30464 360
21.32475 367
21.34486 357
21.36498 350
21.38509 337
21.40521 337
21.42532 366
21.44543 306
21.46555 314
21.48566 322
21.50577 339
21.52589 304
21.546 302
21.56612 301
21.58623 313
21.60634 310
21.62646 311
21.64657 289
21.66668 287
21.6868 299
21.70691 318
21.72702 357
21.74714 347
21.76725 318
21.78737 343
21.80748 360
21.82759 393
21.84771 393
21.86782 438
21.88793 472
21.90805 518
21.92816 516
21.94828 505
21.96839 490
21.9885 462
22.00862 419
22.02873 413
22.04884 375
22.06896 348
22.08907 331
22.10919 343
22.1293 320
22.14941 311
22.16953 351
22.18964 300
22.20975 349
22.22987 325
22.24998 319
22.27009 327
22.29021 312
22.31032 344
22.33044 311
22.35055 308
22.37066 283
22.39078 304
22.41089 285
22.431 313
22.45112 314
22.47123 309
22.49135 331
22.51146 305
22.53157 300
22.55169 286
22.5718 298
22.59191 275
22.61203 317
22.63214 308
22.65225 293
22.67237 275
22.69248 290
22.7126 289
22.73271 296
22.75282 283
22.77294 315
22.79305 281
22.81316 334
22.83328 322
22.85339 353
22.87351 333
22.89362 335
22.91373 333
22.93385 316
22.95396 378
22.97407 354
22.99419 352
23.0143 325
23.03442 351
23.05453 358
23.07464 361
23.09476 384
23.11487 370
23.13498 392
23.1551 385
23.17521 373
23.19532 385
23.21544 333
23.23555 365
23.25567 353
23.27578 378
23.29589 343
23.31601 373
23.33612 320
23.35623 402
23.37635 360
23.39646 414
23.41658 417
23.43669 453
23.4568 412
23.47692 430
23.49703 414
23.51714 447
23.53726 451
23.55737 414
23.57749 452
23.5976 430
23.61771 403
23.63783 369
23.65794 394
23.67805 358
23.69817 371
23.71828 361
23.73839 399
23.75851 349
23.77862 355
23.79874 381
23.81885 408
23.83896 487
23.85908 418
23.87919 417
23.8993 462
23.91942 489
23.93953 441
23.95965 496
23.97976 457
23.99987 427
24.01999 448
24.0401 415
24.06021 412
24.08033 395
24.10044 417
24.12056 412
24.14067 391
24.16078 415
24.1809 441
24.20101 399
24.22112 407
24.24124 435
24.26135 404
24.28146 359
24.30158 370
24.32169 392
24.34181 370
24.36192 364
24.38203 348
24.40215 344
24.42226 353
24.44237 327
24.46249 307
24.4826 316
24.50272 348
24.52283 348
24.54294 334
24.56306 353
24.58317 340
24.60328 337
24.6234 368
24.64351 353
24.66362 364
24.68374 315
24.70385 345
24.72397 343
24.74408 351
24.76419 341
24.78431 341
24.80442 343
24.82453 337
24.84465 327
24.86476 349
24.88488 328
24.90499 288
24.9251 341
24.94522 339
24.96533 344
24.98544 342
25.00556 346
25.02567 348
25.04579 351
25.0659 344
25.08601 342
25.10613 352
25.12624 372
25.14635 345
25.16647 340
25.18658 343
25.20669 387
25.22681 356
25.24692 358
25.26704 372
25.28715 414
25.30726 419
25.32738 408
25.34749 424
25.3676 433
25.38772 467
25.40783 493
25.42795 514
25.44806 571
25.46817 608
25.48829 581
25.5084 632
25.52851 615
25.54863 653
25.56874 592
25.58886 563
25.60897 618
25.62908 566
25.6492 556
25.66931 529
25.68942 555
25.70954 487
25.72965 506
25.74976 516
25.76988 475
25.78999 474
25.81011 506
25.83022 461
25.85033 500
25.87045 498
25.89056 503
25.91067 566
25.93079 566
25.9509 580
25.97102 568
25.99113 607
26.01124 633
26.03136 662
26.05147 669
26.07158 708
26.0917 772
26.11181 755
26.13193 886
26.15204 961
26.17215 988
26.19227 1070
26.21238 1086
26.23249 1253
26.25261 1349
26.27272 1549
26.29283 1755
26.31295 2096
26.33306 2326
26.35318 2628
26.37329 3314
26.3934 4046
26.41352 5042
26.43363 6483
26.45374 8076
26.47386 10365
26.49397 12447
26.51409 14950
26.5342 16947
26.55431 18111
26.57443 17865
26.59454 16833
26.61465 14585
26.63477 11897
26.65488 9498
26.67499 7074
26.69511 4944
26.71522 3615
26.73534 2582
26.75545 2083
26.77556 1719
26.79568 1480
26.81579 1350
26.8359 1243
26.85602 1232
26.87613 1153
26.89625 1081
26.91636 1136
26.93647 1066
26.95659 1079
26.9767 1039
26.99681 988
27.01693 962
27.03704 954
27.05716 942
27.07727 806
27.09738 802
27.1175 741
27.13761 680
27.15772 688
27.17784 649
27.19795 680
27.21806 746
27.23818 733
27.25829 783
27.27841 782
27.29852 831
27.31863 926
27.33875 967
27.35886 1027
27.37897 1076
27.39909 1120
27.4192 1048
27.43932 1069
27.45943 931
27.47954 925
27.49966 791
27.51977 726
27.53988 639
27.56 643
27.58011 650
27.60023 610
27.62034 584
27.64045 625
27.66057 662
27.68068 700
27.70079 707
27.72091 700
27.74102 699
27.76113 697
27.78125 697
27.80136 769
27.82148 732
27.84159 782
27.8617 786
27.88182 730
27.90193 636
27.92204 654
27.94216 642
27.96227 597
27.98239 522
28.0025 493
28.02261 458
28.04273 360
28.06284 427
28.08295 383
28.10307 392
28.12318 375
28.1433 399
28.16341 392
28.18352 408
28.20364 368
28.22375 395
28.24386 353
28.26398 365
28.28409 318
28.3042 347
28.32432 313
28.34443 313
28.36455 281
28.38466 318
28.40477 285
28.42489 282
28.445 325
28.46511 272
28.48523 286
28.50534 294
28.52546 266
28.54557 288
28.56568 285
28.5858 260
28.60591 253
28.62602 282
28.64614 273
28.66625 284
28.68636 259
28.70648 245
28.72659 260
28.74671 238
28.76682 220
28.78693 266
28.80705 248
28.82716 262
28.84727 246
28.86739 234
28.8875 290
28.90762 247
28.92773 260
28.94784 269
28.96796 240
28.98807 240
29.00818 254
29.0283 266
29.04841 234
29.06853 260
29.08864 247
29.10875 282
29.12887 281
29.14898 277
29.16909 274
29.18921 286
29.20932 293
29.22943 257
29.24955 307
29.26966 291
29.28978 299
29.30989 305
29.33 325
29.35012 329
29.37023 333
29.39034 297
29.41046 339
29.43057 338
29.45069 323
29.4708 293
29.49091 321
29.51103 309
29.53114 331
29.55125 300
29.57137 333
29.59148 317
29.6116 313
29.63171 307
29.65182 341
29.67194 361
29.69205 351
29.71216 360
29.73228 375
29.75239 379
29.7725 346
29.79262 349
29.81273 352
29.83285 359
29.85296 335
29.87307 326
29.89319 324
29.9133 348
29.93341 344
29.95353 326
29.97364 360
29.99376 321
30.01387 306
30.03398 352
30.0541 369
30.07421 347
30.09432 359
30.11444 363
30.13455 352
30.15467 342
30.17478 366
30.19489 346
30.21501 371
30.23512 404
30.25523 349
30.27535 386
30.29546 346
30.31557 393
30.33569 364
30.3558 377
30.37592 348
30.39603 370
30.41614 355
30.43626 326
30.45637 328
30.47648 295
30.4966 357
30.51671 282
30.53683 292
30.55694 311
30.57705 306
30.59717 378
30.61728 334
30.63739 388
30.65751 367
30.67762 412
30.69773 413
30.71785 393
30.73796 385
30.75808 357
30.77819 380
30.7983 358
30.81842 345
30.83853 313
30.85864 300
30.87876 298
30.89887 266
30.91899 288
30.9391 252
30.95921 261
30.97933 209
30.99944 236
31.01955 217
31.03967 247
31.05978 231
31.0799 229
31.10001 247
31.12012 254
31.14024 241
31.16035 219
31.18046 220
31.20058 250
31.22069 215
31.2408 238
31.26092 242
31.28103 230
31.30115 221
31.32126 236
31.34137 233
31.36149 196
31.3816 215
31.40171 237
31.42183 227
31.44194 228
31.46206 201
31.48217 215
31.50228 223
31.5224 244
31.54251 229
31.56262 249
31.58274 226
31.60285 228
31.62297 223
31.64308 214
31.66319 215
31.68331 207
31.70342 214
31.72353 224
31.74365 235
31.76376 213
31.78387 226
31.80399 213
31.8241 216
31.84422 203
31.86433 212
31.88444 208
31.90456 186
31.92467 230
31.94478 225
31.9649 263
31.98501 212
32.00513 235
32.02524 233
32.04535 258
32.06547 198
32.08558 247
32.10569 235
32.12581 225
32.14592 240
32.16604 235
32.18615 260
32.20626 265
32.22638 273
32.24649 267
32.2666 247
32.28672 245
32.30683 250
32.32694 234
32.34706 281
32.36717 246
32.38729 243
32.4074 256
32.42751 228
32.44763 246
32.46774 223
32.48785 238
32.50797 215
32.52808 228
32.5482 228
32.56831 180
32.58842 212
32.60854 227
32.62865 196
32.64876 209
32.66888 196
32.68899 199
32.7091 212
32.72922 202
32.74933 231
32.76945 197
32.78956 177
32.80967 206
32.82979 225
32.8499 223
32.87001 223
32.89013 239
32.91024 210
32.93036 242
32.95047 234
32.97058 230
32.9907 237
33.01081 229
33.03092 220
33.05104 235
33.07115 198
33.09127 245
33.11138 235
33.13149 207
33.15161 192
33.17172 209
33.19183 223
33.21195 199
33.23206 231
33.25217 206
33.27229 214
33.2924 203
33.31252 204
33.33263 223
33.35274 256
33.37286 214
33.39297 213
33.41308 207
33.4332 219
33.45331 215
33.47343 216
33.49354 185
33.51365 228
33.53377 216
33.55388 212
33.57399 198
33.59411 205
33.61422 203
33.63434 183
33.65445 221
33.67456 252
33.69468 224
33.71479 181
33.7349 207
33.75502 251
33.77513 216
33.79524 230
33.81536 207
33.83547 242
33.85559 223
33.8757 222
33.89581 232
33.91593 222
33.93604 262
33.95615 201
33.97627 236
33.99638 220
34.0165 232
34.03661 265
34.05672 257
34.07684 263
34.09695 235
34.11706 276
34.13718 253
34.15729 302
34.17741 268
34.19752 277
34.21763 282
34.23775 272
34.25786 256
34.27797 266
34.29809 243
34.3182 244
34.33831 255
34.35843 253
34.37854 276
34.39866 285
34.41877 254
34.43888 324
34.459 264
34.47911 245
34.49922 259
34.51934 282
34.53945 283
34.55957 279
34.57968 301
34.59979 301
34.61991 275
34.64002 285
34.66013 294
34.68025 312
34.70036 308
34.72047 332
34.74059 319
34.7607 288
34.78082 308
34.80093 316
34.82104 337
34.84116 333
34.86127 308
34.88138 312
34.9015 304
34.92161 336
34.94173 326
34.96184 303
34.98195 320
35.00207 346
35.02218 341
35.04229 330
35.06241 313
35.08252 357
35.10264 328
35.12275 324
35.14286 354
35.16298 310
35.18309 342
35.2032 327
35.22332 330
35.24343 322
35.26354 340
35.28366 303
35.30377 346
35.32389 331
35.344 313
35.36411 347
35.38423 332
35.40434 359
35.42445 349
35.44457 346
35.46468 343
35.4848 289
35.50491 333
35.52502 379
35.54514 326
35.56525 308
35.58536 318
35.60548 327
35.62559 299
35.64571 331
35.66582 337
35.68593 267
35.70605 335
35.72616 277
35.74627 269
35.76639 292
35.7865 289
35.80661 250
35.82673 281
35.84684 297
35.86696 284
35.88707 300
35.90718 280
35.9273 284
35.94741 281
35.96752 271
35.98764 276
36.00775 314
36.02787 293
36.04798 300
36.06809 330
36.08821 283
36.10832 322
36.12843 310
36.14855 298
36.16866 342
36.18878 373
36.20889 400
36.229 397
36.24912 410
36.26923 496
36.28934 545
36.30946 643
36.32957 703
36.34968 768
36.3698 941
36.38991 1092
36.41003 1177
36.43014 1307
36.45025 1339
36.47037 1316
36.49048 1274
36.51059 1209
36.53071 1097
36.55082 896
36.57094 811
36.59105 626
36.61116 625
36.63128 480
36.65139 448
36.6715 412
36.69162 341
36.71173 367
36.73184 326
36.75196 306
36.77207 330
36.79219 312
36.8123 337
36.83241 323
36.85253 304
36.87264 327
36.89275 306
36.91287 299
36.93298 314
36.9531 316
36.97321 318
36.99332 302
37.01344 307
37.03355 308
37.05366 313
37.07378 275
37.09389 283
37.11401 304
37.13412 305
37.15423 299
37.17435 271
37.19446 255
37.21457 262
37.23469 255
37.2548 264
37.27491 267
37.29503 283
37.31514 260
37.33526 250
37.35537 265
37.37548 258
37.3956 266
37.41571 241
37.43582 259
37.45594 241
37.47605 292
37.49617 251
37.51628 296
37.53639 260
37.55651 279
37.57662 297
37.59673 228
37.61685 249
37.63696 237
37.65708 250
37.67719 238
37.6973 247
37.71742 260
37.73753 241
37.75764 246
37.77776 233
37.79787 239
37.81798 231
37.8381 230
37.85821 238
37.87833 218
37.89844 254
37.91855 232
37.93867 255
37.95878 214
37.97889 226
37.99901 232
38.01912 248
38.03924 210
38.05935 200
38.07946 234
38.09958 243
38.11969 239
38.1398 250
38.15992 236
38.18003 216
38.20015 220
38.22026 250
38.24037 250
38.26049 254
38.2806 280
38.30071 245
38.32083 255
38.34094 234
38.36105 260
38.38117 259
38.40128 275
38.4214 238
38.44151 233
38.46162 267
38.48174 272
38.50185 309
38.52196 305
38.54208 263
38.56219 255
38.58231 263
38.60242 228
38.62253 280
38.64265 235
38.66276 263
38.68287 238
38.70299 232
38.7231 240
38.74321 227
38.76333 230
38.78344 237
38.80356 242
38.82367 269
38.84378 261
38.8639 238
38.88401 223
38.90412 271
38.92424 256
38.94435 251
38.96447 250
38.98458 295
39.00469 273
39.02481 280
39.04492 277
39.06503 308
39.08515 298
39.10526 313
39.12538 358
39.14549 362
39.1656 389
39.18572 436
39.20583 489
39.22594 570
39.24606 598
39.26617 731
39.28628 826
39.3064 944
39.32651 1074
39.34663 1125
39.36674 1234
39.38685 1233
39.40697 1156
39.42708 1143
39.44719 1019
39.46731 888
39.48742 839
39.50754 726
39.52765 618
39.54776 493
39.56788 429
39.58799 372
39.6081 332
39.62822 331
39.64833 271
39.66845 273
39.68856 284
39.70867 294
39.72879 293
39.7489 235
39.76901 259
39.78913 240
39.80924 265
39.82935 232
39.84947 294
39.86958 260
39.8897 254
39.90981 251
39.92992 265
39.95004 277
39.97015 295
39.99026 281
40.01038 319
40.03049 339
40.05061 361
40.07072 423
40.09083 439
40.11095 509
40.13106 582
40.15117 605
40.17129 659
40.1914 679
40.21152 719
40.23163 727
40.25174 611
40.27186 594
40.29197 523
40.31208 473
40.3322 411
40.35231 376
40.37242 332
40.39254 300
40.41265 265
40.43277 285
40.45288 225
40.47299 241
40.49311 243
40.51322 216
40.53333 226
40.55345 240
40.57356 216
40.59368 214
40.61379 230
40.6339 195
40.65402 206
40.67413 214
40.69424 244
40.71436 214
40.73447 218
40.75458 226
40.7747 211
40.79481 217
40.81493 218
40.83504 197
40.85515 226
40.87527 219
40.89538 212
40.91549 194
40.93561 221
40.95572 201
40.97584 202
40.99595 219
41.01606 212
41.03618 204
41.05629 239
41.0764 206
41.09652 219
41.11663 212
41.13675 186
41.15686 206
41.17697 216
41.19709 231
41.2172 233
41.23731 208
41.25743 187
41.27754 226
41.29765 235
41.31777 216
41.33788 239
41.358 233
41.37811 229
41.39822 234
41.41834 224
41.43845 225
41.45856 241
41.47868 233
41.49879 249
41.51891 259
41.53902 288
41.55913 282
41.57925 257
41.59936 284
41.61947 318
41.63959 323
41.6597 319
41.67982 316
41.69993 373
41.72004 356
41.74016 324
41.76027 305
41.78038 346
41.8005 325
41.82061 324
41.84072 284
41.86084 283
41.88095 291
41.90107 252
41.92118 291
41.94129 285
41.96141 262
41.98152 251
42.00163 255
42.02175 265
42.04186 234
42.06198 270
42.08209 318
42.1022 315
42.12232 298
42.14243 358
42.16254 352
42.18266 431
42.20277 451
42.22289 530
42.243 569
42.26311 627
42.28323 742
42.30334 790
42.32345 909
42.34357 912
42.36368 941
42.38379 939
42.40391 836
42.42402 802
42.44414 729
42.46425 686
42.48436 545
42.50448 518
42.52459 457
42.5447 395
42.56482 351
42.58493 312
42.60505 287
42.62516 291
42.64527 287
42.66539 242
42.6855 256
42.70561 267
42.72573 239
42.74584 270
42.76595 252
42.78607 235
42.80618 226
42.8263 247
42.84641 254
42.86652 201
42.88664 221
42.90675 229
42.92686 209
42.94698 212
42.96709 220
42.98721 199
43.00732 224
43.02743 232
43.04755 225
43.06766 196
43.08777 242
43.10789 226
43.128 200
43.14812 185
43.16823 198
43.18834 208
43.20846 194
43.22857 219
43.24868 215
43.2688 196
43.28891 191
43.30902 194
43.32914 209
43.34925 194
43.36937 210
43.38948 205
43.40959 200
43.42971 199
43.44982 207
43.46993 211
43.49005 192
43.51016 199
43.53028 211
43.55039 190
43.5705 198
43.59062 201
43.61073 215
43.63084 191
43.65096 186
43.67107 212
43.69119 207
43.7113 228
43.73141 203
43.75153 203
43.77164 201
43.79175 167
43.81187 170
43.83198 188
43.85209 194
43.87221 209
43.89232 207
43.91244 190
43.93255 196
43.95266 199
43.97278 190
43.99289 199
44.013 206
44.03312 193
44.05323 214
44.07335 188
44.09346 195
44.11357 204
44.13369 195
44.1538 178
44.17391 223
44.19403 191
44.21414 202
44.23426 202
44.25437 194
44.27448 186
44.2946 189
44.31471 201
44.33482 190
44.35494 206
44.37505 187
44.39516 197
44.41528 191
44.43539 191
44.45551 201
44.47562 179
44.49573 186
44.51585 196
44.53596 212
44.55607 194
44.57619 199
44.5963 189
44.61642 205
44.63653 241
44.65664 194
44.67676 210
44.69687 197
44.71698 197
44.7371 176
44.75721 217
44.77732 189
44.79744 201
44.81755 202
44.83767 206
44.85778 184
44.87789 190
44.89801 198
44.91812 199
44.93823 183
44.95835 202
44.97846 212
44.99858 205
45.01869 203
45.0388 205
45.05892 221
45.07903 211
45.09914 216
45.11926 200
45.13937 198
45.15949 199
45.1796 193
45.19971 217
45.21983 206
45.23994 238
45.26005 237
45.28017 222
45.30028 236
45.32039 238
45.34051 211
45.36062 266
45.38074 232
45.40085 237
45.42096 269
45.44108 260
45.46119 286
45.4813 332
45.50142 348
45.52153 376
45.54165 385
45.56176 451
45.58187 452
45.60199 529
45.6221 605
45.64221 623
45.66233 640
45.68244 694
45.70256 719
45.72267 700
45.74278 628
45.7629 617
45.78301 562
45.80312 455
45.82324 480
45.84335 429
45.86346 375
45.88358 349
45.90369 286
45.92381 294
45.94392 238
45.96403 231
45.98415 259
46.00426 202
46.02437 221
46.04449 236
46.0646 183
46.08472 237
46.10483 196
46.12494 215
46.14506 197
46.16517 200
46.18528 198
46.2054 201
46.22551 186
46.24563 206
46.26574 192
46.28585 217
46.30597 200
46.32608 217
46.34619 194
46.36631 215
46.38642 215
46.40653 182
46.42665 185
46.44676 179
46.46688 215
46.48699 191
46.5071 189
46.52722 200
46.54733 187
46.56744 192
46.58756 192
46.60767 180
46.62779 176
46.6479 187
46.66801 221
46.68813 195
46.70824 207
46.72835 166
46.74847 207
46.76858 191
46.78869 198
46.80881 209
46.82892 212
46.84904 201
46.86915 209
46.88926 216
46.90938 189
46.92949 209
46.9496 206
46.96972 201
46.98983 200
47.00995 214
47.03006 203
47.05017 230
47.07029 245
47.0904 211
47.11051 216
47.13063 188
47.15074 218
47.17086 194
47.19097 223
47.21108 198
47.2312 219
47.25131 204
47.27142 197
47.29154 196
47.31165 232
47.33176 198
47.35188 207
47.37199 215
47.39211 216
47.41222 234
47.43233 227
47.45245 224
47.47256 191
47.49267 225
47.51279 216
47.5329 199
47.55302 210
47.57313 198
47.59324 193
47.61336 196
47.63347 184
47.65358 205
47.6737 162
47.69381 176
47.71393 201
47.73404 186
47.75415 211
47.77427 189
47.79438 207
47.81449 189
47.83461 196
47.85472 184
47.87483 194
47.89495 186
47.91506 185
47.93518 200
47.95529 197
47.9754 174
47.99552 211
48.01563 188
48.03574 201
48.05586 177
48.07597 185
48.09609 182
48.1162 204
48.13631 172
48.15643 203
48.17654 197
48.19665 185
48.21677 179
48.23688 191
48.257 219
48.27711 190
48.29722 183
48.31734 193
48.33745 208
48.35756 196
48.37768 202
48.39779 220
48.4179 184
48.43802 192
48.45813 193
48.47825 208
48.49836 190
48.51847 195
48.53859 182
48.5587 196
48.57881 212
48.59893 182
48.61904 212
48.63916 189
48.65927 216
48.67938 210
48.6995 220
48.71961 249
48.73972 201
48.75984 236
48.77995 238
48.80006 204
48.82018 229
48.84029 233
48.86041 232
48.88052 228
48.90063 247
48.92075 229
48.94086 245
48.96097 249
48.98109 228
49.0012 243
49.02132 234
49.04143 208
49.06154 229
49.08166 259
49.10177 216
49.12188 231
49.142 244
49.16211 232
49.18223 239
49.20234 226
49.22245 212
49.24257 240
49.26268 209
49.28279 228
49.30291 213
49.32302 199
49.34313 211
49.36325 240
49.38336 208
49.40348 214
49.42359 259
49.4437 265
49.46382 281
49.48393 248
49.50404 281
49.52416 291
49.54427 283
49.56439 258
49.5845 307
49.60461 259
49.62473 290
49.64484 337
49.66495 352
49.68507 354
49.70518 347
49.7253 409
49.74541 448
49.76552 442
49.78564 521
49.80575 509
49.82586 602
49.84598 675
49.86609 745
49.8862 841
49.90632 962
49.92643 1152
49.94655 1213
49.96666 1411
49.98677 1622
50.00689 1730
50.027 1851
50.04711 1910
50.06723 1915
50.08734 1748
50.10746 1550
50.12757 1486
50.14768 1243
50.1678 1232
50.18791 1108
50.20802 982
50.22814 846
50.24825 657
50.26837 601
50.28848 477
50.30859 457
50.32871 433
50.34882 367
50.36893 401
50.38905 347
50.40916 378
50.42927 396
50.44939 374
50.4695 419
50.48962 441
50.50973 397
50.52984 426
50.54996 423
50.57007 412
50.59018 367
50.6103 353
50.63041 349
50.65053 331
50.67064 344
50.69075 302
50.71087 294
50.73098 281
50.75109 288
50.77121 281
50.79132 276
50.81143 246
50.83155 245
50.85166 208
50.87178 224
50.89189 222
50.912 219
50.93212 211
50.95223 205
50.97234 235
50.99246 251
51.01257 212
51.03269 226
51.0528 250
51.07291 219
51.09303 235
51.11314 242
51.13325 225
51.15337 201
51.17348 238
51.1936 233
51.21371 232
51.23382 202
51.25394 242
51.27405 218
51.29416 194
51.31428 217
51.33439 183
51.3545 209
51.37462 209
51.39473 199
51.41485 192
51.43496 178
51.45507 193
51.47519 182
51.4953 194
51.51541 200
51.53553 181
51.55564 190
51.57576 178
51.59587 199
51.61598 170
51.6361 188
51.65621 161
51.67632 195
51.69644 170
51.71655 172
51.73667 146
51.75678 200
51.77689 187
51.79701 144
51.81712 198
51.83723 168
51.85735 193
51.87746 175
51.89757 186
51.91769 178
51.9378 187
51.95792 181
51.97803 186
51.99814 149
52.01826 177
52.03837 172
52.05848 179
52.0786 168
52.09871 199
52.11883 182
52.13894 175
52.15905 170
52.17917 180
52.19928 187
52.21939 182
52.23951 181
52.25962 167
52.27974 178
52.29985 175
52.31996 176
52.34008 190
52.36019 194
52.3803 170
52.40042 177
52.42053 184
52.44064 189
52.46076 205
52.48087 196
52.50099 185
52.5211 173
52.54121 197
52.56133 177
52.58144 206
52.60155 191
52.62167 172
52.64178 197
52.6619 176
52.68201 202
52.70212 187
52.72224 162
52.74235 187
52.76246 173
52.78258 199
52.80269 168
52.8228 181
52.84292 164
52.86303 194
52.88315 182
52.90326 195
52.92337 194
52.94349 181
52.9636 174
52.98371 180
53.00383 191
53.02394 192
53.04406 207
53.06417 199
53.08428 209
53.1044 201
53.12451 188
53.14462 174
53.16474 193
53.18485 192
53.20497 181
53.22508 209
53.24519 184
53.26531 186
53.28542 179
53.30553 185
53.32565 177
53.34576 194
53.36587 174
53.38599 171
53.4061 191
53.42622 174
53.44633 168
53.46644 178
53.48656 182
53.50667 179
53.52678 221
53.5469 207
53.56701 204
53.58713 195
53.60724 183
53.62735 184
53.64747 184
53.66758 187
53.68769 207
53.70781 178
53.72792 175
53.74804 187
53.76815 187
53.78826 195
53.80838 203
53.82849 199
53.8486 194
53.86872 187
53.88883 196
53.90894 206
53.92906 221
53.94917 212
53.96929 206
53.9894 215
54.00951 198
54.02963 234
54.04974 232
54.06985 210
54.08997 200
54.11008 175
54.1302 204
54.15031 221
54.17042 218
54.19054 208
54.21065 233
54.23076 209
54.25088 221
54.27099 229
54.29111 230
54.31122 230
54.33133 224
54.35145 227
54.37156 252
54.39167 265
54.41179 261
54.4319 230
54.45201 266
54.47213 259
54.49224 284
54.51236 279
54.53247 302
54.55258 310
54.5727 340
54.59281 352
54.61292 395
54.63304 434
54.65315 441
54.67327 502
54.69338 562
54.71349 593
54.73361 633
54.75372 675
54.77383 695
54.79395 697
54.81406 653
54.83417 633
54.85429 540
54.8744 557
54.89452 505
54.91463 466
54.93474 459
54.95486 439
54.97497 422
54.99508 357
55.0152 337
55.03531 344
55.05543 338
55.07554 303
55.09565 321
55.11577 319
55.13588 350
55.15599 377
55.17611 393
55.19622 412
55.21634 397
55.23645 404
55.25656 386
55.27668 417
55.29679 389
55.3169 356
55.33702 319
55.35713 337
55.37724 318
55.39736 304
55.41747 295
55.43759 262
55.4577 247
55.47781 251
55.49793 254
55.51804 224
55.53815 223
55.55827 214
55.57838 218
55.5985 225
55.61861 198
55.63872 199
55.65884 184
55.67895 199
55.69906 205
55.71918 199
55.73929 218
55.75941 218
55.77952 213
55.79963 190
55.81975 177
55.83986 191
55.85997 183
55.88009 189
55.9002 189
55.92031 196
55.94043 201
55.96054 181
55.98066 183
56.00077 187
56.02088 184
56.041 179
56.06111 195
56.08122 183
56.10134 192
56.12145 173
56.14157 173
56.16168 187
56.18179 169
56.20191 198
56.22202 171
56.24213 189
56.26225 210
56.28236 184
56.30248 191
56.32259 190
56.3427 185
56.36282 162
56.38293 145
56.40304 175
56.42316 170
56.44327 163
56.46338 170
56.4835 164
56.50361 185
56.52373 190
56.54384 171
56.56395 202
56.58407 185
56.60418 190
56.62429 184
56.64441 197
56.66452 181
56.68464 190
56.70475 205
56.72486 172
56.74498 186
56.76509 191
56.7852 181
56.80532 172
56.82543 181
56.84554 174
56.86566 187
56.88577 178
56.90589 184
56.926 184
56.94611 192
56.96623 194
56.98634 183
57.00645 184
57.02657 190
57.04668 195
57.0668 205
57.08691 202
57.10702 199
57.12714 207
57.14725 206
57.16736 191
57.18748 192
57.20759 195
57.22771 195
57.24782 185
57.26793 202
57.28805 210
57.30816 189
57.32827 197
57.34839 217
57.3685 197
57.38861 195
57.40873 173
57.42884 190
57.44896 192
57.46907 189
57.48918 197
57.5093 201
57.52941 183
57.54952 186
57.56964 178
57.58975 182
57.60987 184
57.62998 156
57.65009 178
57.67021 167
57.69032 179
57.71043 194
57.73055 188
57.75066 181
57.77078 198
57.79089 171
57.811 193
57.83112 186
57.85123 188
57.87134 194
57.89146 183
57.91157 181
57.93168 173
57.9518 197
57.97191 187
57.99203 181
58.01214 193
58.03225 190
58.05237 192
58.07248 156
58.09259 176
58.11271 194
58.13282 190
58.15294 158
58.17305 165
58.19316 191
58.21328 167
58.23339 198
58.2535 199
58.27362 222
58.29373 185
58.31385 184
58.33396 200
58.35407 187
58.37419 192
58.3943 190
58.41441 180
58.43453 190
58.45464 199
58.47475 199
58.49487 178
58.51498 208
58.5351 208
58.55521 208
58.57532 223
58.59544 222
58.61555 193
58.63566 184
58.65578 208
58.67589 171
58.69601 182
58.71612 199
58.73623 224
58.75635 196
58.77646 199
58.79657 169
58.81669 203
58.8368 179
58.85691 197
58.87703 207
58.89714 177
58.91726 190
58.93737 189
58.95748 180
58.9776 180
58.99771 167
59.01782 191
59.03794 188
59.05805 178
59.07817 196
59.09828 195
59.11839 212
59.13851 197
59.15862 166
59.17873 190
59.19885 220
59.21896 212
59.23908 186
59.25919 231
59.2793 204
59.29942 216
59.31953 218
59.33964 214
59.35976 250
59.37987 213
59.39998 233
59.4201 253
59.44021 243
59.46033 266
59.48044 297
59.50055 299
59.52067 319
59.54078 324
59.56089 341
59.58101 334
59.60112 372
59.62124 408
59.64135 454
59.66146 538
59.68158 563
59.70169 588
59.7218 762
59.74192 767
59.76203 871
59.78215 982
59.80226 1108
59.82237 1241
59.84249 1222
59.8626 1242
59.88271 1235
59.90283 1100
59.92294 1031
59.94305 870
59.96317 851
59.98328 781
60.0034 768
60.02351 723
60.04362 658
60.06374 615
60.08385 519
60.10396 430
60.12408 368
60.14419 349
60.16431 313
60.18442 258
60.20453 248
60.22465 253
60.24476 252
60.26487 239
60.28499 249
60.3051 217
60.32522 246
60.34533 236
60.36544 212
60.38556 192
60.40567 209
60.42578 224
60.4459 208
60.46601 217
60.48612 217
60.50624 197
60.52635 197
60.54647 190
60.56658 213
60.58669 200
60.60681 229
60.62692 183
60.64703 210
60.66715 184
60.68726 187
60.70738 200
60.72749 207
60.7476 205
60.76772 199
60.78783 183
60.80794 227
60.82806 198
60.84817 172
60.86828 194
60.8884 212
60.90851 183
60.92863 184
60.94874 217
60.96885 197
60.98897 216
61.00908 207
61.02919 202
61.04931 197
61.06942 214
61.08954 222
61.10965 233
61.12976 206
61.14988 192
61.16999 200
61.1901 210
61.21022 235
61.23033 233
61.25045 180
61.27056 186
61.29067 179
61.31079 178
61.3309 198
61.35101 205
61.37113 177
61.39124 177
61.41135 200
61.43147 197
61.45158 201
61.4717 187
61.49181 207
61.51192 203
61.53204 187
61.55215 170
61.57226 192
61.59238 167
61.61249 218
61.63261 211
61.65272 215
61.67283 201
61.69295 211
61.71306 212
61.73317 198
61.75329 196
61.7734 225
61.79352 209
61.81363 219
61.83374 199
61.85386 220
61.87397 200
61.89408 221
61.9142 179
61.93431 199
61.95442 188
61.97454 197
61.99465 242
62.01477 237
62.03488 232
62.05499 233
62.07511 226
62.09522 214
62.11533 226
62.13545 230
62.15556 239
62.17568 220
62.19579 235
62.2159 226
62.23602 257
62.25613 201
62.27624 220
62.29636 221
62.31647 200
62.33659 220
62.3567 198
62.37681 205
62.39693 217
62.41704 198
62.43715 206
62.45727 209
62.47738 218
62.49749 210
62.51761 168
62.53772 205
62.55784 208
62.57795 197
62.59806 203
62.61818 201
62.63829 215
62.6584 231
62.67852 183
62.69863 200
62.71875 187
62.73886 209
62.75897 184
62.77909 190
62.7992 192
62.81931 220
62.83943 217
62.85954 204
62.87965 206
62.89977 196
62.91988 203
62.94 185
62.96011 199
62.98022 189
63.00034 207
63.02045 211
63.04056 210
63.06068 204
63.08079 195
63.10091 196
63.12102 192
63.14113 177
63.16125 187
63.18136 205
63.20147 204
63.22159 216
63.2417 204
63.26182 190
63.28193 201
63.30204 183
63.32216 190
63.34227 190
63.36238 188
63.3825 195
63.40261 202
63.42272 221
63.44284 194
63.46295 202
63.48307 230
63.50318 191
63.52329 220
63.54341 201
63.56352 228
63.58363 236
63.60375 219
63.62386 232
63.64398 247
63.66409 245
63.6842 261
63.70432 230
63.72443 258
63.74454 237
63.76466 269
63.78477 323
63.80489 340
63.825 336
63.84511 328
63.86523 369
63.88534 380
63.90545 422
63.92557 402
63.94568 365
63.96579 405
63.98591 393
64.00602 344
64.02614 331
64.04625 306
64.06636 309
64.08648 334
64.10659 321
64.1267 287
64.14682 310
64.16693 260
64.18705 275
64.20716 250
64.22727 230
64.24739 176
64.2675 220
64.28761 192
64.30773 228
64.32784 197
64.34796 210
64.36807 191
64.38818 202
64.4083 204
64.42841 181
64.44852 172
64.46864 157
64.48875 190
64.50886 174
64.52898 168
64.54909 184
64.56921 194
64.58932 166
64.60943 183
64.62955 201
64.64966 176
64.66977 176
64.68989 183
64.71 189
64.73012 176
64.75023 216
64.77034 178
64.79046 181
64.81057 193
64.83068 184
64.8508 177
64.87091 187
64.89102 205
64.91114 193
64.93125 193
64.95137 186
64.97148 176
64.99159 210
65.01171 185
65.03182 170
65.05193 207
65.07205 199
65.09216 209
65.11228 219
65.13239 222
65.1525 226
65.17262 220
65.19273 238
65.21284 198
65.23296 192
65.25307 165
65.27319 211
65.2933 200
65.31341 185
65.33353 168
65.35364 200
65.37375 204
65.39387 191
65.41398 183
65.43409 211
65.45421 189
65.47432 194
65.49444 196
65.51455 219
65.53466 207
65.55478 204
65.57489 205
65.595 211
65.61512 218
65.63523 224
65.65535 234
65.67546 212
65.69557 219
65.71569 230
65.7358 200
65.75591 232
65.77603 186
65.79614 200
65.81626 193
65.83637 214
65.85648 191
65.8766 194
65.89671 197
65.91682 203
65.93694 222
65.95705 220
65.97716 177
65.99728 199
66.01739 182
66.03751 192
66.05762 194
66.07773 179
66.09785 200
66.11796 193
66.13807 183
66.15819 200
66.1783 182
66.19842 198
66.21853 193
66.23864 193
66.25876 196
66.27887 195
66.29898 193
66.3191 176
66.33921 189
66.35933 175
66.37944 187
66.39955 222
66.41967 203
66.43978 212
66.45989 196
66.48001 182
66.50012 196
66.52023 208
66.54035 215
66.56046 178
66.58058 217
66.60069 181
66.6208 196
66.64092 187
66.66103 180
66.68114 192
66.70126 193
66.72137 199
66.74149 180
66.7616 185
66.78171 196
66.80183 201
66.82194 185
66.84205 223
66.86217 205
66.88228 218
66.90239 178
66.92251 204
66.94262 212
66.96274 227
66.98285 197
67.00296 214
67.02308 199
67.04319 197
67.0633 222
67.08342 218
67.10353 206
67.12365 247
67.14376 254
67.16387 213
67.18399 211
67.2041 254
67.22421 232
67.24433 265
67.26444 267
67.28456 233
67.30467 285
67.32478 275
67.3449 295
67.36501 307
67.38512 301
67.40524 349
67.42535 358
67.44546 435
67.46558 415
67.48569 476
67.50581 534
67.52592 577
67.54603 654
67.56615 709
67.58626 727
67.60637 882
67.62649 855
67.6466 842
67.66672 771
67.68683 753
67.70694 740
67.72706 677
67.74717 688
67.76728 634
67.7874 649
67.80751 695
67.82763 741
67.84774 726
67.86785 768
67.88797 759
67.90808 824
67.92819 832
67.94831 840
67.96842 900
67.98853 1031
68.00865 1098
68.02876 1153
68.04888 1116
68.06899 1084
68.0891 1076
68.10922 1041
68.12933 1030
68.14944 1016
68.16956 974
68.18967 1001
68.20979 1039
68.2299 1010
68.25001 924
68.27013 808
68.29024 750
68.31035 664
68.33047 566
68.35058 565
68.3707 514
68.39081 499
68.41092 510
68.43104 422
68.45115 415
68.47126 377
68.49138 317
68.51149 287
68.5316 280
68.55172 257
68.57183 235
68.59195 229
68.61206 235
68.63217 220
68.65229 210
68.6724 198
68.69251 214
68.71263 215
68.73274 204
68.75286 218
68.77297 207
68.79308 195
68.8132 184
68.83331 203
68.85342 186
68.87354 201
68.89365 212
68.91376 208
68.93388 194
68.95399 185
68.97411 199
68.99422 190
69.01433 169
69.03445 202
69.05456 200
69.07467 174
69.09479 188
69.1149 183
69.13502 194
69.15513 164
69.17524 201
69.19536 192
69.21547 194
69.23558 188
69.2557 189
69.27581 201
69.29593 163
69.31604 175
69.33615 191
69.35627 169
69.37638 179
69.39649 203
69.41661 161
69.43672 183
69.45683 174
69.47695 164
69.49706 155
69.51718 181
69.53729 183
69.5574 162
69.57752 161
69.59763 188
69.61774 183
69.63786 181
69.65797 176
69.67809 201
69.6982 203
69.71831 167
69.73843 191
69.75854 184
69.77865 157
69.79877 146
69.81888 167
69.839 181
69.85911 145
69.87922 207
69.89934 169
69.91945 180
69.93956 167
69.95968 161
69.97979 136
69.9999 172
70.02002 176
70.04013 161
70.06025 156
70.08036 149
70.10047 172
70.12059 157
70.1407 152
70.16081 162
70.18093 160
70.20104 172
70.22116 149
70.24127 168
70.26138 179
70.2815 168
70.30161 172
70.32172 178
70.34184 192
70.36195 162
70.38207 165
70.40218 151
70.42229 172
70.44241 154
70.46252 156
70.48263 160
70.50275 159
70.52286 190
70.54297 166
70.56309 161
70.5832 178
70.60332 174
70.62343 184
70.64354 158
70.66366 152
70.68377 192
70.70388 149
70.724 169
70.74411 138
70.76423 161
70.78434 169
70.80445 179
70.82457 185
70.84468 167
70.86479 168
70.88491 161
70.90502 151
70.92513 164
70.94525 157
70.96536 177
70.98548 137
71.00559 166
71.0257 167
71.04582 180
71.06593 171
71.08604 154
71.10616 167
71.12627 153
71.14639 177
71.1665 177
71.18661 156
71.20673 162
71.22684 177
71.24695 179
71.26707 179
71.28718 173
71.3073 170
71.32741 171
71.34752 168
71.36764 154
71.38775 175
71.40786 189
71.42798 180
71.44809 201
71.4682 172
71.48832 161
71.50843 179
71.52855 168
71.54866 175
71.56877 168
71.58889 181
71.609 165
71.62911 165
71.64923 166
71.66934 172
71.68946 201
71.70957 160
71.72968 161
71.7498 152
71.76991 180
71.79002 173
71.81014 181
71.83025 170
71.85037 192
71.87048 183
71.89059 184
71.91071 156
71.93082 175
71.95093 164
71.97105 167
71.99116 178
72.01127 164
72.03139 181
72.0515 198
72.07162 173
72.09173 183
72.11184 165
72.13196 162
72.15207 166
72.17218 168
72.1923 139
72.21241 178
72.23253 180
72.25264 173
72.27275 199
72.29287 164
72.31298 175
72.33309 164
72.35321 168
72.37332 196
72.39344 178
72.41355 146
72.43366 149
72.45378 163
72.47389 172
72.494 182
72.51412 188
72.53423 172
72.55434 175
72.57446 156
72.59457 170
72.61469 175
72.6348 152
72.65491 187
72.67503 186
72.69514 172
72.71525 165
72.73537 203
72.75548 167
72.7756 207
72.79571 197
72.81582 182
72.83594 198
72.85605 172
72.87616 175
72.89628 175
72.91639 195
72.9365 198
72.95662 195
72.97673 220
72.99685 200
73.01696 200
73.03707 216
73.05719 212
73.0773 220
73.09741 223
73.11753 249
73.13764 231
73.15776 239
73.17787 259
73.19798 258
73.2181 284
73.23821 297
73.25832 345
73.27844 367
73.29855 351
73.31867 393
73.33878 382
73.35889 409
73.37901 377
73.39912 364
73.41923 349
73.43935 331
73.45946 305
73.47957 295
73.49969 295
73.5198 306
73.53992 307
73.56003 295
73.58014 316
73.60026 277
73.62037 283
73.64048 252
73.6606 246
73.68071 223
73.70083 201
73.72094 210
73.74105 201
73.76117 176
73.78128 181
73.80139 207
73.82151 191
73.84162 192
73.86174 193
73.88185 196
73.90196 177
73.92208 192
73.94219 190
73.9623 178
73.98242 189
74.00253 175
74.02264 169
74.04276 174
74.06287 176
74.08299 198
74.1031 163
74.12321 172
74.14333 179
74.16344 144
74.18355 181
74.20367 175
74.22378 207
74.2439 187
74.26401 180
74.28412 176
74.30424 172
74.32435 165
74.34446 180
74.36458 164
74.38469 182
74.40481 172
74.42492 143
74.44503 181
74.46515 191
74.48526 191
74.50537 202
74.52549 171
74.5456 196
74.56571 182
74.58583 178
74.60594 190
74.62606 180
74.64617 183
74.66628 191
74.6864 173
74.70651 179
74.72662 188
74.74674 173
74.76685 184
74.78697 189
74.80708 170
74.82719 185
74.84731 189
74.86742 173
74.88753 189
74.90765 182
74.92776 187
74.94787 178
74.96799 208
74.9881 185
75.00822 203
