3.00117 20379
3.02128 19366
3.0414 19169
3.06151 18655
3.08162 18255
3.10174 17792
3.12185 17284
3.14197 16623
3.16208 16354
3.18219 15498
3.20231 15611
3.22242 15072
3.24253 14817
3.26265 14475
3.28276 13662
3.30288 13717
3.32299 12963
3.3431 12648
3.36322 12552
3.38333 11668
3.40344 11603
3.42356 10965
3.44367 10941
3.46379 10461
3.4839 10271
3.50401 10107
3.52413 9437
3.54424 9280
3.56435 8859
3.58447 8396
3.60458 8175
3.62469 7854
3.64481 7808
3.66492 7366
3.68504 7167
3.70515 7042
3.72526 6691
3.74538 6572
3.76549 6117
3.7856 5843
3.80572 5719
3.82583 5581
3.84595 5133
3.86606 5131
3.88617 4955
3.90629 4811
3.9264 4582
3.94651 4404
3.96663 4152
3.98674 3893
4.00686 3907
4.02697 3851
4.04708 3552
4.0672 3468
4.08731 3318
4.10742 3277
4.12754 3074
4.14765 2948
4.16776 2825
4.18788 2685
4.20799 2628
4.22811 2587
4.24822 2554
4.26833 2441
4.28845 2313
4.30856 2286
4.32867 2351
4.34879 2104
4.3689 2100
4.38902 1989
4.40913 2163
4.42924 1940
4.44936 1952
4.46947 1924
4.48958 1815
4.5097 1818
4.52981 1852
4.54992 1806
4.57004 1704
4.59015 1648
4.61027 1726
4.63038 1648
4.65049 1581
4.67061 1586
4.69072 1555
4.71083 1576
4.73095 1565
4.75106 1467
4.77118 1448
4.79129 1430
4.8114 1454
4.83152 1469
4.85163 1356
4.87174 1373
4.89186 1252
4.91197 1343
4.93209 1310
4.9522 1248
4.97231 1243
4.99243 1241
5.01254 1141
5.03265 1177
5.05277 1200
5.07288 1116
5.09299 1080
5.11311 1193
5.13322 1142
5.15334 1079
5.17345 1104
5.19356 1026
5.21368 1011
5.23379 1069
5.2539 995
5.27402 976
5.29413 1019
5.31425 984
5.33436 971
5.35447 928
5.37459 899
5.3947 889
5.41481 900
5.43493 858
5.45504 942
5.47516 848
5.49527 842
5.51538 871
5.5355 894
5.55561 825
5.57572 830
5.59584 814
5.61595 837
5.63606 835
5.65618 770
5.67629 754
5.69641 764
5.71652 770
5.73663 751
5.75675 789
5.77686 721
5.79697 802
5.81709 801
5.8372 690
5.85732 721
5.87743 694
5.89754 703
5.91766 670
5.93777 674
5.95788 631
5.978 730
5.99811 638
6.01823 683
6.03834 652
6.05845 653
6.07857 694
6.09868 665
6.11879 665
6.13891 605
6.15902 633
6.17913 646
6.19925 638
6.21936 670
6.23948 666
6.25959 614
6.2797 611
6.29982 583
6.31993 624
6.34004 611
6.36016 646
6.38027 605
6.40039 627
6.4205 576
6.44061 610
6.46073 579
6.48084 614
6.50095 610
6.52107 527
6.54118 593
6.56129 538
6.58141 614
6.60152 552
6.62164 586
6.64175 541
6.66186 571
6.68198 586
6.70209 539
6.7222 531
6.74232 564
6.76243 570
6.78255 576
6.80266 571
6.82277 566
6.84289 567
6.863 584
6.88311 548
6.90323 549
6.92334 538
6.94346 557
6.96357 524
6.98368 518
7.0038 530
7.02391 558
7.04402 537
7.06414 536
7.08425 599
7.10436 547
7.12448 532
7.14459 551
7.16471 499
7.18482 518
7.20493 507
7.22505 515
7.24516 526
7.26527 464
7.28539 496
7.3055 471
7.32562 487
7.34573 513
7.36584 556
7.38596 478
7.40607 533
7.42618 493
7.4463 495
7.46641 494
7.48653 522
7.50664 532
7.52675 522
7.54687 538
7.56698 514
7.58709 511
7.60721 454
7.62732 511
7.64743 495
7.66755 521
7.68766 469
7.70778 498
7.72789 523
7.748 525
7.76812 460
7.78823 476
7.80834 493
7.82846 474
7.84857 500
7.86869 504
7.8888 493
7.90891 495
7.92903 481
7.94914 519
7.96925 455
7.98937 517
8.00948 512
8.0296 473
8.04971 487
8.06982 464
8.08994 467
8.11005 481
8.13016 482
8.15028 489
8.17039 470
8.1905 511
8.21062 492
8.23073 464
8.25085 482
8.27096 473
8.29107 512
8.31119 514
8.3313 519
8.35141 502
8.37153 486
8.39164 569
8.41176 493
8.43187 481
8.45198 541
8.4721 479
8.49221 522
8.51232 498
8.53244 508
8.55255 477
8.57266 504
8.59278 506
8.61289 505
8.63301 540
8.65312 503
8.67323 493
8.69335 454
8.71346 470
8.73357 463
8.75369 477
8.7738 469
8.79392 480
8.81403 474
8.83414 486
8.85426 448
8.87437 442
8.89448 480
8.9146 471
8.93471 470
8.95483 479
8.97494 434
8.99505 436
9.01517 486
9.03528 467
9.05539 444
9.07551 413
9.09562 487
9.11573 436
9.13585 433
9.15596 410
9.17608 425
9.19619 412
9.2163 426
9.23642 432
9.25653 437
9.27664 399
9.29676 412
9.31687 387
9.33699 386
9.3571 412
9.37721 382
9.39733 374
9.41744 354
9.43755 349
9.45767 392
9.47778 365
9.4979 391
9.51801 360
9.53812 354
9.55824 379
9.57835 330
9.59846 365
9.61858 404
9.63869 349
9.6588 361
9.67892 374
9.69903 353
9.71915 331
9.73926 343
9.75937 295
9.77949 345
9.7996 341
9.81971 329
9.83983 325
9.85994 333
9.88006 368
9.90017 325
9.92028 315
9.9404 320
9.96051 338
9.98062 321
10.00074 383
10.02085 282
10.04097 310
10.06108 343
10.08119 305
10.10131 294
10.12142 333
10.14153 313
10.16165 310
10.18176 322
10.20187 284
10.22199 293
10.2421 313
10.26222 314
10.28233 295
10.30244 338
10.32256 300
10.34267 321
10.36278 306
10.3829 326
10.40301 293
10.42313 328
10.44324 292
10.46335 330
10.48347 325
10.50358 312
10.52369 300
10.54381 304
10.56392 314
10.58403 369
10.60415 307
10.62426 337
10.64438 288
10.66449 302
10.6846 323
10.70472 316
10.72483 322
10.74494 332
10.76506 305
10.78517 312
10.80529 307
10.8254 327
10.84551 305
10.86563 301
10.88574 285
10.90585 298
10.92597 249
10.94608 283
10.9662 289
10.98631 254
11.00642 327
11.02654 306
11.04665 275
11.06676 271
11.08688 317
11.10699 291
11.1271 298
11.14722 278
11.16733 289
11.18745 292
11.20756 289
11.22767 291
11.24779 295
11.2679 304
11.28801 288
11.30813 279
11.32824 289
11.34836 306
11.36847 262
11.38858 269
11.4087 307
11.42881 311
11.44892 328
11.46904 313
11.48915 277
11.50927 302
11.52938 291
11.54949 316
11.56961 307
11.58972 299
11.60983 300
11.62995 314
11.65006 270
11.67017 268
11.69029 296
11.7104 328
11.73052 315
11.75063 290
11.77074 323
11.79086 310
11.81097 288
11.83108 318
11.8512 313
11.87131 302
11.89143 274
11.91154 290
11.93165 317
11.95177 279
11.97188 291
11.99199 274
12.01211 319
12.03222 292
12.05234 281
12.07245 290
12.09256 281
12.11268 279
12.13279 282
12.1529 262
12.17302 284
12.19313 285
12.21324 283
12.23336 261
12.25347 300
12.27359 310
12.2937 294
12.31381 293
12.33393 288
12.35404 287
12.37415 270
12.39427 309
12.41438 292
12.4345 312
12.45461 301
12.47472 272
12.49484 312
12.51495 254
12.53506 286
12.55518 298
12.57529 291
12.5954 261
12.61552 284
12.63563 290
12.65575 295
12.67586 309
12.69597 266
12.71609 279
12.7362 277
12.75631 282
12.77643 293
12.79654 263
12.81666 256
12.83677 308
12.85688 282
12.877 262
12.89711 271
12.91722 292
12.93734 263
12.95745 288
12.97757 263
12.99768 296
13.01779 291
13.03791 265
13.05802 308
13.07813 277
13.09825 306
13.11836 306
13.13847 273
13.15859 297
13.1787 276
13.19882 319
13.21893 301
13.23904 294
13.25916 315
13.27927 302
13.29938 282
13.3195 304
13.33961 292
13.35973 257
13.37984 290
13.39995 274
13.42007 278
13.44018 271
13.46029 258
13.48041 286
13.50052 298
13.52064 275
13.54075 300
13.56086 297
13.58098 288
13.60109 298
13.6212 301
13.64132 316
13.66143 306
13.68154 293
13.70166 315
13.72177 310
13.74189 301
13.762 309
13.78211 319
13.80223 302
13.82234 324
13.84245 273
13.86257 279
13.88268 290
13.9028 306
13.92291 291
13.94302 306
13.96314 294
13.98325 316
14.00336 299
14.02348 294
14.04359 273
14.06371 315
14.08382 268
14.10393 288
14.12405 287
14.14416 307
14.16427 269
14.18439 288
14.2045 334
14.22461 266
14.24473 253
14.26484 277
14.28496 244
14.30507 297
14.32518 272
14.3453 271
14.36541 274
14.38552 264
14.40564 274
14.42575 241
14.44587 283
14.46598 295
14.48609 281
14.50621 272
14.52632 240
14.54643 280
14.56655 300
14.58666 295
14.60677 307
14.62689 279
14.647 243
14.66712 274
14.68723 289
14.70734 270
14.72746 269
14.74757 273
14.76768 268
14.7878 295
14.80791 292
14.82803 276
14.84814 257
14.86825 258
14.88837 279
14.90848 251
14.92859 292
14.94871 326
14.96882 281
14.98894 323
15.00905 306
15.02916 303
15.04928 273
15.06939 295
15.0895 303
15.10962 290
15.12973 288
15.14984 288
15.16996 311
15.19007 293
15.21019 271
15.2303 294
15.25041 264
15.27053 290
15.29064 259
15.31075 258
15.33087 289
15.35098 272
15.3711 278
15.39121 257
15.41132 251
15.43144 281
15.45155 239
15.47166 288
15.49178 260
15.51189 301
15.53201 288
15.55212 274
15.57223 263
15.59235 279
15.61246 276
15.63257 257
15.65269 255
15.6728 263
15.69291 274
15.71303 253
15.73314 267
15.75326 252
15.77337 283
15.79348 281
15.8136 255
15.83371 277
15.85382 283
15.87394 263
15.89405 268
15.91417 275
15.93428 263
15.95439 268
15.97451 282
15.99462 264
16.01473 277
16.03485 286
16.05496 249
16.07508 280
16.09519 268
16.1153 249
16.13542 250
16.15553 244
16.17564 288
16.19576 274
16.21587 252
16.23598 295
16.2561 302
16.27621 311
16.29633 259
16.31644 244
16.33655 248
16.35667 268
16.37678 275
16.39689 256
16.41701 241
16.43712 261
16.45724 273
16.47735 287
16.49746 256
16.51758 261
16.53769 279
16.5578 250
16.57792 279
16.59803 265
16.61814 251
16.63826 256
16.65837 267
16.67849 268
16.6986 290
16.71871 285
16.73883 263
16.75894 277
16.77905 286
16.79917 285
16.81928 277
16.8394 277
16.85951 247
16.87962 272
16.89974 276
16.91985 286
16.93996 272
16.96008 272
16.98019 296
17.00031 281
17.02042 287
17.04053 281
17.06065 283
17.08076 292
17.10087 278
17.12099 296
17.1411 288
17.16121 304
17.18133 305
17.20144 277
17.22156 316
17.24167 321
17.26178 272
17.2819 301
17.30201 291
17.32212 309
17.34224 273
17.36235 289
17.38247 302
17.40258 288
17.42269 284
17.44281 276
17.46292 280
17.48303 276
17.50315 272
17.52326 318
17.54338 295
17.56349 295
17.5836 268
17.60372 278
17.62383 287
17.64394 279
17.66406 318
17.68417 291
17.70428 279
17.7244 272
17.74451 270
17.76463 303
17.78474 275
17.80485 305
17.82497 311
17.84508 317
17.86519 292
17.88531 266
17.90542 297
17.92554 278
17.94565 278
17.96576 316
17.98588 302
18.00599 314
18.0261 263
18.04622 286
18.06633 298
18.08645 268
18.10656 272
18.12667 315
18.14679 275
18.1669 302
18.18701 301
18.20713 280
18.22724 279
18.24735 279
18.26747 289
18.28758 290
18.3077 283
18.32781 297
18.34792 259
18.36804 281
18.38815 323
18.40826 286
18.42838 288
18.44849 273
18.46861 264
18.48872 264
18.50883 292
18.52895 294
18.54906 324
18.56917 269
18.58929 282
18.6094 295
18.62951 287
18.64963 279
18.66974 300
18.68986 297
18.70997 289
18.73008 242
18.7502 306
18.77031 286
18.79042 295
18.81054 332
18.83065 308
18.85077 264
18.87088 290
18.89099 282
18.91111 303
18.93122 338
18.95133 300
18.97145 306
18.99156 312
19.01168 283
19.03179 325
19.0519 281
19.07202 328
19.09213 337
19.11224 326
19.13236 338
19.15247 321
19.17258 313
19.1927 367
19.21281 346
19.23293 346
19.25304 351
19.27315 359
19.29327 379
19.31338 412
19.33349 381
19.35361 418
19.37372 444
19.39384 450
19.41395 448
19.43406 433
19.45418 492
19.47429 520
19.4944 504
19.51452 558
19.53463 570
19.55475 586
19.57486 624
19.59497 608
19.61509 672
19.6352 696
19.65531 693
19.67543 724
19.69554 772
19.71565 783
19.73577 830
19.75588 793
19.776 850
19.79611 820
19.81622 838
19.83634 774
19.85645 802
19.87656 786
19.89668 765
19.91679 747
19.93691 822
19.95702 749
19.97713 680
19.99725 674
20.01736 672
20.03747 645
20.05759 660
20.0777 645
20.09782 640
20.11793 598
20.13804 620
20.15816 598
20.17827 633
20.19838 591
20.2185 587
20.23861 587
20.25872 601
20.27884 567
20.29895 575
20.31907 565
20.33918 537
20.35929 559
20.37941 530
20.39952 532
20.41963 540
20.43975 580
20.45986 537
20.47998 608
20.50009 574
20.5202 575
20.54032 575
20.56043 583
20.58054 618
20.60066 607
20.62077 679
20.64088 755
20.661 929
20.68111 990
20.70123 1247
20.72134 1571
20.74145 1970
20.76157 2601
20.78168 3102
20.80179 3483
20.82191 3641
20.84202 3400
20.86214 2971
20.88225 2613
20.90236 2001
20.92248 1602
20.94259 1208
20.9627 1013
20.98282 923
21.00293 793
21.02305 670
21.04316 666
21.06327 619
21.08339 636
21.1035 498
21.12361 516
21.14373 504
21.16384 477
21.18395 484
21.20407 461
21.22418 434
21.2443 456
21.26441 447
21.28452 457
21.30464 460
21.32475 413
21.34486 405
21.36498 435
21.38509 407
21.40521 455
21.42532 398
21.44543 455
21.46555 405
21.48566 388
21.50577 424
21.52589 400
21.546 410
21.56612 424
21.58623 399
21.60634 396
21.62646 406
21.64657 445
21.66668 392
21.6868 397
21.70691 384
21.72702 395
21.74714 391
21.76725 395
21.78737 390
21.80748 462
21.82759 439
21.84771 455
21.86782 470
21.88793 454
21.90805 523
21.92816 591
21.94828 533
21.96839 565
21.9885 554
22.00862 523
22.02873 522
22.04884 519
22.06896 414
22.08907 420
22.10919 433
22.1293 363
22.14941 408
22.16953 403
22.18964 386
22.20975 396
22.22987 413
22.24998 403
22.27009 405
22.29021 402
22.31032 444
22.33044 424
22.35055 431
22.37066 390
22.39078 397
22.41089 413
22.431 397
22.45112 445
22.47123 396
22.49135 444
22.51146 442
22.53157 424
22.55169 391
22.5718 429
22.59191 380
22.61203 408
22.63214 383
22.65225 373
22.67237 395
22.69248 405
22.7126 403
22.73271 405
22.75282 373
22.77294 367
22.79305 382
22.81316 394
22.83328 413
22.85339 467
22.87351 446
22.89362 405
22.91373 421
22.93385 420
22.95396 403
22.97407 406
22.99419 421
23.0143 387
23.03442 436
23.05453 380
23.07464 422
23.09476 422
23.11487 399
23.13498 384
23.1551 393
23.17521 452
23.19532 398
23.21544 392
23.23555 407
23.25567 442
23.27578 388
23.29589 408
23.31601 384
23.33612 410
23.35623 441
23.37635 437
23.39646 443
23.41658 493
23.43669 503
23.4568 500
23.47692 552
23.49703 524
23.51714 591
23.53726 542
23.55737 582
23.57749 542
23.5976 518
23.61771 545
23.63783 548
23.65794 477
23.67805 486
23.69817 447
23.71828 478
23.73839 469
23.75851 449
23.77862 442
23.79874 410
23.81885 468
23.83896 473
23.85908 529
23.87919 520
23.8993 517
23.91942 452
23.93953 510
23.95965 464
23.97976 472
23.99987 516
24.01999 464
24.0401 475
24.06021 397
24.08033 442
24.10044 464
24.12056 423
24.14067 413
24.16078 455
24.1809 451
24.20101 483
24.22112 427
24.24124 436
24.26135 464
24.28146 468
24.30158 506
24.32169 447
24.34181 463
24.36192 405
24.38203 437
24.40215 446
24.42226 395
24.44237 410
24.46249 435
24.4826 394
24.50272 429
24.52283 432
24.54294 412
24.56306 433
24.58317 425
24.60328 402
24.6234 420
24.64351 408
24.66362 416
24.68374 428
24.70385 364
24.72397 413
24.74408 394
24.76419 438
24.78431 390
24.80442 411
24.82453 445
24.84465 394
24.86476 415
24.88488 380
24.90499 399
24.9251 420
24.94522 387
24.96533 366
24.98544 395
25.00556 410
25.02567 421
25.04579 412
25.0659 406
25.08601 417
25.10613 436
25.12624 431
25.14635 484
25.16647 451
25.18658 407
25.20669 456
25.22681 437
25.24692 454
25.26704 454
25.28715 400
25.30726 460
25.32738 445
25.34749 445
25.3676 510
25.38772 426
25.40783 444
25.42795 449
25.44806 458
25.46817 492
25.48829 492
25.5084 521
25.52851 548
25.54863 532
25.56874 509
25.58886 612
25.60897 610
25.62908 641
25.6492 570
25.66931 569
25.68942 536
25.70954 541
25.72965 522
25.74976 528
25.76988 518
25.78999 512
25.81011 558
25.83022 540
25.85033 496
25.87045 514
25.89056 508
25.91067 566
25.93079 534
25.9509 544
25.97102 539
25.99113 569
26.01124 545
26.03136 542
26.05147 558
26.07158 572
26.0917 630
26.11181 661
26.13193 606
26.15204 686
26.17215 674
26.19227 766
26.21238 782
26.23249 785
26.25261 852
26.27272 915
26.29283 963
26.31295 1024
26.33306 1158
26.35318 1362
26.37329 1497
26.3934 1729
26.41352 2138
26.43363 2657
26.45374 3563
26.47386 4751
26.49397 6258
26.51409 8436
26.5342 10741
26.55431 13186
26.57443 15136
26.59454 15804
26.61465 15242
26.63477 13544
26.65488 11437
26.67499 8825
26.69511 6490
26.71522 4653
26.73534 3256
26.75545 2363
26.77556 1702
26.79568 1517
26.81579 1273
26.8359 1244
26.85602 1122
26.87613 1083
26.89625 1050
26.91636 960
26.93647 887
26.95659 885
26.9767 875
26.99681 859
27.01693 845
27.03704 856
27.05716 796
27.07727 776
27.09738 693
27.1175 749
27.13761 667
27.15772 626
27.17784 647
27.19795 596
27.21806 602
27.23818 632
27.25829 590
27.27841 598
27.29852 647
27.31863 627
27.33875 658
27.35886 699
27.37897 705
27.39909 763
27.4192 808
27.43932 805
27.45943 828
27.47954 828
27.49966 773
27.51977 746
27.53988 709
27.56 641
27.58011 666
27.60023 645
27.62034 693
27.64045 685
27.66057 695
27.68068 700
27.70079 735
27.72091 799
27.74102 863
27.76113 812
27.78125 760
27.80136 779
27.82148 742
27.84159 738
27.8617 734
27.88182 747
27.90193 756
27.92204 748
27.94216 729
27.96227 673
27.98239 699
28.0025 665
28.02261 635
28.04273 526
28.06284 518
28.08295 486
28.10307 488
28.12318 451
28.1433 531
28.16341 481
28.18352 475
28.20364 511
28.22375 528
28.24386 494
28.26398 483
28.28409 468
28.3042 500
28.32432 509
28.34443 471
28.36455 443
28.38466 469
28.40477 439
28.42489 439
28.445 416
28.46511 450
28.48523 420
28.50534 429
28.52546 400
28.54557 391
28.56568 394
28.5858 395
28.60591 426
28.62602 397
28.64614 423
28.66625 428
28.68636 406
28.70648 415
28.72659 393
28.74671 431
28.76682 380
28.78693 410
28.80705 400
28.82716 384
28.84727 381
28.86739 377
28.8875 414
28.90762 404
28.92773 436
28.94784 428
28.96796 417
28.98807 376
29.00818 378
29.0283 395
29.04841 396
29.06853 398
29.08864 364
29.10875 392
29.12887 394
29.14898 412
29.16909 410
29.18921 383
29.20932 377
29.22943 378
29.24955 401
29.26966 407
29.28978 403
29.30989 419
29.33 402
29.35012 387
29.37023 373
29.39034 366
29.41046 395
29.43057 343
29.45069 419
29.4708 372
29.49091 399
29.51103 401
29.53114 396
29.55125 436
29.57137 385
29.59148 416
29.6116 413
29.63171 468
29.65182 450
29.67194 441
29.69205 435
29.71216 461
29.73228 492
29.75239 467
29.7725 492
29.79262 490
29.81273 471
29.83285 520
29.85296 515
29.87307 443
29.89319 436
29.9133 389
29.93341 396
29.95353 430
29.97364 426
29.99376 453
30.01387 414
30.03398 394
30.0541 414
30.07421 387
30.09432 412
30.11444 367
30.13455 384
30.15467 412
30.17478 409
30.19489 419
30.21501 396
30.23512 451
30.25523 412
30.27535 465
30.29546 439
30.31557 400
30.33569 417
30.3558 473
30.37592 438
30.39603 445
30.41614 451
30.43626 401
30.45637 432
30.47648 397
30.4966 386
30.51671 401
30.53683 392
30.55694 391
30.57705 379
30.59717 386
30.61728 424
30.63739 426
30.65751 358
30.67762 432
30.69773 444
30.71785 469
30.73796 465
30.75808 445
30.77819 468
30.7983 439
30.81842 418
30.83853 429
30.85864 421
30.87876 398
30.89887 406
30.91899 373
30.9391 349
30.95921 391
30.97933 365
30.99944 355
31.01955 356
31.03967 345
31.05978 360
31.0799 316
31.10001 360
31.12012 344
31.14024 394
31.16035 373
31.18046 359
31.20058 346
31.22069 333
31.2408 341
31.26092 343
31.28103 371
31.30115 359
31.32126 376
31.34137 336
31.36149 328
31.3816 369
31.40171 362
31.42183 346
31.44194 348
31.46206 336
31.48217 334
31.50228 325
31.5224 340
31.54251 368
31.56262 325
31.58274 351
31.60285 323
31.62297 343
31.64308 321
31.66319 343
31.68331 332
31.70342 335
31.72353 322
31.74365 330
31.76376 334
31.78387 337
31.80399 345
31.8241 320
31.84422 304
31.86433 316
31.88444 305
31.90456 333
31.92467 315
31.94478 351
31.9649 336
31.98501 293
32.00513 330
32.02524 351
32.04535 343
32.06547 347
32.08558 346
32.10569 346
32.12581 318
32.14592 326
32.16604 335
32.18615 327
32.20626 353
32.22638 325
32.24649 366
32.2666 330
32.28672 386
32.30683 365
32.32694 368
32.34706 351
32.36717 327
32.38729 363
32.4074 345
32.42751 364
32.44763 317
32.46774 377
32.48785 351
32.50797 377
32.52808 367
32.5482 360
32.56831 353
32.58842 326
32.60854 329
32.62865 323
32.64876 305
32.66888 312
32.68899 313
32.7091 332
32.72922 326
32.74933 341
32.76945 307
32.78956 341
32.80967 300
32.82979 311
32.8499 317
32.87001 334
32.89013 339
32.91024 324
32.93036 340
32.95047 303
32.97058 361
32.9907 317
33.01081 343
33.03092 328
33.05104 327
33.07115 293
33.09127 333
33.11138 311
33.13149 347
33.15161 290
33.17172 334
33.19183 298
33.21195 316
33.23206 317
33.25217 309
33.27229 343
33.2924 293
33.31252 316
33.33263 335
33.35274 323
33.37286 309
33.39297 293
33.41308 355
33.4332 307
33.45331 303
33.47343 323
33.49354 307
33.51365 314
33.53377 323
33.55388 269
33.57399 293
33.59411 298
33.61422 311
33.63434 339
33.65445 328
33.67456 303
33.69468 293
33.71479 347
33.7349 328
33.75502 322
33.77513 323
33.79524 336
33.81536 343
33.83547 345
33.85559 323
33.8757 319
33.89581 342
33.91593 346
33.93604 345
33.95615 335
33.97627 330
33.99638 316
34.0165 341
34.03661 365
34.05672 372
34.07684 364
34.09695 349
34.11706 403
34.13718 393
34.15729 362
34.17741 371
34.19752 407
34.21763 381
34.23775 446
34.25786 462
34.27797 451
34.29809 437
34.3182 499
34.33831 424
34.35843 518
34.37854 472
34.39866 510
34.41877 520
34.43888 502
34.459 514
34.47911 546
34.49922 531
34.51934 558
34.53945 578
34.55957 615
34.57968 588
34.59979 632
34.61991 639
34.64002 568
34.66013 624
34.68025 599
34.70036 591
34.72047 625
34.74059 652
34.7607 627
34.78082 616
34.80093 615
34.82104 602
34.84116 615
34.86127 598
34.88138 597
34.9015 578
34.92161 643
34.94173 544
34.96184 580
34.98195 583
35.00207 565
35.02218 574
35.04229 564
35.06241 559
35.08252 521
35.10264 559
35.12275 537
35.14286 528
35.16298 557
35.18309 535
35.2032 494
35.22332 550
35.24343 501
35.26354 520
35.28366 530
35.30377 521
35.32389 477
35.344 473
35.36411 513
35.38423 529
35.40434 505
35.42445 445
35.44457 414
35.46468 470
35.4848 465
35.50491 442
35.52502 461
35.54514 479
35.56525 402
35.58536 441
35.60548 475
35.62559 476
35.64571 430
35.66582 476
35.68593 419
35.70605 459
35.72616 429
35.74627 446
35.76639 425
35.7865 483
35.80661 427
35.82673 427
35.84684 425
35.86696 393
35.88707 439
35.90718 417
35.9273 435
35.94741 449
35.96752 429
35.98764 432
36.00775 446
36.02787 434
36.04798 435
36.06809 375
36.08821 404
36.10832 469
36.12843 413
36.14855 450
36.16866 422
36.18878 472
36.20889 450
36.229 476
36.24912 460
36.26923 486
36.28934 499
36.30946 576
36.32957 537
36.34968 602
36.3698 746
36.38991 833
36.41003 1028
36.43014 1155
36.45025 1248
36.47037 1298
36.49048 1370
36.51059 1294
36.53071 1202
36.55082 1107
36.57094 984
36.59105 884
36.61116 847
36.63128 686
36.65139 580
36.6715 566
36.69162 516
36.71173 480
36.73184 492
36.75196 442
36.77207 445
36.79219 416
36.8123 444
36.83241 485
36.85253 411
36.87264 428
36.89275 434
36.91287 451
36.93298 431
36.9531 388
36.97321 407
36.99332 415
37.01344 457
37.03355 431
37.05366 428
37.07378 411
37.09389 417
37.11401 435
37.13412 424
37.15423 423
37.17435 410
37.19446 417
37.21457 369
37.23469 439
37.2548 387
37.27491 413
37.29503 398
37.31514 422
37.33526 415
37.35537 351
37.37548 391
37.3956 380
37.41571 403
37.43582 418
37.45594 390
37.47605 409
37.49617 389
37.51628 405
37.53639 398
37.55651 401
37.57662 410
37.59673 396
37.61685 401
37.63696 433
37.65708 382
37.67719 369
37.6973 394
37.71742 400
37.73753 376
37.75764 393
37.77776 388
37.79787 361
37.81798 354
37.8381 422
37.85821 374
37.87833 370
37.89844 342
37.91855 335
37.93867 370
37.95878 345
37.97889 341
37.99901 369
38.01912 349
38.03924 384
38.05935 342
38.07946 329
38.09958 361
38.11969 319
38.1398 336
38.15992 297
38.18003 354
38.20015 331
38.22026 360
38.24037 358
38.26049 322
38.2806 325
38.30071 332
38.32083 324
38.34094 328
38.36105 334
38.38117 383
38.40128 312
38.4214 369
38.44151 346
38.46162 336
38.48174 347
38.50185 393
38.52196 339
38.54208 348
38.56219 356
38.58231 330
38.60242 341
38.62253 341
38.64265 336
38.66276 355
38.68287 353
38.70299 329
38.7231 326
38.74321 313
38.76333 314
38.78344 333
38.80356 337
38.82367 328
38.84378 308
38.8639 327
38.88401 322
38.90412 288
38.92424 329
38.94435 352
38.96447 336
38.98458 341
39.00469 357
39.02481 337
39.04492 335
39.06503 386
39.08515 381
39.10526 372
39.12538 375
39.14549 371
39.1656 408
39.18572 427
39.20583 411
39.22594 445
39.24606 484
39.26617 560
39.28628 605
39.3064 711
39.32651 845
39.34663 970
39.36674 1095
39.38685 1168
39.40697 1210
39.42708 1267
39.44719 1092
39.46731 1024
39.48742 927
39.50754 878
39.52765 795
39.54776 677
39.56788 572
39.58799 504
39.6081 446
39.62822 404
39.64833 406
39.66845 381
39.68856 386
39.70867 349
39.72879 347
39.7489 339
39.76901 369
39.78913 388
39.80924 395
39.82935 337
39.84947 342
39.86958 374
39.8897 353
39.90981 347
39.92992 363
39.95004 337
39.97015 374
39.99026 376
40.01038 381
40.03049 417
40.05061 367
40.07072 444
40.09083 434
40.11095 471
40.13106 541
40.15117 599
40.17129 687
40.1914 763
40.21152 728
40.23163 746
40.25174 722
40.27186 764
40.29197 688
40.31208 585
40.3322 587
40.35231 546
40.37242 513
40.39254 433
40.41265 405
40.43277 371
40.45288 370
40.47299 350
40.49311 356
40.51322 355
40.53333 379
40.55345 346
40.57356 320
40.59368 337
40.61379 352
40.6339 346
40.65402 360
40.67413 347
40.69424 306
40.71436 336
40.73447 342
40.75458 297
40.7747 330
40.79481 321
40.81493 347
40.83504 371
40.85515 336
40.87527 359
40.89538 339
40.91549 345
40.93561 328
40.95572 322
40.97584 326
40.99595 359
41.01606 342
41.03618 364
41.05629 308
41.0764 335
41.09652 340
41.11663 319
41.13675 321
41.15686 352
41.17697 350
41.19709 333
41.2172 316
41.23731 292
41.25743 334
41.27754 330
41.29765 320
41.31777 328
41.33788 302
41.358 349
41.37811 338
41.39822 332
41.41834 335
41.43845 321
41.45856 353
41.47868 320
41.49879 323
41.51891 338
41.53902 356
41.55913 318
41.57925 330
41.59936 318
41.61947 367
41.63959 384
41.6597 364
41.67982 374
41.69993 347
41.72004 352
41.74016 379
41.76027 343
41.78038 339
41.8005 357
41.82061 331
41.84072 340
41.86084 345
41.88095 335
41.90107 324
41.92118 326
41.94129 313
41.96141 312
41.98152 334
42.00163 365
42.02175 305
42.04186 362
42.06198 362
42.08209 346
42.1022 347
42.12232 344
42.14243 368
42.16254 407
42.18266 404
42.20277 420
42.22289 434
42.243 514
42.26311 525
42.28323 562
42.30334 653
42.32345 810
42.34357 928
42.36368 951
42.38379 977
42.40391 933
42.42402 933
42.44414 787
42.46425 762
42.48436 708
42.50448 673
42.52459 582
42.5447 505
42.56482 459
42.58493 423
42.60505 390
42.62516 367
42.64527 341
42.66539 341
42.6855 323
42.70561 364
42.72573 340
42.74584 345
42.76595 331
42.78607 331
42.80618 328
42.8263 325
42.84641 364
42.86652 330
42.88664 326
42.90675 330
42.92686 324
42.94698 318
42.96709 330
42.98721 315
43.00732 342
43.02743 312
43.04755 294
43.06766 299
43.08777 300
43.10789 315
43.128 308
43.14812 315
43.16823 316
43.18834 294
43.20846 290
43.22857 316
43.24868 311
43.2688 294
43.28891 284
43.30902 292
43.32914 303
43.34925 276
43.36937 318
43.38948 312
43.40959 273
43.42971 283
43.44982 270
43.46993 288
43.49005 288
43.51016 257
43.53028 300
43.55039 322
43.5705 324
43.59062 302
43.61073 286
43.63084 301
43.65096 316
43.67107 319
43.69119 315
43.7113 311
43.73141 248
43.75153 284
43.77164 286
43.79175 291
43.81187 301
43.83198 306
43.85209 272
43.87221 295
43.89232 303
43.91244 287
43.93255 300
43.95266 278
43.97278 295
43.99289 279
44.013 283
44.03312 298
44.05323 309
44.07335 305
44.09346 280
44.11357 299
44.13369 273
44.1538 290
44.17391 295
44.19403 315
44.21414 321
44.23426 282
44.25437 326
44.27448 275
44.2946 275
44.31471 282
44.33482 257
44.35494 277
44.37505 317
44.39516 293
44.41528 253
44.43539 303
44.45551 283
44.47562 302
44.49573 293
44.51585 284
44.53596 290
44.55607 260
44.57619 278
44.5963 260
44.61642 314
44.63653 268
44.65664 311
44.67676 300
44.69687 266
44.71698 319
44.7371 299
44.75721 294
44.77732 320
44.79744 290
44.81755 283
44.83767 324
44.85778 301
44.87789 327
44.89801 301
44.91812 307
44.93823 299
44.95835 330
44.97846 282
44.99858 327
45.01869 293
45.0388 296
45.05892 296
45.07903 299
45.09914 315
45.11926 285
45.13937 291
45.15949 280
45.1796 291
45.19971 333
45.21983 324
45.23994 291
45.26005 298
45.28017 322
45.30028 332
45.32039 304
45.34051 301
45.36062 303
45.38074 282
45.40085 327
45.42096 297
45.44108 300
45.46119 339
45.4813 339
45.50142 346
45.52153 393
45.54165 374
45.56176 357
45.58187 404
45.60199 424
45.6221 474
45.64221 535
45.66233 595
45.68244 649
45.70256 677
45.72267 690
45.74278 704
45.7629 653
45.78301 615
45.80312 572
45.82324 590
45.84335 518
45.86346 482
45.88358 431
45.90369 433
45.92381 378
45.94392 342
45.96403 338
45.98415 319
46.00426 342
46.02437 318
46.04449 300
46.0646 313
46.08472 254
46.10483 281
46.12494 295
46.14506 311
46.16517 283
46.18528 277
46.2054 309
46.22551 284
46.24563 290
46.26574 275
46.28585 258
46.30597 276
46.32608 284
46.34619 270
46.36631 277
46.38642 273
46.40653 283
46.42665 306
46.44676 291
46.46688 276
46.48699 261
46.5071 266
46.52722 255
46.54733 239
46.56744 322
46.58756 272
46.60767 271
46.62779 286
46.6479 238
46.66801 242
46.68813 250
46.70824 257
46.72835 272
46.74847 243
46.76858 224
46.78869 244
46.80881 259
46.82892 258
46.84904 260
46.86915 257
46.88926 276
46.90938 244
46.92949 270
46.9496 276
46.96972 284
46.98983 290
47.00995 268
47.03006 276
47.05017 270
47.07029 242
47.0904 288
47.11051 259
47.13063 297
47.15074 281
47.17086 291
47.19097 298
47.21108 294
47.2312 259
47.25131 246
47.27142 273
47.29154 290
47.31165 271
47.33176 259
47.35188 255
47.37199 266
47.39211 284
47.41222 276
47.43233 268
47.45245 257
47.47256 249
47.49267 270
47.51279 284
47.5329 265
47.55302 235
47.57313 260
47.59324 260
47.61336 282
47.63347 277
47.65358 247
47.6737 266
47.69381 262
47.71393 287
47.73404 264
47.75415 254
47.77427 290
47.79438 221
47.81449 284
47.83461 253
47.85472 287
47.87483 265
47.89495 270
47.91506 247
47.93518 268
47.95529 280
47.9754 262
47.99552 272
48.01563 263
48.03574 245
48.05586 265
48.07597 249
48.09609 259
48.1162 289
48.13631 262
48.15643 265
48.17654 255
48.19665 257
48.21677 296
48.23688 276
48.257 262
48.27711 291
48.29722 269
48.31734 285
48.33745 273
48.35756 289
48.37768 284
48.39779 267
48.4179 279
48.43802 257
48.45813 257
48.47825 271
48.49836 263
48.51847 271
48.53859 286
48.5587 271
48.57881 261
48.59893 282
48.61904 274
48.63916 260
48.65927 293
48.67938 254
48.6995 254
48.71961 272
48.73972 250
48.75984 265
48.77995 246
48.80006 240
48.82018 276
48.84029 249
48.86041 244
48.88052 281
48.90063 276
48.92075 283
48.94086 262
48.96097 248
48.98109 275
49.0012 307
49.02132 279
49.04143 322
49.06154 267
49.08166 291
49.10177 311
49.12188 297
49.142 302
49.16211 294
49.18223 305
49.20234 295
49.22245 273
49.24257 290
49.26268 322
49.28279 256
49.30291 257
49.32302 284
49.34313 289
49.36325 289
49.38336 275
49.40348 299
49.42359 266
49.4437 287
49.46382 303
49.48393 300
49.50404 269
49.52416 309
49.54427 274
49.56439 289
49.5845 338
49.60461 303
49.62473 298
49.64484 346
49.66495 318
49.68507 353
49.70518 381
49.7253 333
49.74541 392
49.76552 367
49.78564 433
49.80575 443
49.82586 449
49.84598 456
49.86609 459
49.8862 550
49.90632 654
49.92643 723
49.94655 814
49.96666 993
49.98677 1092
50.00689 1389
50.027 1645
50.04711 1773
50.06723 1827
50.08734 1786
50.10746 1627
50.12757 1385
50.14768 1218
50.1678 1239
50.18791 1173
50.20802 1037
50.22814 913
50.24825 753
50.26837 628
50.28848 523
50.30859 436
50.32871 384
50.34882 399
50.36893 322
50.38905 365
50.40916 329
50.42927 347
50.44939 351
50.4695 310
50.48962 370
50.50973 355
50.52984 371
50.54996 348
50.57007 366
50.59018 382
50.6103 341
50.63041 349
50.65053 376
50.67064 381
50.69075 328
50.71087 361
50.73098 318
50.75109 307
50.77121 301
50.79132 292
50.81143 269
50.83155 291
50.85166 274
50.87178 279
50.89189 240
50.912 262
50.93212 283
50.95223 298
50.97234 260
50.99246 264
51.01257 289
51.03269 277
51.0528 263
51.07291 252
51.09303 294
51.11314 256
51.13325 260
51.15337 275
51.17348 249
51.1936 271
51.21371 258
51.23382 265
51.25394 274
51.27405 272
51.29416 269
51.31428 271
51.33439 264
51.3545 263
51.37462 241
51.39473 255
51.41485 276
51.43496 291
51.45507 270
51.47519 255
51.4953 256
51.51541 235
51.53553 251
51.55564 255
51.57576 233
51.59587 247
51.61598 243
51.6361 222
51.65621 272
51.67632 250
51.69644 236
51.71655 206
51.73667 200
51.75678 246
51.77689 274
51.79701 234
51.81712 239
51.83723 221
51.85735 232
51.87746 258
51.89757 231
51.91769 219
51.9378 242
51.95792 223
51.97803 247
51.99814 248
52.01826 272
52.03837 218
52.05848 232
52.0786 238
52.09871 240
52.11883 257
52.13894 262
52.15905 238
52.17917 291
52.19928 211
52.21939 258
52.23951 249
52.25962 238
52.27974 262
52.29985 265
52.31996 254
52.34008 288
52.36019 231
52.3803 271
52.40042 247
52.42053 274
52.44064 242
52.46076 244
52.48087 257
52.50099 266
52.5211 248
52.54121 261
52.56133 261
52.58144 244
52.60155 277
52.62167 266
52.64178 277
52.6619 256
52.68201 252
52.70212 227
52.72224 226
52.74235 245
52.76246 272
52.78258 287
52.80269 237
52.8228 280
52.84292 243
52.86303 277
52.88315 238
52.90326 263
52.92337 259
52.94349 256
52.9636 291
52.98371 280
53.00383 269
53.02394 272
53.04406 268
53.06417 306
53.08428 281
53.1044 276
53.12451 275
53.14462 286
53.16474 314
53.18485 290
53.20497 285
53.22508 256
53.24519 297
53.26531 278
53.28542 270
53.30553 268
53.32565 290
53.34576 286
53.36587 272
53.38599 302
53.4061 300
53.42622 289
53.44633 282
53.46644 292
53.48656 296
53.50667 302
53.52678 267
53.5469 284
53.56701 298
53.58713 308
53.60724 319
53.62735 276
53.64747 298
53.66758 304
53.68769 300
53.70781 304
53.72792 337
53.74804 322
53.76815 326
53.78826 301
53.80838 323
53.82849 311
53.8486 310
53.86872 319
53.88883 362
53.90894 313
53.92906 339
53.94917 319
53.96929 328
53.9894 339
54.00951 299
54.02963 313
54.04974 365
54.06985 323
54.08997 353
54.11008 299
54.1302 307
54.15031 325
54.17042 318
54.19054 352
54.21065 327
54.23076 320
54.25088 300
54.27099 305
54.29111 349
54.31122 336
54.33133 323
54.35145 310
54.37156 298
54.39167 321
54.41179 318
54.4319 323
54.45201 327
54.47213 313
54.49224 332
54.51236 325
54.53247 342
54.55258 332
54.5727 382
54.59281 373
54.61292 403
54.63304 398
54.65315 431
54.67327 438
54.69338 518
54.71349 549
54.73361 646
54.75372 692
54.77383 706
54.79395 735
54.81406 689
54.83417 709
54.85429 625
54.8744 593
54.89452 565
54.91463 537
54.93474 509
54.95486 516
54.97497 499
54.99508 469
55.0152 441
55.03531 389
55.05543 377
55.07554 362
55.09565 401
55.11577 362
55.13588 397
55.15599 383
55.17611 427
55.19622 427
55.21634 439
55.23645 502
55.25656 486
55.27668 473
55.29679 486
55.3169 448
55.33702 410
55.35713 411
55.37724 377
55.39736 385
55.41747 432
55.43759 384
55.4577 353
55.47781 326
55.49793 317
55.51804 285
55.53815 317
55.55827 301
55.57838 297
55.5985 304
55.61861 288
55.63872 311
55.65884 264
55.67895 277
55.69906 275
55.71918 283
55.73929 283
55.75941 311
55.77952 291
55.79963 303
55.81975 311
55.83986 313
55.85997 321
55.88009 297
55.9002 275
55.92031 318
55.94043 303
55.96054 318
55.98066 282
56.00077 265
56.02088 291
56.041 251
56.06111 279
56.08122 274
56.10134 285
56.12145 266
56.14157 281
56.16168 299
56.18179 279
56.20191 285
56.22202 291
56.24213 278
56.26225 288
56.28236 291
56.30248 287
56.32259 325
56.3427 292
56.36282 264
56.38293 294
56.40304 290
56.42316 296
56.44327 293
56.46338 279
56.4835 303
56.50361 268
56.52373 274
56.54384 257
56.56395 262
56.58407 291
56.60418 292
56.62429 289
56.64441 281
56.66452 284
56.68464 275
56.70475 256
56.72486 274
56.74498 283
56.76509 287
56.7852 310
56.80532 257
56.82543 258
56.84554 272
56.86566 271
56.88577 274
56.90589 270
56.926 269
56.94611 265
56.96623 276
56.98634 281
57.00645 283
57.02657 268
57.04668 293
57.0668 271
57.08691 263
57.10702 291
57.12714 316
57.14725 287
57.16736 300
57.18748 305
57.20759 345
57.22771 264
57.24782 312
57.26793 291
57.28805 281
57.30816 294
57.32827 313
57.34839 295
57.3685 287
57.38861 278
57.40873 289
57.42884 305
57.44896 299
57.46907 279
57.48918 268
57.5093 239
57.52941 256
57.54952 271
57.56964 287
57.58975 268
57.60987 292
57.62998 299
57.65009 247
57.67021 273
57.69032 256
57.71043 268
57.73055 257
57.75066 245
57.77078 266
57.79089 286
57.811 263
57.83112 260
57.85123 265
57.87134 234
57.89146 260
57.91157 245
57.93168 251
57.9518 254
57.97191 211
57.99203 236
58.01214 265
58.03225 241
58.05237 252
58.07248 280
58.09259 252
58.11271 251
58.13282 260
58.15294 241
58.17305 246
58.19316 263
58.21328 260
58.23339 235
58.2535 276
58.27362 278
58.29373 255
58.31385 260
58.33396 266
58.35407 233
58.37419 295
58.3943 260
58.41441 247
58.43453 252
58.45464 245
58.47475 246
58.49487 272
58.51498 288
58.5351 255
58.55521 255
58.57532 273
58.59544 267
58.61555 291
58.63566 318
58.65578 264
58.67589 255
58.69601 272
58.71612 261
58.73623 257
58.75635 293
58.77646 271
58.79657 256
58.81669 252
58.8368 241
58.85691 252
58.87703 229
58.89714 270
58.91726 286
58.93737 244
58.95748 236
58.9776 269
58.99771 265
59.01782 241
59.03794 268
59.05805 251
59.07817 243
59.09828 253
59.11839 248
59.13851 248
59.15862 262
59.17873 286
59.19885 275
59.21896 261
59.23908 254
59.25919 295
59.2793 249
59.29942 274
59.31953 240
59.33964 274
59.35976 265
59.37987 285
59.39998 270
59.4201 307
59.44021 256
59.46033 306
59.48044 275
59.50055 315
59.52067 306
59.54078 296
59.56089 355
59.58101 372
59.60112 353
59.62124 368
59.64135 347
59.66146 408
59.68158 442
59.70169 454
59.7218 520
59.74192 605
59.76203 652
59.78215 813
59.80226 868
59.82237 997
59.84249 1049
59.8626 1118
59.88271 1186
59.90283 1142
59.92294 1040
59.94305 934
59.96317 819
59.98328 768
60.0034 721
60.02351 730
60.04362 751
60.06374 737
60.08385 633
60.10396 556
60.12408 461
60.14419 416
60.16431 388
60.18442 338
60.20453 297
60.22465 308
60.24476 271
60.26487 318
60.28499 286
60.3051 288
60.32522 285
60.34533 282
60.36544 300
60.38556 267
60.40567 293
60.42578 287
60.4459 276
60.46601 273
60.48612 310
60.50624 260
60.52635 307
60.54647 269
60.56658 285
60.58669 267
60.60681 269
60.62692 279
60.64703 280
60.66715 299
60.68726 257
60.70738 252
60.72749 285
60.7476 261
60.76772 285
60.78783 286
60.80794 262
60.82806 291
60.84817 262
60.86828 254
60.8884 283
60.90851 271
60.92863 273
60.94874 252
60.96885 289
60.98897 279
61.00908 302
61.02919 310
61.04931 314
61.06942 284
61.08954 330
61.10965 311
61.12976 340
61.14988 325
61.16999 298
61.1901 287
61.21022 310
61.23033 333
61.25045 333
61.27056 323
61.29067 320
61.31079 338
61.3309 347
61.35101 325
61.37113 329
61.39124 350
61.41135 350
61.43147 352
61.45158 367
61.4717 396
61.49181 391
61.51192 349
61.53204 354
61.55215 382
61.57226 405
61.59238 385
61.61249 362
61.63261 376
61.65272 393
61.67283 421
61.69295 383
61.71306 395
61.73317 419
61.75329 372
61.7734 362
61.79352 370
61.81363 370
61.83374 369
61.85386 378
61.87397 365
61.89408 345
61.9142 377
61.93431 345
61.95442 385
61.97454 339
61.99465 345
62.01477 368
62.03488 331
62.05499 358
62.07511 360
62.09522 318
62.11533 333
62.13545 301
62.15556 310
62.17568 316
62.19579 293
62.2159 329
62.23602 324
62.25613 297
62.27624 302
62.29636 292
62.31647 328
62.33659 294
62.3567 298
62.37681 280
62.39693 323
62.41704 275
62.43715 291
62.45727 287
62.47738 288
62.49749 273
62.51761 276
62.53772 296
62.55784 252
62.57795 275
62.59806 267
62.61818 325
62.63829 310
62.6584 292
62.67852 271
62.69863 286
62.71875 283
62.73886 239
62.75897 271
62.77909 280
62.7992 271
62.81931 241
62.83943 261
62.85954 247
62.87965 258
62.89977 269
62.91988 268
62.94 248
62.96011 279
62.98022 261
63.00034 241
63.02045 254
63.04056 247
63.06068 283
63.08079 246
63.10091 243
63.12102 229
63.14113 259
63.16125 236
63.18136 235
63.20147 252
63.22159 239
63.2417 246
63.26182 243
63.28193 246
63.30204 265
63.32216 261
63.34227 251
63.36238 253
63.3825 261
63.40261 285
63.42272 232
63.44284 268
63.46295 258
63.48307 270
63.50318 250
63.52329 281
63.54341 234
63.56352 253
63.58363 271
63.60375 260
63.62386 270
63.64398 281
63.66409 265
63.6842 303
63.70432 286
63.72443 271
63.74454 326
63.76466 300
63.78477 292
63.80489 317
63.825 321
63.84511 341
63.86523 339
63.88534 367
63.90545 368
63.92557 413
63.94568 397
63.96579 405
63.98591 386
64.00602 409
64.02614 340
64.04625 378
64.06636 340
64.08648 351
64.10659 331
64.1267 369
64.14682 365
64.16693 304
64.18705 309
64.20716 299
64.22727 258
64.24739 259
64.2675 261
64.28761 263
64.30773 253
64.32784 228
64.34796 258
64.36807 239
64.38818 258
64.4083 239
64.42841 268
64.44852 231
64.46864 234
64.48875 225
64.50886 254
64.52898 248
64.54909 227
64.56921 266
64.58932 265
64.60943 230
64.62955 235
64.64966 228
64.66977 229
64.68989 229
64.71 228
64.73012 216
64.75023 261
64.77034 269
64.79046 224
64.81057 216
64.83068 254
64.8508 245
64.87091 244
64.89102 247
64.91114 266
64.93125 220
64.95137 223
64.97148 211
64.99159 255
65.01171 229
65.03182 246
65.05193 271
65.07205 248
65.09216 201
65.11228 252
65.13239 237
65.1525 253
65.17262 242
65.19273 253
65.21284 255
65.23296 261
65.25307 238
65.27319 222
65.2933 245
65.31341 260
65.33353 237
65.35364 243
65.37375 247
65.39387 271
65.41398 241
65.43409 265
65.45421 224
65.47432 216
65.49444 268
65.51455 241
65.53466 276
65.55478 275
65.57489 261
65.595 264
65.61512 265
65.63523 269
65.65535 271
65.67546 257
65.69557 293
65.71569 284
65.7358 252
65.75591 275
65.77603 254
65.79614 249
65.81626 262
65.83637 232
65.85648 248
65.8766 255
65.89671 255
65.91682 260
65.93694 244
65.95705 225
65.97716 243
65.99728 233
66.01739 241
66.03751 214
66.05762 252
66.07773 216
66.09785 239
66.11796 256
66.13807 257
66.15819 228
66.1783 232
66.19842 236
66.21853 220
66.23864 258
66.25876 215
66.27887 225
66.29898 235
66.3191 242
66.33921 285
66.35933 251
66.37944 228
66.39955 230
66.41967 259
66.43978 240
66.45989 234
66.48001 220
66.50012 224
66.52023 210
66.54035 232
66.56046 240
66.58058 243
66.60069 262
66.6208 240
66.64092 248
66.66103 234
66.68114 224
66.70126 218
66.72137 230
66.74149 246
66.7616 205
66.78171 227
66.80183 245
66.82194 242
66.84205 232
66.86217 252
66.88228 242
66.90239 216
66.92251 220
66.94262 208
66.96274 238
66.98285 247
67.00296 234
67.02308 234
67.04319 228
67.0633 246
67.08342 239
67.10353 268
67.12365 244
67.14376 247
67.16387 233
67.18399 257
67.2041 265
67.22421 233
67.24433 256
67.26444 269
67.28456 275
67.30467 286
67.32478 279
67.3449 278
67.36501 317
67.38512 278
67.40524 323
67.42535 329
67.44546 362
67.46558 342
67.48569 348
67.50581 406
67.52592 465
67.54603 476
67.56615 581
67.58626 622
67.60637 715
67.62649 745
67.6466 783
67.66672 757
67.68683 779
67.70694 729
67.72706 602
67.74717 581
67.76728 529
67.7874 579
67.80751 619
67.82763 591
67.84774 612
67.86785 623
67.88797 672
67.90808 606
67.92819 591
67.94831 687
67.96842 692
67.98853 770
68.00865 787
68.02876 874
68.04888 953
68.06899 934
68.0891 938
68.10922 942
68.12933 863
68.14944 799
68.16956 829
68.18967 892
68.20979 880
68.2299 941
68.25001 929
68.27013 807
68.29024 758
68.31035 700
68.33047 581
68.35058 568
68.3707 498
68.39081 505
68.41092 449
68.43104 433
68.45115 449
68.47126 409
68.49138 357
68.51149 330
68.5316 328
68.55172 319
68.57183 272
68.59195 270
68.61206 248
68.63217 257
68.65229 268
68.6724 269
68.69251 271
68.71263 270
68.73274 277
68.75286 275
68.77297 265
68.79308 256
68.8132 225
68.83331 215
68.85342 225
68.87354 270
68.89365 233
68.91376 238
68.93388 263
68.95399 235
68.97411 232
68.99422 264
69.01433 241
69.03445 238
69.05456 230
69.07467 248
69.09479 241
69.1149 241
69.13502 251
69.15513 253
69.17524 278
69.19536 244
69.21547 265
69.23558 248
69.2557 242
69.27581 241
69.29593 229
69.31604 242
69.33615 230
69.35627 228
69.37638 226
69.39649 245
69.41661 229
69.43672 257
69.45683 229
69.47695 243
69.49706 258
69.51718 222
69.53729 234
69.5574 228
69.57752 219
69.59763 252
69.61774 243
69.63786 238
69.65797 261
69.67809 239
69.6982 200
69.71831 253
69.73843 231
69.75854 228
69.77865 240
69.79877 241
69.81888 247
69.839 235
69.85911 239
69.87922 229
69.89934 204
69.91945 212
69.93956 244
69.95968 249
69.97979 233
69.9999 227
70.02002 231
70.04013 208
70.06025 205
70.08036 214
70.10047 232
70.12059 244
70.1407 235
70.16081 236
70.18093 217
70.20104 221
70.22116 246
70.24127 237
70.26138 238
70.2815 227
70.30161 243
70.32172 242
70.34184 224
70.36195 228
70.38207 217
70.40218 215
70.42229 237
70.44241 254
70.46252 220
70.48263 194
70.50275 223
70.52286 211
70.54297 224
70.56309 207
70.5832 236
70.60332 205
70.62343 236
70.64354 208
70.66366 244
70.68377 228
70.70388 241
70.724 243
70.74411 237
70.76423 244
70.78434 217
70.80445 216
70.82457 216
70.84468 230
70.86479 223
70.88491 204
70.90502 224
70.92513 217
70.94525 221
70.96536 199
70.98548 224
71.00559 227
71.0257 221
71.04582 238
71.06593 233
71.08604 246
71.10616 218
71.12627 244
71.14639 223
71.1665 231
71.18661 226
71.20673 248
71.22684 250
71.24695 212
71.26707 237
71.28718 244
71.3073 224
71.32741 240
71.34752 237
71.36764 220
71.38775 233
71.40786 219
71.42798 205
71.44809 221
71.4682 232
71.48832 232
71.50843 221
71.52855 242
71.54866 242
71.56877 224
71.58889 234
71.609 251
71.62911 227
71.64923 256
71.66934 226
71.68946 223
71.70957 242
71.72968 243
71.7498 245
71.76991 280
71.79002 242
71.81014 238
71.83025 213
71.85037 247
71.87048 245
71.89059 237
71.91071 240
71.93082 212
71.95093 237
71.97105 231
71.99116 226
72.01127 218
72.03139 247
72.0515 217
72.07162 244
72.09173 253
72.11184 235
72.13196 226
72.15207 214
72.17218 255
72.1923 236
72.21241 271
72.23253 236
72.25264 263
72.27275 236
72.29287 264
72.31298 249
72.33309 219
72.35321 265
72.37332 252
72.39344 243
72.41355 239
72.43366 247
72.45378 246
72.47389 274
72.494 234
72.51412 271
72.53423 256
72.55434 245
72.57446 272
72.59457 258
72.61469 247
72.6348 259
72.65491 273
72.67503 246
72.69514 286
72.71525 285
72.73537 245
72.75548 278
72.7756 290
72.79571 257
72.81582 258
72.83594 241
72.85605 265
72.87616 270
72.89628 254
72.91639 249
72.9365 249
72.95662 260
72.97673 273
72.99685 257
73.01696 276
73.03707 270
73.05719 245
73.0773 257
73.09741 268
73.11753 289
73.13764 264
73.15776 279
73.17787 259
73.19798 294
73.2181 355
73.23821 322
73.25832 346
73.27844 335
73.29855 343
73.31867 397
73.33878 407
73.35889 441
73.37901 391
73.39912 430
73.41923 435
73.43935 417
73.45946 360
73.47957 357
73.49969 336
73.5198 349
73.53992 339
73.56003 310
73.58014 326
73.60026 294
73.62037 334
73.64048 335
73.6606 301
73.68071 316
73.70083 291
73.72094 241
73.74105 253
73.76117 247
73.78128 281
73.80139 256
73.82151 274
73.84162 269
73.86174 252
73.88185 224
73.90196 236
73.92208 234
73.94219 224
73.9623 232
73.98242 245
74.00253 232
74.02264 224
74.04276 254
74.06287 259
74.08299 240
74.1031 212
74.12321 237
74.14333 241
74.16344 204
74.18355 240
74.20367 267
74.22378 235
74.2439 209
74.26401 239
74.28412 231
74.30424 230
74.32435 225
74.34446 231
74.36458 258
74.38469 242
74.40481 222
74.42492 222
74.44503 249
74.46515 254
74.48526 236
74.50537 235
74.52549 240
74.5456 217
74.56571 211
74.58583 226
74.60594 203
74.62606 255
74.64617 244
74.66628 222
74.6864 223
74.70651 242
74.72662 255
74.74674 250
74.76685 251
74.78697 226
74.80708 224
74.82719 264
74.84731 234
74.86742 221
74.88753 231
74.90765 248
74.92776 220
74.94787 209
74.96799 237
74.9881 246
75.00822 229
