3.00117 19679
3.02128 19501
3.0414 18995
3.06151 18363
3.08162 18274
3.10174 17274
3.12185 16793
3.14197 16404
3.16208 16145
3.18219 15950
3.20231 15091
3.22242 14803
3.24253 14100
3.26265 13935
3.28276 13639
3.30288 12744
3.32299 12615
3.3431 12114
3.36322 11711
3.38333 11529
3.40344 10840
3.42356 10665
3.44367 9996
3.46379 9825
3.4839 9697
3.50401 9026
3.52413 9079
3.54424 8266
3.56435 8336
3.58447 8177
3.60458 7488
3.62469 7507
3.64481 7108
3.66492 6776
3.68504 6632
3.70515 6074
3.72526 5929
3.74538 5689
3.76549 5707
3.7856 5393
3.80572 4747
3.82583 4845
3.84595 4689
3.86606 4418
3.88617 4319
3.90629 4040
3.9264 4045
3.94651 3742
3.96663 3549
3.98674 3745
4.00686 3267
4.02697 3171
4.04708 2938
4.0672 2800
4.08731 2818
4.10742 2491
4.12754 2469
4.14765 2346
4.16776 2215
4.18788 2286
4.20799 1956
4.22811 2016
4.24822 1956
4.26833 1837
4.28845 2019
4.30856 1627
4.32867 1683
4.34879 1614
4.3689 1548
4.38902 1601
4.40913 1422
4.42924 1493
4.44936 1406
4.46947 1394
4.48958 1471
4.5097 1267
4.52981 1222
4.54992 1217
4.57004 1166
4.59015 1147
4.61027 1067
4.63038 1041
4.65049 1015
4.67061 1031
4.69072 1034
4.71083 1005
4.73095 920
4.75106 966
4.77118 947
4.79129 952
4.8114 881
4.83152 878
4.85163 838
4.87174 798
4.89186 842
4.91197 749
4.93209 795
4.9522 762
4.97231 730
4.99243 747
5.01254 691
5.03265 634
5.05277 656
5.07288 686
5.09299 617
5.11311 611
5.13322 583
5.15334 615
5.17345 662
5.19356 554
5.21368 539
5.23379 509
5.2539 542
5.27402 560
5.29413 465
5.31425 501
5.33436 465
5.35447 454
5.37459 480
5.3947 478
5.41481 457
5.43493 410
5.45504 409
5.47516 416
5.49527 396
5.51538 404
5.5355 367
5.55561 363
5.57572 409
5.59584 369
5.61595 373
5.63606 349
5.65618 375
5.67629 359
5.69641 358
5.71652 337
5.73663 328
5.75675 289
5.77686 357
5.79697 286
5.81709 296
5.8372 313
5.85732 327
5.87743 293
5.89754 281
5.91766 286
5.93777 304
5.95788 282
5.978 248
5.99811 291
6.01823 316
6.03834 278
6.05845 259
6.07857 295
6.09868 263
6.11879 272
6.13891 241
6.15902 236
6.17913 268
6.19925 249
6.21936 258
6.23948 251
6.25959 290
6.2797 226
6.29982 223
6.31993 238
6.34004 262
6.36016 238
6.38027 237
6.40039 249
6.4205 260
6.44061 247
6.46073 196
6.48084 277
6.50095 231
6.52107 227
6.54118 237
6.56129 233
6.58141 213
6.60152 231
6.62164 231
6.64175 250
6.66186 250
6.68198 237
6.70209 242
6.7222 229
6.74232 238
6.76243 231
6.78255 237
6.80266 218
6.82277 236
6.84289 230
6.863 236
6.88311 210
6.90323 238
6.92334 238
6.94346 209
6.96357 236
6.98368 215
7.0038 250
7.02391 218
7.04402 227
7.06414 273
7.08425 216
7.10436 241
7.12448 231
7.14459 222
7.16471 224
7.18482 206
7.20493 233
7.22505 248
7.24516 235
7.26527 221
7.28539 234
7.3055 245
7.32562 243
7.34573 243
7.36584 223
7.38596 231
7.40607 205
7.42618 221
7.4463 238
7.46641 227
7.48653 256
7.50664 241
7.52675 211
7.54687 266
7.56698 248
7.58709 248
7.60721 271
7.62732 235
7.64743 242
7.66755 235
7.68766 198
7.70778 252
7.72789 273
7.748 239
7.76812 242
7.78823 235
7.80834 256
7.82846 273
7.84857 212
7.86869 250
7.8888 246
7.90891 262
7.92903 251
7.94914 249
7.96925 271
7.98937 252
8.00948 258
8.0296 225
8.04971 252
8.06982 252
8.08994 291
8.11005 256
8.13016 236
8.15028 241
8.17039 254
8.1905 232
8.21062 204
8.23073 248
8.25085 259
8.27096 256
8.29107 290
8.31119 233
8.3313 271
8.35141 233
8.37153 226
8.39164 241
8.41176 234
8.43187 247
8.45198 245
8.4721 247
8.49221 274
8.51232 257
8.53244 262
8.55255 277
8.57266 252
8.59278 280
8.61289 245
8.63301 252
8.65312 235
8.67323 278
8.69335 230
8.71346 265
8.73357 272
8.75369 268
8.7738 251
8.79392 247
8.81403 259
8.83414 260
8.85426 250
8.87437 289
8.89448 284
8.9146 284
8.93471 245
8.95483 249
8.97494 259
8.99505 263
9.01517 272
9.03528 251
9.05539 254
9.07551 253
9.09562 264
9.11573 247
9.13585 244
9.15596 259
9.17608 258
9.19619 270
9.2163 257
9.23642 253
9.25653 250
9.27664 255
9.29676 264
9.31687 224
9.33699 248
9.3571 242
9.37721 227
9.39733 250
9.41744 256
9.43755 251
9.45767 250
9.47778 289
9.4979 263
9.51801 256
9.53812 239
9.55824 273
9.57835 282
9.59846 255
9.61858 275
9.63869 258
9.6588 230
9.67892 253
9.69903 268
9.71915 249
9.73926 273
9.75937 252
9.77949 258
9.7996 231
9.81971 247
9.83983 255
9.85994 249
9.88006 285
9.90017 249
9.92028 269
9.9404 285
9.96051 248
9.98062 276
10.00074 270
10.02085 285
10.04097 267
10.06108 252
10.08119 283
10.10131 271
10.12142 245
10.14153 248
10.16165 283
10.18176 238
10.20187 255
10.22199 261
10.2421 223
10.26222 279
10.28233 248
10.30244 244
10.32256 248
10.34267 250
10.36278 259
10.3829 273
10.40301 290
10.42313 260
10.44324 223
10.46335 280
10.48347 270
10.50358 231
10.52369 246
10.54381 252
10.56392 271
10.58403 271
10.60415 273
10.62426 254
10.64438 279
10.66449 270
10.6846 248
10.70472 260
10.72483 266
10.74494 252
10.76506 246
10.78517 258
10.80529 266
10.8254 282
10.84551 265
10.86563 254
10.88574 303
10.90585 263
10.92597 236
10.94608 274
10.9662 265
10.98631 261
11.00642 244
11.02654 248
11.04665 233
11.06676 225
11.08688 215
11.10699 235
11.1271 244
11.14722 252
11.16733 246
11.18745 277
11.20756 246
11.22767 275
11.24779 255
11.2679 291
11.28801 266
11.30813 319
11.32824 289
11.34836 280
11.36847 260
11.38858 302
11.4087 267
11.42881 251
11.44892 259
11.46904 255
11.48915 258
11.50927 271
11.52938 272
11.54949 240
11.56961 258
11.58972 296
11.60983 296
11.62995 295
11.65006 260
11.67017 258
11.69029 275
11.7104 278
11.73052 272
11.75063 261
11.77074 267
11.79086 276
11.81097 296
11.83108 262
11.8512 257
11.87131 307
11.89143 297
11.91154 296
11.93165 324
11.95177 297
11.97188 323
11.99199 302
12.01211 293
12.03222 332
12.05234 295
12.07245 330
12.09256 330
12.11268 327
12.13279 375
12.1529 368
12.17302 358
12.19313 404
12.21324 428
12.23336 416
12.25347 433
12.27359 436
12.2937 448
12.31381 455
12.33393 409
12.35404 501
12.37415 436
12.39427 452
12.41438 409
12.4345 423
12.45461 376
12.47472 351
12.49484 369
12.51495 312
12.53506 292
12.55518 287
12.57529 304
12.5954 302
12.61552 293
12.63563 254
12.65575 274
12.67586 255
12.69597 276
12.71609 266
12.7362 255
12.75631 234
12.77643 229
12.79654 280
12.81666 246
12.83677 243
12.85688 254
12.877 300
12.89711 264
12.91722 280
12.93734 245
12.95745 220
12.97757 235
12.99768 248
13.01779 224
13.03791 245
13.05802 264
13.07813 266
13.09825 249
13.11836 246
13.13847 227
13.15859 239
13.1787 236
13.19882 214
13.21893 241
13.23904 234
13.25916 248
13.27927 245
13.29938 216
13.3195 243
13.33961 230
13.35973 248
13.37984 240
13.39995 215
13.42007 255
13.44018 218
13.46029 226
13.48041 221
13.50052 250
13.52064 247
13.54075 203
13.56086 236
13.58098 242
13.60109 272
13.6212 251
13.64132 218
13.66143 224
13.68154 217
13.70166 238
13.72177 225
13.74189 226
13.762 210
13.78211 209
13.80223 233
13.82234 260
13.84245 240
13.86257 249
13.88268 238
13.9028 240
13.92291 258
13.94302 214
13.96314 223
13.98325 216
14.00336 241
14.02348 221
14.04359 226
14.06371 234
14.08382 236
14.10393 225
14.12405 267
14.14416 226
14.16427 234
14.18439 229
14.2045 219
14.22461 216
14.24473 247
14.26484 205
14.28496 233
14.30507 241
14.32518 230
14.3453 221
14.36541 256
14.38552 216
14.40564 188
14.42575 227
14.44587 235
14.46598 223
14.48609 200
14.50621 222
14.52632 250
14.54643 222
14.56655 204
14.58666 201
14.60677 204
14.62689 241
14.647 185
14.66712 212
14.68723 198
14.70734 187
14.72746 244
14.74757 218
14.76768 235
14.7878 196
14.80791 215
14.82803 211
14.84814 222
14.86825 187
14.88837 227
14.90848 235
14.92859 207
14.94871 225
14.96882 215
14.98894 222
15.00905 198
15.02916 205
15.04928 225
15.06939 221
15.0895 215
15.10962 213
15.12973 231
15.14984 228
15.16996 243
15.19007 237
15.21019 223
15.2303 209
15.25041 225
15.27053 225
15.29064 221
15.31075 200
15.33087 231
15.35098 203
15.3711 203
15.39121 227
15.41132 205
15.43144 219
15.45155 196
15.47166 221
15.49178 207
15.51189 208
15.53201 215
15.55212 229
15.57223 234
15.59235 194
15.61246 245
15.63257 265
15.65269 219
15.6728 233
15.69291 225
15.71303 224
15.73314 237
15.75326 227
15.77337 204
15.79348 198
15.8136 229
15.83371 197
15.85382 190
15.87394 235
15.89405 226
15.91417 231
15.93428 224
15.95439 190
15.97451 217
15.99462 198
16.01473 197
16.03485 192
16.05496 219
16.07508 239
16.09519 209
16.1153 234
16.13542 207
16.15553 209
16.17564 195
16.19576 219
16.21587 240
16.23598 214
16.2561 209
16.27621 185
16.29633 210
16.31644 198
16.33655 198
16.35667 208
16.37678 201
16.39689 173
16.41701 221
16.43712 215
16.45724 224
16.47735 218
16.49746 196
16.51758 218
16.53769 189
16.5578 215
16.57792 221
16.59803 207
16.61814 200
16.63826 212
16.65837 231
16.67849 231
16.6986 194
16.71871 207
16.73883 203
16.75894 215
16.77905 216
16.79917 195
16.81928 207
16.8394 197
16.85951 199
16.87962 180
16.89974 195
16.91985 215
16.93996 197
16.96008 219
16.98019 191
17.00031 213
17.02042 205
17.04053 209
17.06065 202
17.08076 179
17.10087 236
17.12099 237
17.1411 238
17.16121 208
17.18133 209
17.20144 189
17.22156 215
17.24167 210
17.26178 191
17.2819 206
17.30201 189
17.32212 218
17.34224 196
17.36235 191
17.38247 228
17.40258 216
17.42269 227
17.44281 214
17.46292 187
17.48303 243
17.50315 203
17.52326 197
17.54338 194
17.56349 245
17.5836 192
17.60372 220
17.62383 194
17.64394 212
17.66406 217
17.68417 205
17.70428 230
17.7244 181
17.74451 195
17.76463 231
17.78474 226
17.80485 195
17.82497 226
17.84508 197
17.86519 213
17.88531 211
17.90542 232
17.92554 224
17.94565 204
17.96576 188
17.98588 203
18.00599 203
18.0261 231
18.04622 232
18.06633 205
18.08645 208
18.10656 202
18.12667 204
18.14679 203
18.1669 197
18.18701 177
18.20713 188
18.22724 184
18.24735 207
18.26747 249
18.28758 209
18.3077 211
18.32781 210
18.34792 224
18.36804 210
18.38815 170
18.40826 201
18.42838 207
18.44849 227
18.46861 200
18.48872 206
18.50883 175
18.52895 257
18.54906 227
18.56917 191
18.58929 187
18.6094 205
18.62951 182
18.64963 202
18.66974 251
18.68986 224
18.70997 218
18.73008 232
18.7502 217
18.77031 228
18.79042 228
18.81054 237
18.83065 238
18.85077 218
18.87088 231
18.89099 250
18.91111 205
18.93122 217
18.95133 193
18.97145 190
18.99156 195
19.01168 208
19.03179 219
19.0519 198
19.07202 207
19.09213 228
19.11224 184
19.13236 219
19.15247 228
19.17258 205
19.1927 218
19.21281 200
19.23293 195
19.25304 180
19.27315 203
19.29327 188
19.31338 199
19.33349 244
19.35361 189
19.37372 206
19.39384 200
19.41395 201
19.43406 231
19.45418 233
19.47429 209
19.4944 220
19.51452 226
19.53463 204
19.55475 204
19.57486 245
19.59497 281
19.61509 254
19.6352 261
19.65531 260
19.67543 233
19.69554 254
19.71565 292
19.73577 306
19.75588 323
19.776 309
19.79611 338
19.81622 332
19.83634 382
19.85645 381
19.87656 370
19.89668 384
19.91679 357
19.93691 412
19.95702 354
19.97713 413
19.99725 379
20.01736 339
20.03747 329
20.05759 366
20.0777 404
20.09782 362
20.11793 379
20.13804 385
20.15816 377
20.17827 363
20.19838 387
20.2185 409
20.23861 402
20.25872 382
20.27884 392
20.29895 394
20.31907 407
20.33918 395
20.35929 401
20.37941 411
20.39952 418
20.41963 390
20.43975 447
20.45986 425
20.47998 418
20.50009 442
20.5202 445
20.54032 476
20.56043 487
20.58054 495
20.60066 524
20.62077 535
20.64088 555
20.661 687
20.68111 809
20.70123 974
20.72134 1309
20.74145 1919
20.76157 2904
20.78168 4005
20.80179 5800
20.82191 7282
20.84202 7932
20.86214 8009
20.88225 6847
20.90236 5109
20.92248 3556
20.94259 2157
20.9627 1244
20.98282 867
21.00293 713
21.02305 633
21.04316 537
21.06327 527
21.08339 536
21.1035 523
21.12361 523
21.14373 472
21.16384 464
21.18395 458
21.20407 502
21.22418 464
21.2443 437
21.26441 425
21.28452 436
21.30464 439
21.32475 432
21.34486 441
21.36498 390
21.38509 398
21.40521 423
21.42532 411
21.44543 389
21.46555 392
21.48566 349
21.50577 353
21.52589 368
21.546 366
21.56612 319
21.58623 331
21.60634 325
21.62646 274
21.64657 316
21.66668 329
21.6868 317
21.70691 312
21.72702 294
21.74714 310
21.76725 301
21.78737 305
21.80748 287
21.82759 300
21.84771 283
21.86782 333
21.88793 279
21.90805 281
21.92816 290
21.94828 302
21.96839 286
21.9885 314
22.00862 315
22.02873 281
22.04884 257
22.06896 273
22.08907 294
22.10919 253
22.1293 278
22.14941 279
22.16953 244
22.18964 286
22.20975 286
22.22987 269
22.24998 271
22.27009 267
22.29021 268
22.31032 284
22.33044 276
22.35055 248
22.37066 270
22.39078 302
22.41089 246
22.431 268
22.45112 256
22.47123 276
22.49135 278
22.51146 276
22.53157 277
22.55169 268
22.5718 298
22.59191 272
22.61203 273
22.63214 293
22.65225 267
22.67237 262
22.69248 254
22.7126 249
22.73271 258
22.75282 279
22.77294 263
22.79305 242
22.81316 264
22.83328 272
22.85339 270
22.87351 216
22.89362 222
22.91373 253
22.93385 238
22.95396 265
22.97407 249
22.99419 242
23.0143 257
23.03442 277
23.05453 264
23.07464 251
23.09476 240
23.11487 266
23.13498 262
23.1551 230
23.17521 308
23.19532 284
23.21544 274
23.23555 239
23.25567 272
23.27578 263
23.29589 273
23.31601 256
23.33612 239
23.35623 269
23.37635 260
23.39646 223
23.41658 261
23.43669 259
23.4568 282
23.47692 241
23.49703 245
23.51714 294
23.53726 258
23.55737 261
23.57749 255
23.5976 263
23.61771 258
23.63783 289
23.65794 284
23.67805 271
23.69817 234
23.71828 255
23.73839 272
23.75851 280
23.77862 261
23.79874 264
23.81885 247
23.83896 267
23.85908 268
23.87919 272
23.8993 315
23.91942 304
23.93953 303
23.95965 327
23.97976 306
23.99987 346
24.01999 324
24.0401 328
24.06021 300
24.08033 297
24.10044 309
24.12056 287
24.14067 262
24.16078 271
24.1809 300
24.20101 297
24.22112 294
24.24124 268
24.26135 276
24.28146 288
24.30158 267
24.32169 288
24.34181 249
24.36192 245
24.38203 255
24.40215 277
24.42226 256
24.44237 284
24.46249 284
24.4826 273
24.50272 275
24.52283 283
24.54294 312
24.56306 265
24.58317 310
24.60328 300
24.6234 310
24.64351 278
24.66362 322
24.68374 332
24.70385 321
24.72397 360
24.74408 359
24.76419 366
24.78431 372
24.80442 374
24.82453 405
24.84465 408
24.86476 438
24.88488 362
24.90499 372
24.9251 398
24.94522 401
24.96533 383
24.98544 379
25.00556 323
25.02567 365
25.04579 301
25.0659 299
25.08601 303
25.10613 277
25.12624 271
25.14635 286
25.16647 287
25.18658 287
25.20669 294
25.22681 310
25.24692 353
25.26704 310
25.28715 349
25.30726 304
25.32738 341
25.34749 338
25.3676 299
25.38772 284
25.40783 296
25.42795 257
25.44806 317
25.46817 275
25.48829 314
25.5084 284
25.52851 312
25.54863 288
25.56874 313
25.58886 331
25.60897 334
25.62908 307
25.6492 364
25.66931 403
25.68942 386
25.70954 404
25.72965 429
25.74976 487
25.76988 469
25.78999 449
25.81011 440
25.83022 442
25.85033 482
25.87045 473
25.89056 464
25.91067 458
25.93079 500
25.9509 431
25.97102 484
25.99113 481
26.01124 489
26.03136 549
26.05147 527
26.07158 552
26.0917 590
26.11181 619
26.13193 604
26.15204 655
26.17215 706
26.19227 746
26.21238 799
26.23249 837
26.25261 850
26.27272 926
26.29283 1006
26.31295 1111
26.33306 1137
26.35318 1140
26.37329 1332
26.3934 1546
26.41352 1841
26.43363 2414
26.45374 3045
26.47386 3957
26.49397 5683
26.51409 8289
26.5342 12468
26.55431 17662
26.57443 24617
26.59454 31708
26.61465 36507
26.63477 37132
26.65488 31993
26.67499 24842
26.69511 19011
26.71522 14021
26.73534 8414
26.75545 4403
26.77556 2680
26.79568 1961
26.81579 1644
26.8359 1393
26.85602 1349
26.87613 1206
26.89625 1098
26.91636 1025
26.93647 909
26.95659 839
26.9767 780
26.99681 675
27.01693 662
27.03704 607
27.05716 567
27.07727 555
27.09738 524
27.1175 494
27.13761 498
27.15772 481
27.17784 455
27.19795 431
27.21806 454
27.23818 455
27.25829 436
27.27841 417
27.29852 436
27.31863 423
27.33875 423
27.35886 427
27.37897 461
27.39909 433
27.4192 482
27.43932 440
27.45943 428
27.47954 419
27.49966 409
27.51977 388
27.53988 394
27.56 375
27.58011 374
27.60023 382
27.62034 378
27.64045 386
27.66057 371
27.68068 361
27.70079 359
27.72091 357
27.74102 365
27.76113 333
27.78125 374
27.80136 308
27.82148 356
27.84159 335
27.8617 285
27.88182 343
27.90193 325
27.92204 342
27.94216 303
27.96227 335
27.98239 345
28.0025 314
28.02261 318
28.04273 346
28.06284 291
28.08295 300
28.10307 311
28.12318 286
28.1433 318
28.16341 316
28.18352 272
28.20364 300
28.22375 281
28.24386 314
28.26398 310
28.28409 281
28.3042 312
28.32432 315
28.34443 271
28.36455 283
28.38466 288
28.40477 295
28.42489 301
28.445 303
28.46511 288
28.48523 267
28.50534 302
28.52546 265
28.54557 271
28.56568 272
28.5858 269
28.60591 264
28.62602 292
28.64614 298
28.66625 289
28.68636 267
28.70648 286
28.72659 272
28.74671 274
28.76682 270
28.78693 266
28.80705 272
28.82716 261
28.84727 254
28.86739 272
28.8875 300
28.90762 267
28.92773 279
28.94784 279
28.96796 259
28.98807 283
29.00818 278
29.0283 259
29.04841 275
29.06853 245
29.08864 257
29.10875 231
29.12887 237
29.14898 288
29.16909 247
29.18921 246
29.20932 254
29.22943 274
29.24955 271
29.26966 291
29.28978 272
29.30989 253
29.33 273
29.35012 273
29.37023 245
29.39034 279
29.41046 228
29.43057 292
29.45069 279
29.4708 271
29.49091 261
29.51103 266
29.53114 254
29.55125 234
29.57137 243
29.59148 251
29.6116 268
29.63171 275
29.65182 268
29.67194 259
29.69205 277
29.71216 271
29.73228 244
29.75239 279
29.7725 265
29.79262 217
29.81273 286
29.83285 247
29.85296 279
29.87307 249
29.89319 249
29.9133 250
29.93341 239
29.95353 275
29.97364 259
29.99376 243
30.01387 290
30.03398 258
30.0541 242
30.07421 290
30.09432 248
30.11444 258
30.13455 262
30.15467 240
30.17478 265
30.19489 225
30.21501 274
30.23512 242
30.25523 249
30.27535 246
30.29546 250
30.31557 276
30.33569 257
30.3558 244
30.37592 238
30.39603 251
30.41614 259
30.43626 234
30.45637 258
30.47648 244
30.4966 240
30.51671 236
30.53683 260
30.55694 241
30.57705 229
30.59717 264
30.61728 235
30.63739 257
30.65751 233
30.67762 247
30.69773 239
30.71785 256
30.73796 244
30.75808 258
30.77819 244
30.7983 265
30.81842 262
30.83853 233
30.85864 231
30.87876 251
30.89887 257
30.91899 228
30.9391 248
30.95921 228
30.97933 245
30.99944 259
31.01955 214
31.03967 240
31.05978 237
31.0799 234
31.10001 249
31.12012 254
31.14024 232
31.16035 213
31.18046 195
31.20058 222
31.22069 219
31.2408 212
31.26092 220
31.28103 247
31.30115 236
31.32126 242
31.34137 239
31.36149 218
31.3816 244
31.40171 235
31.42183 218
31.44194 203
31.46206 229
31.48217 255
31.50228 241
31.5224 224
31.54251 222
31.56262 244
31.58274 212
31.60285 222
31.62297 209
31.64308 211
31.66319 248
31.68331 240
31.70342 200
31.72353 212
31.74365 241
31.76376 202
31.78387 235
31.80399 206
31.8241 206
31.84422 220
31.86433 215
31.88444 211
31.90456 222
31.92467 219
31.94478 220
31.9649 221
31.98501 244
32.00513 229
32.02524 244
32.04535 213
32.06547 232
32.08558 212
32.10569 200
32.12581 216
32.14592 244
32.16604 192
32.18615 209
32.20626 206
32.22638 215
32.24649 229
32.2666 230
32.28672 245
32.30683 213
32.32694 203
32.34706 209
32.36717 230
32.38729 220
32.4074 211
32.42751 201
32.44763 199
32.46774 210
32.48785 214
32.50797 222
32.52808 243
32.5482 198
32.56831 232
32.58842 230
32.60854 222
32.62865 239
32.64876 235
32.66888 244
32.68899 237
32.7091 220
32.72922 213
32.74933 239
32.76945 212
32.78956 249
32.80967 232
32.82979 217
32.8499 232
32.87001 240
32.89013 258
32.91024 233
32.93036 218
32.95047 249
32.97058 248
32.9907 236
33.01081 260
33.03092 271
33.05104 237
33.07115 259
33.09127 307
33.11138 280
33.13149 272
33.15161 277
33.17172 297
33.19183 258
33.21195 267
33.23206 314
33.25217 274
33.27229 301
33.2924 259
33.31252 276
33.33263 280
33.35274 264
33.37286 251
33.39297 262
33.41308 258
33.4332 249
33.45331 246
33.47343 251
33.49354 227
33.51365 237
33.53377 241
33.55388 226
33.57399 268
33.59411 233
33.61422 244
33.63434 208
33.65445 254
33.67456 170
33.69468 188
33.71479 210
33.7349 221
33.75502 208
33.77513 206
33.79524 211
33.81536 232
33.83547 222
33.85559 242
33.8757 226
33.89581 237
33.91593 174
33.93604 220
33.95615 212
33.97627 226
33.99638 214
34.0165 217
34.03661 204
34.05672 204
34.07684 209
34.09695 220
34.11706 222
34.13718 188
34.15729 198
34.17741 199
34.19752 210
34.21763 206
34.23775 216
34.25786 211
34.27797 221
34.29809 202
34.3182 233
34.33831 228
34.35843 217
34.37854 228
34.39866 192
34.41877 208
34.43888 220
34.459 195
34.47911 206
34.49922 219
34.51934 220
34.53945 236
34.55957 231
34.57968 227
34.59979 236
34.61991 235
34.64002 261
34.66013 236
34.68025 216
34.70036 237
34.72047 257
34.74059 271
34.7607 296
34.78082 247
34.80093 258
34.82104 274
34.84116 286
34.86127 304
34.88138 318
34.9015 298
34.92161 287
34.94173 319
34.96184 283
34.98195 286
35.00207 273
35.02218 262
35.04229 278
35.06241 287
35.08252 280
35.10264 274
35.12275 288
35.14286 252
35.16298 272
35.18309 275
35.2032 265
35.22332 273
35.24343 278
35.26354 256
35.28366 263
35.30377 307
35.32389 268
35.344 301
35.36411 270
35.38423 284
35.40434 252
35.42445 277
35.44457 281
35.46468 313
35.4848 303
35.50491 308
35.52502 313
35.54514 292
35.56525 301
35.58536 304
35.60548 338
35.62559 276
35.64571 296
35.66582 317
35.68593 370
35.70605 345
35.72616 364
35.74627 355
35.76639 344
35.7865 299
35.80661 331
35.82673 334
35.84684 324
35.86696 319
35.88707 268
35.90718 297
35.9273 309
35.94741 274
35.96752 307
35.98764 298
36.00775 295
36.02787 298
36.04798 299
36.06809 297
36.08821 321
36.10832 278
36.12843 315
36.14855 287
36.16866 281
36.18878 292
36.20889 301
36.229 346
36.24912 343
36.26923 331
36.28934 402
36.30946 419
36.32957 474
36.34968 532
36.3698 612
36.38991 685
36.41003 922
36.43014 1136
36.45025 1551
36.47037 1880
36.49048 2202
36.51059 2584
36.53071 2507
36.55082 2252
36.57094 1907
36.59105 1580
36.61116 1456
36.63128 1333
36.65139 993
36.6715 675
36.69162 531
36.71173 412
36.73184 410
36.75196 327
36.77207 348
36.79219 373
36.8123 336
36.83241 345
36.85253 338
36.87264 333
36.89275 342
36.91287 275
36.93298 301
36.9531 298
36.97321 288
36.99332 276
37.01344 293
37.03355 281
37.05366 256
37.07378 279
37.09389 256
37.11401 253
37.13412 251
37.15423 276
37.17435 269
37.19446 242
37.21457 264
37.23469 257
37.2548 260
37.27491 250
37.29503 233
37.31514 218
37.33526 233
37.35537 222
37.37548 253
37.3956 222
37.41571 226
37.43582 266
37.45594 240
37.47605 236
37.49617 247
37.51628 258
37.53639 204
37.55651 245
37.57662 253
37.59673 269
37.61685 238
37.63696 289
37.65708 245
37.67719 262
37.6973 258
37.71742 256
37.73753 260
37.75764 280
37.77776 240
37.79787 216
37.81798 235
37.8381 224
37.85821 251
37.87833 232
37.89844 239
37.91855 231
37.93867 247
37.95878 237
37.97889 249
37.99901 253
38.01912 261
38.03924 243
38.05935 237
38.07946 260
38.09958 215
38.11969 257
38.1398 255
38.15992 226
38.18003 242
38.20015 255
38.22026 260
38.24037 269
38.26049 256
38.2806 282
38.30071 293
38.32083 291
38.34094 255
38.36105 270
38.38117 269
38.40128 268
38.4214 292
38.44151 279
38.46162 260
38.48174 290
38.50185 275
38.52196 291
38.54208 316
38.56219 285
38.58231 301
38.60242 263
38.62253 292
38.64265 288
38.66276 294
38.68287 263
38.70299 264
38.7231 242
38.74321 275
38.76333 245
38.78344 276
38.80356 285
38.82367 258
38.84378 243
38.8639 247
38.88401 249
38.90412 252
38.92424 245
38.94435 254
38.96447 275
38.98458 272
39.00469 259
39.02481 266
39.04492 287
39.06503 278
39.08515 269
39.10526 291
39.12538 319
39.14549 314
39.1656 336
39.18572 323
39.20583 324
39.22594 382
39.24606 413
39.26617 457
39.28628 572
39.3064 653
39.32651 789
39.34663 946
39.36674 1263
39.38685 1644
39.40697 2056
39.42708 2346
39.44719 2327
39.46731 2142
39.48742 1779
39.50754 1382
39.52765 1387
39.54776 1308
39.56788 1100
39.58799 767
39.6081 524
39.62822 383
39.64833 323
39.66845 319
39.68856 285
39.70867 300
39.72879 278
39.7489 300
39.76901 276
39.78913 244
39.80924 258
39.82935 253
39.84947 268
39.86958 281
39.8897 274
39.90981 275
39.92992 288
39.95004 264
39.97015 264
39.99026 272
40.01038 277
40.03049 290
40.05061 311
40.07072 345
40.09083 338
40.11095 374
40.13106 472
40.15117 502
40.17129 621
40.1914 741
40.21152 950
40.23163 1091
40.25174 1296
40.27186 1233
40.29197 1170
40.31208 973
40.3322 782
40.35231 732
40.37242 718
40.39254 644
40.41265 494
40.43277 368
40.45288 306
40.47299 290
40.49311 271
40.51322 241
40.53333 250
40.55345 251
40.57356 243
40.59368 254
40.61379 237
40.6339 217
40.65402 229
40.67413 268
40.69424 250
40.71436 244
40.73447 246
40.75458 220
40.7747 224
40.79481 236
40.81493 239
40.83504 243
40.85515 238
40.87527 231
40.89538 252
40.91549 272
40.93561 239
40.95572 233
40.97584 255
40.99595 248
41.01606 216
41.03618 221
41.05629 222
41.0764 252
41.09652 252
41.11663 275
41.13675 250
41.15686 250
41.17697 233
41.19709 242
41.2172 234
41.23731 237
41.25743 240
41.27754 229
41.29765 238
41.31777 222
41.33788 233
41.358 229
41.37811 219
41.39822 250
41.41834 225
41.43845 226
41.45856 232
41.47868 242
41.49879 251
41.51891 228
41.53902 222
41.55913 249
41.57925 215
41.59936 216
41.61947 223
41.63959 261
41.6597 212
41.67982 220
41.69993 258
41.72004 241
41.74016 224
41.76027 213
41.78038 213
41.8005 245
41.82061 231
41.84072 206
41.86084 219
41.88095 217
41.90107 215
41.92118 199
41.94129 257
41.96141 224
41.98152 240
42.00163 228
42.02175 264
42.04186 265
42.06198 236
42.08209 230
42.1022 260
42.12232 274
42.14243 262
42.16254 267
42.18266 280
42.20277 330
42.22289 316
42.243 351
42.26311 402
42.28323 483
42.30334 568
42.32345 754
42.34357 890
42.36368 1222
42.38379 1441
42.40391 1604
42.42402 1685
42.44414 1664
42.46425 1344
42.48436 1077
42.50448 1037
42.52459 1025
42.5447 861
42.56482 742
42.58493 559
42.60505 379
42.62516 295
42.64527 301
42.66539 228
42.6855 236
42.70561 259
42.72573 247
42.74584 252
42.76595 252
42.78607 225
42.80618 233
42.8263 217
42.84641 214
42.86652 229
42.88664 218
42.90675 204
42.92686 209
42.94698 205
42.96709 202
42.98721 223
43.00732 211
43.02743 210
43.04755 202
43.06766 198
43.08777 201
43.10789 207
43.128 194
43.14812 212
43.16823 197
43.18834 214
43.20846 186
43.22857 183
43.24868 215
43.2688 236
43.28891 210
43.30902 211
43.32914 210
43.34925 203
43.36937 194
43.38948 192
43.40959 216
43.42971 203
43.44982 181
43.46993 194
43.49005 175
43.51016 204
43.53028 199
43.55039 208
43.5705 183
43.59062 208
43.61073 213
43.63084 189
43.65096 216
43.67107 191
43.69119 197
43.7113 180
43.73141 210
43.75153 194
43.77164 197
43.79175 188
43.81187 184
43.83198 187
43.85209 199
43.87221 209
43.89232 188
43.91244 205
43.93255 218
43.95266 194
43.97278 216
43.99289 168
44.013 194
44.03312 180
44.05323 202
44.07335 196
44.09346 199
44.11357 200
44.13369 195
44.1538 172
44.17391 192
44.19403 192
44.21414 173
44.23426 208
44.25437 176
44.27448 222
44.2946 203
44.31471 210
44.33482 193
44.35494 177
44.37505 193
44.39516 199
44.41528 207
44.43539 209
44.45551 168
44.47562 201
44.49573 220
44.51585 192
44.53596 213
44.55607 188
44.57619 178
44.5963 229
44.61642 186
44.63653 194
44.65664 193
44.67676 221
44.69687 188
44.71698 209
44.7371 186
44.75721 201
44.77732 186
44.79744 173
44.81755 191
44.83767 209
44.85778 196
44.87789 211
44.89801 195
44.91812 202
44.93823 193
44.95835 172
44.97846 179
44.99858 218
45.01869 210
45.0388 243
45.05892 195
45.07903 188
45.09914 215
45.11926 187
45.13937 184
45.15949 209
45.1796 213
45.19971 188
45.21983 207
45.23994 194
45.26005 222
45.28017 218
45.30028 220
45.32039 221
45.34051 195
45.36062 204
45.38074 220
45.40085 199
45.42096 231
45.44108 255
45.46119 226
45.4813 257
45.50142 245
45.52153 265
45.54165 308
45.56176 275
45.58187 313
45.60199 370
45.6221 396
45.64221 467
45.66233 572
45.68244 701
45.70256 792
45.72267 1007
45.74278 1135
45.7629 1218
45.78301 1137
45.80312 962
45.82324 845
45.84335 727
45.86346 744
45.88358 653
45.90369 644
45.92381 518
45.94392 366
45.96403 277
45.98415 246
46.00426 243
46.02437 224
46.04449 255
46.0646 214
46.08472 222
46.10483 234
46.12494 207
46.14506 224
46.16517 218
46.18528 225
46.2054 209
46.22551 201
46.24563 222
46.26574 227
46.28585 221
46.30597 201
46.32608 220
46.34619 189
46.36631 182
46.38642 192
46.40653 207
46.42665 201
46.44676 187
46.46688 186
46.48699 192
46.5071 201
46.52722 203
46.54733 199
46.56744 223
46.58756 189
46.60767 184
46.62779 200
46.6479 197
46.66801 204
46.68813 196
46.70824 202
46.72835 183
46.74847 171
46.76858 198
46.78869 192
46.80881 203
46.82892 184
46.84904 206
46.86915 158
46.88926 183
46.90938 185
46.92949 176
46.9496 180
46.96972 197
46.98983 192
47.00995 195
47.03006 208
47.05017 219
47.07029 189
47.0904 188
47.11051 166
47.13063 203
47.15074 203
47.17086 200
47.19097 193
47.21108 194
47.2312 176
47.25131 202
47.27142 201
47.29154 195
47.31165 182
47.33176 189
47.35188 191
47.37199 178
47.39211 204
47.41222 200
47.43233 191
47.45245 193
47.47256 173
47.49267 188
47.51279 205
47.5329 216
47.55302 189
47.57313 181
47.59324 175
47.61336 216
47.63347 174
47.65358 185
47.6737 184
47.69381 178
47.71393 184
47.73404 184
47.75415 182
47.77427 199
47.79438 205
47.81449 190
47.83461 171
47.85472 197
47.87483 171
47.89495 190
47.91506 198
47.93518 199
47.95529 215
47.9754 189
47.99552 191
48.01563 188
48.03574 195
48.05586 192
48.07597 184
48.09609 194
48.1162 183
48.13631 198
48.15643 190
48.17654 198
48.19665 186
48.21677 205
48.23688 185
48.257 207
48.27711 196
48.29722 201
48.31734 200
48.33745 186
48.35756 185
48.37768 182
48.39779 181
48.4179 192
48.43802 173
48.45813 205
48.47825 220
48.49836 199
48.51847 193
48.53859 221
48.5587 193
48.57881 186
48.59893 205
48.61904 214
48.63916 161
48.65927 200
48.67938 198
48.6995 199
48.71961 211
48.73972 208
48.75984 205
48.77995 197
48.80006 208
48.82018 207
48.84029 192
48.86041 198
48.88052 210
48.90063 203
48.92075 178
48.94086 178
48.96097 177
48.98109 209
49.0012 206
49.02132 207
49.04143 213
49.06154 228
49.08166 219
49.10177 204
49.12188 211
49.142 220
49.16211 181
49.18223 206
49.20234 215
49.22245 220
49.24257 212
49.26268 223
49.28279 219
49.30291 192
49.32302 245
49.34313 213
49.36325 239
49.38336 231
49.40348 220
49.42359 224
49.4437 215
49.46382 210
49.48393 233
49.50404 235
49.52416 226
49.54427 242
49.56439 247
49.5845 240
49.60461 236
49.62473 237
49.64484 267
49.66495 258
49.68507 250
49.70518 268
49.7253 261
49.74541 274
49.76552 321
49.78564 308
49.80575 331
49.82586 384
49.84598 392
49.86609 432
49.8862 464
49.90632 545
49.92643 645
49.94655 755
49.96666 960
49.98677 1185
50.00689 1583
50.027 2000
50.04711 2495
50.06723 3097
50.08734 3560
50.10746 3617
50.12757 3483
50.14768 2845
50.1678 2379
50.18791 1979
50.20802 1916
50.22814 2017
50.24825 1817
50.26837 1560
50.28848 1153
50.30859 772
50.32871 566
50.34882 452
50.36893 346
50.38905 338
50.40916 318
50.42927 321
50.44939 288
50.4695 329
50.48962 305
50.50973 297
50.52984 284
50.54996 332
50.57007 324
50.59018 312
50.6103 332
50.63041 304
50.65053 263
50.67064 238
50.69075 244
50.71087 288
50.73098 301
50.75109 240
50.77121 251
50.79132 215
50.81143 223
50.83155 221
50.85166 205
50.87178 234
50.89189 212
50.912 215
50.93212 199
50.95223 208
50.97234 226
50.99246 193
51.01257 212
51.03269 198
51.0528 214
51.07291 210
51.09303 201
51.11314 217
51.13325 216
51.15337 208
51.17348 199
51.1936 200
51.21371 177
51.23382 184
51.25394 195
51.27405 197
51.29416 182
51.31428 178
51.33439 187
51.3545 178
51.37462 196
51.39473 170
51.41485 187
51.43496 189
51.45507 179
51.47519 176
51.4953 193
51.51541 192
51.53553 184
51.55564 166
51.57576 178
51.59587 195
51.61598 166
51.6361 170
51.65621 197
51.67632 159
51.69644 192
51.71655 183
51.73667 171
51.75678 184
51.77689 193
51.79701 177
51.81712 172
51.83723 182
51.85735 203
51.87746 212
51.89757 197
51.91769 188
51.9378 181
51.95792 169
51.97803 181
51.99814 195
52.01826 171
52.03837 140
52.05848 185
52.0786 191
52.09871 194
52.11883 171
52.13894 171
52.15905 208
52.17917 193
52.19928 200
52.21939 173
52.23951 171
52.25962 165
52.27974 177
52.29985 193
52.31996 202
52.34008 179
52.36019 158
52.3803 199
52.40042 181
52.42053 187
52.44064 165
52.46076 162
52.48087 199
52.50099 167
52.5211 191
52.54121 167
52.56133 185
52.58144 183
52.60155 196
52.62167 171
52.64178 181
52.6619 189
52.68201 195
52.70212 189
52.72224 168
52.74235 180
52.76246 197
52.78258 192
52.80269 180
52.8228 171
52.84292 206
52.86303 177
52.88315 191
52.90326 172
52.92337 184
52.94349 174
52.9636 200
52.98371 195
53.00383 167
53.02394 185
53.04406 202
53.06417 206
53.08428 162
53.1044 192
53.12451 212
53.14462 196
53.16474 230
53.18485 207
53.20497 201
53.22508 215
53.24519 202
53.26531 218
53.28542 228
53.30553 227
53.32565 238
53.34576 217
53.36587 231
53.38599 201
53.4061 230
53.42622 213
53.44633 218
53.46644 216
53.48656 243
53.50667 218
53.52678 243
53.5469 217
53.56701 232
53.58713 207
53.60724 208
53.62735 222
53.64747 236
53.66758 211
53.68769 221
53.70781 230
53.72792 198
53.74804 204
53.76815 201
53.78826 218
53.80838 223
53.82849 222
53.8486 219
53.86872 245
53.88883 227
53.90894 208
53.92906 235
53.94917 209
53.96929 211
53.9894 239
54.00951 228
54.02963 245
54.04974 216
54.06985 254
54.08997 240
54.11008 204
54.1302 218
54.15031 249
54.17042 209
54.19054 231
54.21065 251
54.23076 262
54.25088 240
54.27099 227
54.29111 239
54.31122 241
54.33133 236
54.35145 250
54.37156 240
54.39167 245
54.41179 222
54.4319 232
54.45201 240
54.47213 236
54.49224 269
54.51236 269
54.53247 264
54.55258 277
54.5727 248
54.59281 295
54.61292 311
54.63304 329
54.65315 365
54.67327 406
54.69338 417
54.71349 496
54.73361 631
54.75372 676
54.77383 791
54.79395 990
54.81406 1149
54.83417 1183
54.85429 1180
54.8744 987
54.89452 829
54.91463 699
54.93474 699
54.95486 705
54.97497 714
54.99508 648
55.0152 594
55.03531 546
55.05543 398
55.07554 355
55.09565 335
55.11577 323
55.13588 318
55.15599 391
55.17611 362
55.19622 426
55.21634 454
55.23645 489
55.25656 569
55.27668 624
55.29679 613
55.3169 616
55.33702 479
55.35713 441
55.37724 393
55.39736 409
55.41747 405
55.43759 413
55.4577 424
55.47781 377
55.49793 274
55.51804 259
55.53815 261
55.55827 205
55.57838 229
55.5985 228
55.61861 220
55.63872 244
55.65884 202
55.67895 193
55.69906 211
55.71918 212
55.73929 208
55.75941 221
55.77952 202
55.79963 204
55.81975 195
55.83986 187
55.85997 198
55.88009 216
55.9002 206
55.92031 199
55.94043 182
55.96054 198
55.98066 201
56.00077 202
56.02088 203
56.041 188
56.06111 168
56.08122 200
56.10134 224
56.12145 214
56.14157 188
56.16168 193
56.18179 185
56.20191 195
56.22202 184
56.24213 176
56.26225 173
56.28236 175
56.30248 209
56.32259 195
56.3427 207
56.36282 211
56.38293 183
56.40304 214
56.42316 197
56.44327 205
56.46338 188
56.4835 206
56.50361 193
56.52373 229
56.54384 202
56.56395 196
56.58407 208
56.60418 200
56.62429 193
56.64441 220
56.66452 202
56.68464 194
56.70475 184
56.72486 175
56.74498 156
56.76509 190
56.7852 183
56.80532 168
56.82543 192
56.84554 191
56.86566 201
56.88577 182
56.90589 193
56.926 206
56.94611 195
56.96623 176
56.98634 188
57.00645 170
57.02657 201
57.04668 205
57.0668 197
57.08691 235
57.10702 221
57.12714 189
57.14725 223
57.16736 199
57.18748 255
57.20759 200
57.22771 230
57.24782 209
57.26793 213
57.28805 225
57.30816 201
57.32827 190
57.34839 238
57.3685 208
57.38861 200
57.40873 190
57.42884 191
57.44896 181
57.46907 198
57.48918 188
57.5093 174
57.52941 209
57.54952 211
57.56964 194
57.58975 201
57.60987 187
57.62998 187
57.65009 204
57.67021 181
57.69032 200
57.71043 193
57.73055 193
57.75066 199
57.77078 189
57.79089 192
57.811 190
57.83112 179
57.85123 191
57.87134 200
57.89146 191
57.91157 197
57.93168 197
57.9518 170
57.97191 179
57.99203 190
58.01214 174
58.03225 189
58.05237 178
58.07248 172
58.09259 194
58.11271 185
58.13282 194
58.15294 164
58.17305 169
58.19316 180
58.21328 167
58.23339 178
58.2535 171
58.27362 187
58.29373 218
58.31385 188
58.33396 196
58.35407 172
58.37419 180
58.3943 179
58.41441 184
58.43453 193
58.45464 195
58.47475 176
58.49487 175
58.51498 192
58.5351 206
58.55521 191
58.57532 200
58.59544 161
58.61555 176
58.63566 213
58.65578 191
58.67589 181
58.69601 185
58.71612 183
58.73623 180
58.75635 183
58.77646 190
58.79657 195
58.81669 177
58.8368 181
58.85691 194
58.87703 205
58.89714 193
58.91726 191
58.93737 205
58.95748 200
58.9776 189
58.99771 168
59.01782 172
59.03794 204
59.05805 209
59.07817 201
59.09828 198
59.11839 199
59.13851 184
59.15862 206
59.17873 212
59.19885 203
59.21896 225
59.23908 208
59.25919 213
59.2793 205
59.29942 211
59.31953 246
59.33964 192
59.35976 186
59.37987 226
59.39998 209
59.4201 226
59.44021 243
59.46033 250
59.48044 245
59.50055 243
59.52067 244
59.54078 243
59.56089 269
59.58101 297
59.60112 297
59.62124 268
59.64135 340
59.66146 346
59.68158 361
59.70169 454
59.7218 488
59.74192 517
59.76203 664
59.78215 749
59.80226 1026
59.82237 1179
59.84249 1447
59.8626 1792
59.88271 2057
59.90283 2251
59.92294 2335
59.94305 2099
59.96317 1747
59.98328 1396
60.0034 1149
60.02351 1196
60.04362 1237
60.06374 1247
60.08385 1233
60.10396 1200
60.12408 898
60.14419 661
60.16431 464
60.18442 349
60.20453 315
60.22465 300
60.24476 263
60.26487 256
60.28499 256
60.3051 245
60.32522 224
60.34533 232
60.36544 222
60.38556 226
60.40567 221
60.42578 196
60.4459 210
60.46601 222
60.48612 213
60.50624 203
60.52635 179
60.54647 177
60.56658 167
60.58669 194
60.60681 196
60.62692 200
60.64703 184
60.66715 187
60.68726 185
60.70738 185
60.72749 170
60.7476 169
60.76772 191
60.78783 167
60.80794 169
60.82806 203
60.84817 172
60.86828 191
60.8884 184
60.90851 193
60.92863 211
60.94874 197
60.96885 181
60.98897 180
61.00908 198
61.02919 179
61.04931 195
61.06942 178
61.08954 181
61.10965 184
61.12976 184
61.14988 179
61.16999 209
61.1901 194
61.21022 164
61.23033 161
61.25045 183
61.27056 181
61.29067 205
61.31079 176
61.3309 177
61.35101 207
61.37113 185
61.39124 194
61.41135 195
61.43147 180
61.45158 191
61.4717 205
61.49181 204
61.51192 200
61.53204 194
61.55215 182
61.57226 191
61.59238 195
61.61249 208
61.63261 179
61.65272 190
61.67283 159
61.69295 188
61.71306 204
61.73317 188
61.75329 193
61.7734 206
61.79352 223
61.81363 192
61.83374 198
61.85386 180
61.87397 209
61.89408 201
61.9142 178
61.93431 213
61.95442 208
61.97454 203
61.99465 211
62.01477 199
62.03488 211
62.05499 198
62.07511 199
62.09522 220
62.11533 189
62.13545 258
62.15556 247
62.17568 248
62.19579 235
62.2159 232
62.23602 245
62.25613 211
62.27624 244
62.29636 236
62.31647 227
62.33659 219
62.3567 210
62.37681 238
62.39693 184
62.41704 212
62.43715 213
62.45727 245
62.47738 224
62.49749 214
62.51761 214
62.53772 220
62.55784 192
62.57795 197
62.59806 197
62.61818 198
62.63829 213
62.6584 197
62.67852 190
62.69863 192
62.71875 158
62.73886 194
62.75897 189
62.77909 177
62.7992 200
62.81931 195
62.83943 213
62.85954 173
62.87965 178
62.89977 177
62.91988 190
62.94 171
62.96011 215
62.98022 188
63.00034 183
63.02045 180
63.04056 176
63.06068 188
63.08079 178
63.10091 190
63.12102 193
63.14113 189
63.16125 186
63.18136 180
63.20147 185
63.22159 161
63.2417 176
63.26182 194
63.28193 193
63.30204 179
63.32216 184
63.34227 182
63.36238 183
63.3825 193
63.40261 169
63.42272 181
63.44284 176
63.46295 213
63.48307 194
63.50318 202
63.52329 184
63.54341 171
63.56352 205
63.58363 180
63.60375 175
63.62386 189
63.64398 199
63.66409 218
63.6842 191
63.70432 189
63.72443 209
63.74454 215
63.76466 231
63.78477 234
63.80489 275
63.825 222
63.84511 249
63.86523 293
63.88534 349
63.90545 367
63.92557 460
63.94568 485
63.96579 554
63.98591 544
64.00602 557
64.02614 542
64.04625 425
64.06636 405
64.08648 365
64.10659 359
64.1267 357
64.14682 392
64.16693 357
64.18705 410
64.20716 297
64.22727 282
64.24739 252
64.2675 228
64.28761 197
64.30773 205
64.32784 173
64.34796 205
64.36807 194
64.38818 170
64.4083 194
64.42841 195
64.44852 186
64.46864 184
64.48875 176
64.50886 181
64.52898 178
64.54909 175
64.56921 165
64.58932 167
64.60943 163
64.62955 165
64.64966 175
64.66977 166
64.68989 166
64.71 179
64.73012 159
64.75023 160
64.77034 170
64.79046 193
64.81057 179
64.83068 176
64.8508 163
64.87091 146
64.89102 156
64.91114 169
64.93125 163
64.95137 160
64.97148 182
64.99159 145
65.01171 173
65.03182 172
65.05193 176
65.07205 167
65.09216 169
65.11228 174
65.13239 169
65.1525 168
65.17262 182
65.19273 194
65.21284 172
65.23296 180
65.25307 179
65.27319 185
65.2933 149
65.31341 169
65.33353 166
65.35364 178
65.37375 185
65.39387 173
65.41398 164
65.43409 172
65.45421 166
65.47432 216
65.49444 177
65.51455 177
65.53466 176
65.55478 174
65.57489 201
65.595 210
65.61512 217
65.63523 206
65.65535 216
65.67546 227
65.69557 270
65.71569 278
65.7358 270
65.75591 285
65.77603 268
65.79614 239
65.81626 235
65.83637 236
65.85648 229
65.8766 237
65.89671 210
65.91682 233
65.93694 206
65.95705 222
65.97716 209
65.99728 208
66.01739 195
66.03751 200
66.05762 186
66.07773 180
66.09785 178
66.11796 184
66.13807 173
66.15819 173
66.1783 178
66.19842 176
66.21853 171
66.23864 147
66.25876 181
66.27887 180
66.29898 175
66.3191 161
66.33921 179
66.35933 161
66.37944 206
66.39955 178
66.41967 172
66.43978 202
66.45989 181
66.48001 183
66.50012 166
66.52023 186
66.54035 177
66.56046 167
66.58058 172
66.60069 172
66.6208 174
66.64092 170
66.66103 164
66.68114 183
66.70126 180
66.72137 178
66.74149 180
66.7616 172
66.78171 195
66.80183 172
66.82194 167
66.84205 183
66.86217 181
66.88228 176
66.90239 182
66.92251 211
66.94262 194
66.96274 191
66.98285 187
67.00296 178
67.02308 193
67.04319 197
67.0633 186
67.08342 178
67.10353 180
67.12365 161
67.14376 210
67.16387 195
67.18399 210
67.2041 213
67.22421 215
67.24433 223
67.26444 211
67.28456 225
67.30467 234
67.32478 248
67.3449 244
67.36501 208
67.38512 231
67.40524 311
67.42535 260
67.44546 266
67.46558 298
67.48569 340
67.50581 361
67.52592 405
67.54603 464
67.56615 578
67.58626 621
67.60637 745
67.62649 897
67.6466 1117
67.66672 1216
67.68683 1310
67.70694 1399
67.72706 1187
67.74717 1070
67.76728 919
67.7874 774
67.80751 724
67.82763 753
67.84774 868
67.86785 895
67.88797 943
67.90808 967
67.92819 890
67.94831 889
67.96842 900
67.98853 888
68.00865 1042
68.02876 1178
68.04888 1398
68.06899 1525
68.0891 1743
68.10922 1761
68.12933 1749
68.14944 1546
68.16956 1373
68.18967 1297
68.20979 1298
68.2299 1512
68.25001 1570
68.27013 1644
68.29024 1641
68.31035 1483
68.33047 1254
68.35058 1005
68.3707 782
68.39081 701
68.41092 667
68.43104 676
68.45115 687
68.47126 660
68.49138 581
68.51149 538
68.5316 394
68.55172 316
68.57183 278
68.59195 265
68.61206 234
68.63217 222
68.65229 228
68.6724 212
68.69251 206
68.71263 183
68.73274 209
68.75286 232
68.77297 211
68.79308 213
68.8132 186
68.83331 215
68.85342 184
68.87354 191
68.89365 186
68.91376 206
68.93388 202
68.95399 204
68.97411 176
68.99422 212
69.01433 187
69.03445 173
69.05456 180
69.07467 186
69.09479 172
69.1149 196
69.13502 180
69.15513 191
69.17524 168
69.19536 174
69.21547 172
69.23558 173
69.2557 189
69.27581 202
69.29593 164
69.31604 169
69.33615 152
69.35627 168
69.37638 166
69.39649 185
69.41661 178
69.43672 201
69.45683 154
69.47695 188
69.49706 165
69.51718 194
69.53729 171
69.5574 149
69.57752 167
69.59763 155
69.61774 165
69.63786 154
69.65797 167
69.67809 156
69.6982 178
69.71831 167
69.73843 158
69.75854 150
69.77865 179
69.79877 187
69.81888 157
69.839 160
69.85911 181
69.87922 172
69.89934 182
69.91945 187
69.93956 161
69.95968 150
69.97979 188
69.9999 150
70.02002 185
70.04013 187
70.06025 162
70.08036 174
70.10047 189
70.12059 167
70.1407 159
70.16081 166
70.18093 172
70.20104 166
70.22116 158
70.24127 139
70.26138 187
70.2815 169
70.30161 161
70.32172 161
70.34184 155
70.36195 184
70.38207 173
70.40218 158
70.42229 150
70.44241 143
70.46252 152
70.48263 182
70.50275 170
70.52286 177
70.54297 176
70.56309 158
70.5832 173
70.60332 166
70.62343 154
70.64354 186
70.66366 155
70.68377 159
70.70388 140
70.724 162
70.74411 178
70.76423 181
70.78434 151
70.80445 164
70.82457 157
70.84468 172
70.86479 170
70.88491 161
70.90502 184
70.92513 151
70.94525 179
70.96536 164
70.98548 148
71.00559 150
71.0257 152
71.04582 153
71.06593 153
71.08604 143
71.10616 169
71.12627 174
71.14639 172
71.1665 148
71.18661 151
71.20673 148
71.22684 159
71.24695 159
71.26707 160
71.28718 161
71.3073 172
71.32741 155
71.34752 182
71.36764 168
71.38775 169
71.40786 152
71.42798 148
71.44809 157
71.4682 165
71.48832 167
71.50843 165
71.52855 179
71.54866 170
71.56877 150
71.58889 178
71.609 161
71.62911 151
71.64923 155
71.66934 181
71.68946 151
71.70957 161
71.72968 168
71.7498 160
71.76991 168
71.79002 164
71.81014 183
71.83025 166
71.85037 129
71.87048 195
71.89059 149
71.91071 173
71.93082 186
71.95093 163
71.97105 153
71.99116 163
72.01127 173
72.03139 164
72.0515 183
72.07162 171
72.09173 172
72.11184 149
72.13196 142
72.15207 158
72.17218 156
72.1923 164
72.21241 183
72.23253 174
72.25264 168
72.27275 157
72.29287 150
72.31298 159
72.33309 154
72.35321 150
72.37332 171
72.39344 167
72.41355 171
72.43366 146
72.45378 179
72.47389 152
72.494 164
72.51412 143
72.53423 163
72.55434 161
72.57446 148
72.59457 161
72.61469 153
72.6348 143
72.65491 150
72.67503 157
72.69514 133
72.71525 151
72.73537 157
72.75548 160
72.7756 169
72.79571 138
72.81582 157
72.83594 158
72.85605 168
72.87616 152
72.89628 163
72.91639 156
72.9365 172
72.95662 165
72.97673 173
72.99685 176
73.01696 162
73.03707 178
73.05719 190
73.0773 162
73.09741 183
73.11753 191
73.13764 209
73.15776 189
73.17787 187
73.19798 221
73.2181 218
73.23821 244
73.25832 231
73.27844 265
73.29855 314
73.31867 342
73.33878 361
73.35889 426
73.37901 488
73.39912 510
73.41923 570
73.43935 587
73.45946 511
73.47957 450
73.49969 371
73.5198 330
73.53992 309
73.56003 274
73.58014 322
73.60026 329
73.62037 360
73.64048 377
73.6606 330
73.68071 287
73.70083 256
73.72094 231
73.74105 188
73.76117 184
73.78128 152
73.80139 186
73.82151 192
73.84162 174
73.86174 167
73.88185 162
73.90196 179
73.92208 174
73.94219 162
73.9623 164
73.98242 125
74.00253 158
74.02264 164
74.04276 161
74.06287 176
74.08299 168
74.1031 158
74.12321 169
74.14333 152
74.16344 176
74.18355 177
74.20367 157
74.22378 163
74.2439 168
74.26401 144
74.28412 156
74.30424 160
74.32435 152
74.34446 172
74.36458 143
74.38469 152
74.40481 178
74.42492 140
74.44503 141
74.46515 160
74.48526 169
74.50537 152
74.52549 149
74.5456 177
74.56571 171
74.58583 159
74.60594 192
74.62606 160
74.64617 147
74.66628 159
74.6864 161
74.70651 189
74.72662 149
74.74674 146
74.76685 151
74.78697 179
74.80708 176
74.82719 165
74.84731 160
74.86742 166
74.88753 161
74.90765 183
74.92776 166
74.94787 152
74.96799 152
74.9881 155
75.00822 192
