3.00117 19587
3.02128 19327
3.0414 18875
3.06151 18463
3.08162 18074
3.10174 17374
3.12185 17059
3.14197 16331
3.16208 15992
3.18219 15530
3.20231 14984
3.22242 14769
3.24253 14222
3.26265 13861
3.28276 13473
3.30288 12814
3.32299 12920
3.3431 12031
3.36322 11711
3.38333 11499
3.40344 10742
3.42356 10814
3.44367 10364
3.46379 10013
3.4839 9604
3.50401 9232
3.52413 9154
3.54424 8573
3.56435 8477
3.58447 8106
3.60458 7677
3.62469 7657
3.64481 7180
3.66492 6847
3.68504 6801
3.70515 6198
3.72526 6197
3.74538 5923
3.76549 5702
3.7856 5340
3.80572 5144
3.82583 5212
3.84595 4888
3.86606 4725
3.88617 4451
3.90629 4246
3.9264 4201
3.94651 3820
3.96663 3709
3.98674 3587
4.00686 3401
4.02697 3452
4.04708 3098
4.0672 2994
4.08731 2798
4.10742 2559
4.12754 2625
4.14765 2627
4.16776 2359
4.18788 2366
4.20799 2150
4.22811 2244
4.24822 2137
4.26833 1970
4.28845 1912
4.30856 1749
4.32867 1842
4.34879 1853
4.3689 1797
4.38902 1718
4.40913 1611
4.42924 1625
4.44936 1621
4.46947 1472
4.48958 1486
4.5097 1416
4.52981 1342
4.54992 1412
4.57004 1270
4.59015 1327
4.61027 1347
4.63038 1280
4.65049 1266
4.67061 1199
4.69072 1159
4.71083 1049
4.73095 1082
4.75106 1117
4.77118 1028
4.79129 1036
4.8114 1035
4.83152 1052
4.85163 1007
4.87174 946
4.89186 965
4.91197 905
4.93209 923
4.9522 882
4.97231 862
4.99243 862
5.01254 824
5.03265 813
5.05277 845
5.07288 758
5.09299 766
5.11311 743
5.13322 729
5.15334 715
5.17345 668
5.19356 700
5.21368 612
5.23379 673
5.2539 659
5.27402 608
5.29413 604
5.31425 584
5.33436 608
5.35447 571
5.37459 558
5.3947 604
5.41481 564
5.43493 556
5.45504 538
5.47516 447
5.49527 499
5.51538 489
5.5355 478
5.55561 497
5.57572 450
5.59584 452
5.61595 489
5.63606 474
5.65618 442
5.67629 436
5.69641 453
5.71652 417
5.73663 435
5.75675 454
5.77686 400
5.79697 393
5.81709 403
5.8372 397
5.85732 402
5.87743 360
5.89754 369
5.91766 378
5.93777 397
5.95788 355
5.978 374
5.99811 373
6.01823 394
6.03834 378
6.05845 349
6.07857 351
6.09868 353
6.11879 345
6.13891 354
6.15902 366
6.17913 344
6.19925 343
6.21936 345
6.23948 311
6.25959 374
6.2797 347
6.29982 329
6.31993 342
6.34004 335
6.36016 386
6.38027 372
6.40039 340
6.4205 334
6.44061 318
6.46073 339
6.48084 342
6.50095 336
6.52107 345
6.54118 346
6.56129 327
6.58141 324
6.60152 330
6.62164 315
6.64175 355
6.66186 376
6.68198 381
6.70209 367
6.7222 362
6.74232 369
6.76243 391
6.78255 396
6.80266 365
6.82277 369
6.84289 388
6.863 380
6.88311 433
6.90323 414
6.92334 437
6.94346 503
6.96357 408
6.98368 511
7.0038 489
7.02391 499
7.04402 508
7.06414 532
7.08425 556
7.10436 518
7.12448 566
7.14459 613
7.16471 638
7.18482 694
7.20493 669
7.22505 690
7.24516 692
7.26527 756
7.28539 747
7.3055 839
7.32562 839
7.34573 755
7.36584 790
7.38596 726
7.40607 760
7.42618 740
7.4463 676
7.46641 699
7.48653 669
7.50664 655
7.52675 592
7.54687 633
7.56698 610
7.58709 563
7.60721 599
7.62732 545
7.64743 507
7.66755 505
7.68766 529
7.70778 573
7.72789 509
7.748 481
7.76812 557
7.78823 465
7.80834 487
7.82846 506
7.84857 550
7.86869 522
7.8888 511
7.90891 529
7.92903 552
7.94914 630
7.96925 574
7.98937 624
8.00948 654
8.0296 707
8.04971 735
8.06982 708
8.08994 826
8.11005 854
8.13016 863
8.15028 915
8.17039 924
8.1905 999
8.21062 1069
8.23073 1084
8.25085 1153
8.27096 1205
8.29107 1211
8.31119 1267
8.3313 1295
8.35141 1350
8.37153 1398
8.39164 1344
8.41176 1338
8.43187 1375
8.45198 1263
8.4721 1296
8.49221 1237
8.51232 1246
8.53244 1179
8.55255 1175
8.57266 1099
8.59278 992
8.61289 959
8.63301 866
8.65312 853
8.67323 790
8.69335 708
8.71346 706
8.73357 619
8.75369 608
8.7738 563
8.79392 524
8.81403 530
8.83414 457
8.85426 488
8.87437 478
8.89448 427
8.9146 372
8.93471 371
8.95483 359
8.97494 371
8.99505 384
9.01517 321
9.03528 311
9.05539 311
9.07551 345
9.09562 317
9.11573 303
9.13585 301
9.15596 264
9.17608 293
9.19619 280
9.2163 288
9.23642 293
9.25653 292
9.27664 274
9.29676 274
9.31687 252
9.33699 275
9.3571 294
9.37721 279
9.39733 302
9.41744 296
9.43755 258
9.45767 277
9.47778 277
9.4979 250
9.51801 248
9.53812 284
9.55824 281
9.57835 246
9.59846 239
9.61858 232
9.63869 218
9.6588 255
9.67892 225
9.69903 259
9.71915 241
9.73926 249
9.75937 250
9.77949 281
9.7996 254
9.81971 262
9.83983 223
9.85994 240
9.88006 252
9.90017 249
9.92028 246
9.9404 267
9.96051 238
9.98062 256
10.00074 229
10.02085 212
10.04097 218
10.06108 245
10.08119 249
10.10131 234
10.12142 217
10.14153 228
10.16165 227
10.18176 234
10.20187 212
10.22199 251
10.2421 231
10.26222 260
10.28233 252
10.30244 241
10.32256 271
10.34267 230
10.36278 228
10.3829 246
10.40301 227
10.42313 226
10.44324 234
10.46335 227
10.48347 209
10.50358 250
10.52369 227
10.54381 249
10.56392 194
10.58403 241
10.60415 251
10.62426 255
10.64438 228
10.66449 233
10.6846 232
10.70472 243
10.72483 248
10.74494 238
10.76506 231
10.78517 231
10.80529 187
10.8254 239
10.84551 239
10.86563 234
10.88574 236
10.90585 239
10.92597 244
10.94608 234
10.9662 208
10.98631 235
11.00642 221
11.02654 253
11.04665 243
11.06676 243
11.08688 216
11.10699 208
11.1271 224
11.14722 209
11.16733 226
11.18745 226
11.20756 220
11.22767 208
11.24779 224
11.2679 224
11.28801 191
11.30813 233
11.32824 217
11.34836 213
11.36847 257
11.38858 233
11.4087 228
11.42881 197
11.44892 231
11.46904 236
11.48915 228
11.50927 254
11.52938 232
11.54949 230
11.56961 231
11.58972 253
11.60983 260
11.62995 253
11.65006 233
11.67017 245
11.69029 241
11.7104 262
11.73052 234
11.75063 261
11.77074 229
11.79086 240
11.81097 240
11.83108 239
11.8512 260
11.87131 247
11.89143 236
11.91154 211
11.93165 243
11.95177 240
11.97188 233
11.99199 248
12.01211 240
12.03222 222
12.05234 217
12.07245 225
12.09256 214
12.11268 215
12.13279 227
12.1529 210
12.17302 239
12.19313 225
12.21324 217
12.23336 232
12.25347 227
12.27359 206
12.2937 222
12.31381 230
12.33393 209
12.35404 233
12.37415 240
12.39427 210
12.41438 238
12.4345 227
12.45461 192
12.47472 220
12.49484 193
12.51495 228
12.53506 249
12.55518 207
12.57529 215
12.5954 244
12.61552 213
12.63563 223
12.65575 206
12.67586 226
12.69597 240
12.71609 230
12.7362 250
12.75631 235
12.77643 219
12.79654 234
12.81666 237
12.83677 211
12.85688 185
12.877 221
12.89711 204
12.91722 213
12.93734 221
12.95745 222
12.97757 205
12.99768 266
13.01779 235
13.03791 255
13.05802 209
13.07813 252
13.09825 229
13.11836 226
13.13847 224
13.15859 198
13.1787 277
13.19882 267
13.21893 260
13.23904 209
13.25916 238
13.27927 269
13.29938 252
13.3195 230
13.33961 244
13.35973 247
13.37984 241
13.39995 263
13.42007 249
13.44018 290
13.46029 233
13.48041 294
13.50052 280
13.52064 272
13.54075 262
13.56086 277
13.58098 267
13.60109 260
13.6212 288
13.64132 308
13.66143 342
13.68154 332
13.70166 312
13.72177 277
13.74189 280
13.762 286
13.78211 318
13.80223 278
13.82234 281
13.84245 274
13.86257 248
13.88268 298
13.9028 265
13.92291 277
13.94302 275
13.96314 271
13.98325 255
14.00336 271
14.02348 248
14.04359 242
14.06371 247
14.08382 227
14.10393 239
14.12405 239
14.14416 228
14.16427 227
14.18439 226
14.2045 233
14.22461 230
14.24473 232
14.26484 231
14.28496 215
14.30507 220
14.32518 189
14.3453 212
14.36541 216
14.38552 209
14.40564 217
14.42575 242
14.44587 195
14.46598 218
14.48609 233
14.50621 199
14.52632 214
14.54643 187
14.56655 200
14.58666 236
14.60677 207
14.62689 201
14.647 220
14.66712 236
14.68723 212
14.70734 209
14.72746 224
14.74757 221
14.76768 191
14.7878 210
14.80791 205
14.82803 202
14.84814 212
14.86825 200
14.88837 192
14.90848 202
14.92859 203
14.94871 227
14.96882 223
14.98894 240
15.00905 232
15.02916 218
15.04928 205
15.06939 177
15.0895 217
15.10962 233
15.12973 225
15.14984 211
15.16996 216
15.19007 209
15.21019 223
15.2303 181
15.25041 180
15.27053 223
15.29064 188
15.31075 203
15.33087 217
15.35098 182
15.3711 229
15.39121 198
15.41132 206
15.43144 212
15.45155 214
15.47166 216
15.49178 224
15.51189 197
15.53201 209
15.55212 200
15.57223 220
15.59235 195
15.61246 205
15.63257 185
15.65269 181
15.6728 231
15.69291 229
15.71303 179
15.73314 183
15.75326 186
15.77337 202
15.79348 220
15.8136 222
15.83371 196
15.85382 209
15.87394 223
15.89405 227
15.91417 238
15.93428 198
15.95439 199
15.97451 233
15.99462 235
16.01473 221
16.03485 245
16.05496 220
16.07508 223
16.09519 230
16.1153 253
16.13542 227
16.15553 274
16.17564 253
16.19576 247
16.21587 245
16.23598 249
16.2561 274
16.27621 225
16.29633 276
16.31644 234
16.33655 285
16.35667 270
16.37678 288
16.39689 265
16.41701 260
16.43712 272
16.45724 248
16.47735 243
16.49746 257
16.51758 242
16.53769 232
16.5578 273
16.57792 264
16.59803 221
16.61814 206
16.63826 194
16.65837 243
16.67849 207
16.6986 215
16.71871 221
16.73883 190
16.75894 221
16.77905 203
16.79917 198
16.81928 203
16.8394 224
16.85951 199
16.87962 180
16.89974 205
16.91985 202
16.93996 184
16.96008 186
16.98019 207
17.00031 230
17.02042 214
17.04053 199
17.06065 216
17.08076 197
17.10087 188
17.12099 192
17.1411 207
17.16121 212
17.18133 184
17.20144 215
17.22156 207
17.24167 201
17.26178 214
17.2819 210
17.30201 208
17.32212 186
17.34224 199
17.36235 199
17.38247 194
17.40258 200
17.42269 195
17.44281 224
17.46292 212
17.48303 210
17.50315 199
17.52326 208
17.54338 219
17.56349 243
17.5836 200
17.60372 205
17.62383 228
17.64394 237
17.66406 232
17.68417 237
17.70428 199
17.7244 212
17.74451 231
17.76463 223
17.78474 206
17.80485 207
17.82497 214
17.84508 223
17.86519 213
17.88531 167
17.90542 209
17.92554 213
17.94565 200
17.96576 222
17.98588 194
18.00599 211
18.0261 206
18.04622 203
18.06633 187
18.08645 202
18.10656 237
18.12667 194
18.14679 184
18.1669 186
18.18701 198
18.20713 182
18.22724 192
18.24735 198
18.26747 201
18.28758 196
18.3077 171
18.32781 203
18.34792 203
18.36804 206
18.38815 210
18.40826 180
18.42838 193
18.44849 212
18.46861 212
18.48872 196
18.50883 212
18.52895 217
18.54906 172
18.56917 206
18.58929 217
18.6094 187
18.62951 185
18.64963 214
18.66974 220
18.68986 197
18.70997 199
18.73008 234
18.7502 220
18.77031 175
18.79042 187
18.81054 213
18.83065 226
18.85077 230
18.87088 208
18.89099 211
18.91111 220
18.93122 194
18.95133 220
18.97145 217
18.99156 251
19.01168 222
19.03179 212
19.0519 205
19.07202 220
19.09213 205
19.11224 229
19.13236 203
19.15247 182
19.17258 230
19.1927 211
19.21281 204
19.23293 252
19.25304 217
19.27315 277
19.29327 240
19.31338 255
19.33349 262
19.35361 270
19.37372 284
19.39384 283
19.41395 283
19.43406 274
19.45418 283
19.47429 297
19.4944 313
19.51452 354
19.53463 337
19.55475 368
19.57486 328
19.59497 358
19.61509 354
19.6352 367
19.65531 382
19.67543 390
19.69554 398
19.71565 410
19.73577 370
19.75588 417
19.776 391
19.79611 434
19.81622 415
19.83634 421
19.85645 375
19.87656 396
19.89668 397
19.91679 384
19.93691 366
19.95702 392
19.97713 379
19.99725 356
20.01736 370
20.03747 358
20.05759 333
20.0777 362
20.09782 334
20.11793 337
20.13804 383
20.15816 335
20.17827 345
20.19838 361
20.2185 330
20.23861 369
20.25872 387
20.27884 341
20.29895 371
20.31907 363
20.33918 369
20.35929 394
20.37941 377
20.39952 399
20.41963 427
20.43975 435
20.45986 468
20.47998 471
20.50009 515
20.5202 580
20.54032 600
20.56043 617
20.58054 783
20.60066 858
20.62077 1038
20.64088 1245
20.661 1409
20.68111 1793
20.70123 2341
20.72134 2759
20.74145 3494
20.76157 3917
20.78168 4357
20.80179 4608
20.82191 4686
20.84202 4306
20.86214 3789
20.88225 3098
20.90236 2369
20.92248 1804
20.94259 1325
20.9627 1051
20.98282 819
21.00293 674
21.02305 588
21.04316 526
21.06327 524
21.08339 472
21.1035 441
21.12361 421
21.14373 401
21.16384 400
21.18395 402
21.20407 409
21.22418 372
21.2443 359
21.26441 376
21.28452 395
21.30464 376
21.32475 393
21.34486 342
21.36498 402
21.38509 387
21.40521 393
21.42532 373
21.44543 344
21.46555 360
21.48566 348
21.50577 352
21.52589 317
21.546 313
21.56612 365
21.58623 317
21.60634 291
21.62646 315
21.64657 289
21.66668 303
21.6868 277
21.70691 278
21.72702 293
21.74714 270
21.76725 267
21.78737 315
21.80748 280
21.82759 297
21.84771 288
21.86782 263
21.88793 292
21.90805 296
21.92816 318
21.94828 286
21.96839 273
21.9885 324
22.00862 261
22.02873 264
22.04884 266
22.06896 274
22.08907 301
22.10919 281
22.1293 294
22.14941 272
22.16953 273
22.18964 258
22.20975 268
22.22987 285
22.24998 290
22.27009 294
22.29021 260
22.31032 259
22.33044 293
22.35055 304
22.37066 280
22.39078 261
22.41089 244
22.431 267
22.45112 260
22.47123 231
22.49135 277
22.51146 272
22.53157 287
22.55169 262
22.5718 239
22.59191 268
22.61203 258
22.63214 234
22.65225 273
22.67237 274
22.69248 240
22.7126 215
22.73271 243
22.75282 227
22.77294 249
22.79305 220
22.81316 249
22.83328 241
22.85339 241
22.87351 262
22.89362 255
22.91373 254
22.93385 256
22.95396 250
22.97407 279
22.99419 301
23.0143 256
23.03442 276
23.05453 282
23.07464 272
23.09476 307
23.11487 287
23.13498 289
23.1551 296
23.17521 274
23.19532 275
23.21544 258
23.23555 289
23.25567 287
23.27578 256
23.29589 279
23.31601 227
23.33612 261
23.35623 253
23.37635 286
23.39646 295
23.41658 300
23.43669 279
23.4568 317
23.47692 287
23.49703 353
23.51714 315
23.53726 336
23.55737 358
23.57749 361
23.5976 343
23.61771 352
23.63783 315
23.65794 313
23.67805 309
23.69817 313
23.71828 316
23.73839 321
23.75851 348
23.77862 313
23.79874 296
23.81885 341
23.83896 313
23.85908 342
23.87919 334
23.8993 376
23.91942 341
23.93953 360
23.95965 348
23.97976 346
23.99987 341
24.01999 345
24.0401 324
24.06021 303
24.08033 298
24.10044 324
24.12056 263
24.14067 297
24.16078 286
24.1809 267
24.20101 313
24.22112 325
24.24124 291
24.26135 317
24.28146 297
24.30158 285
24.32169 266
24.34181 269
24.36192 265
24.38203 267
24.40215 264
24.42226 264
24.44237 230
24.46249 281
24.4826 261
24.50272 246
24.52283 276
24.54294 235
24.56306 273
24.58317 230
24.60328 254
24.6234 264
24.64351 223
24.66362 226
24.68374 248
24.70385 254
24.72397 244
24.74408 242
24.76419 250
24.78431 248
24.80442 241
24.82453 268
24.84465 248
24.86476 209
24.88488 257
24.90499 240
24.9251 290
24.94522 220
24.96533 234
24.98544 242
25.00556 246
25.02567 234
25.04579 227
25.0659 266
25.08601 257
25.10613 223
25.12624 249
25.14635 229
25.16647 267
25.18658 243
25.20669 243
25.22681 295
25.24692 287
25.26704 280
25.28715 277
25.30726 280
25.32738 281
25.34749 264
25.3676 275
25.38772 303
25.40783 303
25.42795 317
25.44806 331
25.46817 335
25.48829 352
25.5084 336
25.52851 340
25.54863 372
25.56874 375
25.58886 364
25.60897 377
25.62908 395
25.6492 391
25.66931 431
25.68942 447
25.70954 386
25.72965 478
25.74976 432
25.76988 424
25.78999 445
25.81011 486
25.83022 435
25.85033 445
25.87045 476
25.89056 509
25.91067 457
25.93079 470
25.9509 517
25.97102 503
25.99113 454
26.01124 558
26.03136 520
26.05147 581
26.07158 621
26.0917 665
26.11181 698
26.13193 736
26.15204 764
26.17215 832
26.19227 931
26.21238 1002
26.23249 1157
26.25261 1235
26.27272 1336
26.29283 1621
26.31295 1921
26.33306 2248
26.35318 2704
26.37329 3251
26.3934 4091
26.41352 5079
26.43363 6510
26.45374 8022
26.47386 10214
26.49397 12473
26.51409 14814
26.5342 17534
26.55431 19537
26.57443 20853
26.59454 20668
26.61465 19292
26.63477 17389
26.65488 14510
26.67499 11703
26.69511 8652
26.71522 6250
26.73534 4562
26.75545 3223
26.77556 2251
26.79568 1712
26.81579 1455
26.8359 1238
26.85602 1063
26.87613 998
26.89625 961
26.91636 916
26.93647 845
26.95659 753
26.9767 713
26.99681 672
27.01693 679
27.03704 661
27.05716 580
27.07727 630
27.09738 591
27.1175 612
27.13761 571
27.15772 581
27.17784 549
27.19795 558
27.21806 509
27.23818 548
27.25829 582
27.27841 583
27.29852 593
27.31863 622
27.33875 639
27.35886 679
27.37897 704
27.39909 643
27.4192 706
27.43932 632
27.45943 677
27.47954 638
27.49966 641
27.51977 633
27.53988 559
27.56 593
27.58011 556
27.60023 578
27.62034 566
27.64045 521
27.66057 527
27.68068 521
27.70079 506
27.72091 561
27.74102 548
27.76113 516
27.78125 552
27.80136 512
27.82148 512
27.84159 547
27.8617 485
27.88182 483
27.90193 458
27.92204 481
27.94216 451
27.96227 442
27.98239 466
28.0025 429
28.02261 428
28.04273 424
28.06284 430
28.08295 385
28.10307 375
28.12318 403
28.1433 391
28.16341 388
28.18352 362
28.20364 371
28.22375 331
28.24386 370
28.26398 382
28.28409 365
28.3042 334
28.32432 351
28.34443 334
28.36455 365
28.38466 350
28.40477 326
28.42489 353
28.445 388
28.46511 318
28.48523 337
28.50534 362
28.52546 332
28.54557 327
28.56568 327
28.5858 368
28.60591 297
28.62602 346
28.64614 362
28.66625 348
28.68636 336
28.70648 344
28.72659 308
28.74671 331
28.76682 342
28.78693 332
28.80705 308
28.82716 300
28.84727 353
28.86739 304
28.8875 327
28.90762 311
28.92773 337
28.94784 281
28.96796 289
28.98807 306
29.00818 333
29.0283 329
29.04841 289
29.06853 323
29.08864 344
29.10875 314
29.12887 377
29.14898 340
29.16909 334
29.18921 344
29.20932 393
29.22943 409
29.24955 448
29.26966 510
29.28978 502
29.30989 514
29.33 541
29.35012 614
29.37023 626
29.39034 714
29.41046 698
29.43057 679
29.45069 691
29.4708 655
29.49091 628
29.51103 607
29.53114 539
29.55125 535
29.57137 471
29.59148 440
29.6116 491
29.63171 447
29.65182 388
29.67194 339
29.69205 353
29.71216 351
29.73228 388
29.75239 375
29.7725 350
29.79262 333
29.81273 339
29.83285 322
29.85296 291
29.87307 317
29.89319 323
29.9133 295
29.93341 290
29.95353 293
29.97364 323
29.99376 299
30.01387 288
30.03398 281
30.0541 286
30.07421 276
30.09432 288
30.11444 269
30.13455 272
30.15467 269
30.17478 270
30.19489 251
30.21501 268
30.23512 243
30.25523 270
30.27535 253
30.29546 317
30.31557 310
30.33569 290
30.3558 281
30.37592 285
30.39603 289
30.41614 300
30.43626 292
30.45637 289
30.47648 296
30.4966 305
30.51671 315
30.53683 331
30.55694 303
30.57705 304
30.59717 333
30.61728 350
30.63739 376
30.65751 407
30.67762 404
30.69773 397
30.71785 415
30.73796 403
30.75808 397
30.77819 387
30.7983 395
30.81842 350
30.83853 372
30.85864 328
30.87876 327
30.89887 332
30.91899 316
30.9391 295
30.95921 264
30.97933 287
30.99944 265
31.01955 256
31.03967 247
31.05978 265
31.0799 225
31.10001 261
31.12012 237
31.14024 207
31.16035 218
31.18046 257
31.20058 220
31.22069 258
31.2408 250
31.26092 218
31.28103 220
31.30115 242
31.32126 251
31.34137 241
31.36149 243
31.3816 225
31.40171 215
31.42183 224
31.44194 257
31.46206 224
31.48217 208
31.50228 249
31.5224 257
31.54251 219
31.56262 222
31.58274 240
31.60285 224
31.62297 219
31.64308 211
31.66319 229
31.68331 188
31.70342 245
31.72353 191
31.74365 201
31.76376 209
31.78387 229
31.80399 224
31.8241 222
31.84422 194
31.86433 220
31.88444 211
31.90456 207
31.92467 239
31.94478 210
31.9649 212
31.98501 205
32.00513 222
32.02524 184
32.04535 202
32.06547 227
32.08558 229
32.10569 185
32.12581 210
32.14592 249
32.16604 194
32.18615 231
32.20626 241
32.22638 222
32.24649 211
32.2666 231
32.28672 231
32.30683 253
32.32694 211
32.34706 239
32.36717 242
32.38729 234
32.4074 194
32.42751 217
32.44763 213
32.46774 205
32.48785 224
32.50797 215
32.52808 203
32.5482 215
32.56831 224
32.58842 193
32.60854 236
32.62865 209
32.64876 218
32.66888 182
32.68899 199
32.7091 214
32.72922 213
32.74933 203
32.76945 199
32.78956 213
32.80967 234
32.82979 216
32.8499 215
32.87001 235
32.89013 239
32.91024 222
32.93036 252
32.95047 225
32.97058 235
32.9907 237
33.01081 214
33.03092 237
33.05104 225
33.07115 223
33.09127 225
33.11138 240
33.13149 260
33.15161 246
33.17172 234
33.19183 262
33.21195 253
33.23206 245
33.25217 256
33.27229 256
33.2924 226
33.31252 262
33.33263 237
33.35274 271
33.37286 273
33.39297 261
33.41308 254
33.4332 242
33.45331 228
33.47343 245
33.49354 232
33.51365 248
33.53377 232
33.55388 235
33.57399 265
33.59411 274
33.61422 250
33.63434 211
33.65445 240
33.67456 232
33.69468 247
33.71479 266
33.7349 242
33.75502 231
33.77513 265
33.79524 270
33.81536 238
33.83547 262
33.85559 276
33.8757 290
33.89581 282
33.91593 311
33.93604 273
33.95615 294
33.97627 282
33.99638 308
34.0165 294
34.03661 291
34.05672 325
34.07684 296
34.09695 343
34.11706 326
34.13718 411
34.15729 374
34.17741 370
34.19752 362
34.21763 401
34.23775 367
34.25786 376
34.27797 378
34.29809 397
34.3182 371
34.33831 376
34.35843 358
34.37854 330
34.39866 342
34.41877 361
34.43888 374
34.459 373
34.47911 366
34.49922 347
34.51934 362
34.53945 358
34.55957 345
34.57968 374
34.59979 353
34.61991 339
34.64002 346
34.66013 397
34.68025 378
34.70036 383
34.72047 386
34.74059 374
34.7607 350
34.78082 381
34.80093 418
34.82104 366
34.84116 363
34.86127 417
34.88138 392
34.9015 419
34.92161 383
34.94173 385
34.96184 411
34.98195 392
35.00207 420
35.02218 416
35.04229 382
35.06241 398
35.08252 414
35.10264 423
35.12275 397
35.14286 374
35.16298 413
35.18309 403
35.2032 412
35.22332 359
35.24343 356
35.26354 383
35.28366 426
35.30377 400
35.32389 395
35.344 380
35.36411 339
35.38423 377
35.40434 313
35.42445 328
35.44457 356
35.46468 373
35.4848 391
35.50491 397
35.52502 368
35.54514 364
35.56525 363
35.58536 358
35.60548 358
35.62559 346
35.64571 345
35.66582 314
35.68593 343
35.70605 330
35.72616 342
35.74627 324
35.76639 324
35.7865 297
35.80661 301
35.82673 334
35.84684 342
35.86696 313
35.88707 326
35.90718 323
35.9273 336
35.94741 316
35.96752 343
35.98764 311
36.00775 338
36.02787 344
36.04798 341
36.06809 392
36.08821 351
36.10832 351
36.12843 326
36.14855 349
36.16866 389
36.18878 366
36.20889 448
36.229 418
36.24912 490
36.26923 535
36.28934 589
36.30946 664
36.32957 737
36.34968 871
36.3698 969
36.38991 1166
36.41003 1244
36.43014 1435
36.45025 1556
36.47037 1561
36.49048 1510
36.51059 1465
36.53071 1354
36.55082 1157
36.57094 1036
36.59105 927
36.61116 753
36.63128 635
36.65139 565
36.6715 490
36.69162 374
36.71173 352
36.73184 335
36.75196 271
36.77207 276
36.79219 239
36.8123 281
36.83241 310
36.85253 261
36.87264 261
36.89275 256
36.91287 261
36.93298 255
36.9531 248
36.97321 279
36.99332 264
37.01344 238
37.03355 241
37.05366 228
37.07378 204
37.09389 252
37.11401 262
37.13412 261
37.15423 223
37.17435 224
37.19446 235
37.21457 243
37.23469 233
37.2548 234
37.27491 241
37.29503 258
37.31514 231
37.33526 211
37.35537 228
37.37548 242
37.3956 233
37.41571 210
37.43582 227
37.45594 215
37.47605 203
37.49617 220
37.51628 219
37.53639 211
37.55651 240
37.57662 228
37.59673 190
37.61685 199
37.63696 223
37.65708 205
37.67719 182
37.6973 235
37.71742 224
37.73753 212
37.75764 189
37.77776 168
37.79787 218
37.81798 212
37.8381 189
37.85821 219
37.87833 236
37.89844 234
37.91855 195
37.93867 228
37.95878 216
37.97889 218
37.99901 229
38.01912 232
38.03924 229
38.05935 231
38.07946 202
38.09958 186
38.11969 222
38.1398 208
38.15992 200
38.18003 212
38.20015 223
38.22026 223
38.24037 225
38.26049 207
38.2806 220
38.30071 209
38.32083 229
38.34094 215
38.36105 239
38.38117 229
38.40128 204
38.4214 211
38.44151 252
38.46162 207
38.48174 235
38.50185 231
38.52196 193
38.54208 227
38.56219 226
38.58231 267
38.60242 264
38.62253 212
38.64265 243
38.66276 226
38.68287 238
38.70299 239
38.7231 225
38.74321 223
38.76333 230
38.78344 245
38.80356 258
38.82367 243
38.84378 247
38.8639 240
38.88401 228
38.90412 245
38.92424 263
38.94435 274
38.96447 291
38.98458 268
39.00469 277
39.02481 298
39.04492 325
39.06503 303
39.08515 331
39.10526 357
39.12538 378
39.14549 404
39.1656 475
39.18572 517
39.20583 535
39.22594 651
39.24606 723
39.26617 794
39.28628 909
39.3064 1041
39.32651 1147
39.34663 1284
39.36674 1372
39.38685 1416
39.40697 1474
39.42708 1398
39.44719 1370
39.46731 1223
39.48742 1101
39.50754 958
39.52765 833
39.54776 733
39.56788 621
39.58799 536
39.6081 444
39.62822 391
39.64833 380
39.66845 327
39.68856 312
39.70867 322
39.72879 347
39.7489 328
39.76901 312
39.78913 320
39.80924 305
39.82935 309
39.84947 328
39.86958 333
39.8897 349
39.90981 325
39.92992 327
39.95004 338
39.97015 360
39.99026 336
40.01038 391
40.03049 460
40.05061 438
40.07072 510
40.09083 560
40.11095 585
40.13106 618
40.15117 744
40.17129 736
40.1914 801
40.21152 809
40.23163 784
40.25174 733
40.27186 735
40.29197 635
40.31208 609
40.3322 537
40.35231 507
40.37242 455
40.39254 388
40.41265 329
40.43277 304
40.45288 305
40.47299 276
40.49311 269
40.51322 278
40.53333 253
40.55345 256
40.57356 264
40.59368 217
40.61379 242
40.6339 228
40.65402 227
40.67413 248
40.69424 236
40.71436 264
40.73447 234
40.75458 255
40.7747 229
40.79481 259
40.81493 221
40.83504 261
40.85515 260
40.87527 244
40.89538 246
40.91549 260
40.93561 239
40.95572 272
40.97584 264
40.99595 253
41.01606 260
41.03618 253
41.05629 245
41.0764 255
41.09652 226
41.11663 248
41.13675 227
41.15686 258
41.17697 250
41.19709 223
41.2172 223
41.23731 254
41.25743 211
41.27754 221
41.29765 218
41.31777 237
41.33788 241
41.358 271
41.37811 239
41.39822 248
41.41834 246
41.43845 251
41.45856 233
41.47868 219
41.49879 258
41.51891 252
41.53902 262
41.55913 258
41.57925 254
41.59936 266
41.61947 256
41.63959 268
41.6597 243
41.67982 314
41.69993 239
41.72004 290
41.74016 308
41.76027 296
41.78038 297
41.8005 307
41.82061 279
41.84072 263
41.86084 291
41.88095 294
41.90107 271
41.92118 272
41.94129 279
41.96141 277
41.98152 280
42.00163 303
42.02175 320
42.04186 322
42.06198 320
42.08209 337
42.1022 363
42.12232 379
42.14243 393
42.16254 449
42.18266 471
42.20277 517
42.22289 609
42.243 663
42.26311 725
42.28323 774
42.30334 918
42.32345 963
42.34357 1021
42.36368 1118
42.38379 1035
42.40391 1022
42.42402 990
42.44414 921
42.46425 820
42.48436 743
42.50448 609
42.52459 542
42.5447 517
42.56482 449
42.58493 404
42.60505 381
42.62516 345
42.64527 290
42.66539 292
42.6855 261
42.70561 238
42.72573 270
42.74584 267
42.76595 257
42.78607 267
42.80618 226
42.8263 227
42.84641 205
42.86652 234
42.88664 226
42.90675 259
42.92686 246
42.94698 230
42.96709 271
42.98721 230
43.00732 225
43.02743 258
43.04755 251
43.06766 201
43.08777 278
43.10789 270
43.128 253
43.14812 255
43.16823 254
43.18834 292
43.20846 287
43.22857 248
43.24868 282
43.2688 243
43.28891 269
43.30902 212
43.32914 245
43.34925 258
43.36937 254
43.38948 241
43.40959 247
43.42971 214
43.44982 225
43.46993 222
43.49005 192
43.51016 213
43.53028 215
43.55039 231
43.5705 211
43.59062 200
43.61073 207
43.63084 218
43.65096 222
43.67107 230
43.69119 202
43.7113 198
43.73141 203
43.75153 215
43.77164 214
43.79175 202
43.81187 238
43.83198 184
43.85209 190
43.87221 206
43.89232 204
43.91244 203
43.93255 243
43.95266 198
43.97278 202
43.99289 210
44.013 191
44.03312 199
44.05323 209
44.07335 187
44.09346 182
44.11357 203
44.13369 201
44.1538 191
44.17391 198
44.19403 170
44.21414 171
44.23426 189
44.25437 195
44.27448 199
44.2946 182
44.31471 205
44.33482 198
44.35494 173
44.37505 184
44.39516 180
44.41528 177
44.43539 200
44.45551 182
44.47562 186
44.49573 208
44.51585 212
44.53596 189
44.55607 209
44.57619 216
44.5963 238
44.61642 177
44.63653 193
44.65664 205
44.67676 214
44.69687 184
44.71698 224
44.7371 214
44.75721 210
44.77732 203
44.79744 202
44.81755 205
44.83767 222
44.85778 198
44.87789 194
44.89801 203
44.91812 195
44.93823 223
44.95835 221
44.97846 200
44.99858 206
45.01869 179
45.0388 200
45.05892 211
45.07903 176
45.09914 170
45.11926 177
45.13937 206
45.15949 181
45.1796 190
45.19971 205
45.21983 209
45.23994 182
45.26005 195
45.28017 187
45.30028 206
45.32039 219
45.34051 240
45.36062 214
45.38074 214
45.40085 275
45.42096 262
45.44108 294
45.46119 295
45.4813 289
45.50142 309
45.52153 343
45.54165 387
45.56176 383
45.58187 422
45.60199 494
45.6221 538
45.64221 645
45.66233 637
45.68244 704
45.70256 771
45.72267 682
45.74278 651
45.7629 685
45.78301 632
45.80312 573
45.82324 517
45.84335 509
45.86346 419
45.88358 379
45.90369 312
45.92381 312
45.94392 241
45.96403 199
45.98415 215
46.00426 205
46.02437 227
46.04449 206
46.0646 186
46.08472 210
46.10483 209
46.12494 217
46.14506 209
46.16517 204
46.18528 180
46.2054 170
46.22551 167
46.24563 181
46.26574 178
46.28585 195
46.30597 196
46.32608 178
46.34619 179
46.36631 183
46.38642 176
46.40653 190
46.42665 184
46.44676 159
46.46688 176
46.48699 159
46.5071 178
46.52722 190
46.54733 169
46.56744 201
46.58756 182
46.60767 188
46.62779 190
46.6479 165
46.66801 173
46.68813 172
46.70824 178
46.72835 179
46.74847 214
46.76858 182
46.78869 185
46.80881 205
46.82892 178
46.84904 200
46.86915 190
46.88926 169
46.90938 185
46.92949 171
46.9496 195
46.96972 207
46.98983 211
47.00995 207
47.03006 203
47.05017 227
47.07029 195
47.0904 206
47.11051 212
47.13063 200
47.15074 199
47.17086 229
47.19097 206
47.21108 212
47.2312 206
47.25131 201
47.27142 214
47.29154 232
47.31165 205
47.33176 213
47.35188 191
47.37199 223
47.39211 245
47.41222 223
47.43233 234
47.45245 220
47.47256 223
47.49267 244
47.51279 236
47.5329 224
47.55302 254
47.57313 236
47.59324 237
47.61336 206
47.63347 226
47.65358 239
47.6737 211
47.69381 211
47.71393 234
47.73404 217
47.75415 209
47.77427 206
47.79438 207
47.81449 197
47.83461 188
47.85472 184
47.87483 186
47.89495 195
47.91506 178
47.93518 215
47.95529 207
47.9754 194
47.99552 189
48.01563 189
48.03574 195
48.05586 182
48.07597 171
48.09609 187
48.1162 190
48.13631 183
48.15643 197
48.17654 200
48.19665 191
48.21677 192
48.23688 223
48.257 209
48.27711 197
48.29722 218
48.31734 221
48.33745 200
48.35756 225
48.37768 211
48.39779 221
48.4179 217
48.43802 217
48.45813 222
48.47825 210
48.49836 243
48.51847 259
48.53859 274
48.5587 268
48.57881 258
48.59893 261
48.61904 221
48.63916 250
48.65927 247
48.67938 263
48.6995 227
48.71961 246
48.73972 225
48.75984 233
48.77995 223
48.80006 236
48.82018 208
48.84029 210
48.86041 239
48.88052 215
48.90063 209
48.92075 209
48.94086 195
48.96097 196
48.98109 222
49.0012 209
49.02132 208
49.04143 196
49.06154 231
49.08166 203
49.10177 211
49.12188 190
49.142 214
49.16211 216
49.18223 202
49.20234 208
49.22245 196
49.24257 186
49.26268 227
49.28279 222
49.30291 219
49.32302 218
49.34313 208
49.36325 189
49.38336 218
49.40348 220
49.42359 205
49.4437 186
49.46382 237
49.48393 218
49.50404 239
49.52416 239
49.54427 262
49.56439 257
49.5845 258
49.60461 268
49.62473 302
49.64484 298
49.66495 325
49.68507 358
49.70518 363
49.7253 374
49.74541 421
49.76552 459
49.78564 518
49.80575 590
49.82586 641
49.84598 751
49.86609 848
49.8862 910
49.90632 1086
49.92643 1224
49.94655 1354
49.96666 1538
49.98677 1770
50.00689 1900
50.027 2191
50.04711 2226
50.06723 2377
50.08734 2346
50.10746 2123
50.12757 1934
50.14768 1717
50.1678 1529
50.18791 1388
50.20802 1346
50.22814 1088
50.24825 949
50.26837 784
50.28848 623
50.30859 545
50.32871 450
50.34882 341
50.36893 336
50.38905 336
50.40916 330
50.42927 287
50.44939 314
50.4695 311
50.48962 295
50.50973 287
50.52984 292
50.54996 284
50.57007 310
50.59018 310
50.6103 283
50.63041 256
50.65053 265
50.67064 268
50.69075 276
50.71087 275
50.73098 235
50.75109 267
50.77121 255
50.79132 228
50.81143 232
50.83155 234
50.85166 223
50.87178 211
50.89189 223
50.912 238
50.93212 227
50.95223 226
50.97234 217
50.99246 222
51.01257 216
51.03269 234
51.0528 178
51.07291 202
51.09303 212
51.11314 206
51.13325 199
51.15337 223
51.17348 212
51.1936 181
51.21371 198
51.23382 166
51.25394 177
51.27405 180
51.29416 171
51.31428 209
51.33439 187
51.3545 173
51.37462 170
51.39473 197
51.41485 159
51.43496 174
51.45507 189
51.47519 185
51.4953 169
51.51541 184
51.53553 170
51.55564 153
51.57576 190
51.59587 174
51.61598 189
51.6361 187
51.65621 209
51.67632 170
51.69644 171
51.71655 171
51.73667 191
51.75678 183
51.77689 175
51.79701 178
51.81712 199
51.83723 184
51.85735 178
51.87746 187
51.89757 164
51.91769 162
51.9378 175
51.95792 181
51.97803 157
51.99814 185
52.01826 144
52.03837 162
52.05848 181
52.0786 174
52.09871 162
52.11883 183
52.13894 195
52.15905 169
52.17917 180
52.19928 183
52.21939 181
52.23951 174
52.25962 174
52.27974 174
52.29985 175
52.31996 165
52.34008 148
52.36019 187
52.3803 175
52.40042 168
52.42053 157
52.44064 196
52.46076 173
52.48087 142
52.50099 177
52.5211 184
52.54121 189
52.56133 177
52.58144 178
52.60155 165
52.62167 175
52.64178 185
52.6619 167
52.68201 158
52.70212 169
52.72224 151
52.74235 179
52.76246 194
52.78258 167
52.80269 196
52.8228 177
52.84292 218
52.86303 186
52.88315 168
52.90326 210
52.92337 179
52.94349 189
52.9636 171
52.98371 163
53.00383 189
53.02394 210
53.04406 172
53.06417 199
53.08428 185
53.1044 183
53.12451 175
53.14462 208
53.16474 219
53.18485 184
53.20497 185
53.22508 183
53.24519 196
53.26531 184
53.28542 200
53.30553 196
53.32565 228
53.34576 233
53.36587 199
53.38599 197
53.4061 191
53.42622 191
53.44633 194
53.46644 180
53.48656 201
53.50667 177
53.52678 194
53.5469 195
53.56701 169
53.58713 209
53.60724 162
53.62735 172
53.64747 179
53.66758 189
53.68769 186
53.70781 179
53.72792 180
53.74804 209
53.76815 191
53.78826 163
53.80838 197
53.82849 197
53.8486 195
53.86872 187
53.88883 191
53.90894 207
53.92906 189
53.94917 200
53.96929 196
53.9894 207
54.00951 180
54.02963 185
54.04974 208
54.06985 189
54.08997 217
54.11008 197
54.1302 202
54.15031 225
54.17042 196
54.19054 209
54.21065 201
54.23076 188
54.25088 220
54.27099 214
54.29111 211
54.31122 210
54.33133 221
54.35145 232
54.37156 238
54.39167 234
54.41179 219
54.4319 249
54.45201 278
54.47213 282
54.49224 299
54.51236 303
54.53247 339
54.55258 326
54.5727 369
54.59281 399
54.61292 446
54.63304 446
54.65315 516
54.67327 515
54.69338 597
54.71349 646
54.73361 687
54.75372 710
54.77383 768
54.79395 784
54.81406 766
54.83417 798
54.85429 663
54.8744 645
54.89452 605
54.91463 587
54.93474 528
54.95486 536
54.97497 474
54.99508 476
55.0152 412
55.03531 414
55.05543 402
55.07554 339
55.09565 360
55.11577 355
55.13588 375
55.15599 428
55.17611 396
55.19622 449
55.21634 484
55.23645 476
55.25656 516
55.27668 455
55.29679 406
55.3169 395
55.33702 387
55.35713 340
55.37724 323
55.39736 345
55.41747 290
55.43759 304
55.4577 280
55.47781 227
55.49793 209
55.51804 239
55.53815 218
55.55827 204
55.57838 221
55.5985 206
55.61861 197
55.63872 190
55.65884 201
55.67895 189
55.69906 190
55.71918 176
55.73929 180
55.75941 166
55.77952 166
55.79963 177
55.81975 176
55.83986 192
55.85997 204
55.88009 159
55.9002 161
55.92031 167
55.94043 180
55.96054 157
55.98066 174
56.00077 164
56.02088 185
56.041 162
56.06111 160
56.08122 171
56.10134 173
56.12145 162
56.14157 200
56.16168 164
56.18179 158
56.20191 164
56.22202 179
56.24213 169
56.26225 180
56.28236 186
56.30248 184
56.32259 181
56.3427 176
56.36282 167
56.38293 144
56.40304 175
56.42316 166
56.44327 172
56.46338 181
56.4835 161
56.50361 220
56.52373 175
56.54384 181
56.56395 186
56.58407 189
56.60418 191
56.62429 205
56.64441 188
56.66452 206
56.68464 204
56.70475 203
56.72486 182
56.74498 182
56.76509 200
56.7852 214
56.80532 214
56.82543 178
56.84554 219
56.86566 182
56.88577 193
56.90589 172
56.926 189
56.94611 212
56.96623 235
56.98634 189
57.00645 180
57.02657 204
57.04668 194
57.0668 224
57.08691 212
57.10702 229
57.12714 205
57.14725 229
57.16736 222
57.18748 220
57.20759 198
57.22771 218
57.24782 213
57.26793 220
57.28805 244
57.30816 218
57.32827 192
57.34839 219
57.3685 224
57.38861 210
57.40873 194
57.42884 216
57.44896 185
57.46907 225
57.48918 192
57.5093 213
57.52941 188
57.54952 217
57.56964 204
57.58975 201
57.60987 194
57.62998 209
57.65009 208
57.67021 190
57.69032 193
57.71043 193
57.73055 207
57.75066 197
57.77078 192
57.79089 190
57.811 187
57.83112 172
57.85123 208
57.87134 190
57.89146 181
57.91157 202
57.93168 200
57.9518 174
57.97191 187
57.99203 192
58.01214 202
58.03225 179
58.05237 204
58.07248 189
58.09259 202
58.11271 202
58.13282 191
58.15294 179
58.17305 172
58.19316 187
58.21328 198
58.23339 183
58.2535 233
58.27362 200
58.29373 185
58.31385 206
58.33396 203
58.35407 203
58.37419 178
58.3943 197
58.41441 193
58.43453 208
58.45464 170
58.47475 182
58.49487 195
58.51498 223
58.5351 213
58.55521 188
58.57532 230
58.59544 207
58.61555 195
58.63566 186
58.65578 215
58.67589 214
58.69601 202
58.71612 194
58.73623 199
58.75635 187
58.77646 182
58.79657 195
58.81669 209
58.8368 195
58.85691 199
58.87703 220
58.89714 206
58.91726 201
58.93737 206
58.95748 206
58.9776 188
58.99771 206
59.01782 206
59.03794 205
59.05805 215
59.07817 210
59.09828 218
59.11839 211
59.13851 210
59.15862 221
59.17873 206
59.19885 209
59.21896 204
59.23908 222
59.25919 230
59.2793 263
59.29942 224
59.31953 227
59.33964 236
59.35976 262
59.37987 259
59.39998 245
59.4201 300
59.44021 311
59.46033 296
59.48044 334
59.50055 346
59.52067 330
59.54078 411
59.56089 412
59.58101 482
59.60112 491
59.62124 511
59.64135 526
59.66146 596
59.68158 687
59.70169 751
59.7218 858
59.74192 945
59.76203 1018
59.78215 1180
59.80226 1272
59.82237 1401
59.84249 1412
59.8626 1477
59.88271 1484
59.90283 1453
59.92294 1334
59.94305 1131
59.96317 1085
59.98328 984
60.0034 922
60.02351 853
60.04362 787
60.06374 765
60.08385 688
60.10396 587
60.12408 511
60.14419 445
60.16431 353
60.18442 353
60.20453 274
60.22465 289
60.24476 251
60.26487 270
60.28499 236
60.3051 238
60.32522 242
60.34533 241
60.36544 212
60.38556 190
60.40567 202
60.42578 221
60.4459 185
60.46601 199
60.48612 192
60.50624 185
60.52635 210
60.54647 221
60.56658 216
60.58669 197
60.60681 213
60.62692 241
60.64703 234
60.66715 232
60.68726 208
60.70738 228
60.72749 220
60.7476 235
60.76772 209
60.78783 206
60.80794 239
60.82806 218
60.84817 235
60.86828 200
60.8884 214
60.90851 249
60.92863 213
60.94874 247
60.96885 232
60.98897 230
61.00908 242
61.02919 249
61.04931 234
61.06942 250
61.08954 238
61.10965 211
61.12976 252
61.14988 253
61.16999 229
61.1901 226
61.21022 220
61.23033 227
61.25045 247
61.27056 237
61.29067 235
61.31079 239
61.3309 240
61.35101 228
61.37113 232
61.39124 243
61.41135 256
61.43147 253
61.45158 242
61.4717 248
61.49181 227
61.51192 212
61.53204 241
61.55215 247
61.57226 227
61.59238 202
61.61249 218
61.63261 210
61.65272 211
61.67283 209
61.69295 217
61.71306 219
61.73317 212
61.75329 228
61.7734 210
61.79352 211
61.81363 201
61.83374 238
61.85386 194
61.87397 201
61.89408 195
61.9142 187
61.93431 223
61.95442 193
61.97454 189
61.99465 197
62.01477 209
62.03488 183
62.05499 183
62.07511 221
62.09522 189
62.11533 177
62.13545 179
62.15556 201
62.17568 188
62.19579 191
62.2159 162
62.23602 192
62.25613 217
62.27624 209
62.29636 198
62.31647 170
62.33659 207
62.3567 199
62.37681 177
62.39693 201
62.41704 191
62.43715 188
62.45727 204
62.47738 161
62.49749 172
62.51761 197
62.53772 186
62.55784 191
62.57795 179
62.59806 175
62.61818 181
62.63829 180
62.6584 173
62.67852 183
62.69863 172
62.71875 186
62.73886 145
62.75897 187
62.77909 163
62.7992 176
62.81931 169
62.83943 183
62.85954 171
62.87965 165
62.89977 177
62.91988 167
62.94 165
62.96011 178
62.98022 165
63.00034 191
63.02045 184
63.04056 163
63.06068 191
63.08079 170
63.10091 176
63.12102 187
63.14113 189
63.16125 181
63.18136 203
63.20147 185
63.22159 200
63.2417 177
63.26182 184
63.28193 198
63.30204 194
63.32216 166
63.34227 152
63.36238 188
63.3825 194
63.40261 218
63.42272 173
63.44284 166
63.46295 180
63.48307 191
63.50318 192
63.52329 200
63.54341 180
63.56352 190
63.58363 234
63.60375 194
63.62386 199
63.64398 210
63.66409 211
63.6842 215
63.70432 252
63.72443 219
63.74454 224
63.76466 263
63.78477 260
63.80489 285
63.825 290
63.84511 320
63.86523 360
63.88534 341
63.90545 439
63.92557 425
63.94568 435
63.96579 446
63.98591 356
64.00602 373
64.02614 363
64.04625 338
64.06636 342
64.08648 270
64.10659 289
64.1267 285
64.14682 254
64.16693 267
64.18705 259
64.20716 257
64.22727 212
64.24739 193
64.2675 209
64.28761 186
64.30773 181
64.32784 190
64.34796 196
64.36807 145
64.38818 167
64.4083 198
64.42841 173
64.44852 156
64.46864 165
64.48875 176
64.50886 169
64.52898 182
64.54909 177
64.56921 202
64.58932 179
64.60943 181
64.62955 197
64.64966 192
64.66977 206
64.68989 174
64.71 194
64.73012 209
64.75023 188
64.77034 190
64.79046 202
64.81057 175
64.83068 187
64.8508 209
64.87091 191
64.89102 186
64.91114 174
64.93125 185
64.95137 205
64.97148 177
64.99159 186
65.01171 190
65.03182 171
65.05193 197
65.07205 175
65.09216 180
65.11228 174
65.13239 178
65.1525 177
65.17262 185
65.19273 168
65.21284 164
65.23296 191
65.25307 176
65.27319 186
65.2933 186
65.31341 179
65.33353 187
65.35364 186
65.37375 187
65.39387 181
65.41398 189
65.43409 184
65.45421 204
65.47432 183
65.49444 195
65.51455 200
65.53466 224
65.55478 246
65.57489 218
65.595 238
65.61512 251
65.63523 242
65.65535 236
65.67546 233
65.69557 236
65.71569 246
65.7358 246
65.75591 241
65.77603 229
65.79614 227
65.81626 225
65.83637 219
65.85648 193
65.8766 188
65.89671 205
65.91682 233
65.93694 198
65.95705 208
65.97716 201
65.99728 198
66.01739 177
66.03751 179
66.05762 197
66.07773 163
66.09785 159
66.11796 175
66.13807 164
66.15819 170
66.1783 183
66.19842 182
66.21853 175
66.23864 180
66.25876 197
66.27887 178
66.29898 183
66.3191 165
66.33921 171
66.35933 175
66.37944 182
66.39955 158
66.41967 190
66.43978 170
66.45989 203
66.48001 165
66.50012 193
66.52023 162
66.54035 165
66.56046 189
66.58058 162
66.60069 176
66.6208 161
66.64092 179
66.66103 174
66.68114 170
66.70126 177
66.72137 188
66.74149 191
66.7616 172
66.78171 199
66.80183 187
66.82194 174
66.84205 183
66.86217 171
66.88228 173
66.90239 188
66.92251 199
66.94262 166
66.96274 171
66.98285 191
67.00296 207
67.02308 178
67.04319 185
67.0633 229
67.08342 199
67.10353 243
67.12365 230
67.14376 212
67.16387 213
67.18399 234
67.2041 222
67.22421 262
67.24433 265
67.26444 252
67.28456 269
67.30467 301
67.32478 314
67.3449 300
67.36501 332
67.38512 355
67.40524 393
67.42535 426
67.44546 447
67.46558 474
67.48569 530
67.50581 587
67.52592 634
67.54603 678
67.56615 742
67.58626 832
67.60637 915
67.62649 941
67.6466 980
67.66672 1045
67.68683 923
67.70694 938
67.72706 926
67.74717 831
67.76728 845
67.7874 818
67.80751 836
67.82763 915
67.84774 903
67.86785 928
67.88797 959
67.90808 944
67.92819 1001
67.94831 1020
67.96842 1056
67.98853 1137
68.00865 1269
68.02876 1357
68.04888 1379
68.06899 1372
68.0891 1432
68.10922 1349
68.12933 1231
68.14944 1187
68.16956 1207
68.18967 1190
68.20979 1253
68.2299 1188
68.25001 1143
68.27013 1111
68.29024 975
68.31035 851
68.33047 757
68.35058 675
68.3707 609
68.39081 533
68.41092 517
68.43104 460
68.45115 450
68.47126 396
68.49138 378
68.51149 338
68.5316 283
68.55172 239
68.57183 260
68.59195 213
68.61206 221
68.63217 240
68.65229 204
68.6724 207
68.69251 179
68.71263 223
68.73274 198
68.75286 197
68.77297 187
68.79308 188
68.8132 202
68.83331 208
68.85342 175
68.87354 201
68.89365 175
68.91376 186
68.93388 163
68.95399 198
68.97411 167
68.99422 180
69.01433 163
69.03445 170
69.05456 172
69.07467 161
69.09479 168
69.1149 179
69.13502 169
69.15513 191
69.17524 158
69.19536 162
69.21547 159
69.23558 174
69.2557 166
69.27581 171
69.29593 158
69.31604 162
69.33615 180
69.35627 179
69.37638 161
69.39649 168
69.41661 182
69.43672 183
69.45683 166
69.47695 185
69.49706 164
69.51718 169
69.53729 157
69.5574 157
69.57752 161
69.59763 186
69.61774 149
69.63786 172
69.65797 160
69.67809 169
69.6982 167
69.71831 167
69.73843 185
69.75854 183
69.77865 176
69.79877 184
69.81888 180
69.839 154
69.85911 151
69.87922 164
69.89934 168
69.91945 147
69.93956 168
69.95968 183
69.97979 198
69.9999 175
70.02002 165
70.04013 154
70.06025 165
70.08036 161
70.10047 176
70.12059 190
70.1407 174
70.16081 160
70.18093 164
70.20104 160
70.22116 140
70.24127 182
70.26138 200
70.2815 151
70.30161 143
70.32172 170
70.34184 185
70.36195 167
70.38207 156
70.40218 196
70.42229 150
70.44241 160
70.46252 145
70.48263 161
70.50275 177
70.52286 159
70.54297 171
70.56309 160
70.5832 158
70.60332 153
70.62343 163
70.64354 158
70.66366 153
70.68377 167
70.70388 165
70.724 146
70.74411 163
70.76423 158
70.78434 159
70.80445 160
70.82457 145
70.84468 156
70.86479 162
70.88491 158
70.90502 152
70.92513 172
70.94525 153
70.96536 157
70.98548 153
71.00559 155
71.0257 168
71.04582 151
71.06593 174
71.08604 166
71.10616 175
71.12627 157
71.14639 164
71.1665 168
71.18661 152
71.20673 158
71.22684 143
71.24695 157
71.26707 143
71.28718 160
71.3073 163
71.32741 144
71.34752 136
71.36764 177
71.38775 158
71.40786 161
71.42798 142
71.44809 168
71.4682 155
71.48832 157
71.50843 174
71.52855 128
71.54866 162
71.56877 187
71.58889 146
71.609 158
71.62911 160
71.64923 168
71.66934 175
71.68946 158
71.70957 153
71.72968 184
71.7498 185
71.76991 179
71.79002 150
71.81014 167
71.83025 180
71.85037 172
71.87048 183
71.89059 186
71.91071 185
71.93082 186
71.95093 179
71.97105 171
71.99116 169
72.01127 201
72.03139 189
72.0515 182
72.07162 170
72.09173 209
72.11184 212
72.13196 178
72.15207 199
72.17218 211
72.1923 209
72.21241 190
72.23253 188
72.25264 172
72.27275 191
72.29287 173
72.31298 221
72.33309 165
72.35321 215
72.37332 192
72.39344 186
72.41355 187
72.43366 219
72.45378 201
72.47389 205
72.494 194
72.51412 174
72.53423 198
72.55434 184
72.57446 198
72.59457 178
72.61469 177
72.6348 184
72.65491 203
72.67503 191
72.69514 192
72.71525 180
72.73537 217
72.75548 189
72.7756 196
72.79571 204
72.81582 174
72.83594 192
72.85605 192
72.87616 194
72.89628 200
72.91639 207
72.9365 227
72.95662 237
72.97673 243
72.99685 249
73.01696 207
73.03707 248
73.05719 244
73.0773 226
73.09741 228
73.11753 255
73.13764 249
73.15776 292
73.17787 293
73.19798 286
73.2181 339
73.23821 370
73.25832 344
73.27844 358
73.29855 432
73.31867 395
73.33878 444
73.35889 459
73.37901 472
73.39912 476
73.41923 451
73.43935 423
73.45946 416
73.47957 345
73.49969 333
73.5198 341
73.53992 353
73.56003 351
73.58014 352
73.60026 328
73.62037 300
73.64048 309
73.6606 320
73.68071 244
73.70083 249
73.72094 227
73.74105 210
73.76117 224
73.78128 220
73.80139 179
73.82151 201
73.84162 200
73.86174 207
73.88185 166
73.90196 185
73.92208 183
73.94219 174
73.9623 194
73.98242 168
74.00253 191
74.02264 180
74.04276 182
74.06287 192
74.08299 188
74.1031 179
74.12321 186
74.14333 186
74.16344 179
74.18355 182
74.20367 174
74.22378 177
74.2439 167
74.26401 177
74.28412 173
74.30424 181
74.32435 181
74.34446 156
74.36458 184
74.38469 164
74.40481 176
74.42492 156
74.44503 156
74.46515 165
74.48526 190
74.50537 152
74.52549 147
74.5456 166
74.56571 176
74.58583 145
74.60594 167
74.62606 178
74.64617 186
74.66628 160
74.6864 165
74.70651 190
74.72662 166
74.74674 139
74.76685 170
74.78697 151
74.80708 168
74.82719 154
74.84731 170
74.86742 177
74.88753 152
74.90765 163
74.92776 165
74.94787 152
74.96799 158
74.9881 192
75.00822 180
