3.00117 20744
3.02128 20016
3.0414 19748
3.06151 19199
3.08162 18552
3.10174 18228
3.12185 17514
3.14197 17408
3.16208 16583
3.18219 16015
3.20231 15913
3.22242 15165
3.24253 15042
3.26265 14543
3.28276 13991
3.30288 13836
3.32299 12918
3.3431 12786
3.36322 12387
3.38333 11861
3.40344 11723
3.42356 11065
3.44367 10906
3.46379 10527
3.4839 10253
3.50401 10069
3.52413 9267
3.54424 9366
3.56435 8911
3.58447 8371
3.60458 8368
3.62469 8172
3.64481 7850
3.66492 7667
3.68504 7132
3.70515 7009
3.72526 6635
3.74538 6485
3.76549 6300
3.7856 6004
3.80572 5797
3.82583 5467
3.84595 5521
3.86606 5286
3.88617 4963
3.90629 4812
3.9264 4558
3.94651 4634
3.96663 4420
3.98674 3962
4.00686 3996
4.02697 3799
4.04708 3738
4.0672 3602
4.08731 3369
4.10742 3330
4.12754 2983
4.14765 3045
4.16776 3061
4.18788 2880
4.20799 2821
4.22811 2719
4.24822 2674
4.26833 2668
4.28845 2493
4.30856 2452
4.32867 2357
4.34879 2197
4.3689 2367
4.38902 2209
4.40913 2205
4.42924 2118
4.44936 2076
4.46947 2070
4.48958 1987
4.5097 1983
4.52981 1944
4.54992 1955
4.57004 1940
4.59015 1818
4.61027 1868
4.63038 1755
4.65049 1700
4.67061 1814
4.69072 1678
4.71083 1706
4.73095 1639
4.75106 1726
4.77118 1639
4.79129 1551
4.8114 1511
4.83152 1587
4.85163 1470
4.87174 1552
4.89186 1408
4.91197 1457
4.93209 1470
4.9522 1371
4.97231 1446
4.99243 1414
5.01254 1453
5.03265 1348
5.05277 1334
5.07288 1413
5.09299 1328
5.11311 1321
5.13322 1299
5.15334 1321
5.17345 1358
5.19356 1227
5.21368 1281
5.23379 1312
5.2539 1196
5.27402 1162
5.29413 1149
5.31425 1181
5.33436 1190
5.35447 1242
5.37459 1182
5.3947 1129
5.41481 1112
5.43493 1166
5.45504 1089
5.47516 1128
5.49527 1063
5.51538 1172
5.5355 1120
5.55561 984
5.57572 1063
5.59584 1121
5.61595 1060
5.63606 1055
5.65618 1036
5.67629 1086
5.69641 982
5.71652 1031
5.73663 1072
5.75675 984
5.77686 1007
5.79697 926
5.81709 1030
5.8372 1061
5.85732 1010
5.87743 1015
5.89754 970
5.91766 974
5.93777 943
5.95788 1026
5.978 929
5.99811 968
6.01823 961
6.03834 942
6.05845 923
6.07857 927
6.09868 913
6.11879 955
6.13891 936
6.15902 930
6.17913 973
6.19925 902
6.21936 929
6.23948 860
6.25959 864
6.2797 886
6.29982 836
6.31993 880
6.34004 865
6.36016 806
6.38027 860
6.40039 879
6.4205 817
6.44061 750
6.46073 817
6.48084 791
6.50095 692
6.52107 752
6.54118 811
6.56129 771
6.58141 789
6.60152 736
6.62164 769
6.64175 708
6.66186 735
6.68198 680
6.70209 663
6.7222 691
6.74232 718
6.76243 742
6.78255 716
6.80266 657
6.82277 695
6.84289 702
6.863 659
6.88311 614
6.90323 709
6.92334 657
6.94346 711
6.96357 674
6.98368 664
7.0038 690
7.02391 617
7.04402 638
7.06414 662
7.08425 631
7.10436 619
7.12448 617
7.14459 635
7.16471 631
7.18482 602
7.20493 629
7.22505 614
7.24516 580
7.26527 598
7.28539 590
7.3055 600
7.32562 570
7.34573 554
7.36584 583
7.38596 609
7.40607 605
7.42618 571
7.4463 509
7.46641 591
7.48653 571
7.50664 604
7.52675 553
7.54687 554
7.56698 546
7.58709 544
7.60721 552
7.62732 555
7.64743 567
7.66755 554
7.68766 511
7.70778 558
7.72789 530
7.748 516
7.76812 493
7.78823 542
7.80834 526
7.82846 543
7.84857 509
7.86869 536
7.8888 526
7.90891 502
7.92903 512
7.94914 568
7.96925 517
7.98937 486
8.00948 522
8.0296 456
8.04971 507
8.06982 535
8.08994 483
8.11005 527
8.13016 489
8.15028 517
8.17039 531
8.1905 505
8.21062 524
8.23073 473
8.25085 501
8.27096 489
8.29107 481
8.31119 513
8.3313 500
8.35141 508
8.37153 468
8.39164 479
8.41176 517
8.43187 545
8.45198 476
8.4721 477
8.49221 493
8.51232 479
8.53244 498
8.55255 529
8.57266 456
8.59278 511
8.61289 516
8.63301 498
8.65312 529
8.67323 494
8.69335 473
8.71346 479
8.73357 477
8.75369 479
8.7738 501
8.79392 518
8.81403 541
8.83414 526
8.85426 509
8.87437 546
8.89448 473
8.9146 509
8.93471 444
8.95483 462
8.97494 456
8.99505 438
9.01517 430
9.03528 418
9.05539 478
9.07551 405
9.09562 438
9.11573 434
9.13585 423
9.15596 413
9.17608 429
9.19619 447
9.2163 423
9.23642 414
9.25653 368
9.27664 405
9.29676 403
9.31687 399
9.33699 418
9.3571 430
9.37721 433
9.39733 404
9.41744 393
9.43755 414
9.45767 398
9.47778 417
9.4979 348
9.51801 392
9.53812 382
9.55824 383
9.57835 392
9.59846 399
9.61858 428
9.63869 431
9.6588 414
9.67892 390
9.69903 370
9.71915 374
9.73926 388
9.75937 356
9.77949 340
9.7996 396
9.81971 367
9.83983 394
9.85994 353
9.88006 379
9.90017 363
9.92028 389
9.9404 348
9.96051 361
9.98062 329
10.00074 348
10.02085 348
10.04097 351
10.06108 367
10.08119 377
10.10131 348
10.12142 377
10.14153 390
10.16165 381
10.18176 394
10.20187 351
10.22199 377
10.2421 366
10.26222 366
10.28233 337
10.30244 393
10.32256 372
10.34267 383
10.36278 364
10.3829 406
10.40301 370
10.42313 363
10.44324 387
10.46335 412
10.48347 376
10.50358 373
10.52369 373
10.54381 402
10.56392 368
10.58403 369
10.60415 401
10.62426 365
10.64438 355
10.66449 364
10.6846 369
10.70472 379
10.72483 366
10.74494 349
10.76506 360
10.78517 356
10.80529 367
10.8254 339
10.84551 355
10.86563 336
10.88574 376
10.90585 400
10.92597 351
10.94608 363
10.9662 355
10.98631 329
11.00642 334
11.02654 353
11.04665 338
11.06676 316
11.08688 346
11.10699 367
11.1271 350
11.14722 309
11.16733 385
11.18745 361
11.20756 290
11.22767 374
11.24779 359
11.2679 337
11.28801 341
11.30813 342
11.32824 299
11.34836 368
11.36847 365
11.38858 354
11.4087 320
11.42881 355
11.44892 350
11.46904 338
11.48915 328
11.50927 334
11.52938 336
11.54949 356
11.56961 341
11.58972 346
11.60983 333
11.62995 340
11.65006 355
11.67017 339
11.69029 325
11.7104 358
11.73052 365
11.75063 323
11.77074 379
11.79086 328
11.81097 397
11.83108 356
11.8512 318
11.87131 366
11.89143 351
11.91154 324
11.93165 393
11.95177 320
11.97188 361
11.99199 346
12.01211 372
12.03222 391
12.05234 363
12.07245 340
12.09256 338
12.11268 346
12.13279 375
12.1529 408
12.17302 354
12.19313 426
12.21324 408
12.23336 384
12.25347 372
12.27359 395
12.2937 402
12.31381 403
12.33393 380
12.35404 407
12.37415 400
12.39427 382
12.41438 390
12.4345 392
12.45461 396
12.47472 386
12.49484 389
12.51495 411
12.53506 382
12.55518 356
12.57529 344
12.5954 347
12.61552 349
12.63563 364
12.65575 365
12.67586 354
12.69597 346
12.71609 318
12.7362 334
12.75631 378
12.77643 304
12.79654 317
12.81666 325
12.83677 354
12.85688 331
12.877 307
12.89711 334
12.91722 347
12.93734 332
12.95745 324
12.97757 319
12.99768 333
13.01779 326
13.03791 361
13.05802 307
13.07813 302
13.09825 325
13.11836 334
13.13847 357
13.15859 358
13.1787 335
13.19882 328
13.21893 328
13.23904 334
13.25916 336
13.27927 347
13.29938 346
13.3195 310
13.33961 326
13.35973 353
13.37984 336
13.39995 359
13.42007 342
13.44018 288
13.46029 333
13.48041 348
13.50052 304
13.52064 316
13.54075 355
13.56086 364
13.58098 383
13.60109 378
13.6212 376
13.64132 352
13.66143 354
13.68154 316
13.70166 330
13.72177 373
13.74189 350
13.762 358
13.78211 298
13.80223 382
13.82234 324
13.84245 335
13.86257 337
13.88268 316
13.9028 341
13.92291 324
13.94302 376
13.96314 357
13.98325 354
14.00336 313
14.02348 332
14.04359 322
14.06371 347
14.08382 325
14.10393 325
14.12405 339
14.14416 336
14.16427 307
14.18439 375
14.2045 336
14.22461 310
14.24473 359
14.26484 306
14.28496 327
14.30507 354
14.32518 336
14.3453 327
14.36541 282
14.38552 320
14.40564 324
14.42575 319
14.44587 303
14.46598 340
14.48609 348
14.50621 329
14.52632 334
14.54643 329
14.56655 345
14.58666 335
14.60677 328
14.62689 303
14.647 308
14.66712 315
14.68723 383
14.70734 323
14.72746 326
14.74757 338
14.76768 336
14.7878 317
14.80791 361
14.82803 378
14.84814 319
14.86825 330
14.88837 305
14.90848 298
14.92859 335
14.94871 345
14.96882 317
14.98894 358
15.00905 369
15.02916 298
15.04928 337
15.06939 310
15.0895 348
15.10962 334
15.12973 335
15.14984 333
15.16996 325
15.19007 339
15.21019 327
15.2303 315
15.25041 344
15.27053 329
15.29064 317
15.31075 342
15.33087 312
15.35098 324
15.3711 335
15.39121 328
15.41132 306
15.43144 319
15.45155 313
15.47166 344
15.49178 353
15.51189 317
15.53201 360
15.55212 307
15.57223 319
15.59235 320
15.61246 324
15.63257 337
15.65269 355
15.6728 321
15.69291 339
15.71303 341
15.73314 358
15.75326 310
15.77337 332
15.79348 308
15.8136 350
15.83371 362
15.85382 360
15.87394 318
15.89405 295
15.91417 329
15.93428 300
15.95439 342
15.97451 364
15.99462 299
16.01473 323
16.03485 337
16.05496 303
16.07508 330
16.09519 354
16.1153 343
16.13542 382
16.15553 344
16.17564 357
16.19576 325
16.21587 341
16.23598 326
16.2561 345
16.27621 324
16.29633 375
16.31644 317
16.33655 331
16.35667 326
16.37678 289
16.39689 371
16.41701 340
16.43712 298
16.45724 308
16.47735 346
16.49746 323
16.51758 329
16.53769 334
16.5578 306
16.57792 314
16.59803 356
16.61814 322
16.63826 367
16.65837 341
16.67849 315
16.6986 339
16.71871 350
16.73883 381
16.75894 326
16.77905 337
16.79917 330
16.81928 346
16.8394 349
16.85951 344
16.87962 350
16.89974 328
16.91985 360
16.93996 360
16.96008 343
16.98019 312
17.00031 349
17.02042 350
17.04053 365
17.06065 333
17.08076 328
17.10087 359
17.12099 341
17.1411 319
17.16121 382
17.18133 358
17.20144 338
17.22156 313
17.24167 345
17.26178 360
17.2819 326
17.30201 349
17.32212 337
17.34224 360
17.36235 361
17.38247 331
17.40258 329
17.42269 330
17.44281 365
17.46292 369
17.48303 357
17.50315 361
17.52326 346
17.54338 333
17.56349 402
17.5836 362
17.60372 357
17.62383 386
17.64394 369
17.66406 383
17.68417 402
17.70428 361
17.7244 376
17.74451 391
17.76463 379
17.78474 354
17.80485 386
17.82497 351
17.84508 378
17.86519 361
17.88531 399
17.90542 378
17.92554 345
17.94565 359
17.96576 370
17.98588 363
18.00599 357
18.0261 355
18.04622 393
18.06633 361
18.08645 383
18.10656 356
18.12667 344
18.14679 374
18.1669 373
18.18701 360
18.20713 390
18.22724 315
18.24735 329
18.26747 320
18.28758 357
18.3077 300
18.32781 392
18.34792 392
18.36804 353
18.38815 341
18.40826 356
18.42838 400
18.44849 370
18.46861 389
18.48872 371
18.50883 388
18.52895 339
18.54906 369
18.56917 400
18.58929 363
18.6094 335
18.62951 399
18.64963 382
18.66974 377
18.68986 402
18.70997 364
18.73008 390
18.7502 354
18.77031 363
18.79042 393
18.81054 364
18.83065 368
18.85077 346
18.87088 364
18.89099 392
18.91111 370
18.93122 368
18.95133 410
18.97145 370
18.99156 397
19.01168 411
19.03179 375
19.0519 398
19.07202 410
19.09213 403
19.11224 387
19.13236 411
19.15247 402
19.17258 458
19.1927 423
19.21281 446
19.23293 444
19.25304 470
19.27315 439
19.29327 438
19.31338 444
19.33349 492
19.35361 482
19.37372 500
19.39384 504
19.41395 547
19.43406 524
19.45418 542
19.47429 599
19.4944 596
19.51452 607
19.53463 639
19.55475 664
19.57486 707
19.59497 717
19.61509 699
19.6352 809
19.65531 782
19.67543 808
19.69554 854
19.71565 847
19.73577 899
19.75588 873
19.776 859
19.79611 851
19.81622 857
19.83634 824
19.85645 804
19.87656 814
19.89668 786
19.91679 789
19.93691 760
19.95702 744
19.97713 711
19.99725 755
20.01736 680
20.03747 741
20.05759 680
20.0777 644
20.09782 624
20.11793 612
20.13804 684
20.15816 662
20.17827 667
20.19838 617
20.2185 621
20.23861 577
20.25872 593
20.27884 602
20.29895 577
20.31907 594
20.33918 536
20.35929 615
20.37941 582
20.39952 541
20.41963 590
20.43975 570
20.45986 581
20.47998 585
20.50009 560
20.5202 569
20.54032 599
20.56043 552
20.58054 589
20.60066 557
20.62077 576
20.64088 629
20.661 638
20.68111 698
20.70123 726
20.72134 772
20.74145 971
20.76157 1097
20.78168 1195
20.80179 1182
20.82191 1261
20.84202 1217
20.86214 1024
20.88225 901
20.90236 844
20.92248 705
20.94259 675
20.9627 618
20.98282 596
21.00293 585
21.02305 557
21.04316 538
21.06327 497
21.08339 528
21.1035 493
21.12361 548
21.14373 521
21.16384 507
21.18395 540
21.20407 487
21.22418 513
21.2443 489
21.26441 518
21.28452 515
21.30464 511
21.32475 464
21.34486 518
21.36498 503
21.38509 456
21.40521 502
21.42532 510
21.44543 466
21.46555 495
21.48566 477
21.50577 472
21.52589 461
21.546 505
21.56612 486
21.58623 462
21.60634 490
21.62646 475
21.64657 442
21.66668 470
21.6868 467
21.70691 460
21.72702 417
21.74714 465
21.76725 453
21.78737 446
21.80748 489
21.82759 493
21.84771 489
21.86782 521
21.88793 506
21.90805 533
21.92816 541
21.94828 516
21.96839 520
21.9885 530
22.00862 498
22.02873 499
22.04884 490
22.06896 511
22.08907 449
22.10919 464
22.1293 470
22.14941 493
22.16953 426
22.18964 489
22.20975 441
22.22987 481
22.24998 459
22.27009 501
22.29021 447
22.31032 437
22.33044 454
22.35055 460
22.37066 427
22.39078 472
22.41089 419
22.431 448
22.45112 459
22.47123 451
22.49135 454
22.51146 448
22.53157 419
22.55169 443
22.5718 490
22.59191 451
22.61203 462
22.63214 521
22.65225 497
22.67237 489
22.69248 471
22.7126 495
22.73271 469
22.75282 452
22.77294 502
22.79305 513
22.81316 488
22.83328 487
22.85339 517
22.87351 515
22.89362 481
22.91373 534
22.93385 576
22.95396 631
22.97407 667
22.99419 703
23.0143 696
23.03442 687
23.05453 730
23.07464 647
23.09476 581
23.11487 562
23.13498 569
23.1551 494
23.17521 527
23.19532 514
23.21544 484
23.23555 461
23.25567 488
23.27578 497
23.29589 467
23.31601 488
23.33612 429
23.35623 465
23.37635 455
23.39646 426
23.41658 491
23.43669 479
23.4568 478
23.47692 481
23.49703 533
23.51714 515
23.53726 509
23.55737 526
23.57749 466
23.5976 503
23.61771 493
23.63783 491
23.65794 476
23.67805 470
23.69817 509
23.71828 495
23.73839 451
23.75851 466
23.77862 460
23.79874 480
23.81885 521
23.83896 458
23.85908 477
23.87919 507
23.8993 483
23.91942 491
23.93953 480
23.95965 464
23.97976 478
23.99987 514
24.01999 503
24.0401 496
24.06021 481
24.08033 529
24.10044 494
24.12056 497
24.14067 503
24.16078 467
24.1809 475
24.20101 492
24.22112 506
24.24124 481
24.26135 507
24.28146 486
24.30158 473
24.32169 501
24.34181 518
24.36192 484
24.38203 463
24.40215 449
24.42226 463
24.44237 436
24.46249 463
24.4826 492
24.50272 449
24.52283 511
24.54294 496
24.56306 436
24.58317 484
24.60328 494
24.6234 448
24.64351 500
24.66362 467
24.68374 472
24.70385 433
24.72397 510
24.74408 448
24.76419 449
24.78431 482
24.80442 443
24.82453 436
24.84465 507
24.86476 479
24.88488 481
24.90499 507
24.9251 479
24.94522 480
24.96533 507
24.98544 495
25.00556 538
25.02567 495
25.04579 458
25.0659 515
25.08601 525
25.10613 538
25.12624 545
25.14635 516
25.16647 499
25.18658 524
25.20669 491
25.22681 522
25.24692 529
25.26704 537
25.28715 524
25.30726 535
25.32738 514
25.34749 476
25.3676 546
25.38772 480
25.40783 494
25.42795 516
25.44806 554
25.46817 537
25.48829 505
25.5084 550
25.52851 532
25.54863 528
25.56874 524
25.58886 499
25.60897 505
25.62908 562
25.6492 502
25.66931 503
25.68942 497
25.70954 473
25.72965 544
25.74976 501
25.76988 495
25.78999 512
25.81011 491
25.83022 512
25.85033 492
25.87045 493
25.89056 497
25.91067 524
25.93079 506
25.9509 539
25.97102 504
25.99113 489
26.01124 515
26.03136 520
26.05147 496
26.07158 524
26.0917 516
26.11181 509
26.13193 569
26.15204 532
26.17215 526
26.19227 490
26.21238 577
26.23249 582
26.25261 586
26.27272 619
26.29283 635
26.31295 696
26.33306 663
26.35318 753
26.37329 766
26.3934 802
26.41352 899
26.43363 1094
26.45374 1407
26.47386 1693
26.49397 1990
26.51409 2625
26.5342 3254
26.55431 3774
26.57443 4028
26.59454 3981
26.61465 3846
26.63477 3363
26.65488 2776
26.67499 2258
26.69511 1816
26.71522 1335
26.73534 1006
26.75545 909
26.77556 723
26.79568 767
26.81579 701
26.8359 664
26.85602 627
26.87613 616
26.89625 623
26.91636 576
26.93647 633
26.95659 609
26.9767 578
26.99681 591
27.01693 593
27.03704 555
27.05716 540
27.07727 580
27.09738 539
27.1175 527
27.13761 546
27.15772 522
27.17784 519
27.19795 505
27.21806 540
27.23818 568
27.25829 581
27.27841 532
27.29852 545
27.31863 553
27.33875 559
27.35886 608
27.37897 640
27.39909 615
27.4192 641
27.43932 610
27.45943 588
27.47954 586
27.49966 582
27.51977 564
27.53988 567
27.56 572
27.58011 555
27.60023 587
27.62034 555
27.64045 572
27.66057 620
27.68068 602
27.70079 619
27.72091 623
27.74102 612
27.76113 646
27.78125 608
27.80136 626
27.82148 627
27.84159 627
27.8617 654
27.88182 655
27.90193 630
27.92204 580
27.94216 598
27.96227 537
27.98239 602
28.0025 556
28.02261 506
28.04273 544
28.06284 538
28.08295 540
28.10307 492
28.12318 501
28.1433 535
28.16341 511
28.18352 464
28.20364 519
28.22375 472
28.24386 495
28.26398 518
28.28409 479
28.3042 486
28.32432 510
28.34443 423
28.36455 485
28.38466 455
28.40477 508
28.42489 480
28.445 497
28.46511 476
28.48523 483
28.50534 464
28.52546 480
28.54557 511
28.56568 464
28.5858 471
28.60591 443
28.62602 495
28.64614 478
28.66625 488
28.68636 454
28.70648 497
28.72659 450
28.74671 469
28.76682 447
28.78693 450
28.80705 443
28.82716 473
28.84727 474
28.86739 469
28.8875 457
28.90762 486
28.92773 489
28.94784 497
28.96796 475
28.98807 514
29.00818 486
29.0283 535
29.04841 542
29.06853 590
29.08864 578
29.10875 615
29.12887 645
29.14898 731
29.16909 733
29.18921 817
29.20932 972
29.22943 1083
29.24955 1271
29.26966 1525
29.28978 1776
29.30989 2239
29.33 2503
29.35012 2668
29.37023 2731
29.39034 2797
29.41046 2561
29.43057 2322
29.45069 1983
29.4708 1717
29.49091 1402
29.51103 1117
29.53114 988
29.55125 836
29.57137 723
29.59148 703
29.6116 637
29.63171 568
29.65182 620
29.67194 584
29.69205 565
29.71216 551
29.73228 573
29.75239 547
29.7725 567
29.79262 534
29.81273 527
29.83285 501
29.85296 516
29.87307 470
29.89319 488
29.9133 514
29.93341 507
29.95353 500
29.97364 512
29.99376 467
30.01387 477
30.03398 473
30.0541 446
30.07421 480
30.09432 504
30.11444 466
30.13455 436
30.15467 512
30.17478 451
30.19489 479
30.21501 458
30.23512 481
30.25523 515
30.27535 474
30.29546 465
30.31557 488
30.33569 466
30.3558 454
30.37592 482
30.39603 480
30.41614 466
30.43626 462
30.45637 450
30.47648 484
30.4966 403
30.51671 442
30.53683 440
30.55694 409
30.57705 421
30.59717 417
30.61728 443
30.63739 425
30.65751 419
30.67762 474
30.69773 459
30.71785 456
30.73796 431
30.75808 474
30.77819 443
30.7983 440
30.81842 434
30.83853 482
30.85864 434
30.87876 405
30.89887 421
30.91899 421
30.9391 413
30.95921 455
30.97933 435
30.99944 412
31.01955 425
31.03967 446
31.05978 421
31.0799 434
31.10001 405
31.12012 411
31.14024 405
31.16035 415
31.18046 426
31.20058 463
31.22069 413
31.2408 409
31.26092 422
31.28103 468
31.30115 415
31.32126 397
31.34137 453
31.36149 487
31.3816 429
31.40171 478
31.42183 460
31.44194 443
31.46206 462
31.48217 463
31.50228 418
31.5224 442
31.54251 433
31.56262 409
31.58274 392
31.60285 414
31.62297 422
31.64308 441
31.66319 403
31.68331 400
31.70342 406
31.72353 386
31.74365 381
31.76376 425
31.78387 415
31.80399 389
31.8241 440
31.84422 441
31.86433 448
31.88444 386
31.90456 417
31.92467 397
31.94478 398
31.9649 425
31.98501 393
32.00513 410
32.02524 394
32.04535 391
32.06547 419
32.08558 401
32.10569 387
32.12581 442
32.14592 379
32.16604 390
32.18615 409
32.20626 412
32.22638 392
32.24649 438
32.2666 396
32.28672 395
32.30683 409
32.32694 374
32.34706 403
32.36717 384
32.38729 368
32.4074 406
32.42751 389
32.44763 389
32.46774 386
32.48785 403
32.50797 419
32.52808 401
32.5482 380
32.56831 403
32.58842 463
32.60854 420
32.62865 375
32.64876 398
32.66888 425
32.68899 413
32.7091 386
32.72922 428
32.74933 393
32.76945 373
32.78956 392
32.80967 393
32.82979 420
32.8499 362
32.87001 398
32.89013 407
32.91024 392
32.93036 457
32.95047 434
32.97058 468
32.9907 442
33.01081 428
33.03092 479
33.05104 463
33.07115 421
33.09127 462
33.11138 405
33.13149 389
33.15161 417
33.17172 408
33.19183 430
33.21195 408
33.23206 405
33.25217 426
33.27229 397
33.2924 414
33.31252 375
33.33263 429
33.35274 400
33.37286 393
33.39297 410
33.41308 381
33.4332 354
33.45331 432
33.47343 386
33.49354 397
33.51365 373
33.53377 391
33.55388 367
33.57399 416
33.59411 381
33.61422 423
33.63434 418
33.65445 401
33.67456 410
33.69468 369
33.71479 380
33.7349 396
33.75502 428
33.77513 392
33.79524 373
33.81536 458
33.83547 444
33.85559 378
33.8757 440
33.89581 390
33.91593 424
33.93604 416
33.95615 430
33.97627 475
33.99638 399
34.0165 406
34.03661 391
34.05672 406
34.07684 405
34.09695 437
34.11706 454
34.13718 474
34.15729 444
34.17741 462
34.19752 501
34.21763 463
34.23775 521
34.25786 495
34.27797 522
34.29809 494
34.3182 545
34.33831 519
34.35843 519
34.37854 547
34.39866 558
34.41877 602
34.43888 597
34.459 640
34.47911 620
34.49922 652
34.51934 622
34.53945 644
34.55957 632
34.57968 645
34.59979 621
34.61991 605
34.64002 626
34.66013 632
34.68025 632
34.70036 619
34.72047 690
34.74059 665
34.7607 669
34.78082 661
34.80093 691
34.82104 647
34.84116 694
34.86127 700
34.88138 696
34.9015 695
34.92161 713
34.94173 668
34.96184 687
34.98195 705
35.00207 685
35.02218 616
35.04229 647
35.06241 590
35.08252 622
35.10264 560
35.12275 601
35.14286 612
35.16298 580
35.18309 625
35.2032 655
35.22332 590
35.24343 579
35.26354 581
35.28366 590
35.30377 538
35.32389 559
35.344 560
35.36411 606
35.38423 594
35.40434 568
35.42445 595
35.44457 558
35.46468 554
35.4848 560
35.50491 594
35.52502 572
35.54514 605
35.56525 565
35.58536 551
35.60548 550
35.62559 576
35.64571 559
35.66582 550
35.68593 525
35.70605 573
35.72616 549
35.74627 490
35.76639 517
35.7865 591
35.80661 593
35.82673 625
35.84684 666
35.86696 688
35.88707 722
35.90718 736
35.9273 750
35.94741 757
35.96752 763
35.98764 761
36.00775 713
36.02787 722
36.04798 642
36.06809 593
36.08821 561
36.10832 558
36.12843 573
36.14855 580
36.16866 547
36.18878 505
36.20889 498
36.229 525
36.24912 532
36.26923 475
36.28934 489
36.30946 499
36.32957 546
36.34968 555
36.3698 547
36.38991 629
36.41003 636
36.43014 636
36.45025 704
36.47037 702
36.49048 695
36.51059 720
36.53071 709
36.55082 685
36.57094 644
36.59105 585
36.61116 606
36.63128 570
36.65139 533
36.6715 484
36.69162 533
36.71173 524
36.73184 504
36.75196 543
36.77207 499
36.79219 545
36.8123 515
36.83241 489
36.85253 483
36.87264 479
36.89275 483
36.91287 497
36.93298 472
36.9531 503
36.97321 446
36.99332 494
37.01344 442
37.03355 500
37.05366 503
37.07378 466
37.09389 515
37.11401 471
37.13412 443
37.15423 474
37.17435 458
37.19446 454
37.21457 465
37.23469 450
37.2548 485
37.27491 474
37.29503 444
37.31514 492
37.33526 532
37.35537 469
37.37548 479
37.3956 487
37.41571 467
37.43582 469
37.45594 455
37.47605 455
37.49617 483
37.51628 501
37.53639 467
37.55651 456
37.57662 499
37.59673 496
37.61685 476
37.63696 474
37.65708 440
37.67719 468
37.6973 458
37.71742 479
37.73753 453
37.75764 424
37.77776 463
37.79787 454
37.81798 477
37.8381 466
37.85821 439
37.87833 421
37.89844 391
37.91855 437
37.93867 386
37.95878 415
37.97889 423
37.99901 425
38.01912 410
38.03924 422
38.05935 433
38.07946 441
38.09958 444
38.11969 400
38.1398 432
38.15992 421
38.18003 424
38.20015 418
38.22026 418
38.24037 427
38.26049 448
38.2806 396
38.30071 397
38.32083 427
38.34094 392
38.36105 411
38.38117 404
38.40128 409
38.4214 407
38.44151 415
38.46162 390
38.48174 410
38.50185 446
38.52196 415
38.54208 423
38.56219 432
38.58231 395
38.60242 435
38.62253 403
38.64265 389
38.66276 402
38.68287 399
38.70299 409
38.7231 437
38.74321 382
38.76333 394
38.78344 395
38.80356 410
38.82367 397
38.84378 419
38.8639 399
38.88401 388
38.90412 381
38.92424 376
38.94435 390
38.96447 438
38.98458 379
39.00469 402
39.02481 380
39.04492 434
39.06503 398
39.08515 425
39.10526 455
39.12538 441
39.14549 454
39.1656 512
39.18572 483
39.20583 494
39.22594 546
39.24606 613
39.26617 620
39.28628 645
39.3064 803
39.32651 848
39.34663 903
39.36674 965
39.38685 980
39.40697 989
39.42708 915
39.44719 925
39.46731 825
39.48742 783
39.50754 765
39.52765 646
39.54776 602
39.56788 556
39.58799 510
39.6081 525
39.62822 432
39.64833 473
39.66845 453
39.68856 439
39.70867 425
39.72879 429
39.7489 417
39.76901 429
39.78913 414
39.80924 422
39.82935 401
39.84947 408
39.86958 418
39.8897 427
39.90981 429
39.92992 433
39.95004 429
39.97015 436
39.99026 461
40.01038 397
40.03049 411
40.05061 415
40.07072 440
40.09083 414
40.11095 471
40.13106 461
40.15117 441
40.17129 473
40.1914 502
40.21152 540
40.23163 488
40.25174 479
40.27186 503
40.29197 447
40.31208 468
40.3322 428
40.35231 434
40.37242 416
40.39254 442
40.41265 395
40.43277 429
40.45288 378
40.47299 400
40.49311 400
40.51322 425
40.53333 424
40.55345 397
40.57356 405
40.59368 397
40.61379 377
40.6339 382
40.65402 461
40.67413 407
40.69424 408
40.71436 400
40.73447 416
40.75458 416
40.7747 400
40.79481 433
40.81493 424
40.83504 410
40.85515 422
40.87527 413
40.89538 410
40.91549 398
40.93561 428
40.95572 435
40.97584 379
40.99595 386
41.01606 390
41.03618 383
41.05629 442
41.0764 385
41.09652 417
41.11663 398
41.13675 410
41.15686 414
41.17697 429
41.19709 392
41.2172 412
41.23731 398
41.25743 413
41.27754 390
41.29765 447
41.31777 392
41.33788 395
41.358 410
41.37811 384
41.39822 420
41.41834 384
41.43845 362
41.45856 391
41.47868 388
41.49879 400
41.51891 397
41.53902 436
41.55913 374
41.57925 388
41.59936 364
41.61947 417
41.63959 392
41.6597 421
41.67982 415
41.69993 423
41.72004 398
41.74016 429
41.76027 391
41.78038 392
41.8005 369
41.82061 402
41.84072 405
41.86084 420
41.88095 377
41.90107 389
41.92118 386
41.94129 393
41.96141 395
41.98152 386
42.00163 389
42.02175 383
42.04186 389
42.06198 382
42.08209 390
42.1022 378
42.12232 407
42.14243 408
42.16254 404
42.18266 437
42.20277 400
42.22289 412
42.243 430
42.26311 434
42.28323 460
42.30334 479
42.32345 523
42.34357 545
42.36368 560
42.38379 575
42.40391 512
42.42402 512
42.44414 493
42.46425 524
42.48436 484
42.50448 448
42.52459 431
42.5447 425
42.56482 452
42.58493 380
42.60505 432
42.62516 410
42.64527 411
42.66539 380
42.6855 371
42.70561 366
42.72573 371
42.74584 417
42.76595 367
42.78607 437
42.80618 413
42.8263 416
42.84641 414
42.86652 367
42.88664 384
42.90675 431
42.92686 444
42.94698 420
42.96709 471
42.98721 482
43.00732 518
43.02743 557
43.04755 565
43.06766 631
43.08777 692
43.10789 653
43.128 686
43.14812 681
43.16823 706
43.18834 657
43.20846 588
43.22857 606
43.24868 627
43.2688 513
43.28891 526
43.30902 512
43.32914 411
43.34925 440
43.36937 412
43.38948 430
43.40959 408
43.42971 393
43.44982 395
43.46993 385
43.49005 387
43.51016 370
43.53028 352
43.55039 351
43.5705 355
43.59062 405
43.61073 397
43.63084 365
43.65096 390
43.67107 344
43.69119 373
43.7113 367
43.73141 365
43.75153 384
43.77164 356
43.79175 393
43.81187 369
43.83198 361
43.85209 331
43.87221 381
43.89232 378
43.91244 337
43.93255 378
43.95266 340
43.97278 376
43.99289 327
44.013 374
44.03312 344
44.05323 366
44.07335 370
44.09346 360
44.11357 366
44.13369 347
44.1538 350
44.17391 337
44.19403 374
44.21414 319
44.23426 352
44.25437 336
44.27448 345
44.2946 341
44.31471 349
44.33482 360
44.35494 372
44.37505 353
44.39516 357
44.41528 320
44.43539 368
44.45551 356
44.47562 374
44.49573 314
44.51585 353
44.53596 337
44.55607 377
44.57619 353
44.5963 348
44.61642 335
44.63653 363
44.65664 327
44.67676 382
44.69687 365
44.71698 388
44.7371 331
44.75721 376
44.77732 395
44.79744 360
44.81755 368
44.83767 359
44.85778 400
44.87789 344
44.89801 375
44.91812 380
44.93823 368
44.95835 372
44.97846 353
44.99858 365
45.01869 443
45.0388 388
45.05892 361
45.07903 407
45.09914 375
45.11926 434
45.13937 360
45.15949 380
45.1796 361
45.19971 359
45.21983 396
45.23994 416
45.26005 383
45.28017 409
45.30028 377
45.32039 371
45.34051 344
45.36062 376
45.38074 370
45.40085 388
45.42096 341
45.44108 363
45.46119 378
45.4813 360
45.50142 384
45.52153 385
45.54165 359
45.56176 393
45.58187 374
45.60199 418
45.6221 398
45.64221 435
45.66233 454
45.68244 461
45.70256 434
45.72267 476
45.74278 453
45.7629 427
45.78301 481
45.80312 412
45.82324 446
45.84335 411
45.86346 410
45.88358 335
45.90369 364
45.92381 398
45.94392 380
45.96403 358
45.98415 356
46.00426 369
46.02437 378
46.04449 375
46.0646 346
46.08472 351
46.10483 380
46.12494 328
46.14506 352
46.16517 400
46.18528 321
46.2054 343
46.22551 321
46.24563 359
46.26574 348
46.28585 358
46.30597 321
46.32608 355
46.34619 346
46.36631 344
46.38642 329
46.40653 373
46.42665 349
46.44676 351
46.46688 348
46.48699 343
46.5071 342
46.52722 354
46.54733 340
46.56744 320
46.58756 328
46.60767 335
46.62779 359
46.6479 354
46.66801 341
46.68813 336
46.70824 319
46.72835 343
46.74847 358
46.76858 329
46.78869 316
46.80881 334
46.82892 396
46.84904 384
46.86915 373
46.88926 400
46.90938 361
46.92949 394
46.9496 398
46.96972 392
46.98983 413
47.00995 439
47.03006 450
47.05017 440
47.07029 453
47.0904 473
47.11051 527
47.13063 450
47.15074 448
47.17086 482
47.19097 480
47.21108 494
47.2312 438
47.25131 440
47.27142 449
47.29154 457
47.31165 465
47.33176 530
47.35188 497
47.37199 551
47.39211 608
47.41222 592
47.43233 655
47.45245 692
47.47256 665
47.49267 721
47.51279 693
47.5329 634
47.55302 590
47.57313 554
47.59324 541
47.61336 512
47.63347 533
47.65358 499
47.6737 443
47.69381 412
47.71393 448
47.73404 366
47.75415 395
47.77427 396
47.79438 390
47.81449 380
47.83461 385
47.85472 340
47.87483 359
47.89495 357
47.91506 368
47.93518 354
47.95529 363
47.9754 385
47.99552 380
48.01563 342
48.03574 365
48.05586 377
48.07597 340
48.09609 366
48.1162 379
48.13631 357
48.15643 399
48.17654 390
48.19665 418
48.21677 389
48.23688 406
48.257 444
48.27711 451
48.29722 456
48.31734 434
48.33745 519
48.35756 498
48.37768 538
48.39779 614
48.4179 640
48.43802 644
48.45813 672
48.47825 727
48.49836 759
48.51847 701
48.53859 656
48.5587 666
48.57881 615
48.59893 568
48.61904 614
48.63916 509
48.65927 459
48.67938 428
48.6995 442
48.71961 440
48.73972 346
48.75984 381
48.77995 368
48.80006 372
48.82018 351
48.84029 373
48.86041 352
48.88052 347
48.90063 345
48.92075 340
48.94086 357
48.96097 326
48.98109 348
49.0012 366
49.02132 325
49.04143 347
49.06154 351
49.08166 324
49.10177 387
49.12188 367
49.142 342
49.16211 333
49.18223 342
49.20234 334
49.22245 363
49.24257 361
49.26268 326
49.28279 344
49.30291 343
49.32302 336
49.34313 339
49.36325 343
49.38336 360
49.40348 339
49.42359 339
49.4437 390
49.46382 347
49.48393 358
49.50404 386
49.52416 306
49.54427 367
49.56439 332
49.5845 332
49.60461 322
49.62473 352
49.64484 322
49.66495 355
49.68507 358
49.70518 345
49.7253 378
49.74541 369
49.76552 333
49.78564 377
49.80575 372
49.82586 367
49.84598 383
49.86609 401
49.8862 401
49.90632 414
49.92643 431
49.94655 480
49.96666 507
49.98677 525
50.00689 587
50.027 621
50.04711 709
50.06723 684
50.08734 722
50.10746 705
50.12757 604
50.14768 589
50.1678 586
50.18791 508
50.20802 491
50.22814 502
50.24825 410
50.26837 380
50.28848 381
50.30859 368
50.32871 351
50.34882 368
50.36893 359
50.38905 362
50.40916 332
50.42927 338
50.44939 341
50.4695 329
50.48962 347
50.50973 352
50.52984 334
50.54996 320
50.57007 326
50.59018 362
50.6103 374
50.63041 327
50.65053 359
50.67064 366
50.69075 341
50.71087 334
50.73098 360
50.75109 364
50.77121 310
50.79132 338
50.81143 318
50.83155 349
50.85166 337
50.87178 328
50.89189 317
50.912 311
50.93212 306
50.95223 300
50.97234 298
50.99246 306
51.01257 301
51.03269 325
51.0528 328
51.07291 305
51.09303 340
51.11314 331
51.13325 336
51.15337 321
51.17348 310
51.1936 316
51.21371 348
51.23382 336
51.25394 308
51.27405 327
51.29416 327
51.31428 299
51.33439 316
51.3545 300
51.37462 312
51.39473 301
51.41485 334
51.43496 296
51.45507 282
51.47519 311
51.4953 265
51.51541 307
51.53553 330
51.55564 329
51.57576 301
51.59587 305
51.61598 322
51.6361 313
51.65621 286
51.67632 310
51.69644 313
51.71655 314
51.73667 289
51.75678 329
51.77689 311
51.79701 331
51.81712 332
51.83723 314
51.85735 312
51.87746 291
51.89757 297
51.91769 301
51.9378 326
51.95792 310
51.97803 277
51.99814 307
52.01826 304
52.03837 304
52.05848 298
52.0786 285
52.09871 327
52.11883 341
52.13894 295
52.15905 294
52.17917 288
52.19928 317
52.21939 298
52.23951 319
52.25962 322
52.27974 326
52.29985 359
52.31996 308
52.34008 355
52.36019 354
52.3803 311
52.40042 324
52.42053 297
52.44064 330
52.46076 321
52.48087 306
52.50099 313
52.5211 342
52.54121 305
52.56133 332
52.58144 332
52.60155 302
52.62167 319
52.64178 350
52.6619 334
52.68201 377
52.70212 324
52.72224 311
52.74235 325
52.76246 329
52.78258 305
52.80269 307
52.8228 311
52.84292 309
52.86303 322
52.88315 321
52.90326 311
52.92337 334
52.94349 334
52.9636 328
52.98371 341
53.00383 360
53.02394 343
53.04406 333
53.06417 356
53.08428 366
53.1044 368
53.12451 349
53.14462 329
53.16474 348
53.18485 354
53.20497 333
53.22508 351
53.24519 355
53.26531 368
53.28542 380
53.30553 359
53.32565 354
53.34576 375
53.36587 352
53.38599 345
53.4061 343
53.42622 399
53.44633 342
53.46644 359
53.48656 338
53.50667 348
53.52678 392
53.5469 359
53.56701 400
53.58713 390
53.60724 397
53.62735 411
53.64747 389
53.66758 356
53.68769 372
53.70781 405
53.72792 382
53.74804 371
53.76815 411
53.78826 447
53.80838 406
53.82849 422
53.8486 386
53.86872 376
53.88883 419
53.90894 421
53.92906 342
53.94917 421
53.96929 396
53.9894 387
54.00951 398
54.02963 417
54.04974 400
54.06985 398
54.08997 386
54.11008 390
54.1302 415
54.15031 392
54.17042 376
54.19054 374
54.21065 397
54.23076 406
54.25088 378
54.27099 393
54.29111 372
54.31122 406
54.33133 354
54.35145 389
54.37156 401
54.39167 403
54.41179 355
54.4319 380
54.45201 364
54.47213 416
54.49224 388
54.51236 398
54.53247 386
54.55258 375
54.5727 377
54.59281 390
54.61292 395
54.63304 433
54.65315 416
54.67327 405
54.69338 441
54.71349 429
54.73361 478
54.75372 436
54.77383 475
54.79395 457
54.81406 467
54.83417 510
54.85429 488
54.8744 466
54.89452 457
54.91463 473
54.93474 460
54.95486 387
54.97497 407
54.99508 396
55.0152 413
55.03531 437
55.05543 403
55.07554 408
55.09565 418
55.11577 391
55.13588 399
55.15599 402
55.17611 393
55.19622 439
55.21634 418
55.23645 431
55.25656 425
55.27668 399
55.29679 428
55.3169 401
55.33702 399
55.35713 425
55.37724 374
55.39736 386
55.41747 394
55.43759 408
55.4577 358
55.47781 388
55.49793 364
55.51804 389
55.53815 383
55.55827 382
55.57838 350
55.5985 367
55.61861 362
55.63872 365
55.65884 378
55.67895 331
55.69906 374
55.71918 404
55.73929 384
55.75941 414
55.77952 341
55.79963 351
55.81975 374
55.83986 390
55.85997 392
55.88009 384
55.9002 325
55.92031 366
55.94043 363
55.96054 348
55.98066 355
56.00077 374
56.02088 362
56.041 340
56.06111 337
56.08122 367
56.10134 341
56.12145 379
56.14157 333
56.16168 375
56.18179 349
56.20191 351
56.22202 363
56.24213 337
56.26225 383
56.28236 364
56.30248 387
56.32259 371
56.3427 376
56.36282 368
56.38293 347
56.40304 386
56.42316 403
56.44327 413
56.46338 351
56.4835 431
56.50361 438
56.52373 413
56.54384 392
56.56395 400
56.58407 440
56.60418 403
56.62429 408
56.64441 418
56.66452 422
56.68464 393
56.70475 353
56.72486 397
56.74498 414
56.76509 367
56.7852 359
56.80532 350
56.82543 361
56.84554 380
56.86566 370
56.88577 317
56.90589 366
56.926 346
56.94611 339
56.96623 384
56.98634 402
57.00645 358
57.02657 332
57.04668 359
57.0668 388
57.08691 374
57.10702 360
57.12714 393
57.14725 364
57.16736 374
57.18748 436
57.20759 413
57.22771 383
57.24782 413
57.26793 422
57.28805 448
57.30816 416
57.32827 486
57.34839 491
57.3685 513
57.38861 489
57.40873 503
57.42884 499
57.44896 464
57.46907 461
57.48918 463
57.5093 463
57.52941 404
57.54952 437
57.56964 420
57.58975 421
57.60987 389
57.62998 388
57.65009 414
57.67021 389
57.69032 374
57.71043 372
57.73055 335
57.75066 353
57.77078 381
57.79089 348
57.811 369
57.83112 342
57.85123 336
57.87134 337
57.89146 346
57.91157 361
57.93168 336
57.9518 338
57.97191 339
57.99203 350
58.01214 323
58.03225 350
58.05237 357
58.07248 366
58.09259 331
58.11271 350
58.13282 351
58.15294 364
58.17305 337
58.19316 388
58.21328 347
58.23339 342
58.2535 345
58.27362 339
58.29373 324
58.31385 345
58.33396 331
58.35407 358
58.37419 347
58.3943 301
58.41441 385
58.43453 339
58.45464 309
58.47475 361
58.49487 350
58.51498 338
58.5351 322
58.55521 323
58.57532 325
58.59544 324
58.61555 341
58.63566 337
58.65578 354
58.67589 341
58.69601 342
58.71612 334
58.73623 328
58.75635 328
58.77646 346
58.79657 318
58.81669 342
58.8368 346
58.85691 339
58.87703 338
58.89714 353
58.91726 349
58.93737 357
58.95748 324
58.9776 318
58.99771 366
59.01782 335
59.03794 327
59.05805 363
59.07817 345
59.09828 325
59.11839 339
59.13851 362
59.15862 349
59.17873 327
59.19885 352
59.21896 336
59.23908 363
59.25919 339
59.2793 347
59.29942 338
59.31953 355
59.33964 360
59.35976 334
59.37987 325
59.39998 332
59.4201 337
59.44021 362
59.46033 344
59.48044 354
59.50055 351
59.52067 354
59.54078 358
59.56089 375
59.58101 362
59.60112 369
59.62124 331
59.64135 396
59.66146 384
59.68158 377
59.70169 415
59.7218 420
59.74192 401
59.76203 444
59.78215 461
59.80226 542
59.82237 515
59.84249 538
59.8626 565
59.88271 605
59.90283 549
59.92294 516
59.94305 522
59.96317 472
59.98328 486
60.0034 480
60.02351 467
60.04362 453
60.06374 477
60.08385 439
60.10396 429
60.12408 406
60.14419 371
60.16431 433
60.18442 364
60.20453 370
60.22465 379
60.24476 446
60.26487 377
60.28499 384
60.3051 379
60.32522 393
60.34533 392
60.36544 398
60.38556 400
60.40567 371
60.42578 409
60.4459 388
60.46601 357
60.48612 397
60.50624 393
60.52635 428
60.54647 411
60.56658 454
60.58669 421
60.60681 472
60.62692 456
60.64703 439
60.66715 482
60.68726 431
60.70738 444
60.72749 420
60.7476 482
60.76772 462
60.78783 458
60.80794 414
60.82806 453
60.84817 451
60.86828 457
60.8884 416
60.90851 397
60.92863 426
60.94874 451
60.96885 402
60.98897 436
61.00908 461
61.02919 407
61.04931 368
61.06942 425
61.08954 431
61.10965 427
61.12976 437
61.14988 444
61.16999 437
61.1901 471
61.21022 478
61.23033 457
61.25045 441
61.27056 459
61.29067 461
61.31079 480
61.3309 485
61.35101 502
61.37113 473
61.39124 479
61.41135 515
61.43147 471
61.45158 516
61.4717 513
61.49181 525
61.51192 483
61.53204 505
61.55215 505
61.57226 489
61.59238 501
61.61249 497
61.63261 498
61.65272 492
61.67283 478
61.69295 486
61.71306 440
61.73317 463
61.75329 460
61.7734 448
61.79352 466
61.81363 469
61.83374 453
61.85386 438
61.87397 432
61.89408 420
61.9142 454
61.93431 441
61.95442 417
61.97454 454
61.99465 404
62.01477 431
62.03488 460
62.05499 451
62.07511 411
62.09522 451
62.11533 420
62.13545 422
62.15556 428
62.17568 409
62.19579 421
62.2159 383
62.23602 432
62.25613 378
62.27624 393
62.29636 382
62.31647 397
62.33659 407
62.3567 418
62.37681 417
62.39693 365
62.41704 385
62.43715 389
62.45727 392
62.47738 365
62.49749 380
62.51761 398
62.53772 371
62.55784 371
62.57795 372
62.59806 378
62.61818 385
62.63829 367
62.6584 402
62.67852 369
62.69863 400
62.71875 366
62.73886 357
62.75897 331
62.77909 374
62.7992 386
62.81931 367
62.83943 360
62.85954 371
62.87965 369
62.89977 329
62.91988 370
62.94 376
62.96011 358
62.98022 363
63.00034 408
63.02045 347
63.04056 366
63.06068 358
63.08079 379
63.10091 369
63.12102 368
63.14113 368
63.16125 397
63.18136 349
63.20147 325
63.22159 349
63.2417 368
63.26182 358
63.28193 341
63.30204 348
63.32216 324
63.34227 328
63.36238 344
63.3825 346
63.40261 307
63.42272 345
63.44284 342
63.46295 346
63.48307 346
63.50318 308
63.52329 382
63.54341 321
63.56352 314
63.58363 327
63.60375 337
63.62386 329
63.64398 333
63.66409 318
63.6842 350
63.70432 328
63.72443 321
63.74454 336
63.76466 333
63.78477 335
63.80489 357
63.825 341
63.84511 368
63.86523 378
63.88534 361
63.90545 349
63.92557 413
63.94568 374
63.96579 332
63.98591 370
64.00602 367
64.02614 347
64.04625 330
64.06636 350
64.08648 375
64.10659 381
64.1267 380
64.14682 330
64.16693 340
64.18705 341
64.20716 337
64.22727 329
64.24739 322
64.2675 322
64.28761 319
64.30773 351
64.32784 337
64.34796 332
64.36807 329
64.38818 356
64.4083 332
64.42841 325
64.44852 334
64.46864 346
64.48875 329
64.50886 353
64.52898 357
64.54909 369
64.56921 402
64.58932 404
64.60943 412
64.62955 436
64.64966 412
64.66977 388
64.68989 438
64.71 424
64.73012 340
64.75023 396
64.77034 385
64.79046 396
64.81057 385
64.83068 369
64.8508 375
64.87091 353
64.89102 362
64.91114 379
64.93125 346
64.95137 321
64.97148 322
64.99159 311
65.01171 323
65.03182 352
65.05193 318
65.07205 340
65.09216 299
65.11228 374
65.13239 336
65.1525 309
65.17262 335
65.19273 319
65.21284 311
65.23296 362
65.25307 304
65.27319 320
65.2933 285
65.31341 332
65.33353 339
65.35364 332
65.37375 350
65.39387 329
65.41398 336
65.43409 354
65.45421 338
65.47432 334
65.49444 356
65.51455 366
65.53466 374
65.55478 358
65.57489 379
65.595 370
65.61512 373
65.63523 362
65.65535 358
65.67546 363
65.69557 348
65.71569 338
65.7358 363
65.75591 330
65.77603 344
65.79614 322
65.81626 339
65.83637 347
65.85648 326
65.8766 335
65.89671 308
65.91682 321
65.93694 358
65.95705 321
65.97716 304
65.99728 315
66.01739 334
66.03751 302
66.05762 310
66.07773 311
66.09785 300
66.11796 289
66.13807 315
66.15819 333
66.1783 326
66.19842 300
66.21853 306
66.23864 324
66.25876 320
66.27887 317
66.29898 330
66.3191 298
66.33921 323
66.35933 306
66.37944 281
66.39955 298
66.41967 323
66.43978 314
66.45989 299
66.48001 299
66.50012 323
66.52023 304
66.54035 297
66.56046 281
66.58058 307
66.60069 304
66.6208 299
66.64092 295
66.66103 295
66.68114 295
66.70126 313
66.72137 326
66.74149 290
66.7616 322
66.78171 308
66.80183 283
66.82194 303
66.84205 295
66.86217 304
66.88228 317
66.90239 289
66.92251 346
66.94262 284
66.96274 308
66.98285 310
67.00296 325
67.02308 331
67.04319 302
67.0633 310
67.08342 341
67.10353 301
67.12365 313
67.14376 313
67.16387 312
67.18399 303
67.2041 318
67.22421 288
67.24433 333
67.26444 290
67.28456 329
67.30467 309
67.32478 307
67.3449 327
67.36501 341
67.38512 342
67.40524 345
67.42535 323
67.44546 357
67.46558 363
67.48569 373
67.50581 385
67.52592 386
67.54603 395
67.56615 355
67.58626 399
67.60637 441
67.62649 388
67.6466 430
67.66672 433
67.68683 435
67.70694 437
67.72706 425
67.74717 418
67.76728 394
67.7874 396
67.80751 392
67.82763 377
67.84774 388
67.86785 429
67.88797 414
67.90808 381
67.92819 404
67.94831 412
67.96842 451
67.98853 401
68.00865 470
68.02876 487
68.04888 467
68.06899 520
68.0891 488
68.10922 490
68.12933 435
68.14944 470
68.16956 483
68.18967 426
68.20979 471
68.2299 452
68.25001 439
68.27013 488
68.29024 435
68.31035 429
68.33047 393
68.35058 381
68.3707 394
68.39081 365
68.41092 394
68.43104 381
68.45115 397
68.47126 356
68.49138 365
68.51149 385
68.5316 350
68.55172 331
68.57183 349
68.59195 307
68.61206 311
68.63217 323
68.65229 340
68.6724 334
68.69251 330
68.71263 334
68.73274 308
68.75286 320
68.77297 340
68.79308 350
68.8132 303
68.83331 334
68.85342 330
68.87354 334
68.89365 313
68.91376 334
68.93388 333
68.95399 304
68.97411 326
68.99422 333
69.01433 328
69.03445 324
69.05456 342
69.07467 355
69.09479 332
69.1149 335
69.13502 339
69.15513 331
69.17524 364
69.19536 337
69.21547 350
69.23558 293
69.2557 331
69.27581 346
69.29593 342
69.31604 345
69.33615 351
69.35627 363
69.37638 318
69.39649 331
69.41661 340
69.43672 328
69.45683 333
69.47695 312
69.49706 318
69.51718 342
69.53729 320
69.5574 329
69.57752 314
69.59763 338
69.61774 334
69.63786 299
69.65797 302
69.67809 341
69.6982 332
69.71831 296
69.73843 320
69.75854 345
69.77865 295
69.79877 320
69.81888 316
69.839 304
69.85911 350
69.87922 333
69.89934 334
69.91945 309
69.93956 325
69.95968 345
69.97979 355
69.9999 345
70.02002 338
70.04013 338
70.06025 302
70.08036 323
70.10047 349
70.12059 349
70.1407 318
70.16081 356
70.18093 336
70.20104 352
70.22116 331
70.24127 344
70.26138 349
70.2815 347
70.30161 321
70.32172 315
70.34184 331
70.36195 329
70.38207 332
70.40218 344
70.42229 349
70.44241 330
70.46252 380
70.48263 332
70.50275 324
70.52286 330
70.54297 353
70.56309 331
70.5832 319
70.60332 325
70.62343 331
70.64354 310
70.66366 301
70.68377 309
70.70388 335
70.724 338
70.74411 338
70.76423 353
70.78434 337
70.80445 308
70.82457 327
70.84468 356
70.86479 340
70.88491 313
70.90502 320
70.92513 356
70.94525 304
70.96536 325
70.98548 324
71.00559 332
71.0257 340
71.04582 321
71.06593 315
71.08604 332
71.10616 325
71.12627 310
71.14639 314
71.1665 317
71.18661 338
71.20673 298
71.22684 328
71.24695 338
71.26707 351
71.28718 320
71.3073 309
71.32741 312
71.34752 327
71.36764 332
71.38775 319
71.40786 319
71.42798 326
71.44809 336
71.4682 349
71.48832 309
71.50843 328
71.52855 330
71.54866 323
71.56877 356
71.58889 357
71.609 320
71.62911 319
71.64923 338
71.66934 320
71.68946 341
71.70957 352
71.72968 364
71.7498 315
71.76991 334
71.79002 315
71.81014 356
71.83025 360
71.85037 361
71.87048 336
71.89059 365
71.91071 372
71.93082 348
71.95093 346
71.97105 356
71.99116 350
72.01127 350
72.03139 359
72.0515 310
72.07162 355
72.09173 350
72.11184 337
72.13196 326
72.15207 331
72.17218 344
72.1923 347
72.21241 353
72.23253 335
72.25264 387
72.27275 324
72.29287 345
72.31298 355
72.33309 378
72.35321 347
72.37332 339
72.39344 385
72.41355 370
72.43366 363
72.45378 361
72.47389 364
72.494 381
72.51412 386
72.53423 371
72.55434 363
72.57446 372
72.59457 357
72.61469 350
72.6348 359
72.65491 389
72.67503 375
72.69514 380
72.71525 380
72.73537 395
72.75548 382
72.7756 401
72.79571 382
72.81582 401
72.83594 397
72.85605 406
72.87616 426
72.89628 414
72.91639 389
72.9365 426
72.95662 439
72.97673 394
72.99685 429
73.01696 388
73.03707 418
73.05719 377
73.0773 400
73.09741 415
73.11753 372
73.13764 383
73.15776 389
73.17787 390
73.19798 400
73.2181 377
73.23821 386
73.25832 434
73.27844 405
73.29855 426
73.31867 388
73.33878 434
73.35889 430
73.37901 412
73.39912 424
73.41923 431
73.43935 425
73.45946 438
73.47957 414
73.49969 387
73.5198 398
73.53992 375
73.56003 370
73.58014 386
73.60026 364
73.62037 371
73.64048 370
73.6606 370
73.68071 374
73.70083 383
73.72094 377
73.74105 378
73.76117 370
73.78128 359
73.80139 348
73.82151 351
73.84162 349
73.86174 367
73.88185 366
73.90196 347
73.92208 349
73.94219 329
73.9623 348
73.98242 344
74.00253 354
74.02264 322
74.04276 359
74.06287 348
74.08299 363
74.1031 332
74.12321 336
74.14333 383
74.16344 335
74.18355 360
74.20367 295
74.22378 347
74.2439 317
74.26401 324
74.28412 340
74.30424 355
74.32435 356
74.34446 339
74.36458 352
74.38469 346
74.40481 324
74.42492 355
74.44503 374
74.46515 346
74.48526 343
74.50537 364
74.52549 387
74.5456 405
74.56571 360
74.58583 381
74.60594 411
74.62606 359
74.64617 357
74.66628 370
74.6864 387
74.70651 409
74.72662 390
74.74674 392
74.76685 370
74.78697 376
74.80708 412
74.82719 369
74.84731 368
74.86742 366
74.88753 408
74.90765 370
74.92776 416
74.94787 354
74.96799 365
74.9881 376
75.00822 361
