3.00117 21293
3.02128 20618
3.0414 20102
3.06151 19726
3.08162 19145
3.10174 18479
3.12185 17700
3.14197 17406
3.16208 16875
3.18219 16325
3.20231 16008
3.22242 15401
3.24253 15128
3.26265 14630
3.28276 14222
3.30288 13925
3.32299 13379
3.3431 12887
3.36322 12824
3.38333 12023
3.40344 11954
3.42356 11161
3.44367 11176
3.46379 10621
3.4839 10263
3.50401 10054
3.52413 9596
3.54424 9242
3.56435 9155
3.58447 8492
3.60458 8336
3.62469 8084
3.64481 7770
3.66492 7555
3.68504 7013
3.70515 6956
3.72526 6604
3.74538 6394
3.76549 6399
3.7856 5941
3.80572 5759
3.82583 5406
3.84595 5205
3.86606 4987
3.88617 4850
3.90629 4878
3.9264 4378
3.94651 4214
3.96663 4118
3.98674 3819
4.00686 3681
4.02697 3493
4.04708 3414
4.0672 3310
4.08731 3106
4.10742 3057
4.12754 2846
4.14765 2840
4.16776 2844
4.18788 2462
4.20799 2549
4.22811 2353
4.24822 2355
4.26833 2383
4.28845 2142
4.30856 2212
4.32867 2089
4.34879 1996
4.3689 2080
4.38902 1787
4.40913 1781
4.42924 1807
4.44936 1803
4.46947 1816
4.48958 1582
4.5097 1732
4.52981 1550
4.54992 1563
4.57004 1598
4.59015 1458
4.61027 1476
4.63038 1478
4.65049 1399
4.67061 1415
4.69072 1378
4.71083 1253
4.73095 1291
4.75106 1260
4.77118 1338
4.79129 1294
4.8114 1295
4.83152 1223
4.85163 1177
4.87174 1136
4.89186 1087
4.91197 1083
4.93209 1118
4.9522 1085
4.97231 1103
4.99243 994
5.01254 993
5.03265 1052
5.05277 948
5.07288 1000
5.09299 957
5.11311 962
5.13322 952
5.15334 902
5.17345 916
5.19356 854
5.21368 842
5.23379 791
5.2539 823
5.27402 824
5.29413 777
5.31425 824
5.33436 807
5.35447 809
5.37459 774
5.3947 764
5.41481 767
5.43493 704
5.45504 745
5.47516 738
5.49527 691
5.51538 689
5.5355 686
5.55561 685
5.57572 677
5.59584 598
5.61595 649
5.63606 675
5.65618 658
5.67629 644
5.69641 601
5.71652 637
5.73663 591
5.75675 605
5.77686 595
5.79697 547
5.81709 615
5.8372 597
5.85732 592
5.87743 516
5.89754 545
5.91766 587
5.93777 537
5.95788 607
5.978 598
5.99811 574
6.01823 601
6.03834 539
6.05845 564
6.07857 578
6.09868 625
6.11879 568
6.13891 533
6.15902 564
6.17913 551
6.19925 535
6.21936 604
6.23948 542
6.25959 545
6.2797 534
6.29982 541
6.31993 526
6.34004 577
6.36016 553
6.38027 538
6.40039 564
6.4205 522
6.44061 508
6.46073 546
6.48084 555
6.50095 533
6.52107 491
6.54118 504
6.56129 459
6.58141 571
6.60152 518
6.62164 507
6.64175 517
6.66186 512
6.68198 501
6.70209 482
6.7222 479
6.74232 463
6.76243 511
6.78255 529
6.80266 441
6.82277 511
6.84289 521
6.863 505
6.88311 520
6.90323 509
6.92334 499
6.94346 543
6.96357 502
6.98368 518
7.0038 479
7.02391 499
7.04402 503
7.06414 433
7.08425 531
7.10436 526
7.12448 504
7.14459 489
7.16471 476
7.18482 492
7.20493 461
7.22505 519
7.24516 479
7.26527 537
7.28539 496
7.3055 480
7.32562 460
7.34573 520
7.36584 477
7.38596 509
7.40607 482
7.42618 491
7.4463 449
7.46641 476
7.48653 458
7.50664 467
7.52675 515
7.54687 478
7.56698 446
7.58709 449
7.60721 513
7.62732 501
7.64743 461
7.66755 510
7.68766 511
7.70778 506
7.72789 426
7.748 512
7.76812 438
7.78823 459
7.80834 464
7.82846 442
7.84857 457
7.86869 457
7.8888 471
7.90891 442
7.92903 458
7.94914 476
7.96925 462
7.98937 456
8.00948 452
8.0296 455
8.04971 444
8.06982 476
8.08994 441
8.11005 455
8.13016 420
8.15028 488
8.17039 511
8.1905 522
8.21062 483
8.23073 490
8.25085 474
8.27096 452
8.29107 465
8.31119 481
8.3313 442
8.35141 448
8.37153 416
8.39164 514
8.41176 469
8.43187 443
8.45198 456
8.4721 415
8.49221 470
8.51232 462
8.53244 463
8.55255 457
8.57266 493
8.59278 438
8.61289 501
8.63301 462
8.65312 456
8.67323 481
8.69335 486
8.71346 490
8.73357 464
8.75369 490
8.7738 464
8.79392 464
8.81403 468
8.83414 461
8.85426 504
8.87437 499
8.89448 463
8.9146 458
8.93471 491
8.95483 525
8.97494 443
8.99505 446
9.01517 436
9.03528 458
9.05539 468
9.07551 432
9.09562 432
9.11573 444
9.13585 483
9.15596 477
9.17608 474
9.19619 453
9.2163 454
9.23642 449
9.25653 484
9.27664 457
9.29676 453
9.31687 457
9.33699 481
9.3571 491
9.37721 479
9.39733 422
9.41744 466
9.43755 491
9.45767 437
9.47778 488
9.4979 455
9.51801 487
9.53812 463
9.55824 461
9.57835 452
9.59846 441
9.61858 455
9.63869 426
9.6588 447
9.67892 435
9.69903 469
9.71915 456
9.73926 480
9.75937 435
9.77949 479
9.7996 448
9.81971 448
9.83983 431
9.85994 436
9.88006 449
9.90017 469
9.92028 423
9.9404 425
9.96051 416
9.98062 419
10.00074 450
10.02085 416
10.04097 480
10.06108 461
10.08119 447
10.10131 413
10.12142 442
10.14153 484
10.16165 455
10.18176 435
10.20187 456
10.22199 416
10.2421 463
10.26222 439
10.28233 473
10.30244 447
10.32256 445
10.34267 424
10.36278 474
10.3829 468
10.40301 469
10.42313 485
10.44324 511
10.46335 476
10.48347 509
10.50358 507
10.52369 459
10.54381 473
10.56392 513
10.58403 447
10.60415 445
10.62426 441
10.64438 396
10.66449 458
10.6846 469
10.70472 421
10.72483 474
10.74494 454
10.76506 449
10.78517 447
10.80529 451
10.8254 446
10.84551 451
10.86563 448
10.88574 469
10.90585 464
10.92597 445
10.94608 454
10.9662 453
10.98631 417
11.00642 459
11.02654 452
11.04665 443
11.06676 462
11.08688 442
11.10699 484
11.1271 484
11.14722 510
11.16733 442
11.18745 459
11.20756 457
11.22767 482
11.24779 479
11.2679 492
11.28801 469
11.30813 461
11.32824 511
11.34836 502
11.36847 490
11.38858 446
11.4087 465
11.42881 459
11.44892 496
11.46904 479
11.48915 503
11.50927 492
11.52938 490
11.54949 468
11.56961 461
11.58972 462
11.60983 503
11.62995 478
11.65006 512
11.67017 513
11.69029 517
11.7104 477
11.73052 507
11.75063 477
11.77074 515
11.79086 505
11.81097 545
11.83108 565
11.8512 585
11.87131 497
11.89143 527
11.91154 529
11.93165 570
11.95177 558
11.97188 603
11.99199 611
12.01211 607
12.03222 632
12.05234 631
12.07245 663
12.09256 669
12.11268 651
12.13279 642
12.1529 661
12.17302 713
12.19313 718
12.21324 707
12.23336 695
12.25347 712
12.27359 699
12.2937 728
12.31381 727
12.33393 683
12.35404 663
12.37415 704
12.39427 664
12.41438 646
12.4345 645
12.45461 637
12.47472 594
12.49484 600
12.51495 583
12.53506 525
12.55518 530
12.57529 570
12.5954 539
12.61552 508
12.63563 549
12.65575 540
12.67586 527
12.69597 517
12.71609 483
12.7362 516
12.75631 454
12.77643 475
12.79654 512
12.81666 428
12.83677 462
12.85688 501
12.877 472
12.89711 507
12.91722 463
12.93734 441
12.95745 434
12.97757 459
12.99768 434
13.01779 434
13.03791 438
13.05802 444
13.07813 455
13.09825 423
13.11836 440
13.13847 446
13.15859 433
13.1787 409
13.19882 404
13.21893 417
13.23904 458
13.25916 413
13.27927 399
13.29938 432
13.3195 412
13.33961 404
13.35973 434
13.37984 476
13.39995 423
13.42007 410
13.44018 426
13.46029 441
13.48041 395
13.50052 396
13.52064 444
13.54075 399
13.56086 432
13.58098 418
13.60109 427
13.6212 407
13.64132 393
13.66143 437
13.68154 381
13.70166 427
13.72177 410
13.74189 401
13.762 400
13.78211 404
13.80223 414
13.82234 456
13.84245 442
13.86257 410
13.88268 389
13.9028 415
13.92291 423
13.94302 436
13.96314 393
13.98325 434
14.00336 441
14.02348 405
14.04359 400
14.06371 393
14.08382 389
14.10393 432
14.12405 390
14.14416 407
14.16427 436
14.18439 401
14.2045 418
14.22461 428
14.24473 373
14.26484 456
14.28496 404
14.30507 391
14.32518 450
14.3453 404
14.36541 380
14.38552 419
14.40564 380
14.42575 402
14.44587 395
14.46598 390
14.48609 458
14.50621 391
14.52632 405
14.54643 450
14.56655 445
14.58666 402
14.60677 389
14.62689 407
14.647 413
14.66712 396
14.68723 444
14.70734 394
14.72746 403
14.74757 397
14.76768 393
14.7878 389
14.80791 414
14.82803 428
14.84814 413
14.86825 415
14.88837 413
14.90848 379
14.92859 373
14.94871 390
14.96882 368
14.98894 407
15.00905 356
15.02916 406
15.04928 437
15.06939 395
15.0895 399
15.10962 407
15.12973 404
15.14984 442
15.16996 436
15.19007 365
15.21019 422
15.2303 396
15.25041 410
15.27053 439
15.29064 417
15.31075 368
15.33087 415
15.35098 400
15.3711 367
15.39121 421
15.41132 415
15.43144 410
15.45155 412
15.47166 394
15.49178 412
15.51189 383
15.53201 370
15.55212 390
15.57223 427
15.59235 404
15.61246 408
15.63257 383
15.65269 414
15.6728 409
15.69291 391
15.71303 420
15.73314 385
15.75326 376
15.77337 403
15.79348 379
15.8136 416
15.83371 426
15.85382 457
15.87394 381
15.89405 415
15.91417 384
15.93428 349
15.95439 406
15.97451 410
15.99462 401
16.01473 445
16.03485 437
16.05496 409
16.07508 357
16.09519 409
16.1153 369
16.13542 380
16.15553 429
16.17564 361
16.19576 380
16.21587 439
16.23598 410
16.2561 391
16.27621 401
16.29633 393
16.31644 377
16.33655 392
16.35667 418
16.37678 427
16.39689 359
16.41701 357
16.43712 395
16.45724 395
16.47735 395
16.49746 458
16.51758 390
16.53769 430
16.5578 388
16.57792 398
16.59803 398
16.61814 407
16.63826 415
16.65837 398
16.67849 395
16.6986 438
16.71871 418
16.73883 383
16.75894 443
16.77905 386
16.79917 390
16.81928 429
16.8394 417
16.85951 387
16.87962 410
16.89974 438
16.91985 413
16.93996 378
16.96008 361
16.98019 429
17.00031 406
17.02042 396
17.04053 375
17.06065 413
17.08076 447
17.10087 408
17.12099 421
17.1411 414
17.16121 377
17.18133 426
17.20144 422
17.22156 422
17.24167 406
17.26178 437
17.2819 381
17.30201 426
17.32212 399
17.34224 395
17.36235 436
17.38247 430
17.40258 415
17.42269 418
17.44281 429
17.46292 432
17.48303 412
17.50315 420
17.52326 408
17.54338 423
17.56349 392
17.5836 419
17.60372 398
17.62383 424
17.64394 440
17.66406 402
17.68417 425
17.70428 448
17.7244 441
17.74451 440
17.76463 450
17.78474 431
17.80485 452
17.82497 470
17.84508 412
17.86519 421
17.88531 427
17.90542 424
17.92554 446
17.94565 447
17.96576 450
17.98588 448
18.00599 427
18.0261 457
18.04622 412
18.06633 457
18.08645 436
18.10656 420
18.12667 438
18.14679 407
18.1669 418
18.18701 412
18.20713 432
18.22724 410
18.24735 447
18.26747 434
18.28758 427
18.3077 430
18.32781 407
18.34792 398
18.36804 432
18.38815 444
18.40826 426
18.42838 468
18.44849 367
18.46861 380
18.48872 387
18.50883 447
18.52895 410
18.54906 431
18.56917 432
18.58929 419
18.6094 382
18.62951 434
18.64963 452
18.66974 416
18.68986 396
18.70997 424
18.73008 384
18.7502 461
18.77031 418
18.79042 413
18.81054 426
18.83065 419
18.85077 421
18.87088 418
18.89099 399
18.91111 447
18.93122 401
18.95133 359
18.97145 431
18.99156 418
19.01168 437
19.03179 398
19.0519 391
19.07202 394
19.09213 423
19.11224 424
19.13236 407
19.15247 395
19.17258 402
19.1927 463
19.21281 428
19.23293 449
19.25304 431
19.27315 463
19.29327 489
19.31338 456
19.33349 428
19.35361 492
19.37372 468
19.39384 453
19.41395 454
19.43406 450
19.45418 511
19.47429 489
19.4944 439
19.51452 524
19.53463 525
19.55475 577
19.57486 581
19.59497 548
19.61509 610
19.6352 636
19.65531 673
19.67543 681
19.69554 721
19.71565 714
19.73577 744
19.75588 868
19.776 808
19.79611 912
19.81622 791
19.83634 822
19.85645 792
19.87656 887
19.89668 844
19.91679 799
19.93691 800
19.95702 762
19.97713 794
19.99725 793
20.01736 728
20.03747 811
20.05759 816
20.0777 787
20.09782 752
20.11793 774
20.13804 750
20.15816 773
20.17827 783
20.19838 767
20.2185 813
20.23861 734
20.25872 776
20.27884 692
20.29895 740
20.31907 738
20.33918 746
20.35929 727
20.37941 759
20.39952 730
20.41963 786
20.43975 780
20.45986 766
20.47998 729
20.50009 780
20.5202 829
20.54032 793
20.56043 845
20.58054 844
20.60066 896
20.62077 896
20.64088 1018
20.661 1113
20.68111 1275
20.70123 1500
20.72134 1814
20.74145 2212
20.76157 2707
20.78168 3117
20.80179 3288
20.82191 3286
20.84202 3080
20.86214 2625
20.88225 2052
20.90236 1606
20.92248 1261
20.94259 972
20.9627 905
20.98282 888
21.00293 822
21.02305 768
21.04316 833
21.06327 815
21.08339 770
21.1035 808
21.12361 830
21.14373 757
21.16384 794
21.18395 818
21.20407 802
21.22418 815
21.2443 823
21.26441 855
21.28452 833
21.30464 788
21.32475 865
21.34486 883
21.36498 836
21.38509 892
21.40521 781
21.42532 813
21.44543 765
21.46555 885
21.48566 734
21.50577 799
21.52589 735
21.546 769
21.56612 729
21.58623 753
21.60634 719
21.62646 711
21.64657 700
21.66668 710
21.6868 681
21.70691 712
21.72702 677
21.74714 644
21.76725 654
21.78737 650
21.80748 641
21.82759 662
21.84771 616
21.86782 656
21.88793 646
21.90805 650
21.92816 616
21.94828 570
21.96839 608
21.9885 651
22.00862 602
22.02873 634
22.04884 595
22.06896 555
22.08907 623
22.10919 596
22.1293 593
22.14941 586
22.16953 598
22.18964 538
22.20975 585
22.22987 557
22.24998 523
22.27009 567
22.29021 537
22.31032 601
22.33044 594
22.35055 588
22.37066 580
22.39078 529
22.41089 587
22.431 560
22.45112 575
22.47123 519
22.49135 582
22.51146 529
22.53157 613
22.55169 556
22.5718 544
22.59191 531
22.61203 536
22.63214 542
22.65225 562
22.67237 579
22.69248 520
22.7126 512
22.73271 527
22.75282 544
22.77294 560
22.79305 549
22.81316 564
22.83328 550
22.85339 532
22.87351 513
22.89362 528
22.91373 572
22.93385 529
22.95396 523
22.97407 554
22.99419 516
23.0143 521
23.03442 591
23.05453 523
23.07464 548
23.09476 546
23.11487 542
23.13498 493
23.1551 540
23.17521 548
23.19532 536
23.21544 518
23.23555 517
23.25567 502
23.27578 534
23.29589 535
23.31601 524
23.33612 518
23.35623 536
23.37635 566
23.39646 578
23.41658 521
23.43669 564
23.4568 552
23.47692 501
23.49703 541
23.51714 539
23.53726 507
23.55737 530
23.57749 537
23.5976 583
23.61771 531
23.63783 515
23.65794 552
23.67805 549
23.69817 548
23.71828 573
23.73839 504
23.75851 550
23.77862 516
23.79874 573
23.81885 551
23.83896 535
23.85908 579
23.87919 607
23.8993 569
23.91942 548
23.93953 572
23.95965 542
23.97976 594
23.99987 591
24.01999 550
24.0401 561
24.06021 539
24.08033 528
24.10044 573
24.12056 550
24.14067 591
24.16078 555
24.1809 579
24.20101 584
24.22112 597
24.24124 566
24.26135 594
24.28146 508
24.30158 557
24.32169 609
24.34181 586
24.36192 582
24.38203 594
24.40215 572
24.42226 615
24.44237 600
24.46249 609
24.4826 577
24.50272 575
24.52283 614
24.54294 611
24.56306 653
24.58317 636
24.60328 646
24.6234 668
24.64351 649
24.66362 674
24.68374 669
24.70385 703
24.72397 713
24.74408 703
24.76419 716
24.78431 704
24.80442 759
24.82453 760
24.84465 740
24.86476 752
24.88488 782
24.90499 728
24.9251 747
24.94522 730
24.96533 719
24.98544 682
25.00556 673
25.02567 706
25.04579 624
25.0659 646
25.08601 700
25.10613 664
25.12624 617
25.14635 651
25.16647 651
25.18658 673
25.20669 703
25.22681 629
25.24692 689
25.26704 713
25.28715 658
25.30726 597
25.32738 621
25.34749 624
25.3676 615
25.38772 613
25.40783 591
25.42795 562
25.44806 596
25.46817 595
25.48829 607
25.5084 560
25.52851 596
25.54863 572
25.56874 557
25.58886 603
25.60897 578
25.62908 570
25.6492 613
25.66931 582
25.68942 634
25.70954 576
25.72965 618
25.74976 589
25.76988 620
25.78999 604
25.81011 562
25.83022 647
25.85033 598
25.87045 677
25.89056 611
25.91067 614
25.93079 606
25.9509 657
25.97102 670
25.99113 632
26.01124 650
26.03136 659
26.05147 682
26.07158 696
26.0917 743
26.11181 690
26.13193 751
26.15204 794
26.17215 818
26.19227 839
26.21238 812
26.23249 894
26.25261 939
26.27272 969
26.29283 1048
26.31295 1098
26.33306 1287
26.35318 1353
26.37329 1562
26.3934 1858
26.41352 2187
26.43363 2819
26.45374 3808
26.47386 4942
26.49397 6407
26.51409 8497
26.5342 10539
26.55431 12264
26.57443 13057
26.59454 12975
26.61465 11718
26.63477 10277
26.65488 7872
26.67499 5826
26.69511 4263
26.71522 3003
26.73534 2020
26.75545 1577
26.77556 1296
26.79568 1156
26.81579 990
26.8359 930
26.85602 921
26.87613 844
26.89625 839
26.91636 790
26.93647 760
26.95659 740
26.9767 724
26.99681 672
27.01693 653
27.03704 607
27.05716 639
27.07727 619
27.09738 642
27.1175 590
27.13761 594
27.15772 583
27.17784 584
27.19795 618
27.21806 604
27.23818 646
27.25829 582
27.27841 623
27.29852 571
27.31863 624
27.33875 644
27.35886 632
27.37897 678
27.39909 619
27.4192 634
27.43932 613
27.45943 573
27.47954 556
27.49966 559
27.51977 495
27.53988 493
27.56 549
27.58011 534
27.60023 535
27.62034 543
27.64045 539
27.66057 538
27.68068 570
27.70079 501
27.72091 512
27.74102 532
27.76113 524
27.78125 560
27.80136 522
27.82148 503
27.84159 561
27.8617 570
27.88182 558
27.90193 528
27.92204 529
27.94216 518
27.96227 549
27.98239 558
28.0025 477
28.02261 474
28.04273 506
28.06284 500
28.08295 500
28.10307 492
28.12318 500
28.1433 487
28.16341 496
28.18352 503
28.20364 520
28.22375 523
28.24386 499
28.26398 506
28.28409 489
28.3042 461
28.32432 436
28.34443 455
28.36455 455
28.38466 459
28.40477 487
28.42489 446
28.445 455
28.46511 507
28.48523 469
28.50534 501
28.52546 491
28.54557 425
28.56568 474
28.5858 495
28.60591 495
28.62602 489
28.64614 483
28.66625 460
28.68636 481
28.70648 478
28.72659 452
28.74671 468
28.76682 455
28.78693 469
28.80705 488
28.82716 481
28.84727 467
28.86739 486
28.8875 507
28.90762 443
28.92773 479
28.94784 474
28.96796 434
28.98807 460
29.00818 463
29.0283 463
29.04841 455
29.06853 473
29.08864 447
29.10875 527
29.12887 462
29.14898 482
29.16909 446
29.18921 442
29.20932 472
29.22943 424
29.24955 462
29.26966 497
29.28978 480
29.30989 462
29.33 478
29.35012 443
29.37023 523
29.39034 418
29.41046 449
29.43057 430
29.45069 445
29.4708 465
29.49091 477
29.51103 455
29.53114 485
29.55125 440
29.57137 425
29.59148 469
29.6116 450
29.63171 479
29.65182 437
29.67194 443
29.69205 468
29.71216 463
29.73228 468
29.75239 479
29.7725 459
29.79262 471
29.81273 443
29.83285 472
29.85296 463
29.87307 463
29.89319 486
29.9133 439
29.93341 457
29.95353 468
29.97364 445
29.99376 439
30.01387 519
30.03398 479
30.0541 433
30.07421 452
30.09432 484
30.11444 440
30.13455 481
30.15467 470
30.17478 482
30.19489 477
30.21501 472
30.23512 455
30.25523 469
30.27535 505
30.29546 465
30.31557 466
30.33569 412
30.3558 447
30.37592 480
30.39603 464
30.41614 472
30.43626 459
30.45637 450
30.47648 445
30.4966 445
30.51671 466
30.53683 457
30.55694 392
30.57705 430
30.59717 437
30.61728 399
30.63739 450
30.65751 426
30.67762 457
30.69773 448
30.71785 425
30.73796 481
30.75808 444
30.77819 427
30.7983 428
30.81842 437
30.83853 414
30.85864 454
30.87876 441
30.89887 450
30.91899 449
30.9391 457
30.95921 441
30.97933 452
30.99944 418
31.01955 446
31.03967 410
31.05978 439
31.0799 449
31.10001 482
31.12012 443
31.14024 450
31.16035 461
31.18046 457
31.20058 428
31.22069 476
31.2408 449
31.26092 419
31.28103 442
31.30115 452
31.32126 409
31.34137 454
31.36149 464
31.3816 432
31.40171 456
31.42183 415
31.44194 438
31.46206 459
31.48217 430
31.50228 425
31.5224 413
31.54251 480
31.56262 449
31.58274 422
31.60285 439
31.62297 439
31.64308 427
31.66319 451
31.68331 417
31.70342 455
31.72353 461
31.74365 440
31.76376 419
31.78387 412
31.80399 404
31.8241 443
31.84422 417
31.86433 409
31.88444 425
31.90456 453
31.92467 422
31.94478 443
31.9649 460
31.98501 436
32.00513 424
32.02524 435
32.04535 450
32.06547 410
32.08558 441
32.10569 430
32.12581 416
32.14592 428
32.16604 453
32.18615 447
32.20626 426
32.22638 430
32.24649 444
32.2666 402
32.28672 463
32.30683 424
32.32694 415
32.34706 437
32.36717 417
32.38729 450
32.4074 419
32.42751 414
32.44763 414
32.46774 448
32.48785 479
32.50797 458
32.52808 477
32.5482 437
32.56831 456
32.58842 462
32.60854 464
32.62865 462
32.64876 455
32.66888 465
32.68899 474
32.7091 463
32.72922 447
32.74933 463
32.76945 469
32.78956 465
32.80967 468
32.82979 504
32.8499 482
32.87001 487
32.89013 490
32.91024 475
32.93036 525
32.95047 559
32.97058 490
32.9907 551
33.01081 550
33.03092 542
33.05104 539
33.07115 576
33.09127 516
33.11138 553
33.13149 546
33.15161 555
33.17172 563
33.19183 508
33.21195 517
33.23206 548
33.25217 549
33.27229 534
33.2924 534
33.31252 563
33.33263 535
33.35274 542
33.37286 530
33.39297 529
33.41308 525
33.4332 549
33.45331 535
33.47343 526
33.49354 536
33.51365 522
33.53377 476
33.55388 515
33.57399 514
33.59411 506
33.61422 468
33.63434 497
33.65445 507
33.67456 507
33.69468 524
33.71479 494
33.7349 477
33.75502 523
33.77513 499
33.79524 490
33.81536 489
33.83547 496
33.85559 533
33.8757 471
33.89581 477
33.91593 454
33.93604 464
33.95615 496
33.97627 437
33.99638 433
34.0165 483
34.03661 433
34.05672 467
34.07684 493
34.09695 436
34.11706 429
34.13718 488
34.15729 461
34.17741 462
34.19752 456
34.21763 440
34.23775 483
34.25786 412
34.27797 465
34.29809 459
34.3182 533
34.33831 514
34.35843 508
34.37854 457
34.39866 498
34.41877 524
34.43888 544
34.459 494
34.47911 492
34.49922 477
34.51934 493
34.53945 575
34.55957 538
34.57968 523
34.59979 541
34.61991 546
34.64002 586
34.66013 570
34.68025 583
34.70036 590
34.72047 598
34.74059 626
34.7607 582
34.78082 628
34.80093 645
34.82104 596
34.84116 642
34.86127 643
34.88138 626
34.9015 658
34.92161 645
34.94173 653
34.96184 654
34.98195 676
35.00207 608
35.02218 614
35.04229 641
35.06241 640
35.08252 621
35.10264 624
35.12275 586
35.14286 609
35.16298 609
35.18309 604
35.2032 589
35.22332 564
35.24343 627
35.26354 613
35.28366 584
35.30377 545
35.32389 657
35.344 611
35.36411 585
35.38423 619
35.40434 667
35.42445 651
35.44457 632
35.46468 627
35.4848 632
35.50491 611
35.52502 646
35.54514 690
35.56525 607
35.58536 695
35.60548 676
35.62559 697
35.64571 672
35.66582 662
35.68593 690
35.70605 627
35.72616 689
35.74627 686
35.76639 643
35.7865 712
35.80661 713
35.82673 693
35.84684 716
35.86696 711
35.88707 682
35.90718 722
35.9273 709
35.94741 640
35.96752 696
35.98764 662
36.00775 614
36.02787 663
36.04798 669
36.06809 637
36.08821 617
36.10832 655
36.12843 628
36.14855 641
36.16866 594
36.18878 626
36.20889 603
36.229 603
36.24912 636
36.26923 646
36.28934 672
36.30946 697
36.32957 734
36.34968 796
36.3698 883
36.38991 1066
36.41003 1094
36.43014 1197
36.45025 1334
36.47037 1345
36.49048 1340
36.51059 1245
36.53071 1139
36.55082 1086
36.57094 952
36.59105 936
36.61116 807
36.63128 739
36.65139 701
36.6715 633
36.69162 601
36.71173 593
36.73184 598
36.75196 578
36.77207 586
36.79219 594
36.8123 641
36.83241 561
36.85253 645
36.87264 646
36.89275 614
36.91287 644
36.93298 628
36.9531 579
36.97321 606
36.99332 612
37.01344 586
37.03355 629
37.05366 594
37.07378 596
37.09389 572
37.11401 594
37.13412 618
37.15423 550
37.17435 582
37.19446 634
37.21457 585
37.23469 590
37.2548 594
37.27491 615
37.29503 565
37.31514 573
37.33526 551
37.35537 547
37.37548 604
37.3956 592
37.41571 608
37.43582 548
37.45594 572
37.47605 569
37.49617 536
37.51628 572
37.53639 563
37.55651 584
37.57662 517
37.59673 566
37.61685 528
37.63696 525
37.65708 534
37.67719 532
37.6973 565
37.71742 576
37.73753 496
37.75764 531
37.77776 510
37.79787 503
37.81798 551
37.8381 518
37.85821 555
37.87833 512
37.89844 510
37.91855 532
37.93867 536
37.95878 516
37.97889 527
37.99901 524
38.01912 550
38.03924 509
38.05935 473
38.07946 534
38.09958 561
38.11969 536
38.1398 542
38.15992 555
38.18003 573
38.20015 552
38.22026 544
38.24037 607
38.26049 603
38.2806 529
38.30071 583
38.32083 635
38.34094 562
38.36105 613
38.38117 545
38.40128 573
38.4214 585
38.44151 555
38.46162 584
38.48174 561
38.50185 575
38.52196 577
38.54208 609
38.56219 525
38.58231 553
38.60242 525
38.62253 511
38.64265 542
38.66276 534
38.68287 500
38.70299 526
38.7231 511
38.74321 477
38.76333 492
38.78344 526
38.80356 532
38.82367 490
38.84378 510
38.8639 515
38.88401 512
38.90412 523
38.92424 531
38.94435 464
38.96447 513
38.98458 523
39.00469 526
39.02481 553
39.04492 506
39.06503 497
39.08515 525
39.10526 577
39.12538 533
39.14549 598
39.1656 564
39.18572 560
39.20583 612
39.22594 609
39.24606 653
39.26617 703
39.28628 821
39.3064 849
39.32651 933
39.34663 1041
39.36674 1133
39.38685 1177
39.40697 1226
39.42708 1163
39.44719 1008
39.46731 1025
39.48742 932
39.50754 806
39.52765 686
39.54776 664
39.56788 570
39.58799 529
39.6081 525
39.62822 504
39.64833 534
39.66845 473
39.68856 489
39.70867 438
39.72879 466
39.7489 489
39.76901 464
39.78913 464
39.80924 485
39.82935 494
39.84947 462
39.86958 466
39.8897 445
39.90981 498
39.92992 453
39.95004 503
39.97015 479
39.99026 532
40.01038 546
40.03049 514
40.05061 526
40.07072 486
40.09083 576
40.11095 610
40.13106 666
40.15117 687
40.17129 742
40.1914 790
40.21152 845
40.23163 807
40.25174 729
40.27186 777
40.29197 747
40.31208 708
40.3322 675
40.35231 578
40.37242 560
40.39254 555
40.41265 567
40.43277 544
40.45288 507
40.47299 498
40.49311 516
40.51322 524
40.53333 480
40.55345 447
40.57356 500
40.59368 483
40.61379 506
40.6339 514
40.65402 499
40.67413 502
40.69424 487
40.71436 460
40.73447 504
40.75458 499
40.7747 506
40.79481 483
40.81493 505
40.83504 508
40.85515 508
40.87527 466
40.89538 480
40.91549 513
40.93561 472
40.95572 485
40.97584 474
40.99595 511
41.01606 496
41.03618 499
41.05629 471
41.0764 502
41.09652 474
41.11663 469
41.13675 493
41.15686 493
41.17697 469
41.19709 477
41.2172 488
41.23731 478
41.25743 486
41.27754 462
41.29765 444
41.31777 467
41.33788 493
41.358 502
41.37811 488
41.39822 501
41.41834 471
41.43845 456
41.45856 463
41.47868 503
41.49879 442
41.51891 482
41.53902 519
41.55913 443
41.57925 456
41.59936 482
41.61947 461
41.63959 452
41.6597 465
41.67982 488
41.69993 435
41.72004 493
41.74016 440
41.76027 439
41.78038 454
41.8005 458
41.82061 516
41.84072 447
41.86084 479
41.88095 447
41.90107 465
41.92118 449
41.94129 488
41.96141 399
41.98152 467
42.00163 453
42.02175 448
42.04186 441
42.06198 398
42.08209 469
42.1022 469
42.12232 501
42.14243 488
42.16254 490
42.18266 540
42.20277 556
42.22289 524
42.243 581
42.26311 723
42.28323 664
42.30334 731
42.32345 841
42.34357 871
42.36368 985
42.38379 930
42.40391 909
42.42402 867
42.44414 830
42.46425 738
42.48436 732
42.50448 659
42.52459 645
42.5447 540
42.56482 503
42.58493 481
42.60505 460
42.62516 413
42.64527 405
42.66539 404
42.6855 411
42.70561 412
42.72573 387
42.74584 417
42.76595 439
42.78607 416
42.80618 399
42.8263 432
42.84641 420
42.86652 417
42.88664 427
42.90675 393
42.92686 423
42.94698 413
42.96709 437
42.98721 435
43.00732 370
43.02743 421
43.04755 420
43.06766 404
43.08777 409
43.10789 413
43.128 408
43.14812 385
43.16823 433
43.18834 390
43.20846 398
43.22857 407
43.24868 431
43.2688 391
43.28891 448
43.30902 399
43.32914 451
43.34925 394
43.36937 412
43.38948 403
43.40959 408
43.42971 404
43.44982 425
43.46993 416
43.49005 429
43.51016 399
43.53028 440
43.55039 420
43.5705 398
43.59062 424
43.61073 434
43.63084 369
43.65096 404
43.67107 396
43.69119 390
43.7113 416
43.73141 416
43.75153 393
43.77164 422
43.79175 403
43.81187 410
43.83198 402
43.85209 373
43.87221 385
43.89232 415
43.91244 388
43.93255 392
43.95266 367
43.97278 380
43.99289 426
44.013 397
44.03312 395
44.05323 398
44.07335 395
44.09346 415
44.11357 370
44.13369 419
44.1538 384
44.17391 349
44.19403 401
44.21414 403
44.23426 405
44.25437 409
44.27448 438
44.2946 416
44.31471 408
44.33482 399
44.35494 419
44.37505 404
44.39516 419
44.41528 400
44.43539 374
44.45551 420
44.47562 393
44.49573 381
44.51585 394
44.53596 432
44.55607 381
44.57619 472
44.5963 371
44.61642 381
44.63653 404
44.65664 421
44.67676 400
44.69687 422
44.71698 418
44.7371 418
44.75721 405
44.77732 411
44.79744 409
44.81755 403
44.83767 386
44.85778 427
44.87789 440
44.89801 408
44.91812 403
44.93823 415
44.95835 436
44.97846 427
44.99858 408
45.01869 409
45.0388 417
45.05892 417
45.07903 406
45.09914 405
45.11926 444
45.13937 460
45.15949 421
45.1796 412
45.19971 421
45.21983 427
45.23994 435
45.26005 461
45.28017 434
45.30028 485
45.32039 444
45.34051 434
45.36062 490
45.38074 437
45.40085 489
45.42096 446
45.44108 454
45.46119 447
45.4813 503
45.50142 492
45.52153 464
45.54165 488
45.56176 544
45.58187 520
45.60199 575
45.6221 612
45.64221 666
45.66233 681
45.68244 696
45.70256 777
45.72267 769
45.74278 727
45.7629 705
45.78301 663
45.80312 649
45.82324 604
45.84335 606
45.86346 547
45.88358 556
45.90369 542
45.92381 437
45.94392 448
45.96403 416
45.98415 404
46.00426 416
46.02437 420
46.04449 449
46.0646 394
46.08472 403
46.10483 442
46.12494 423
46.14506 416
46.16517 420
46.18528 423
46.2054 393
46.22551 414
46.24563 437
46.26574 416
46.28585 407
46.30597 391
46.32608 441
46.34619 400
46.36631 417
46.38642 411
46.40653 409
46.42665 409
46.44676 399
46.46688 424
46.48699 398
46.5071 419
46.52722 416
46.54733 394
46.56744 446
46.58756 387
46.60767 403
46.62779 386
46.6479 424
46.66801 389
46.68813 427
46.70824 400
46.72835 440
46.74847 409
46.76858 427
46.78869 446
46.80881 445
46.82892 400
46.84904 404
46.86915 434
46.88926 405
46.90938 412
46.92949 377
46.9496 412
46.96972 403
46.98983 412
47.00995 382
47.03006 427
47.05017 378
47.07029 426
47.0904 419
47.11051 415
47.13063 402
47.15074 384
47.17086 426
47.19097 390
47.21108 404
47.2312 405
47.25131 384
47.27142 415
47.29154 417
47.31165 433
47.33176 387
47.35188 399
47.37199 390
47.39211 391
47.41222 383
47.43233 399
47.45245 407
47.47256 416
47.49267 422
47.51279 403
47.5329 444
47.55302 431
47.57313 412
47.59324 431
47.61336 399
47.63347 388
47.65358 419
47.6737 427
47.69381 383
47.71393 411
47.73404 455
47.75415 401
47.77427 379
47.79438 397
47.81449 431
47.83461 446
47.85472 413
47.87483 425
47.89495 426
47.91506 374
47.93518 429
47.95529 419
47.9754 424
47.99552 410
48.01563 415
48.03574 387
48.05586 419
48.07597 373
48.09609 383
48.1162 442
48.13631 390
48.15643 449
48.17654 418
48.19665 445
48.21677 420
48.23688 434
48.257 411
48.27711 417
48.29722 432
48.31734 399
48.33745 405
48.35756 424
48.37768 450
48.39779 411
48.4179 358
48.43802 442
48.45813 432
48.47825 404
48.49836 428
48.51847 387
48.53859 372
48.5587 408
48.57881 389
48.59893 397
48.61904 405
48.63916 429
48.65927 371
48.67938 394
48.6995 377
48.71961 441
48.73972 386
48.75984 412
48.77995 433
48.80006 393
48.82018 431
48.84029 446
48.86041 407
48.88052 426
48.90063 422
48.92075 423
48.94086 403
48.96097 417
48.98109 385
49.0012 404
49.02132 396
49.04143 440
49.06154 411
49.08166 412
49.10177 405
49.12188 444
49.142 408
49.16211 417
49.18223 418
49.20234 442
49.22245 404
49.24257 372
49.26268 411
49.28279 404
49.30291 425
49.32302 423
49.34313 410
49.36325 433
49.38336 434
49.40348 441
49.42359 428
49.4437 469
49.46382 468
49.48393 451
49.50404 416
49.52416 438
49.54427 453
49.56439 422
49.5845 488
49.60461 421
49.62473 449
49.64484 447
49.66495 487
49.68507 458
49.70518 445
49.7253 483
49.74541 480
49.76552 487
49.78564 514
49.80575 529
49.82586 589
49.84598 568
49.86609 600
49.8862 697
49.90632 720
49.92643 791
49.94655 892
49.96666 1096
49.98677 1179
50.00689 1351
50.027 1525
50.04711 1545
50.06723 1652
50.08734 1551
50.10746 1404
50.12757 1213
50.14768 1170
50.1678 1176
50.18791 1018
50.20802 1005
50.22814 870
50.24825 778
50.26837 673
50.28848 524
50.30859 503
50.32871 467
50.34882 502
50.36893 458
50.38905 495
50.40916 416
50.42927 442
50.44939 457
50.4695 424
50.48962 433
50.50973 441
50.52984 453
50.54996 452
50.57007 415
50.59018 435
50.6103 458
50.63041 452
50.65053 421
50.67064 410
50.69075 470
50.71087 421
50.73098 434
50.75109 397
50.77121 426
50.79132 473
50.81143 440
50.83155 417
50.85166 441
50.87178 443
50.89189 428
50.912 424
50.93212 423
50.95223 439
50.97234 405
50.99246 425
51.01257 412
51.03269 383
51.0528 412
51.07291 383
51.09303 397
51.11314 432
51.13325 442
51.15337 419
51.17348 432
51.1936 415
51.21371 388
51.23382 424
51.25394 390
51.27405 386
51.29416 407
51.31428 422
51.33439 413
51.3545 386
51.37462 359
51.39473 379
51.41485 388
51.43496 385
51.45507 381
51.47519 390
51.4953 382
51.51541 360
51.53553 394
51.55564 361
51.57576 421
51.59587 399
51.61598 382
51.6361 394
51.65621 379
51.67632 369
51.69644 370
51.71655 397
51.73667 398
51.75678 389
51.77689 387
51.79701 361
51.81712 394
51.83723 408
51.85735 415
51.87746 355
51.89757 395
51.91769 371
51.9378 397
51.95792 396
51.97803 372
51.99814 397
52.01826 376
52.03837 414
52.05848 372
52.0786 400
52.09871 406
52.11883 376
52.13894 409
52.15905 380
52.17917 393
52.19928 414
52.21939 399
52.23951 355
52.25962 401
52.27974 394
52.29985 366
52.31996 397
52.34008 405
52.36019 369
52.3803 384
52.40042 378
52.42053 375
52.44064 392
52.46076 385
52.48087 410
52.50099 393
52.5211 412
52.54121 383
52.56133 410
52.58144 372
52.60155 392
52.62167 396
52.64178 351
52.6619 389
52.68201 388
52.70212 399
52.72224 393
52.74235 377
52.76246 374
52.78258 384
52.80269 395
52.8228 399
52.84292 390
52.86303 384
52.88315 361
52.90326 374
52.92337 403
52.94349 422
52.9636 429
52.98371 392
53.00383 376
53.02394 390
53.04406 386
53.06417 405
53.08428 429
53.1044 418
53.12451 384
53.14462 395
53.16474 411
53.18485 410
53.20497 439
53.22508 400
53.24519 419
53.26531 412
53.28542 423
53.30553 438
53.32565 430
53.34576 422
53.36587 426
53.38599 451
53.4061 403
53.42622 421
53.44633 442
53.46644 425
53.48656 462
53.50667 420
53.52678 445
53.5469 457
53.56701 484
53.58713 468
53.60724 472
53.62735 477
53.64747 481
53.66758 460
53.68769 456
53.70781 461
53.72792 494
53.74804 463
53.76815 463
53.78826 459
53.80838 468
53.82849 497
53.8486 486
53.86872 537
53.88883 506
53.90894 508
53.92906 517
53.94917 520
53.96929 489
53.9894 540
54.00951 564
54.02963 523
54.04974 510
54.06985 539
54.08997 574
54.11008 546
54.1302 568
54.15031 522
54.17042 542
54.19054 548
54.21065 515
54.23076 535
54.25088 597
54.27099 507
54.29111 556
54.31122 548
54.33133 563
54.35145 542
54.37156 522
54.39167 543
54.41179 523
54.4319 530
54.45201 530
54.47213 484
54.49224 510
54.51236 534
54.53247 538
54.55258 537
54.5727 551
54.59281 555
54.61292 553
54.63304 578
54.65315 578
54.67327 638
54.69338 674
54.71349 685
54.73361 699
54.75372 787
54.77383 850
54.79395 826
54.81406 835
54.83417 775
54.85429 706
54.8744 732
54.89452 704
54.91463 695
54.93474 628
54.95486 680
54.97497 558
54.99508 591
55.0152 550
55.03531 538
55.05543 532
55.07554 500
55.09565 540
55.11577 569
55.13588 542
55.15599 550
55.17611 542
55.19622 596
55.21634 635
55.23645 594
55.25656 645
55.27668 570
55.29679 556
55.3169 545
55.33702 575
55.35713 508
55.37724 539
55.39736 526
55.41747 463
55.43759 502
55.4577 482
55.47781 461
55.49793 453
55.51804 474
55.53815 455
55.55827 444
55.57838 437
55.5985 448
55.61861 457
55.63872 441
55.65884 455
55.67895 430
55.69906 422
55.71918 412
55.73929 442
55.75941 455
55.77952 461
55.79963 403
55.81975 412
55.83986 443
55.85997 440
55.88009 427
55.9002 439
55.92031 451
55.94043 421
55.96054 376
55.98066 421
56.00077 417
56.02088 449
56.041 406
56.06111 411
56.08122 426
56.10134 457
56.12145 431
56.14157 391
56.16168 405
56.18179 416
56.20191 433
56.22202 458
56.24213 415
56.26225 436
56.28236 428
56.30248 420
56.32259 406
56.3427 393
56.36282 425
56.38293 414
56.40304 432
56.42316 437
56.44327 421
56.46338 415
56.4835 436
56.50361 424
56.52373 380
56.54384 467
56.56395 465
56.58407 390
56.60418 403
56.62429 445
56.64441 415
56.66452 403
56.68464 427
56.70475 391
56.72486 392
56.74498 384
56.76509 426
56.7852 431
56.80532 399
56.82543 397
56.84554 382
56.86566 406
56.88577 369
56.90589 415
56.926 387
56.94611 387
56.96623 375
56.98634 410
57.00645 426
57.02657 404
57.04668 408
57.0668 399
57.08691 403
57.10702 388
57.12714 406
57.14725 406
57.16736 416
57.18748 432
57.20759 453
57.22771 414
57.24782 378
57.26793 403
57.28805 433
57.30816 390
57.32827 426
57.34839 412
57.3685 390
57.38861 389
57.40873 415
57.42884 406
57.44896 397
57.46907 425
57.48918 398
57.5093 364
57.52941 397
57.54952 390
57.56964 393
57.58975 418
57.60987 437
57.62998 413
57.65009 390
57.67021 399
57.69032 393
57.71043 383
57.73055 419
57.75066 372
57.77078 383
57.79089 401
57.811 371
57.83112 376
57.85123 429
57.87134 374
57.89146 403
57.91157 386
57.93168 400
57.9518 420
57.97191 376
57.99203 425
58.01214 442
58.03225 405
58.05237 409
58.07248 381
58.09259 365
58.11271 394
58.13282 379
58.15294 376
58.17305 371
58.19316 414
58.21328 403
58.23339 391
58.2535 387
58.27362 414
58.29373 385
58.31385 401
58.33396 391
58.35407 351
58.37419 344
58.3943 357
58.41441 369
58.43453 395
58.45464 349
58.47475 368
58.49487 385
58.51498 362
58.5351 380
58.55521 374
58.57532 425
58.59544 393
58.61555 352
58.63566 415
58.65578 351
58.67589 405
58.69601 386
58.71612 368
58.73623 383
58.75635 384
58.77646 382
58.79657 407
58.81669 380
58.8368 388
58.85691 350
58.87703 371
58.89714 413
58.91726 386
58.93737 368
58.95748 391
58.9776 436
58.99771 414
59.01782 409
59.03794 380
59.05805 404
59.07817 366
59.09828 415
59.11839 343
59.13851 386
59.15862 384
59.17873 407
59.19885 400
59.21896 387
59.23908 379
59.25919 413
59.2793 399
59.29942 407
59.31953 430
59.33964 401
59.35976 386
59.37987 401
59.39998 433
59.4201 429
59.44021 427
59.46033 432
59.48044 432
59.50055 436
59.52067 447
59.54078 485
59.56089 502
59.58101 509
59.60112 477
59.62124 523
59.64135 492
59.66146 498
59.68158 551
59.70169 621
59.7218 667
59.74192 747
59.76203 779
59.78215 828
59.80226 961
59.82237 999
59.84249 1117
59.8626 1173
59.88271 1171
59.90283 1090
59.92294 948
59.94305 937
59.96317 863
59.98328 833
60.0034 828
60.02351 826
60.04362 732
60.06374 704
60.08385 644
60.10396 594
60.12408 524
60.14419 487
60.16431 460
60.18442 452
60.20453 444
60.22465 432
60.24476 466
60.26487 437
60.28499 428
60.3051 410
60.32522 411
60.34533 411
60.36544 415
60.38556 396
60.40567 396
60.42578 396
60.4459 374
60.46601 406
60.48612 400
60.50624 401
60.52635 364
60.54647 384
60.56658 359
60.58669 355
60.60681 370
60.62692 372
60.64703 419
60.66715 396
60.68726 403
60.70738 402
60.72749 392
60.7476 403
60.76772 399
60.78783 423
60.80794 367
60.82806 391
60.84817 376
60.86828 399
60.8884 404
60.90851 384
60.92863 367
60.94874 400
60.96885 381
60.98897 388
61.00908 392
61.02919 350
61.04931 369
61.06942 353
61.08954 397
61.10965 405
61.12976 400
61.14988 389
61.16999 379
61.1901 332
61.21022 381
61.23033 381
61.25045 399
61.27056 375
61.29067 412
61.31079 406
61.3309 389
61.35101 399
61.37113 389
61.39124 413
61.41135 418
61.43147 390
61.45158 429
61.4717 401
61.49181 446
61.51192 398
61.53204 405
61.55215 433
61.57226 433
61.59238 403
61.61249 441
61.63261 420
61.65272 418
61.67283 403
61.69295 445
61.71306 444
61.73317 455
61.75329 482
61.7734 404
61.79352 434
61.81363 478
61.83374 440
61.85386 431
61.87397 443
61.89408 470
61.9142 457
61.93431 468
61.95442 521
61.97454 518
61.99465 497
62.01477 496
62.03488 512
62.05499 515
62.07511 531
62.09522 491
62.11533 507
62.13545 534
62.15556 555
62.17568 506
62.19579 538
62.2159 503
62.23602 526
62.25613 527
62.27624 524
62.29636 504
62.31647 468
62.33659 503
62.3567 513
62.37681 475
62.39693 452
62.41704 498
62.43715 483
62.45727 530
62.47738 459
62.49749 443
62.51761 430
62.53772 457
62.55784 444
62.57795 453
62.59806 463
62.61818 459
62.63829 449
62.6584 396
62.67852 420
62.69863 421
62.71875 425
62.73886 435
62.75897 417
62.77909 409
62.7992 399
62.81931 436
62.83943 391
62.85954 402
62.87965 425
62.89977 387
62.91988 422
62.94 420
62.96011 407
62.98022 400
63.00034 403
63.02045 432
63.04056 396
63.06068 377
63.08079 416
63.10091 436
63.12102 409
63.14113 431
63.16125 375
63.18136 420
63.20147 403
63.22159 395
63.2417 369
63.26182 413
63.28193 386
63.30204 399
63.32216 403
63.34227 410
63.36238 402
63.3825 393
63.40261 405
63.42272 432
63.44284 386
63.46295 389
63.48307 369
63.50318 426
63.52329 385
63.54341 402
63.56352 423
63.58363 371
63.60375 370
63.62386 384
63.64398 389
63.66409 425
63.6842 439
63.70432 457
63.72443 411
63.74454 452
63.76466 445
63.78477 418
63.80489 452
63.825 444
63.84511 469
63.86523 520
63.88534 506
63.90545 521
63.92557 527
63.94568 567
63.96579 540
63.98591 502
64.00602 466
64.02614 481
64.04625 463
64.06636 469
64.08648 486
64.10659 490
64.1267 492
64.14682 466
64.16693 466
64.18705 436
64.20716 447
64.22727 456
64.24739 401
64.2675 425
64.28761 391
64.30773 436
64.32784 422
64.34796 395
64.36807 410
64.38818 350
64.4083 378
64.42841 390
64.44852 411
64.46864 384
64.48875 362
64.50886 383
64.52898 361
64.54909 375
64.56921 387
64.58932 400
64.60943 411
64.62955 383
64.64966 384
64.66977 429
64.68989 392
64.71 390
64.73012 361
64.75023 361
64.77034 355
64.79046 381
64.81057 390
64.83068 382
64.8508 379
64.87091 412
64.89102 387
64.91114 365
64.93125 399
64.95137 370
64.97148 369
64.99159 407
65.01171 374
65.03182 379
65.05193 387
65.07205 351
65.09216 381
65.11228 381
65.13239 371
65.1525 391
65.17262 337
65.19273 368
65.21284 374
65.23296 345
65.25307 323
65.27319 364
65.2933 382
65.31341 369
65.33353 394
65.35364 404
65.37375 399
65.39387 381
65.41398 357
65.43409 387
65.45421 364
65.47432 352
65.49444 365
65.51455 353
65.53466 358
65.55478 380
65.57489 382
65.595 380
65.61512 404
65.63523 427
65.65535 363
65.67546 402
65.69557 380
65.71569 403
65.7358 394
65.75591 358
65.77603 377
65.79614 378
65.81626 386
65.83637 406
65.85648 350
65.8766 388
65.89671 366
65.91682 384
65.93694 375
65.95705 388
65.97716 329
65.99728 347
66.01739 384
66.03751 341
66.05762 375
66.07773 355
66.09785 361
66.11796 384
66.13807 356
66.15819 380
66.1783 368
66.19842 324
66.21853 370
66.23864 344
66.25876 339
66.27887 355
66.29898 372
66.3191 355
66.33921 377
66.35933 357
66.37944 354
66.39955 357
66.41967 395
66.43978 372
66.45989 343
66.48001 351
66.50012 331
66.52023 340
66.54035 362
66.56046 356
66.58058 385
66.60069 341
66.6208 367
66.64092 319
66.66103 378
66.68114 352
66.70126 370
66.72137 367
66.74149 351
66.7616 350
66.78171 359
66.80183 387
66.82194 357
66.84205 382
66.86217 372
66.88228 347
66.90239 371
66.92251 336
66.94262 354
66.96274 361
66.98285 396
67.00296 361
67.02308 365
67.04319 384
67.0633 347
67.08342 334
67.10353 366
67.12365 381
67.14376 374
67.16387 375
67.18399 370
67.2041 385
67.22421 350
67.24433 380
67.26444 376
67.28456 393
67.30467 418
67.32478 400
67.3449 373
67.36501 416
67.38512 413
67.40524 413
67.42535 440
67.44546 485
67.46558 477
67.48569 499
67.50581 518
67.52592 579
67.54603 585
67.56615 604
67.58626 682
67.60637 780
67.62649 738
67.6466 819
67.66672 768
67.68683 721
67.70694 740
67.72706 656
67.74717 635
67.76728 631
67.7874 638
67.80751 660
67.82763 716
67.84774 659
67.86785 648
67.88797 694
67.90808 686
67.92819 701
67.94831 752
67.96842 750
67.98853 806
68.00865 868
68.02876 941
68.04888 956
68.06899 956
68.0891 991
68.10922 858
68.12933 782
68.14944 768
68.16956 842
68.18967 851
68.20979 890
68.2299 912
68.25001 848
68.27013 886
68.29024 779
68.31035 669
68.33047 664
68.35058 632
68.3707 563
68.39081 579
68.41092 497
68.43104 522
68.45115 535
68.47126 481
68.49138 439
68.51149 453
68.5316 413
68.55172 393
68.57183 370
68.59195 388
68.61206 396
68.63217 373
68.65229 381
68.6724 360
68.69251 385
68.71263 383
68.73274 374
68.75286 367
68.77297 390
68.79308 383
68.8132 395
68.83331 387
68.85342 371
68.87354 342
68.89365 367
68.91376 388
68.93388 372
68.95399 394
68.97411 405
68.99422 364
69.01433 352
69.03445 361
69.05456 394
69.07467 388
69.09479 370
69.1149 358
69.13502 409
69.15513 363
69.17524 378
69.19536 354
69.21547 387
69.23558 346
69.2557 345
69.27581 323
69.29593 354
69.31604 357
69.33615 343
69.35627 356
69.37638 357
69.39649 360
69.41661 357
69.43672 342
69.45683 389
69.47695 369
69.49706 363
69.51718 353
69.53729 359
69.5574 366
69.57752 344
69.59763 347
69.61774 333
69.63786 327
69.65797 357
69.67809 352
69.6982 361
69.71831 355
69.73843 379
69.75854 377
69.77865 388
69.79877 368
69.81888 354
69.839 352
69.85911 348
69.87922 332
69.89934 385
69.91945 348
69.93956 369
69.95968 358
69.97979 328
69.9999 368
70.02002 346
70.04013 347
70.06025 316
70.08036 322
70.10047 337
70.12059 345
70.1407 345
70.16081 379
70.18093 343
70.20104 363
70.22116 352
70.24127 336
70.26138 354
70.2815 338
70.30161 355
70.32172 328
70.34184 373
70.36195 364
70.38207 313
70.40218 327
70.42229 349
70.44241 329
70.46252 336
70.48263 325
70.50275 388
70.52286 322
70.54297 364
70.56309 337
70.5832 333
70.60332 333
70.62343 372
70.64354 354
70.66366 345
70.68377 369
70.70388 321
70.724 307
70.74411 339
70.76423 339
70.78434 351
70.80445 292
70.82457 367
70.84468 375
70.86479 324
70.88491 331
70.90502 336
70.92513 375
70.94525 339
70.96536 329
70.98548 336
71.00559 317
71.0257 331
71.04582 352
71.06593 341
71.08604 327
71.10616 322
71.12627 346
71.14639 331
71.1665 348
71.18661 327
71.20673 337
71.22684 330
71.24695 357
71.26707 339
71.28718 361
71.3073 336
71.32741 326
71.34752 349
71.36764 322
71.38775 341
71.40786 335
71.42798 363
71.44809 332
71.4682 328
71.48832 334
71.50843 317
71.52855 341
71.54866 334
71.56877 355
71.58889 326
71.609 352
71.62911 329
71.64923 335
71.66934 363
71.68946 352
71.70957 362
71.72968 324
71.7498 331
71.76991 327
71.79002 333
71.81014 338
71.83025 315
71.85037 335
71.87048 333
71.89059 371
71.91071 344
71.93082 340
71.95093 359
71.97105 371
71.99116 367
72.01127 315
72.03139 300
72.0515 364
72.07162 376
72.09173 344
72.11184 341
72.13196 339
72.15207 348
72.17218 360
72.1923 346
72.21241 345
72.23253 369
72.25264 371
72.27275 379
72.29287 322
72.31298 344
72.33309 357
72.35321 340
72.37332 334
72.39344 336
72.41355 342
72.43366 343
72.45378 355
72.47389 353
72.494 368
72.51412 371
72.53423 378
72.55434 344
72.57446 355
72.59457 372
72.61469 335
72.6348 348
72.65491 330
72.67503 373
72.69514 339
72.71525 342
72.73537 345
72.75548 337
72.7756 353
72.79571 340
72.81582 338
72.83594 375
72.85605 347
72.87616 340
72.89628 362
72.91639 356
72.9365 336
72.95662 339
72.97673 375
72.99685 334
73.01696 368
73.03707 359
73.05719 372
73.0773 351
73.09741 360
73.11753 394
73.13764 385
73.15776 390
73.17787 366
73.19798 412
73.2181 372
73.23821 370
73.25832 442
73.27844 432
73.29855 424
73.31867 459
73.33878 510
73.35889 504
73.37901 519
73.39912 449
73.41923 486
73.43935 449
73.45946 461
73.47957 424
73.49969 404
73.5198 403
73.53992 424
73.56003 450
73.58014 410
73.60026 416
73.62037 390
73.64048 384
73.6606 385
73.68071 384
73.70083 351
73.72094 377
73.74105 348
73.76117 337
73.78128 358
73.80139 370
73.82151 320
73.84162 373
73.86174 345
73.88185 348
73.90196 351
73.92208 319
73.94219 333
73.9623 357
73.98242 322
74.00253 339
74.02264 338
74.04276 329
74.06287 350
74.08299 340
74.1031 312
74.12321 336
74.14333 341
74.16344 305
74.18355 395
74.20367 337
74.22378 340
74.2439 321
74.26401 339
74.28412 353
74.30424 356
74.32435 329
74.34446 333
74.36458 351
74.38469 303
74.40481 332
74.42492 331
74.44503 307
74.46515 335
74.48526 327
74.50537 311
74.52549 315
74.5456 325
74.56571 317
74.58583 361
74.60594 363
74.62606 333
74.64617 322
74.66628 362
74.6864 366
74.70651 313
74.72662 343
74.74674 340
74.76685 323
74.78697 324
74.80708 363
74.82719 352
74.84731 330
74.86742 348
74.88753 341
74.90765 339
74.92776 364
74.94787 336
74.96799 317
74.9881 321
75.00822 349
