3.00117 20851
3.02128 20057
3.0414 20156
3.06151 19340
3.08162 18970
3.10174 18166
3.12185 17991
3.14197 17204
3.16208 16676
3.18219 16422
3.20231 15495
3.22242 15349
3.24253 15067
3.26265 14280
3.28276 14258
3.30288 13453
3.32299 13330
3.3431 12804
3.36322 12280
3.38333 12106
3.40344 11649
3.42356 11239
3.44367 10938
3.46379 10219
3.4839 10228
3.50401 9890
3.52413 9463
3.54424 9137
3.56435 8689
3.58447 8494
3.60458 8162
3.62469 7809
3.64481 7451
3.66492 7147
3.68504 6970
3.70515 6861
3.72526 6416
3.74538 6311
3.76549 5827
3.7856 5961
3.80572 5543
3.82583 5285
3.84595 4979
3.86606 4764
3.88617 4756
3.90629 4432
3.9264 4384
3.94651 4220
3.96663 3893
3.98674 4027
4.00686 3607
4.02697 3419
4.04708 3407
4.0672 3121
4.08731 3118
4.10742 3044
4.12754 2862
4.14765 2664
4.16776 2534
4.18788 2551
4.20799 2468
4.22811 2325
4.24822 2216
4.26833 2155
4.28845 2058
4.30856 2112
4.32867 1933
4.34879 1890
4.3689 1731
4.38902 1888
4.40913 1823
4.42924 1583
4.44936 1661
4.46947 1626
4.48958 1600
4.5097 1482
4.52981 1356
4.54992 1568
4.57004 1408
4.59015 1481
4.61027 1513
4.63038 1277
4.65049 1332
4.67061 1295
4.69072 1278
4.71083 1253
4.73095 1220
4.75106 1211
4.77118 1154
4.79129 1168
4.8114 1176
4.83152 1051
4.85163 1096
4.87174 1007
4.89186 996
4.91197 1035
4.93209 947
4.9522 1032
4.97231 993
4.99243 924
5.01254 964
5.03265 894
5.05277 898
5.07288 880
5.09299 785
5.11311 836
5.13322 801
5.15334 770
5.17345 756
5.19356 756
5.21368 769
5.23379 718
5.2539 717
5.27402 701
5.29413 722
5.31425 716
5.33436 698
5.35447 653
5.37459 646
5.3947 700
5.41481 684
5.43493 667
5.45504 641
5.47516 615
5.49527 595
5.51538 572
5.5355 621
5.55561 569
5.57572 603
5.59584 613
5.61595 548
5.63606 558
5.65618 561
5.67629 575
5.69641 553
5.71652 543
5.73663 432
5.75675 498
5.77686 543
5.79697 524
5.81709 490
5.8372 460
5.85732 500
5.87743 487
5.89754 462
5.91766 444
5.93777 503
5.95788 457
5.978 466
5.99811 458
6.01823 503
6.03834 487
6.05845 456
6.07857 504
6.09868 512
6.11879 457
6.13891 461
6.15902 470
6.17913 488
6.19925 427
6.21936 493
6.23948 456
6.25959 422
6.2797 438
6.29982 472
6.31993 442
6.34004 406
6.36016 392
6.38027 432
6.40039 433
6.4205 391
6.44061 434
6.46073 400
6.48084 413
6.50095 404
6.52107 412
6.54118 440
6.56129 387
6.58141 438
6.60152 393
6.62164 394
6.64175 445
6.66186 406
6.68198 381
6.70209 410
6.7222 423
6.74232 412
6.76243 397
6.78255 416
6.80266 397
6.82277 398
6.84289 421
6.863 423
6.88311 401
6.90323 447
6.92334 381
6.94346 401
6.96357 400
6.98368 451
7.0038 422
7.02391 397
7.04402 407
7.06414 403
7.08425 456
7.10436 450
7.12448 437
7.14459 369
7.16471 439
7.18482 388
7.20493 403
7.22505 393
7.24516 368
7.26527 412
7.28539 371
7.3055 406
7.32562 363
7.34573 370
7.36584 413
7.38596 380
7.40607 358
7.42618 419
7.4463 408
7.46641 394
7.48653 410
7.50664 351
7.52675 394
7.54687 410
7.56698 388
7.58709 394
7.60721 339
7.62732 410
7.64743 411
7.66755 427
7.68766 391
7.70778 392
7.72789 428
7.748 371
7.76812 411
7.78823 386
7.80834 357
7.82846 339
7.84857 399
7.86869 401
7.8888 378
7.90891 401
7.92903 348
7.94914 413
7.96925 430
7.98937 384
8.00948 426
8.0296 415
8.04971 403
8.06982 369
8.08994 433
8.11005 373
8.13016 377
8.15028 369
8.17039 375
8.1905 391
8.21062 375
8.23073 378
8.25085 407
8.27096 344
8.29107 358
8.31119 393
8.3313 387
8.35141 395
8.37153 396
8.39164 357
8.41176 372
8.43187 398
8.45198 370
8.4721 385
8.49221 367
8.51232 394
8.53244 387
8.55255 365
8.57266 374
8.59278 389
8.61289 381
8.63301 427
8.65312 379
8.67323 422
8.69335 404
8.71346 427
8.73357 395
8.75369 377
8.7738 392
8.79392 391
8.81403 374
8.83414 410
8.85426 376
8.87437 369
8.89448 413
8.9146 367
8.93471 423
8.95483 359
8.97494 376
8.99505 389
9.01517 402
9.03528 350
9.05539 386
9.07551 366
9.09562 416
9.11573 399
9.13585 382
9.15596 365
9.17608 400
9.19619 409
9.2163 392
9.23642 355
9.25653 387
9.27664 365
9.29676 375
9.31687 384
9.33699 400
9.3571 347
9.37721 357
9.39733 377
9.41744 397
9.43755 390
9.45767 346
9.47778 383
9.4979 391
9.51801 385
9.53812 373
9.55824 357
9.57835 383
9.59846 398
9.61858 345
9.63869 421
9.6588 348
9.67892 373
9.69903 362
9.71915 374
9.73926 370
9.75937 357
9.77949 358
9.7996 388
9.81971 331
9.83983 361
9.85994 394
9.88006 365
9.90017 347
9.92028 346
9.9404 386
9.96051 367
9.98062 369
10.00074 388
10.02085 393
10.04097 321
10.06108 382
10.08119 377
10.10131 394
10.12142 400
10.14153 349
10.16165 374
10.18176 347
10.20187 349
10.22199 393
10.2421 383
10.26222 380
10.28233 363
10.30244 373
10.32256 366
10.34267 371
10.36278 382
10.3829 405
10.40301 380
10.42313 390
10.44324 412
10.46335 417
10.48347 377
10.50358 413
10.52369 393
10.54381 405
10.56392 358
10.58403 342
10.60415 382
10.62426 349
10.64438 396
10.66449 395
10.6846 387
10.70472 394
10.72483 399
10.74494 419
10.76506 382
10.78517 342
10.80529 381
10.8254 428
10.84551 361
10.86563 365
10.88574 403
10.90585 371
10.92597 400
10.94608 383
10.9662 413
10.98631 380
11.00642 363
11.02654 392
11.04665 405
11.06676 364
11.08688 411
11.10699 369
11.1271 362
11.14722 367
11.16733 382
11.18745 393
11.20756 368
11.22767 371
11.24779 399
11.2679 355
11.28801 397
11.30813 387
11.32824 421
11.34836 392
11.36847 407
11.38858 407
11.4087 399
11.42881 404
11.44892 380
11.46904 385
11.48915 375
11.50927 423
11.52938 388
11.54949 414
11.56961 425
11.58972 380
11.60983 410
11.62995 431
11.65006 455
11.67017 436
11.69029 416
11.7104 417
11.73052 411
11.75063 417
11.77074 450
11.79086 413
11.81097 415
11.83108 427
11.8512 424
11.87131 435
11.89143 461
11.91154 453
11.93165 472
11.95177 441
11.97188 521
11.99199 456
12.01211 461
12.03222 459
12.05234 482
12.07245 525
12.09256 507
12.11268 488
12.13279 569
12.1529 565
12.17302 586
12.19313 603
12.21324 494
12.23336 586
12.25347 632
12.27359 603
12.2937 617
12.31381 661
12.33393 621
12.35404 619
12.37415 578
12.39427 558
12.41438 568
12.4345 556
12.45461 500
12.47472 508
12.49484 497
12.51495 507
12.53506 455
12.55518 464
12.57529 469
12.5954 449
12.61552 401
12.63563 376
12.65575 411
12.67586 415
12.69597 404
12.71609 374
12.7362 399
12.75631 377
12.77643 400
12.79654 402
12.81666 379
12.83677 401
12.85688 353
12.877 384
12.89711 360
12.91722 384
12.93734 370
12.95745 328
12.97757 362
12.99768 377
13.01779 388
13.03791 360
13.05802 366
13.07813 370
13.09825 368
13.11836 338
13.13847 367
13.15859 326
13.1787 393
13.19882 366
13.21893 382
13.23904 382
13.25916 378
13.27927 340
13.29938 373
13.3195 359
13.33961 371
13.35973 360
13.37984 407
13.39995 379
13.42007 347
13.44018 334
13.46029 347
13.48041 374
13.50052 356
13.52064 395
13.54075 369
13.56086 372
13.58098 391
13.60109 380
13.6212 381
13.64132 429
13.66143 405
13.68154 385
13.70166 390
13.72177 339
13.74189 364
13.762 354
13.78211 368
13.80223 360
13.82234 368
13.84245 394
13.86257 365
13.88268 363
13.9028 338
13.92291 331
13.94302 347
13.96314 403
13.98325 373
14.00336 326
14.02348 307
14.04359 361
14.06371 365
14.08382 354
14.10393 345
14.12405 343
14.14416 338
14.16427 311
14.18439 320
14.2045 348
14.22461 364
14.24473 346
14.26484 350
14.28496 329
14.30507 364
14.32518 321
14.3453 331
14.36541 337
14.38552 369
14.40564 319
14.42575 342
14.44587 310
14.46598 302
14.48609 356
14.50621 313
14.52632 351
14.54643 324
14.56655 325
14.58666 332
14.60677 344
14.62689 312
14.647 342
14.66712 275
14.68723 316
14.70734 342
14.72746 327
14.74757 313
14.76768 313
14.7878 343
14.80791 347
14.82803 355
14.84814 346
14.86825 344
14.88837 354
14.90848 310
14.92859 376
14.94871 374
14.96882 350
14.98894 410
15.00905 369
15.02916 372
15.04928 408
15.06939 367
15.0895 396
15.10962 405
15.12973 384
15.14984 344
15.16996 367
15.19007 337
15.21019 349
15.2303 333
15.25041 319
15.27053 328
15.29064 355
15.31075 306
15.33087 326
15.35098 311
15.3711 344
15.39121 331
15.41132 325
15.43144 306
15.45155 354
15.47166 342
15.49178 321
15.51189 308
15.53201 336
15.55212 305
15.57223 334
15.59235 339
15.61246 350
15.63257 307
15.65269 348
15.6728 361
15.69291 335
15.71303 338
15.73314 321
15.75326 341
15.77337 355
15.79348 301
15.8136 328
15.83371 338
15.85382 329
15.87394 340
15.89405 317
15.91417 312
15.93428 323
15.95439 346
15.97451 323
15.99462 323
16.01473 353
16.03485 321
16.05496 332
16.07508 325
16.09519 357
16.1153 315
16.13542 330
16.15553 335
16.17564 317
16.19576 316
16.21587 305
16.23598 308
16.2561 320
16.27621 330
16.29633 344
16.31644 350
16.33655 318
16.35667 289
16.37678 362
16.39689 325
16.41701 341
16.43712 351
16.45724 324
16.47735 322
16.49746 321
16.51758 332
16.53769 334
16.5578 318
16.57792 321
16.59803 304
16.61814 316
16.63826 317
16.65837 341
16.67849 322
16.6986 343
16.71871 371
16.73883 337
16.75894 310
16.77905 339
16.79917 349
16.81928 331
16.8394 301
16.85951 340
16.87962 330
16.89974 350
16.91985 338
16.93996 353
16.96008 348
16.98019 314
17.00031 300
17.02042 292
17.04053 350
17.06065 332
17.08076 291
17.10087 314
17.12099 325
17.1411 348
17.16121 348
17.18133 324
17.20144 328
17.22156 362
17.24167 317
17.26178 320
17.2819 321
17.30201 324
17.32212 325
17.34224 377
17.36235 311
17.38247 343
17.40258 293
17.42269 330
17.44281 315
17.46292 362
17.48303 331
17.50315 360
17.52326 329
17.54338 341
17.56349 358
17.5836 366
17.60372 336
17.62383 313
17.64394 342
17.66406 363
17.68417 336
17.70428 345
17.7244 363
17.74451 334
17.76463 336
17.78474 344
17.80485 388
17.82497 349
17.84508 335
17.86519 331
17.88531 346
17.90542 349
17.92554 374
17.94565 358
17.96576 326
17.98588 373
18.00599 373
18.0261 368
18.04622 380
18.06633 357
18.08645 362
18.10656 358
18.12667 372
18.14679 376
18.1669 488
18.18701 445
18.20713 495
18.22724 446
18.24735 488
18.26747 580
18.28758 560
18.3077 563
18.32781 497
18.34792 480
18.36804 471
18.38815 447
18.40826 408
18.42838 408
18.44849 340
18.46861 392
18.48872 385
18.50883 358
18.52895 362
18.54906 367
18.56917 388
18.58929 316
18.6094 342
18.62951 366
18.64963 347
18.66974 385
18.68986 327
18.70997 360
18.73008 376
18.7502 310
18.77031 355
18.79042 352
18.81054 312
18.83065 341
18.85077 307
18.87088 321
18.89099 391
18.91111 336
18.93122 402
18.95133 365
18.97145 341
18.99156 314
19.01168 361
19.03179 379
19.0519 371
19.07202 321
19.09213 329
19.11224 369
19.13236 369
19.15247 361
19.17258 393
19.1927 366
19.21281 372
19.23293 348
19.25304 392
19.27315 392
19.29327 424
19.31338 366
19.33349 380
19.35361 396
19.37372 409
19.39384 363
19.41395 397
19.43406 399
19.45418 396
19.47429 377
19.4944 400
19.51452 405
19.53463 397
19.55475 403
19.57486 445
19.59497 406
19.61509 421
19.6352 428
19.65531 411
19.67543 520
19.69554 450
19.71565 483
19.73577 537
19.75588 508
19.776 617
19.79611 558
19.81622 589
19.83634 606
19.85645 649
19.87656 645
19.89668 629
19.91679 639
19.93691 630
19.95702 638
19.97713 598
19.99725 651
20.01736 554
20.03747 564
20.05759 573
20.0777 568
20.09782 592
20.11793 618
20.13804 608
20.15816 587
20.17827 605
20.19838 637
20.2185 590
20.23861 665
20.25872 623
20.27884 653
20.29895 700
20.31907 684
20.33918 676
20.35929 622
20.37941 622
20.39952 684
20.41963 586
20.43975 650
20.45986 664
20.47998 648
20.50009 652
20.5202 575
20.54032 702
20.56043 660
20.58054 631
20.60066 724
20.62077 705
20.64088 744
20.661 829
20.68111 891
20.70123 1023
20.72134 1246
20.74145 1519
20.76157 1870
20.78168 2403
20.80179 2874
20.82191 3052
20.84202 3118
20.86214 3012
20.88225 2611
20.90236 1955
20.92248 1740
20.94259 1349
20.9627 1218
20.98282 1141
21.00293 1117
21.02305 995
21.04316 934
21.06327 842
21.08339 749
21.1035 714
21.12361 679
21.14373 646
21.16384 599
21.18395 624
21.20407 665
21.22418 612
21.2443 622
21.26441 612
21.28452 605
21.30464 633
21.32475 618
21.34486 574
21.36498 553
21.38509 602
21.40521 557
21.42532 562
21.44543 531
21.46555 543
21.48566 575
21.50577 541
21.52589 530
21.546 563
21.56612 552
21.58623 567
21.60634 525
21.62646 510
21.64657 473
21.66668 496
21.6868 539
21.70691 544
21.72702 503
21.74714 517
21.76725 527
21.78737 501
21.80748 530
21.82759 505
21.84771 502
21.86782 562
21.88793 559
21.90805 575
21.92816 589
21.94828 600
21.96839 627
21.9885 576
22.00862 581
22.02873 553
22.04884 554
22.06896 529
22.08907 448
22.10919 494
22.1293 497
22.14941 446
22.16953 495
22.18964 441
22.20975 478
22.22987 511
22.24998 491
22.27009 534
22.29021 497
22.31032 446
22.33044 456
22.35055 527
22.37066 531
22.39078 507
22.41089 523
22.431 508
22.45112 535
22.47123 545
22.49135 485
22.51146 536
22.53157 503
22.55169 527
22.5718 508
22.59191 517
22.61203 496
22.63214 453
22.65225 458
22.67237 432
22.69248 471
22.7126 418
22.73271 420
22.75282 469
22.77294 443
22.79305 469
22.81316 460
22.83328 445
22.85339 441
22.87351 437
22.89362 460
22.91373 447
22.93385 462
22.95396 468
22.97407 459
22.99419 472
23.0143 494
23.03442 497
23.05453 493
23.07464 483
23.09476 491
23.11487 480
23.13498 442
23.1551 483
23.17521 515
23.19532 534
23.21544 507
23.23555 499
23.25567 496
23.27578 517
23.29589 507
23.31601 514
23.33612 558
23.35623 589
23.37635 572
23.39646 556
23.41658 577
23.43669 591
23.4568 559
23.47692 617
23.49703 580
23.51714 640
23.53726 596
23.55737 617
23.57749 629
23.5976 602
23.61771 594
23.63783 577
23.65794 612
23.67805 587
23.69817 551
23.71828 574
23.73839 540
23.75851 607
23.77862 553
23.79874 574
23.81885 571
23.83896 567
23.85908 555
23.87919 553
23.8993 607
23.91942 571
23.93953 546
23.95965 571
23.97976 582
23.99987 560
24.01999 500
24.0401 530
24.06021 503
24.08033 476
24.10044 439
24.12056 489
24.14067 488
24.16078 469
24.1809 511
24.20101 528
24.22112 494
24.24124 515
24.26135 578
24.28146 550
24.30158 522
24.32169 534
24.34181 499
24.36192 539
24.38203 508
24.40215 529
24.42226 563
24.44237 568
24.46249 587
24.4826 545
24.50272 543
24.52283 509
24.54294 580
24.56306 517
24.58317 520
24.60328 568
24.6234 563
24.64351 573
24.66362 582
24.68374 609
24.70385 660
24.72397 651
24.74408 621
24.76419 684
24.78431 643
24.80442 661
24.82453 644
24.84465 676
24.86476 670
24.88488 637
24.90499 636
24.9251 655
24.94522 695
24.96533 621
24.98544 651
25.00556 684
25.02567 620
25.04579 599
25.0659 609
25.08601 572
25.10613 635
25.12624 574
25.14635 589
25.16647 623
25.18658 621
25.20669 620
25.22681 592
25.24692 612
25.26704 575
25.28715 602
25.30726 585
25.32738 556
25.34749 618
25.3676 561
25.38772 570
25.40783 556
25.42795 605
25.44806 577
25.46817 683
25.48829 648
25.5084 686
25.52851 715
25.54863 744
25.56874 809
25.58886 841
25.60897 791
25.62908 827
25.6492 770
25.66931 720
25.68942 712
25.70954 658
25.72965 583
25.74976 528
25.76988 528
25.78999 510
25.81011 535
25.83022 557
25.85033 522
25.87045 533
25.89056 578
25.91067 522
25.93079 502
25.9509 489
25.97102 502
25.99113 514
26.01124 522
26.03136 557
26.05147 557
26.07158 605
26.0917 574
26.11181 611
26.13193 614
26.15204 618
26.17215 647
26.19227 678
26.21238 648
26.23249 723
26.25261 740
26.27272 742
26.29283 826
26.31295 841
26.33306 861
26.35318 1073
26.37329 1131
26.3934 1284
26.41352 1457
26.43363 1860
26.45374 2351
26.47386 3077
26.49397 4219
26.51409 5506
26.5342 7282
26.55431 9442
26.57443 11470
26.59454 12166
26.61465 12399
26.63477 11273
26.65488 9577
26.67499 7406
26.69511 5496
26.71522 3969
26.73534 2746
26.75545 1787
26.77556 1479
26.79568 1250
26.81579 1144
26.8359 1119
26.85602 977
26.87613 983
26.89625 993
26.91636 912
26.93647 959
26.95659 965
26.9767 1015
26.99681 1024
27.01693 976
27.03704 1098
27.05716 1022
27.07727 989
27.09738 899
27.1175 865
27.13761 779
27.15772 707
27.17784 669
27.19795 617
27.21806 622
27.23818 633
27.25829 575
27.27841 632
27.29852 671
27.31863 715
27.33875 762
27.35886 892
27.37897 959
27.39909 1059
27.4192 1169
27.43932 1178
27.45943 1233
27.47954 1260
27.49966 1137
27.51977 941
27.53988 928
27.56 797
27.58011 719
27.60023 633
27.62034 601
27.64045 584
27.66057 573
27.68068 584
27.70079 617
27.72091 583
27.74102 620
27.76113 667
27.78125 645
27.80136 608
27.82148 661
27.84159 637
27.8617 670
27.88182 619
27.90193 620
27.92204 629
27.94216 660
27.96227 573
27.98239 555
28.0025 517
28.02261 561
28.04273 468
28.06284 472
28.08295 460
28.10307 474
28.12318 434
28.1433 456
28.16341 437
28.18352 474
28.20364 419
28.22375 473
28.24386 448
28.26398 498
28.28409 437
28.3042 472
28.32432 426
28.34443 448
28.36455 402
28.38466 425
28.40477 395
28.42489 409
28.445 397
28.46511 415
28.48523 423
28.50534 448
28.52546 396
28.54557 422
28.56568 411
28.5858 364
28.60591 393
28.62602 377
28.64614 409
28.66625 388
28.68636 362
28.70648 395
28.72659 383
28.74671 391
28.76682 407
28.78693 372
28.80705 397
28.82716 397
28.84727 417
28.86739 433
28.8875 363
28.90762 389
28.92773 375
28.94784 356
28.96796 394
28.98807 388
29.00818 402
29.0283 392
29.04841 451
29.06853 340
29.08864 397
29.10875 400
29.12887 384
29.14898 405
29.16909 400
29.18921 368
29.20932 377
29.22943 416
29.24955 406
29.26966 382
29.28978 416
29.30989 397
29.33 402
29.35012 399
29.37023 396
29.39034 414
29.41046 418
29.43057 397
29.45069 417
29.4708 470
29.49091 411
29.51103 408
29.53114 451
29.55125 453
29.57137 455
29.59148 465
29.6116 492
29.63171 471
29.65182 481
29.67194 466
29.69205 512
29.71216 497
29.73228 512
29.75239 499
29.7725 527
29.79262 535
29.81273 543
29.83285 547
29.85296 494
29.87307 498
29.89319 507
29.9133 510
29.93341 528
29.95353 503
29.97364 484
29.99376 489
30.01387 512
30.03398 490
30.0541 535
30.07421 473
30.09432 478
30.11444 511
30.13455 480
30.15467 472
30.17478 462
30.19489 458
30.21501 453
30.23512 469
30.25523 467
30.27535 481
30.29546 451
30.31557 460
30.33569 434
30.3558 439
30.37592 474
30.39603 460
30.41614 416
30.43626 432
30.45637 456
30.47648 431
30.4966 436
30.51671 425
30.53683 376
30.55694 441
30.57705 441
30.59717 444
30.61728 480
30.63739 436
30.65751 502
30.67762 518
30.69773 501
30.71785 566
30.73796 618
30.75808 548
30.77819 567
30.7983 598
30.81842 526
30.83853 509
30.85864 485
30.87876 461
30.89887 450
30.91899 419
30.9391 395
30.95921 378
30.97933 387
30.99944 387
31.01955 376
31.03967 390
31.05978 393
31.0799 421
31.10001 389
31.12012 380
31.14024 413
31.16035 358
31.18046 345
31.20058 352
31.22069 372
31.2408 384
31.26092 348
31.28103 371
31.30115 391
31.32126 372
31.34137 403
31.36149 356
31.3816 395
31.40171 376
31.42183 369
31.44194 392
31.46206 391
31.48217 431
31.50228 407
31.5224 367
31.54251 350
31.56262 377
31.58274 388
31.60285 390
31.62297 384
31.64308 374
31.66319 385
31.68331 345
31.70342 343
31.72353 323
31.74365 398
31.76376 368
31.78387 391
31.80399 348
31.8241 359
31.84422 352
31.86433 378
31.88444 381
31.90456 378
31.92467 334
31.94478 352
31.9649 362
31.98501 388
32.00513 390
32.02524 347
32.04535 366
32.06547 377
32.08558 375
32.10569 396
32.12581 412
32.14592 410
32.16604 402
32.18615 436
32.20626 410
32.22638 422
32.24649 437
32.2666 423
32.28672 457
32.30683 454
32.32694 445
32.34706 412
32.36717 411
32.38729 418
32.4074 433
32.42751 405
32.44763 440
32.46774 438
32.48785 393
32.50797 428
32.52808 371
32.5482 431
32.56831 414
32.58842 400
32.60854 405
32.62865 409
32.64876 414
32.66888 427
32.68899 420
32.7091 397
32.72922 391
32.74933 398
32.76945 377
32.78956 424
32.80967 418
32.82979 403
32.8499 393
32.87001 401
32.89013 405
32.91024 399
32.93036 388
32.95047 404
32.97058 404
32.9907 408
33.01081 430
33.03092 431
33.05104 427
33.07115 429
33.09127 436
33.11138 419
33.13149 438
33.15161 455
33.17172 431
33.19183 453
33.21195 417
33.23206 424
33.25217 425
33.27229 426
33.2924 418
33.31252 390
33.33263 364
33.35274 412
33.37286 456
33.39297 435
33.41308 473
33.4332 414
33.45331 427
33.47343 423
33.49354 410
33.51365 428
33.53377 410
33.55388 397
33.57399 381
33.59411 392
33.61422 404
33.63434 385
33.65445 390
33.67456 380
33.69468 421
33.71479 370
33.7349 341
33.75502 388
33.77513 427
33.79524 387
33.81536 423
33.83547 398
33.85559 419
33.8757 419
33.89581 407
33.91593 372
33.93604 387
33.95615 402
33.97627 375
33.99638 440
34.0165 386
34.03661 423
34.05672 427
34.07684 418
34.09695 417
34.11706 441
34.13718 402
34.15729 431
34.17741 441
34.19752 443
34.21763 406
34.23775 480
34.25786 474
34.27797 453
34.29809 459
34.3182 491
34.33831 473
34.35843 508
34.37854 492
34.39866 492
34.41877 466
34.43888 511
34.459 454
34.47911 479
34.49922 501
34.51934 472
34.53945 524
34.55957 484
34.57968 450
34.59979 506
34.61991 491
34.64002 480
34.66013 472
34.68025 527
34.70036 517
34.72047 473
34.74059 526
34.7607 507
34.78082 547
34.80093 545
34.82104 577
34.84116 576
34.86127 578
34.88138 591
34.9015 574
34.92161 575
34.94173 610
34.96184 609
34.98195 585
35.00207 574
35.02218 599
35.04229 563
35.06241 611
35.08252 622
35.10264 622
35.12275 574
35.14286 562
35.16298 546
35.18309 605
35.2032 558
35.22332 605
35.24343 597
35.26354 600
35.28366 562
35.30377 581
35.32389 590
35.344 554
35.36411 594
35.38423 588
35.40434 610
35.42445 614
35.44457 605
35.46468 630
35.4848 583
35.50491 598
35.52502 579
35.54514 612
35.56525 625
35.58536 561
35.60548 599
35.62559 615
35.64571 572
35.66582 595
35.68593 611
35.70605 567
35.72616 612
35.74627 556
35.76639 538
35.7865 573
35.80661 573
35.82673 565
35.84684 566
35.86696 579
35.88707 576
35.90718 482
35.9273 536
35.94741 516
35.96752 548
35.98764 598
36.00775 509
36.02787 505
36.04798 557
36.06809 446
36.08821 490
36.10832 498
36.12843 504
36.14855 497
36.16866 510
36.18878 539
36.20889 521
36.229 488
36.24912 495
36.26923 504
36.28934 515
36.30946 569
36.32957 586
36.34968 608
36.3698 625
36.38991 762
36.41003 872
36.43014 934
36.45025 1009
36.47037 1155
36.49048 1176
36.51059 1220
36.53071 1067
36.55082 1057
36.57094 959
36.59105 893
36.61116 796
36.63128 690
36.65139 666
36.6715 618
36.69162 492
36.71173 492
36.73184 468
36.75196 512
36.77207 475
36.79219 489
36.8123 483
36.83241 472
36.85253 469
36.87264 495
36.89275 492
36.91287 526
36.93298 506
36.9531 517
36.97321 494
36.99332 459
37.01344 510
37.03355 495
37.05366 512
37.07378 503
37.09389 468
37.11401 516
37.13412 483
37.15423 478
37.17435 507
37.19446 465
37.21457 454
37.23469 439
37.2548 420
37.27491 480
37.29503 454
37.31514 478
37.33526 493
37.35537 425
37.37548 467
37.3956 450
37.41571 505
37.43582 466
37.45594 480
37.47605 484
37.49617 468
37.51628 491
37.53639 448
37.55651 450
37.57662 497
37.59673 482
37.61685 468
37.63696 458
37.65708 468
37.67719 511
37.6973 459
37.71742 463
37.73753 483
37.75764 509
37.77776 474
37.79787 477
37.81798 462
37.8381 436
37.85821 443
37.87833 471
37.89844 456
37.91855 478
37.93867 430
37.95878 424
37.97889 473
37.99901 426
38.01912 467
38.03924 469
38.05935 441
38.07946 474
38.09958 489
38.11969 461
38.1398 472
38.15992 443
38.18003 446
38.20015 480
38.22026 478
38.24037 481
38.26049 517
38.2806 457
38.30071 458
38.32083 540
38.34094 512
38.36105 477
38.38117 497
38.40128 477
38.4214 502
38.44151 471
38.46162 509
38.48174 507
38.50185 509
38.52196 519
38.54208 473
38.56219 515
38.58231 451
38.60242 498
38.62253 468
38.64265 462
38.66276 454
38.68287 447
38.70299 431
38.7231 426
38.74321 437
38.76333 443
38.78344 439
38.80356 450
38.82367 423
38.84378 447
38.8639 406
38.88401 439
38.90412 454
38.92424 428
38.94435 444
38.96447 451
38.98458 428
39.00469 406
39.02481 425
39.04492 458
39.06503 443
39.08515 471
39.10526 440
39.12538 450
39.14549 479
39.1656 515
39.18572 482
39.20583 457
39.22594 531
39.24606 506
39.26617 535
39.28628 596
39.3064 670
39.32651 778
39.34663 824
39.36674 986
39.38685 1063
39.40697 1046
39.42708 1054
39.44719 1023
39.46731 957
39.48742 865
39.50754 788
39.52765 736
39.54776 648
39.56788 638
39.58799 498
39.6081 487
39.62822 448
39.64833 442
39.66845 407
39.68856 423
39.70867 428
39.72879 421
39.7489 371
39.76901 385
39.78913 410
39.80924 387
39.82935 408
39.84947 434
39.86958 410
39.8897 412
39.90981 421
39.92992 393
39.95004 407
39.97015 394
39.99026 401
40.01038 414
40.03049 430
40.05061 431
40.07072 451
40.09083 477
40.11095 500
40.13106 515
40.15117 542
40.17129 671
40.1914 694
40.21152 632
40.23163 761
40.25174 691
40.27186 708
40.29197 636
40.31208 591
40.3322 570
40.35231 586
40.37242 511
40.39254 500
40.41265 451
40.43277 410
40.45288 436
40.47299 391
40.49311 429
40.51322 398
40.53333 413
40.55345 412
40.57356 402
40.59368 444
40.61379 425
40.6339 365
40.65402 417
40.67413 402
40.69424 416
40.71436 400
40.73447 410
40.75458 373
40.7747 398
40.79481 417
40.81493 410
40.83504 463
40.85515 426
40.87527 419
40.89538 412
40.91549 384
40.93561 425
40.95572 418
40.97584 424
40.99595 428
41.01606 397
41.03618 418
41.05629 377
41.0764 348
41.09652 422
41.11663 401
41.13675 382
41.15686 430
41.17697 436
41.19709 371
41.2172 395
41.23731 392
41.25743 416
41.27754 390
41.29765 427
41.31777 396
41.33788 391
41.358 396
41.37811 388
41.39822 407
41.41834 396
41.43845 399
41.45856 383
41.47868 394
41.49879 421
41.51891 458
41.53902 389
41.55913 446
41.57925 422
41.59936 461
41.61947 487
41.63959 475
41.6597 482
41.67982 490
41.69993 492
41.72004 528
41.74016 509
41.76027 478
41.78038 473
41.8005 453
41.82061 441
41.84072 429
41.86084 425
41.88095 409
41.90107 434
41.92118 392
41.94129 360
41.96141 358
41.98152 376
42.00163 371
42.02175 363
42.04186 406
42.06198 341
42.08209 377
42.1022 380
42.12232 399
42.14243 433
42.16254 374
42.18266 392
42.20277 450
42.22289 418
42.243 472
42.26311 524
42.28323 549
42.30334 606
42.32345 633
42.34357 787
42.36368 820
42.38379 854
42.40391 835
42.42402 834
42.44414 800
42.46425 692
42.48436 651
42.50448 609
42.52459 596
42.5447 590
42.56482 503
42.58493 423
42.60505 436
42.62516 401
42.64527 423
42.66539 419
42.6855 421
42.70561 399
42.72573 387
42.74584 427
42.76595 408
42.78607 395
42.80618 368
42.8263 354
42.84641 375
42.86652 375
42.88664 333
42.90675 378
42.92686 359
42.94698 346
42.96709 357
42.98721 333
43.00732 334
43.02743 336
43.04755 357
43.06766 375
43.08777 336
43.10789 350
43.128 368
43.14812 346
43.16823 353
43.18834 356
43.20846 332
43.22857 337
43.24868 347
43.2688 335
43.28891 341
43.30902 322
43.32914 347
43.34925 382
43.36937 320
43.38948 329
43.40959 351
43.42971 363
43.44982 386
43.46993 336
43.49005 341
43.51016 339
43.53028 341
43.55039 390
43.5705 322
43.59062 371
43.61073 369
43.63084 371
43.65096 336
43.67107 335
43.69119 323
43.7113 380
43.73141 363
43.75153 344
43.77164 305
43.79175 304
43.81187 314
43.83198 341
43.85209 330
43.87221 350
43.89232 339
43.91244 363
43.93255 338
43.95266 379
43.97278 330
43.99289 347
44.013 380
44.03312 354
44.05323 366
44.07335 377
44.09346 422
44.11357 361
44.13369 372
44.1538 409
44.17391 366
44.19403 393
44.21414 350
44.23426 342
44.25437 335
44.27448 362
44.2946 309
44.31471 343
44.33482 348
44.35494 360
44.37505 335
44.39516 346
44.41528 346
44.43539 332
44.45551 351
44.47562 364
44.49573 309
44.51585 312
44.53596 311
44.55607 346
44.57619 330
44.5963 371
44.61642 361
44.63653 384
44.65664 371
44.67676 315
44.69687 331
44.71698 306
44.7371 365
44.75721 346
44.77732 376
44.79744 382
44.81755 340
44.83767 390
44.85778 343
44.87789 334
44.89801 360
44.91812 337
44.93823 407
44.95835 347
44.97846 362
44.99858 334
45.01869 389
45.0388 362
45.05892 338
45.07903 366
45.09914 344
45.11926 372
45.13937 377
45.15949 387
45.1796 378
45.19971 432
45.21983 390
45.23994 404
45.26005 407
45.28017 369
45.30028 390
45.32039 391
45.34051 401
45.36062 381
45.38074 396
45.40085 377
45.42096 418
45.44108 415
45.46119 386
45.4813 406
45.50142 393
45.52153 442
45.54165 432
45.56176 429
45.58187 463
45.60199 435
45.6221 477
45.64221 539
45.66233 570
45.68244 625
45.70256 676
45.72267 692
45.74278 671
45.7629 637
45.78301 629
45.80312 608
45.82324 588
45.84335 556
45.86346 528
45.88358 501
45.90369 504
45.92381 449
45.94392 418
45.96403 382
45.98415 392
46.00426 364
46.02437 368
46.04449 353
46.0646 358
46.08472 356
46.10483 344
46.12494 330
46.14506 333
46.16517 347
46.18528 350
46.2054 358
46.22551 388
46.24563 340
46.26574 350
46.28585 327
46.30597 344
46.32608 367
46.34619 364
46.36631 363
46.38642 345
46.40653 338
46.42665 322
46.44676 359
46.46688 328
46.48699 336
46.5071 325
46.52722 344
46.54733 345
46.56744 339
46.58756 334
46.60767 360
46.62779 344
46.6479 337
46.66801 328
46.68813 303
46.70824 360
46.72835 353
46.74847 337
46.76858 312
46.78869 372
46.80881 341
46.82892 360
46.84904 353
46.86915 384
46.88926 337
46.90938 334
46.92949 382
46.9496 384
46.96972 371
46.98983 346
47.00995 383
47.03006 382
47.05017 403
47.07029 370
47.0904 381
47.11051 390
47.13063 371
47.15074 347
47.17086 365
47.19097 394
47.21108 353
47.2312 354
47.25131 390
47.27142 358
47.29154 396
47.31165 404
47.33176 347
47.35188 373
47.37199 378
47.39211 365
47.41222 402
47.43233 368
47.45245 364
47.47256 344
47.49267 387
47.51279 364
47.5329 361
47.55302 376
47.57313 323
47.59324 341
47.61336 357
47.63347 355
47.65358 371
47.6737 330
47.69381 364
47.71393 394
47.73404 366
47.75415 344
47.77427 349
47.79438 373
47.81449 337
47.83461 351
47.85472 365
47.87483 352
47.89495 375
47.91506 362
47.93518 362
47.95529 360
47.9754 366
47.99552 369
48.01563 333
48.03574 391
48.05586 340
48.07597 342
48.09609 381
48.1162 344
48.13631 321
48.15643 330
48.17654 314
48.19665 340
48.21677 364
48.23688 322
48.257 328
48.27711 322
48.29722 316
48.31734 351
48.33745 322
48.35756 318
48.37768 329
48.39779 376
48.4179 344
48.43802 343
48.45813 351
48.47825 310
48.49836 365
48.51847 341
48.53859 341
48.5587 383
48.57881 338
48.59893 322
48.61904 339
48.63916 386
48.65927 344
48.67938 335
48.6995 347
48.71961 364
48.73972 362
48.75984 351
48.77995 370
48.80006 379
48.82018 332
48.84029 353
48.86041 371
48.88052 357
48.90063 361
48.92075 350
48.94086 389
48.96097 381
48.98109 377
49.0012 363
49.02132 365
49.04143 357
49.06154 361
49.08166 371
49.10177 372
49.12188 371
49.142 408
49.16211 359
49.18223 345
49.20234 394
49.22245 358
49.24257 377
49.26268 338
49.28279 368
49.30291 367
49.32302 373
49.34313 345
49.36325 347
49.38336 374
49.40348 401
49.42359 343
49.4437 369
49.46382 382
49.48393 390
49.50404 369
49.52416 388
49.54427 377
49.56439 367
49.5845 405
49.60461 414
49.62473 404
49.64484 392
49.66495 377
49.68507 381
49.70518 397
49.7253 414
49.74541 418
49.76552 401
49.78564 431
49.80575 421
49.82586 470
49.84598 513
49.86609 486
49.8862 518
49.90632 596
49.92643 647
49.94655 695
49.96666 815
49.98677 949
50.00689 1018
50.027 1189
50.04711 1341
50.06723 1502
50.08734 1485
50.10746 1388
50.12757 1300
50.14768 1133
50.1678 1046
50.18791 934
50.20802 967
50.22814 860
50.24825 748
50.26837 766
50.28848 577
50.30859 511
50.32871 482
50.34882 414
50.36893 441
50.38905 442
50.40916 462
50.42927 452
50.44939 465
50.4695 509
50.48962 527
50.50973 537
50.52984 539
50.54996 502
50.57007 546
50.59018 549
50.6103 529
50.63041 488
50.65053 517
50.67064 444
50.69075 455
50.71087 486
50.73098 418
50.75109 450
50.77121 465
50.79132 451
50.81143 414
50.83155 410
50.85166 400
50.87178 389
50.89189 398
50.912 387
50.93212 375
50.95223 323
50.97234 324
50.99246 321
51.01257 366
51.03269 355
51.0528 362
51.07291 334
51.09303 355
51.11314 346
51.13325 334
51.15337 360
51.17348 336
51.1936 359
51.21371 330
51.23382 333
51.25394 346
51.27405 318
51.29416 351
51.31428 326
51.33439 360
51.3545 359
51.37462 353
51.39473 313
51.41485 326
51.43496 327
51.45507 330
51.47519 309
51.4953 348
51.51541 363
51.53553 317
51.55564 305
51.57576 344
51.59587 326
51.61598 315
51.6361 288
51.65621 310
51.67632 296
51.69644 335
51.71655 349
51.73667 333
51.75678 332
51.77689 318
51.79701 309
51.81712 314
51.83723 327
51.85735 335
51.87746 317
51.89757 318
51.91769 325
51.9378 363
51.95792 319
51.97803 346
51.99814 338
52.01826 339
52.03837 313
52.05848 354
52.0786 308
52.09871 322
52.11883 304
52.13894 312
52.15905 347
52.17917 325
52.19928 341
52.21939 365
52.23951 338
52.25962 338
52.27974 337
52.29985 349
52.31996 381
52.34008 352
52.36019 342
52.3803 339
52.40042 311
52.42053 341
52.44064 340
52.46076 342
52.48087 304
52.50099 321
52.5211 336
52.54121 340
52.56133 314
52.58144 311
52.60155 366
52.62167 307
52.64178 360
52.6619 351
52.68201 306
52.70212 358
52.72224 339
52.74235 328
52.76246 358
52.78258 307
52.80269 333
52.8228 349
52.84292 293
52.86303 329
52.88315 339
52.90326 340
52.92337 348
52.94349 364
52.9636 341
52.98371 329
53.00383 347
53.02394 354
53.04406 343
53.06417 364
53.08428 336
53.1044 369
53.12451 341
53.14462 349
53.16474 360
53.18485 341
53.20497 366
53.22508 342
53.24519 349
53.26531 361
53.28542 375
53.30553 348
53.32565 365
53.34576 374
53.36587 365
53.38599 359
53.4061 378
53.42622 389
53.44633 373
53.46644 356
53.48656 348
53.50667 354
53.52678 352
53.5469 378
53.56701 396
53.58713 354
53.60724 379
53.62735 355
53.64747 364
53.66758 398
53.68769 359
53.70781 372
53.72792 365
53.74804 390
53.76815 387
53.78826 408
53.80838 388
53.82849 398
53.8486 409
53.86872 423
53.88883 412
53.90894 400
53.92906 425
53.94917 407
53.96929 405
53.9894 389
54.00951 426
54.02963 393
54.04974 411
54.06985 388
54.08997 395
54.11008 425
54.1302 416
54.15031 406
54.17042 394
54.19054 433
54.21065 403
54.23076 441
54.25088 464
54.27099 415
54.29111 395
54.31122 413
54.33133 420
54.35145 435
54.37156 399
54.39167 411
54.41179 421
54.4319 386
54.45201 422
54.47213 417
54.49224 400
54.51236 414
54.53247 400
54.55258 430
54.5727 443
54.59281 418
54.61292 437
54.63304 452
54.65315 472
54.67327 510
54.69338 539
54.71349 592
54.73361 625
54.75372 586
54.77383 677
54.79395 723
54.81406 729
54.83417 680
54.85429 676
54.8744 650
54.89452 588
54.91463 548
54.93474 565
54.95486 583
54.97497 553
54.99508 521
55.0152 540
55.03531 496
55.05543 468
55.07554 442
55.09565 456
55.11577 462
55.13588 468
55.15599 439
55.17611 457
55.19622 478
55.21634 479
55.23645 533
55.25656 560
55.27668 493
55.29679 509
55.3169 476
55.33702 473
55.35713 430
55.37724 408
55.39736 433
55.41747 473
55.43759 430
55.4577 411
55.47781 396
55.49793 429
55.51804 356
55.53815 343
55.55827 369
55.57838 393
55.5985 341
55.61861 357
55.63872 361
55.65884 383
55.67895 363
55.69906 348
55.71918 362
55.73929 363
55.75941 347
55.77952 374
55.79963 357
55.81975 386
55.83986 332
55.85997 361
55.88009 358
55.9002 387
55.92031 360
55.94043 373
55.96054 307
55.98066 367
56.00077 342
56.02088 314
56.041 335
56.06111 318
56.08122 337
56.10134 377
56.12145 345
56.14157 323
56.16168 362
56.18179 330
56.20191 345
56.22202 348
56.24213 343
56.26225 372
56.28236 348
56.30248 345
56.32259 363
56.3427 330
56.36282 306
56.38293 340
56.40304 359
56.42316 325
56.44327 376
56.46338 354
56.4835 401
56.50361 364
56.52373 345
56.54384 328
56.56395 336
56.58407 346
56.60418 375
56.62429 338
56.64441 362
56.66452 378
56.68464 356
56.70475 368
56.72486 352
56.74498 384
56.76509 311
56.7852 381
56.80532 357
56.82543 330
56.84554 334
56.86566 328
56.88577 344
56.90589 352
56.926 340
56.94611 317
56.96623 345
56.98634 330
57.00645 357
57.02657 332
57.04668 317
57.0668 360
57.08691 374
57.10702 323
57.12714 340
57.14725 325
57.16736 349
57.18748 332
57.20759 359
57.22771 349
57.24782 345
57.26793 340
57.28805 319
57.30816 369
57.32827 330
57.34839 319
57.3685 314
57.38861 361
57.40873 351
57.42884 333
57.44896 315
57.46907 337
57.48918 338
57.5093 326
57.52941 344
57.54952 318
57.56964 326
57.58975 326
57.60987 348
57.62998 340
57.65009 380
57.67021 347
57.69032 351
57.71043 355
57.73055 338
57.75066 321
57.77078 332
57.79089 320
57.811 332
57.83112 339
57.85123 339
57.87134 339
57.89146 336
57.91157 348
57.93168 354
57.9518 341
57.97191 318
57.99203 322
58.01214 360
58.03225 333
58.05237 335
58.07248 339
58.09259 336
58.11271 366
58.13282 353
58.15294 334
58.17305 332
58.19316 334
58.21328 293
58.23339 345
58.2535 303
58.27362 313
58.29373 346
58.31385 313
58.33396 335
58.35407 312
58.37419 332
58.3943 326
58.41441 349
58.43453 310
58.45464 338
58.47475 317
58.49487 339
58.51498 324
58.5351 347
58.55521 387
58.57532 336
58.59544 347
58.61555 335
58.63566 333
58.65578 362
58.67589 343
58.69601 343
58.71612 348
58.73623 347
58.75635 351
58.77646 316
58.79657 356
58.81669 312
58.8368 349
58.85691 336
58.87703 336
58.89714 348
58.91726 322
58.93737 349
58.95748 330
58.9776 361
58.99771 341
59.01782 341
59.03794 323
59.05805 345
59.07817 299
59.09828 294
59.11839 297
59.13851 350
59.15862 355
59.17873 349
59.19885 339
59.21896 334
59.23908 328
59.25919 312
59.2793 339
59.29942 324
59.31953 320
59.33964 320
59.35976 327
59.37987 334
59.39998 328
59.4201 318
59.44021 346
59.46033 362
59.48044 376
59.50055 355
59.52067 377
59.54078 372
59.56089 358
59.58101 355
59.60112 399
59.62124 389
59.64135 412
59.66146 402
59.68158 459
59.70169 466
59.7218 535
59.74192 521
59.76203 582
59.78215 664
59.80226 758
59.82237 846
59.84249 944
59.8626 1018
59.88271 1041
59.90283 1038
59.92294 937
59.94305 903
59.96317 765
59.98328 731
60.0034 731
60.02351 703
60.04362 702
60.06374 648
60.08385 637
60.10396 604
60.12408 532
60.14419 467
60.16431 472
60.18442 393
60.20453 418
60.22465 340
60.24476 355
60.26487 353
60.28499 422
60.3051 374
60.32522 348
60.34533 338
60.36544 413
60.38556 318
60.40567 361
60.42578 366
60.4459 342
60.46601 340
60.48612 356
60.50624 345
60.52635 374
60.54647 347
60.56658 318
60.58669 310
60.60681 326
60.62692 361
60.64703 330
60.66715 359
60.68726 332
60.70738 302
60.72749 355
60.7476 330
60.76772 272
60.78783 341
60.80794 338
60.82806 319
60.84817 333
60.86828 324
60.8884 342
60.90851 333
60.92863 366
60.94874 356
60.96885 312
60.98897 339
61.00908 363
61.02919 311
61.04931 318
61.06942 331
61.08954 332
61.10965 373
61.12976 372
61.14988 324
61.16999 350
61.1901 361
61.21022 350
61.23033 360
61.25045 323
61.27056 358
61.29067 328
61.31079 344
61.3309 338
61.35101 336
61.37113 356
61.39124 326
61.41135 333
61.43147 343
61.45158 373
61.4717 345
61.49181 308
61.51192 314
61.53204 368
61.55215 361
61.57226 339
61.59238 343
61.61249 349
61.63261 384
61.65272 342
61.67283 336
61.69295 352
61.71306 387
61.73317 368
61.75329 358
61.7734 359
61.79352 383
61.81363 392
61.83374 422
61.85386 346
61.87397 375
61.89408 370
61.9142 405
61.93431 384
61.95442 426
61.97454 369
61.99465 349
62.01477 406
62.03488 410
62.05499 427
62.07511 443
62.09522 404
62.11533 432
62.13545 447
62.15556 434
62.17568 416
62.19579 404
62.2159 415
62.23602 443
62.25613 400
62.27624 457
62.29636 417
62.31647 465
62.33659 430
62.3567 417
62.37681 396
62.39693 411
62.41704 435
62.43715 410
62.45727 426
62.47738 405
62.49749 433
62.51761 429
62.53772 392
62.55784 409
62.57795 389
62.59806 348
62.61818 388
62.63829 361
62.6584 405
62.67852 406
62.69863 391
62.71875 350
62.73886 378
62.75897 358
62.77909 346
62.7992 368
62.81931 342
62.83943 351
62.85954 371
62.87965 376
62.89977 362
62.91988 358
62.94 342
62.96011 380
62.98022 365
63.00034 346
63.02045 334
63.04056 345
63.06068 341
63.08079 375
63.10091 356
63.12102 375
63.14113 390
63.16125 349
63.18136 361
63.20147 312
63.22159 354
63.2417 335
63.26182 344
63.28193 315
63.30204 341
63.32216 329
63.34227 324
63.36238 361
63.3825 347
63.40261 364
63.42272 296
63.44284 304
63.46295 327
63.48307 351
63.50318 373
63.52329 390
63.54341 361
63.56352 346
63.58363 336
63.60375 340
63.62386 381
63.64398 374
63.66409 388
63.6842 374
63.70432 346
63.72443 391
63.74454 364
63.76466 383
63.78477 388
63.80489 413
63.825 432
63.84511 391
63.86523 459
63.88534 467
63.90545 465
63.92557 458
63.94568 491
63.96579 474
63.98591 507
64.00602 479
64.02614 411
64.04625 476
64.06636 434
64.08648 420
64.10659 423
64.1267 436
64.14682 408
64.16693 435
64.18705 433
64.20716 392
64.22727 382
64.24739 382
64.2675 365
64.28761 338
64.30773 361
64.32784 350
64.34796 334
64.36807 351
64.38818 354
64.4083 320
64.42841 313
64.44852 341
64.46864 326
64.48875 318
64.50886 333
64.52898 345
64.54909 319
64.56921 311
64.58932 348
64.60943 337
64.62955 362
64.64966 326
64.66977 337
64.68989 327
64.71 317
64.73012 301
64.75023 346
64.77034 349
64.79046 316
64.81057 322
64.83068 335
64.8508 304
64.87091 332
64.89102 289
64.91114 321
64.93125 319
64.95137 321
64.97148 309
64.99159 321
65.01171 319
65.03182 305
65.05193 320
65.07205 314
65.09216 323
65.11228 330
65.13239 334
65.1525 319
65.17262 322
65.19273 333
65.21284 323
65.23296 316
65.25307 323
65.27319 334
65.2933 342
65.31341 319
65.33353 307
65.35364 330
65.37375 342
65.39387 299
65.41398 320
65.43409 319
65.45421 317
65.47432 313
65.49444 333
65.51455 323
65.53466 293
65.55478 291
65.57489 313
65.595 316
65.61512 321
65.63523 303
65.65535 330
65.67546 340
65.69557 356
65.71569 339
65.7358 340
65.75591 319
65.77603 336
65.79614 332
65.81626 305
65.83637 294
65.85648 350
65.8766 329
65.89671 324
65.91682 313
65.93694 316
65.95705 330
65.97716 314
65.99728 301
66.01739 298
66.03751 299
66.05762 290
66.07773 302
66.09785 325
66.11796 326
66.13807 311
66.15819 296
66.1783 310
66.19842 298
66.21853 345
66.23864 312
66.25876 311
66.27887 325
66.29898 310
66.3191 336
66.33921 357
66.35933 331
66.37944 314
66.39955 298
66.41967 328
66.43978 306
66.45989 297
66.48001 317
66.50012 324
66.52023 299
66.54035 306
66.56046 299
66.58058 330
66.60069 292
66.6208 307
66.64092 330
66.66103 305
66.68114 313
66.70126 342
66.72137 307
66.74149 291
66.7616 284
66.78171 320
66.80183 293
66.82194 310
66.84205 312
66.86217 314
66.88228 299
66.90239 348
66.92251 342
66.94262 292
66.96274 361
66.98285 298
67.00296 323
67.02308 281
67.04319 306
67.0633 293
67.08342 315
67.10353 311
67.12365 310
67.14376 285
67.16387 306
67.18399 297
67.2041 324
67.22421 328
67.24433 331
67.26444 321
67.28456 343
67.30467 345
67.32478 333
67.3449 347
67.36501 357
67.38512 333
67.40524 335
67.42535 321
67.44546 351
67.46558 346
67.48569 393
67.50581 390
67.52592 427
67.54603 503
67.56615 489
67.58626 545
67.60637 606
67.62649 661
67.6466 640
67.66672 745
67.68683 680
67.70694 667
67.72706 649
67.74717 584
67.76728 575
67.7874 537
67.80751 534
67.82763 596
67.84774 580
67.86785 603
67.88797 634
67.90808 585
67.92819 596
67.94831 597
67.96842 642
67.98853 644
68.00865 723
68.02876 723
68.04888 833
68.06899 866
68.0891 861
68.10922 786
68.12933 805
68.14944 752
68.16956 728
68.18967 779
68.20979 751
68.2299 782
68.25001 861
68.27013 822
68.29024 722
68.31035 674
68.33047 612
68.35058 576
68.3707 511
68.39081 492
68.41092 458
68.43104 490
68.45115 467
68.47126 450
68.49138 446
68.51149 395
68.5316 368
68.55172 341
68.57183 328
68.59195 334
68.61206 307
68.63217 313
68.65229 324
68.6724 316
68.69251 319
68.71263 278
68.73274 316
68.75286 295
68.77297 324
68.79308 319
68.8132 313
68.83331 324
68.85342 293
68.87354 313
68.89365 286
68.91376 339
68.93388 301
68.95399 331
68.97411 309
68.99422 317
69.01433 286
69.03445 345
69.05456 297
69.07467 334
69.09479 292
69.1149 295
69.13502 281
69.15513 297
69.17524 314
69.19536 289
69.21547 275
69.23558 284
69.2557 295
69.27581 294
69.29593 262
69.31604 282
69.33615 288
69.35627 300
69.37638 310
69.39649 312
69.41661 272
69.43672 304
69.45683 322
69.47695 294
69.49706 312
69.51718 298
69.53729 286
69.5574 316
69.57752 291
69.59763 281
69.61774 299
69.63786 344
69.65797 306
69.67809 289
69.6982 293
69.71831 288
69.73843 292
69.75854 286
69.77865 268
69.79877 287
69.81888 301
69.839 269
69.85911 325
69.87922 286
69.89934 274
69.91945 283
69.93956 318
69.95968 301
69.97979 279
69.9999 289
70.02002 315
70.04013 270
70.06025 289
70.08036 319
70.10047 289
70.12059 272
70.1407 322
70.16081 292
70.18093 294
70.20104 288
70.22116 298
70.24127 296
70.26138 316
70.2815 286
70.30161 268
70.32172 298
70.34184 304
70.36195 313
70.38207 308
70.40218 311
70.42229 307
70.44241 283
70.46252 292
70.48263 279
70.50275 263
70.52286 292
70.54297 311
70.56309 311
70.5832 293
70.60332 296
70.62343 277
70.64354 272
70.66366 296
70.68377 316
70.70388 279
70.724 296
70.74411 301
70.76423 306
70.78434 283
70.80445 284
70.82457 265
70.84468 277
70.86479 266
70.88491 318
70.90502 300
70.92513 275
70.94525 307
70.96536 299
70.98548 285
71.00559 252
71.0257 283
71.04582 299
71.06593 274
71.08604 255
71.10616 290
71.12627 313
71.14639 284
71.1665 312
71.18661 284
71.20673 290
71.22684 275
71.24695 287
71.26707 280
71.28718 272
71.3073 291
71.32741 275
71.34752 303
71.36764 298
71.38775 307
71.40786 302
71.42798 289
71.44809 283
71.4682 294
71.48832 264
71.50843 289
71.52855 290
71.54866 297
71.56877 290
71.58889 290
71.609 305
71.62911 314
71.64923 293
71.66934 306
71.68946 307
71.70957 285
71.72968 303
71.7498 281
71.76991 278
71.79002 293
71.81014 273
71.83025 290
71.85037 289
71.87048 303
71.89059 296
71.91071 298
71.93082 284
71.95093 304
71.97105 280
71.99116 315
72.01127 278
72.03139 296
72.0515 286
72.07162 275
72.09173 279
72.11184 292
72.13196 264
72.15207 281
72.17218 305
72.1923 302
72.21241 282
72.23253 334
72.25264 290
72.27275 295
72.29287 286
72.31298 274
72.33309 305
72.35321 298
72.37332 329
72.39344 296
72.41355 302
72.43366 292
72.45378 315
72.47389 322
72.494 289
72.51412 317
72.53423 305
72.55434 282
72.57446 309
72.59457 313
72.61469 296
72.6348 308
72.65491 276
72.67503 268
72.69514 291
72.71525 305
72.73537 285
72.75548 277
72.7756 288
72.79571 305
72.81582 302
72.83594 289
72.85605 306
72.87616 321
72.89628 291
72.91639 329
72.9365 302
72.95662 329
72.97673 320
72.99685 317
73.01696 275
73.03707 317
73.05719 325
73.0773 301
73.09741 340
73.11753 312
73.13764 333
73.15776 295
73.17787 330
73.19798 340
73.2181 312
73.23821 345
73.25832 351
73.27844 355
73.29855 385
73.31867 389
73.33878 408
73.35889 396
73.37901 441
73.39912 469
73.41923 405
73.43935 430
73.45946 400
73.47957 397
73.49969 377
73.5198 347
73.53992 346
73.56003 328
73.58014 359
73.60026 368
73.62037 364
73.64048 332
73.6606 383
73.68071 326
73.70083 328
73.72094 327
73.74105 329
73.76117 303
73.78128 329
73.80139 304
73.82151 311
73.84162 302
73.86174 299
73.88185 292
73.90196 311
73.92208 337
73.94219 318
73.9623 306
73.98242 314
74.00253 288
74.02264 287
74.04276 317
74.06287 298
74.08299 280
74.1031 293
74.12321 290
74.14333 278
74.16344 295
74.18355 279
74.20367 288
74.22378 278
74.2439 275
74.26401 296
74.28412 313
74.30424 302
74.32435 294
74.34446 293
74.36458 280
74.38469 291
74.40481 305
74.42492 257
74.44503 304
74.46515 308
74.48526 273
74.50537 304
74.52549 304
74.5456 278
74.56571 294
74.58583 284
74.60594 300
74.62606 267
74.64617 290
74.66628 317
74.6864 290
74.70651 280
74.72662 286
74.74674 299
74.76685 301
74.78697 305
74.80708 288
74.82719 309
74.84731 306
74.86742 263
74.88753 283
74.90765 302
74.92776 291
74.94787 290
74.96799 290
74.9881 309
75.00822 305
