3.00117 20433
3.02128 20454
3.0414 19287
3.06151 19283
3.08162 18476
3.10174 18019
3.12185 17785
3.14197 16934
3.16208 16724
3.18219 15985
3.20231 15594
3.22242 15380
3.24253 14743
3.26265 14333
3.28276 14068
3.30288 13519
3.32299 13318
3.3431 12688
3.36322 12668
3.38333 12033
3.40344 11613
3.42356 11410
3.44367 10784
3.46379 10728
3.4839 9922
3.50401 10044
3.52413 9519
3.54424 9075
3.56435 9096
3.58447 8372
3.60458 8210
3.62469 8190
3.64481 7605
3.66492 7460
3.68504 7163
3.70515 6806
3.72526 6913
3.74538 6150
3.76549 6369
3.7856 6010
3.80572 5784
3.82583 5696
3.84595 5262
3.86606 5210
3.88617 4925
3.90629 4737
3.9264 4684
3.94651 4438
3.96663 4154
3.98674 4145
4.00686 4022
4.02697 4042
4.04708 3578
4.0672 3540
4.08731 3421
4.10742 3336
4.12754 3376
4.14765 2982
4.16776 3046
4.18788 2965
4.20799 2884
4.22811 2848
4.24822 2619
4.26833 2581
4.28845 2542
4.30856 2598
4.32867 2461
4.34879 2199
4.3689 2316
4.38902 2249
4.40913 2284
4.42924 2239
4.44936 1999
4.46947 2102
4.48958 2107
4.5097 2062
4.52981 2094
4.54992 1995
4.57004 1925
4.59015 1973
4.61027 1946
4.63038 1905
4.65049 1821
4.67061 1776
4.69072 1848
4.71083 1754
4.73095 1719
4.75106 1664
4.77118 1692
4.79129 1711
4.8114 1633
4.83152 1669
4.85163 1581
4.87174 1633
4.89186 1656
4.91197 1577
4.93209 1580
4.9522 1626
4.97231 1529
4.99243 1658
5.01254 1426
5.03265 1440
5.05277 1509
5.07288 1424
5.09299 1458
5.11311 1467
5.13322 1390
5.15334 1410
5.17345 1303
5.19356 1401
5.21368 1407
5.23379 1349
5.2539 1359
5.27402 1282
5.29413 1388
5.31425 1311
5.33436 1258
5.35447 1156
5.37459 1284
5.3947 1299
5.41481 1279
5.43493 1276
5.45504 1271
5.47516 1191
5.49527 1153
5.51538 1228
5.5355 1148
5.55561 1178
5.57572 1236
5.59584 1073
5.61595 1215
5.63606 1065
5.65618 1165
5.67629 1134
5.69641 1144
5.71652 1101
5.73663 1070
5.75675 1073
5.77686 1113
5.79697 1051
5.81709 1013
5.8372 1080
5.85732 1105
5.87743 1063
5.89754 1075
5.91766 1056
5.93777 1073
5.95788 1006
5.978 966
5.99811 979
6.01823 990
6.03834 999
6.05845 945
6.07857 985
6.09868 930
6.11879 977
6.13891 952
6.15902 941
6.17913 870
6.19925 927
6.21936 927
6.23948 935
6.25959 922
6.2797 846
6.29982 942
6.31993 861
6.34004 916
6.36016 912
6.38027 807
6.40039 878
6.4205 827
6.44061 826
6.46073 760
6.48084 800
6.50095 764
6.52107 785
6.54118 784
6.56129 766
6.58141 776
6.60152 800
6.62164 852
6.64175 756
6.66186 776
6.68198 763
6.70209 735
6.7222 719
6.74232 755
6.76243 772
6.78255 726
6.80266 707
6.82277 688
6.84289 730
6.863 667
6.88311 673
6.90323 704
6.92334 694
6.94346 644
6.96357 679
6.98368 675
7.0038 662
7.02391 625
7.04402 676
7.06414 685
7.08425 674
7.10436 590
7.12448 676
7.14459 638
7.16471 604
7.18482 591
7.20493 585
7.22505 546
7.24516 563
7.26527 573
7.28539 597
7.3055 593
7.32562 628
7.34573 606
7.36584 617
7.38596 617
7.40607 606
7.42618 584
7.4463 541
7.46641 608
7.48653 540
7.50664 588
7.52675 623
7.54687 562
7.56698 519
7.58709 635
7.60721 530
7.62732 532
7.64743 473
7.66755 580
7.68766 509
7.70778 549
7.72789 563
7.748 555
7.76812 550
7.78823 544
7.80834 488
7.82846 487
7.84857 510
7.86869 514
7.8888 557
7.90891 471
7.92903 510
7.94914 556
7.96925 563
7.98937 494
8.00948 512
8.0296 497
8.04971 505
8.06982 483
8.08994 472
8.11005 508
8.13016 531
8.15028 481
8.17039 492
8.1905 506
8.21062 463
8.23073 473
8.25085 476
8.27096 494
8.29107 524
8.31119 523
8.3313 461
8.35141 483
8.37153 488
8.39164 480
8.41176 490
8.43187 449
8.45198 454
8.4721 522
8.49221 504
8.51232 483
8.53244 478
8.55255 511
8.57266 447
8.59278 494
8.61289 464
8.63301 462
8.65312 525
8.67323 398
8.69335 524
8.71346 459
8.73357 459
8.75369 476
8.7738 488
8.79392 484
8.81403 511
8.83414 493
8.85426 492
8.87437 454
8.89448 442
8.9146 442
8.93471 485
8.95483 484
8.97494 414
8.99505 439
9.01517 445
9.03528 403
9.05539 450
9.07551 447
9.09562 476
9.11573 451
9.13585 399
9.15596 417
9.17608 474
9.19619 423
9.2163 452
9.23642 410
9.25653 460
9.27664 437
9.29676 457
9.31687 431
9.33699 423
9.3571 463
9.37721 401
9.39733 423
9.41744 415
9.43755 476
9.45767 488
9.47778 442
9.4979 438
9.51801 439
9.53812 386
9.55824 428
9.57835 418
9.59846 458
9.61858 433
9.63869 431
9.6588 397
9.67892 412
9.69903 370
9.71915 427
9.73926 424
9.75937 429
9.77949 417
9.7996 408
9.81971 418
9.83983 412
9.85994 422
9.88006 419
9.90017 390
9.92028 412
9.9404 405
9.96051 388
9.98062 454
10.00074 410
10.02085 393
10.04097 399
10.06108 458
10.08119 466
10.10131 431
10.12142 406
10.14153 445
10.16165 385
10.18176 405
10.20187 411
10.22199 374
10.2421 400
10.26222 432
10.28233 432
10.30244 425
10.32256 383
10.34267 419
10.36278 419
10.3829 405
10.40301 435
10.42313 410
10.44324 377
10.46335 403
10.48347 355
10.50358 420
10.52369 380
10.54381 428
10.56392 404
10.58403 422
10.60415 366
10.62426 422
10.64438 406
10.66449 434
10.6846 411
10.70472 421
10.72483 409
10.74494 430
10.76506 425
10.78517 389
10.80529 428
10.8254 428
10.84551 373
10.86563 422
10.88574 425
10.90585 397
10.92597 424
10.94608 463
10.9662 363
10.98631 426
11.00642 429
11.02654 391
11.04665 400
11.06676 410
11.08688 390
11.10699 421
11.1271 416
11.14722 421
11.16733 417
11.18745 457
11.20756 439
11.22767 418
11.24779 406
11.2679 431
11.28801 423
11.30813 447
11.32824 447
11.34836 420
11.36847 411
11.38858 454
11.4087 454
11.42881 444
11.44892 447
11.46904 433
11.48915 475
11.50927 458
11.52938 483
11.54949 484
11.56961 470
11.58972 508
11.60983 457
11.62995 481
11.65006 491
11.67017 460
11.69029 462
11.7104 471
11.73052 528
11.75063 506
11.77074 507
11.79086 492
11.81097 506
11.83108 465
11.8512 535
11.87131 542
11.89143 542
11.91154 531
11.93165 512
11.95177 536
11.97188 552
11.99199 587
12.01211 574
12.03222 498
12.05234 531
12.07245 557
12.09256 574
12.11268 589
12.13279 573
12.1529 562
12.17302 617
12.19313 586
12.21324 648
12.23336 601
12.25347 572
12.27359 597
12.2937 546
12.31381 579
12.33393 565
12.35404 613
12.37415 520
12.39427 521
12.41438 552
12.4345 499
12.45461 547
12.47472 460
12.49484 446
12.51495 444
12.53506 484
12.55518 444
12.57529 428
12.5954 444
12.61552 427
12.63563 440
12.65575 423
12.67586 400
12.69597 422
12.71609 403
12.7362 417
12.75631 393
12.77643 409
12.79654 411
12.81666 405
12.83677 402
12.85688 352
12.877 414
12.89711 388
12.91722 358
12.93734 339
12.95745 415
12.97757 386
12.99768 390
13.01779 381
13.03791 357
13.05802 343
13.07813 343
13.09825 362
13.11836 409
13.13847 418
13.15859 340
13.1787 337
13.19882 365
13.21893 376
13.23904 346
13.25916 334
13.27927 344
13.29938 399
13.3195 352
13.33961 367
13.35973 320
13.37984 354
13.39995 362
13.42007 339
13.44018 326
13.46029 375
13.48041 373
13.50052 321
13.52064 355
13.54075 338
13.56086 349
13.58098 321
13.60109 368
13.6212 328
13.64132 377
13.66143 347
13.68154 360
13.70166 329
13.72177 307
13.74189 371
13.762 340
13.78211 317
13.80223 342
13.82234 302
13.84245 339
13.86257 331
13.88268 304
13.9028 378
13.92291 355
13.94302 323
13.96314 354
13.98325 369
14.00336 306
14.02348 333
14.04359 306
14.06371 343
14.08382 325
14.10393 336
14.12405 325
14.14416 336
14.16427 335
14.18439 308
14.2045 321
14.22461 321
14.24473 309
14.26484 324
14.28496 312
14.30507 341
14.32518 321
14.3453 340
14.36541 327
14.38552 329
14.40564 324
14.42575 338
14.44587 319
14.46598 328
14.48609 295
14.50621 347
14.52632 286
14.54643 330
14.56655 299
14.58666 357
14.60677 327
14.62689 311
14.647 319
14.66712 312
14.68723 334
14.70734 353
14.72746 344
14.74757 360
14.76768 297
14.7878 348
14.80791 294
14.82803 357
14.84814 287
14.86825 321
14.88837 339
14.90848 340
14.92859 289
14.94871 336
14.96882 334
14.98894 290
15.00905 327
15.02916 337
15.04928 282
15.06939 288
15.0895 338
15.10962 335
15.12973 330
15.14984 278
15.16996 321
15.19007 331
15.21019 320
15.2303 334
15.25041 297
15.27053 346
15.29064 312
15.31075 332
15.33087 321
15.35098 296
15.3711 299
15.39121 299
15.41132 299
15.43144 320
15.45155 347
15.47166 275
15.49178 335
15.51189 312
15.53201 326
15.55212 334
15.57223 282
15.59235 313
15.61246 299
15.63257 315
15.65269 359
15.6728 302
15.69291 321
15.71303 316
15.73314 320
15.75326 326
15.77337 314
15.79348 317
15.8136 330
15.83371 339
15.85382 312
15.87394 289
15.89405 304
15.91417 337
15.93428 342
15.95439 279
15.97451 302
15.99462 317
16.01473 323
16.03485 306
16.05496 325
16.07508 302
16.09519 306
16.1153 302
16.13542 309
16.15553 326
16.17564 319
16.19576 305
16.21587 315
16.23598 335
16.2561 320
16.27621 314
16.29633 335
16.31644 330
16.33655 304
16.35667 331
16.37678 349
16.39689 337
16.41701 313
16.43712 297
16.45724 360
16.47735 282
16.49746 344
16.51758 357
16.53769 332
16.5578 337
16.57792 314
16.59803 351
16.61814 326
16.63826 300
16.65837 352
16.67849 323
16.6986 305
16.71871 318
16.73883 340
16.75894 323
16.77905 293
16.79917 342
16.81928 343
16.8394 299
16.85951 312
16.87962 325
16.89974 276
16.91985 332
16.93996 322
16.96008 305
16.98019 308
17.00031 356
17.02042 332
17.04053 320
17.06065 311
17.08076 297
17.10087 303
17.12099 317
17.1411 327
17.16121 333
17.18133 358
17.20144 342
17.22156 310
17.24167 311
17.26178 305
17.2819 322
17.30201 333
17.32212 327
17.34224 327
17.36235 331
17.38247 315
17.40258 338
17.42269 329
17.44281 290
17.46292 342
17.48303 326
17.50315 331
17.52326 338
17.54338 344
17.56349 308
17.5836 329
17.60372 352
17.62383 335
17.64394 363
17.66406 329
17.68417 374
17.70428 346
17.7244 392
17.74451 362
17.76463 359
17.78474 342
17.80485 365
17.82497 330
17.84508 328
17.86519 354
17.88531 353
17.90542 366
17.92554 330
17.94565 362
17.96576 361
17.98588 330
18.00599 338
18.0261 345
18.04622 339
18.06633 335
18.08645 326
18.10656 347
18.12667 359
18.14679 338
18.1669 345
18.18701 322
18.20713 325
18.22724 313
18.24735 315
18.26747 315
18.28758 340
18.3077 310
18.32781 352
18.34792 338
18.36804 315
18.38815 352
18.40826 336
18.42838 359
18.44849 368
18.46861 341
18.48872 346
18.50883 340
18.52895 335
18.54906 315
18.56917 325
18.58929 356
18.6094 324
18.62951 346
18.64963 399
18.66974 358
18.68986 347
18.70997 382
18.73008 314
18.7502 346
18.77031 361
18.79042 379
18.81054 369
18.83065 323
18.85077 361
18.87088 346
18.89099 363
18.91111 407
18.93122 339
18.95133 361
18.97145 362
18.99156 384
19.01168 353
19.03179 358
19.0519 352
19.07202 373
19.09213 384
19.11224 360
19.13236 413
19.15247 415
19.17258 369
19.1927 399
19.21281 447
19.23293 427
19.25304 438
19.27315 411
19.29327 462
19.31338 426
19.33349 474
19.35361 446
19.37372 483
19.39384 499
19.41395 523
19.43406 531
19.45418 536
19.47429 580
19.4944 593
19.51452 660
19.53463 675
19.55475 718
19.57486 794
19.59497 778
19.61509 843
19.6352 916
19.65531 911
19.67543 988
19.69554 1031
19.71565 1084
19.73577 1092
19.75588 1109
19.776 1173
19.79611 1158
19.81622 1189
19.83634 1204
19.85645 1118
19.87656 1192
19.89668 1127
19.91679 1089
19.93691 1107
19.95702 1001
19.97713 1035
19.99725 990
20.01736 1055
20.03747 1000
20.05759 996
20.0777 976
20.09782 1032
20.11793 940
20.13804 946
20.15816 941
20.17827 937
20.19838 832
20.2185 874
20.23861 886
20.25872 812
20.27884 935
20.29895 873
20.31907 924
20.33918 854
20.35929 939
20.37941 891
20.39952 862
20.41963 890
20.43975 868
20.45986 861
20.47998 813
20.50009 850
20.5202 915
20.54032 916
20.56043 885
20.58054 875
20.60066 861
20.62077 991
20.64088 1091
20.661 1160
20.68111 1288
20.70123 1588
20.72134 1803
20.74145 1991
20.76157 2329
20.78168 2597
20.80179 2637
20.82191 2718
20.84202 2493
20.86214 2143
20.88225 1844
20.90236 1525
20.92248 1270
20.94259 1053
20.9627 1013
20.98282 914
21.00293 882
21.02305 882
21.04316 842
21.06327 833
21.08339 817
21.1035 742
21.12361 776
21.14373 795
21.16384 778
21.18395 737
21.20407 689
21.22418 736
21.2443 729
21.26441 683
21.28452 683
21.30464 708
21.32475 699
21.34486 709
21.36498 718
21.38509 669
21.40521 680
21.42532 660
21.44543 662
21.46555 665
21.48566 686
21.50577 651
21.52589 681
21.546 671
21.56612 625
21.58623 637
21.60634 631
21.62646 681
21.64657 616
21.66668 606
21.6868 693
21.70691 642
21.72702 588
21.74714 610
21.76725 622
21.78737 640
21.80748 592
21.82759 655
21.84771 613
21.86782 628
21.88793 561
21.90805 606
21.92816 652
21.94828 595
21.96839 603
21.9885 601
22.00862 649
22.02873 625
22.04884 607
22.06896 575
22.08907 564
22.10919 569
22.1293 580
22.14941 551
22.16953 561
22.18964 607
22.20975 606
22.22987 592
22.24998 607
22.27009 585
22.29021 608
22.31032 564
22.33044 613
22.35055 580
22.37066 580
22.39078 577
22.41089 597
22.431 544
22.45112 532
22.47123 571
22.49135 518
22.51146 547
22.53157 567
22.55169 559
22.5718 562
22.59191 562
22.61203 551
22.63214 576
22.65225 554
22.67237 539
22.69248 589
22.7126 527
22.73271 596
22.75282 573
22.77294 598
22.79305 562
22.81316 559
22.83328 560
22.85339 534
22.87351 559
22.89362 554
22.91373 554
22.93385 533
22.95396 539
22.97407 529
22.99419 526
23.0143 533
23.03442 555
23.05453 485
23.07464 555
23.09476 572
23.11487 530
23.13498 559
23.1551 572
23.17521 570
23.19532 522
23.21544 522
23.23555 545
23.25567 536
23.27578 528
23.29589 522
23.31601 527
23.33612 525
23.35623 569
23.37635 523
23.39646 506
23.41658 498
23.43669 553
23.4568 551
23.47692 561
23.49703 527
23.51714 556
23.53726 552
23.55737 538
23.57749 556
23.5976 571
23.61771 561
23.63783 588
23.65794 523
23.67805 493
23.69817 571
23.71828 559
23.73839 500
23.75851 501
23.77862 539
23.79874 555
23.81885 547
23.83896 591
23.85908 546
23.87919 566
23.8993 579
23.91942 604
23.93953 579
23.95965 592
23.97976 558
23.99987 543
24.01999 571
24.0401 552
24.06021 604
24.08033 532
24.10044 530
24.12056 501
24.14067 549
24.16078 616
24.1809 557
24.20101 553
24.22112 509
24.24124 561
24.26135 555
24.28146 591
24.30158 561
24.32169 561
24.34181 537
24.36192 570
24.38203 570
24.40215 552
24.42226 556
24.44237 572
24.46249 595
24.4826 616
24.50272 575
24.52283 595
24.54294 631
24.56306 599
24.58317 631
24.60328 585
24.6234 603
24.64351 632
24.66362 687
24.68374 637
24.70385 673
24.72397 631
24.74408 683
24.76419 695
24.78431 711
24.80442 695
24.82453 682
24.84465 705
24.86476 676
24.88488 668
24.90499 727
24.9251 690
24.94522 710
24.96533 690
24.98544 709
25.00556 668
25.02567 634
25.04579 740
25.0659 680
25.08601 633
25.10613 682
25.12624 718
25.14635 664
25.16647 703
25.18658 753
25.20669 722
25.22681 752
25.24692 693
25.26704 739
25.28715 650
25.30726 697
25.32738 680
25.34749 632
25.3676 606
25.38772 598
25.40783 653
25.42795 635
25.44806 639
25.46817 632
25.48829 588
25.5084 622
25.52851 622
25.54863 635
25.56874 689
25.58886 599
25.60897 652
25.62908 623
25.6492 580
25.66931 679
25.68942 609
25.70954 660
25.72965 608
25.74976 660
25.76988 614
25.78999 567
25.81011 615
25.83022 622
25.85033 635
25.87045 617
25.89056 647
25.91067 603
25.93079 651
25.9509 605
25.97102 627
25.99113 627
26.01124 623
26.03136 640
26.05147 601
26.07158 637
26.0917 695
26.11181 670
26.13193 686
26.15204 707
26.17215 751
26.19227 808
26.21238 782
26.23249 850
26.25261 875
26.27272 968
26.29283 936
26.31295 1083
26.33306 1214
26.35318 1344
26.37329 1603
26.3934 1879
26.41352 2242
26.43363 2795
26.45374 3613
26.47386 4383
26.49397 5726
26.51409 6904
26.5342 8132
26.55431 9089
26.57443 9552
26.59454 9621
26.61465 8876
26.63477 7680
26.65488 6287
26.67499 4944
26.69511 3564
26.71522 2676
26.73534 1919
26.75545 1416
26.77556 1209
26.79568 1009
26.81579 963
26.8359 892
26.85602 902
26.87613 793
26.89625 729
26.91636 794
26.93647 770
26.95659 707
26.9767 655
26.99681 673
27.01693 661
27.03704 688
27.05716 662
27.07727 639
27.09738 587
27.1175 590
27.13761 578
27.15772 575
27.17784 579
27.19795 552
27.21806 590
27.23818 557
27.25829 576
27.27841 593
27.29852 608
27.31863 598
27.33875 634
27.35886 635
27.37897 623
27.39909 638
27.4192 655
27.43932 688
27.45943 597
27.47954 674
27.49966 547
27.51977 614
27.53988 582
27.56 578
27.58011 504
27.60023 516
27.62034 558
27.64045 578
27.66057 542
27.68068 560
27.70079 549
27.72091 545
27.74102 512
27.76113 507
27.78125 510
27.80136 515
27.82148 522
27.84159 517
27.8617 515
27.88182 518
27.90193 484
27.92204 537
27.94216 533
27.96227 506
27.98239 511
28.0025 505
28.02261 497
28.04273 483
28.06284 465
28.08295 459
28.10307 523
28.12318 424
28.1433 484
28.16341 474
28.18352 450
28.20364 451
28.22375 453
28.24386 485
28.26398 417
28.28409 444
28.3042 434
28.32432 484
28.34443 433
28.36455 451
28.38466 429
28.40477 466
28.42489 475
28.445 404
28.46511 467
28.48523 448
28.50534 436
28.52546 436
28.54557 439
28.56568 403
28.5858 467
28.60591 456
28.62602 464
28.64614 443
28.66625 409
28.68636 468
28.70648 448
28.72659 468
28.74671 423
28.76682 445
28.78693 417
28.80705 432
28.82716 415
28.84727 405
28.86739 412
28.8875 462
28.90762 422
28.92773 437
28.94784 447
28.96796 403
28.98807 439
29.00818 431
29.0283 422
29.04841 435
29.06853 396
29.08864 441
29.10875 433
29.12887 425
29.14898 463
29.16909 482
29.18921 448
29.20932 394
29.22943 451
29.24955 458
29.26966 497
29.28978 399
29.30989 465
29.33 477
29.35012 509
29.37023 476
29.39034 459
29.41046 466
29.43057 443
29.45069 466
29.4708 447
29.49091 471
29.51103 460
29.53114 433
29.55125 490
29.57137 450
29.59148 435
29.6116 453
29.63171 431
29.65182 445
29.67194 436
29.69205 440
29.71216 472
29.73228 460
29.75239 435
29.7725 445
29.79262 384
29.81273 418
29.83285 455
29.85296 473
29.87307 440
29.89319 446
29.9133 452
29.93341 423
29.95353 428
29.97364 444
29.99376 443
30.01387 450
30.03398 412
30.0541 426
30.07421 387
30.09432 438
30.11444 401
30.13455 409
30.15467 434
30.17478 449
30.19489 407
30.21501 474
30.23512 405
30.25523 426
30.27535 395
30.29546 420
30.31557 393
30.33569 402
30.3558 420
30.37592 406
30.39603 375
30.41614 386
30.43626 420
30.45637 394
30.47648 440
30.4966 421
30.51671 406
30.53683 404
30.55694 426
30.57705 407
30.59717 430
30.61728 426
30.63739 429
30.65751 421
30.67762 419
30.69773 407
30.71785 408
30.73796 416
30.75808 410
30.77819 428
30.7983 391
30.81842 467
30.83853 370
30.85864 427
30.87876 375
30.89887 413
30.91899 387
30.9391 401
30.95921 397
30.97933 390
30.99944 391
31.01955 424
31.03967 380
31.05978 363
31.0799 387
31.10001 376
31.12012 383
31.14024 399
31.16035 408
31.18046 383
31.20058 401
31.22069 359
31.2408 388
31.26092 400
31.28103 401
31.30115 392
31.32126 376
31.34137 351
31.36149 359
31.3816 391
31.40171 419
31.42183 346
31.44194 381
31.46206 332
31.48217 369
31.50228 441
31.5224 387
31.54251 350
31.56262 338
31.58274 371
31.60285 370
31.62297 363
31.64308 375
31.66319 353
31.68331 368
31.70342 336
31.72353 321
31.74365 354
31.76376 353
31.78387 383
31.80399 365
31.8241 362
31.84422 366
31.86433 370
31.88444 387
31.90456 369
31.92467 362
31.94478 353
31.9649 343
31.98501 374
32.00513 352
32.02524 399
32.04535 350
32.06547 389
32.08558 346
32.10569 373
32.12581 350
32.14592 354
32.16604 346
32.18615 349
32.20626 371
32.22638 418
32.24649 382
32.2666 360
32.28672 424
32.30683 386
32.32694 349
32.34706 335
32.36717 391
32.38729 353
32.4074 374
32.42751 381
32.44763 385
32.46774 352
32.48785 370
32.50797 343
32.52808 344
32.5482 394
32.56831 337
32.58842 375
32.60854 321
32.62865 356
32.64876 331
32.66888 362
32.68899 319
32.7091 385
32.72922 358
32.74933 368
32.76945 361
32.78956 325
32.80967 345
32.82979 371
32.8499 363
32.87001 337
32.89013 356
32.91024 333
32.93036 344
32.95047 357
32.97058 323
32.9907 349
33.01081 363
33.03092 356
33.05104 360
33.07115 343
33.09127 346
33.11138 322
33.13149 380
33.15161 374
33.17172 377
33.19183 377
33.21195 360
33.23206 376
33.25217 329
33.27229 337
33.2924 338
33.31252 360
33.33263 347
33.35274 340
33.37286 337
33.39297 356
33.41308 346
33.4332 320
33.45331 374
33.47343 346
33.49354 357
33.51365 335
33.53377 327
33.55388 356
33.57399 362
33.59411 322
33.61422 335
33.63434 361
33.65445 367
33.67456 361
33.69468 341
33.71479 339
33.7349 327
33.75502 355
33.77513 345
33.79524 334
33.81536 365
33.83547 374
33.85559 350
33.8757 347
33.89581 332
33.91593 380
33.93604 342
33.95615 386
33.97627 378
33.99638 354
34.0165 375
34.03661 381
34.05672 416
34.07684 419
34.09695 405
34.11706 400
34.13718 401
34.15729 385
34.17741 414
34.19752 442
34.21763 415
34.23775 380
34.25786 437
34.27797 434
34.29809 433
34.3182 444
34.33831 457
34.35843 480
34.37854 497
34.39866 462
34.41877 485
34.43888 507
34.459 493
34.47911 516
34.49922 565
34.51934 527
34.53945 557
34.55957 584
34.57968 605
34.59979 587
34.61991 614
34.64002 552
34.66013 643
34.68025 656
34.70036 663
34.72047 650
34.74059 685
34.7607 658
34.78082 672
34.80093 661
34.82104 770
34.84116 719
34.86127 759
34.88138 693
34.9015 725
34.92161 690
34.94173 712
34.96184 778
34.98195 701
35.00207 668
35.02218 672
35.04229 659
35.06241 642
35.08252 604
35.10264 585
35.12275 663
35.14286 588
35.16298 598
35.18309 611
35.2032 586
35.22332 579
35.24343 639
35.26354 638
35.28366 598
35.30377 573
35.32389 567
35.344 571
35.36411 575
35.38423 621
35.40434 604
35.42445 571
35.44457 558
35.46468 576
35.4848 594
35.50491 592
35.52502 587
35.54514 585
35.56525 583
35.58536 538
35.60548 604
35.62559 539
35.64571 563
35.66582 583
35.68593 549
35.70605 543
35.72616 565
35.74627 539
35.76639 584
35.7865 588
35.80661 593
35.82673 576
35.84684 587
35.86696 577
35.88707 571
35.90718 575
35.9273 558
35.94741 500
35.96752 571
35.98764 587
36.00775 599
36.02787 557
36.04798 521
36.06809 576
36.08821 562
36.10832 532
36.12843 557
36.14855 521
36.16866 599
36.18878 599
36.20889 559
36.229 595
36.24912 557
36.26923 617
36.28934 590
36.30946 682
36.32957 688
36.34968 725
36.3698 769
36.38991 840
36.41003 960
36.43014 1023
36.45025 1069
36.47037 1058
36.49048 1062
36.51059 1017
36.53071 951
36.55082 893
36.57094 828
36.59105 770
36.61116 644
36.63128 616
36.65139 634
36.6715 536
36.69162 578
36.71173 537
36.73184 550
36.75196 465
36.77207 576
36.79219 474
36.8123 518
36.83241 521
36.85253 512
36.87264 498
36.89275 494
36.91287 458
36.93298 511
36.9531 492
36.97321 500
36.99332 448
37.01344 463
37.03355 466
37.05366 507
37.07378 478
37.09389 491
37.11401 501
37.13412 484
37.15423 526
37.17435 507
37.19446 468
37.21457 488
37.23469 469
37.2548 489
37.27491 486
37.29503 505
37.31514 482
37.33526 470
37.35537 503
37.37548 504
37.3956 513
37.41571 523
37.43582 517
37.45594 497
37.47605 505
37.49617 518
37.51628 545
37.53639 547
37.55651 506
37.57662 522
37.59673 520
37.61685 507
37.63696 540
37.65708 512
37.67719 490
37.6973 548
37.71742 540
37.73753 543
37.75764 522
37.77776 514
37.79787 490
37.81798 494
37.8381 502
37.85821 521
37.87833 516
37.89844 509
37.91855 563
37.93867 560
37.95878 500
37.97889 490
37.99901 480
38.01912 529
38.03924 493
38.05935 536
38.07946 545
38.09958 548
38.11969 548
38.1398 553
38.15992 512
38.18003 525
38.20015 495
38.22026 558
38.24037 503
38.26049 546
38.2806 546
38.30071 562
38.32083 544
38.34094 566
38.36105 576
38.38117 535
38.40128 533
38.4214 566
38.44151 553
38.46162 550
38.48174 503
38.50185 517
38.52196 526
38.54208 544
38.56219 561
38.58231 533
38.60242 510
38.62253 512
38.64265 483
38.66276 521
38.68287 478
38.70299 521
38.7231 502
38.74321 475
38.76333 476
38.78344 473
38.80356 469
38.82367 495
38.84378 435
38.8639 460
38.88401 446
38.90412 494
38.92424 458
38.94435 462
38.96447 439
38.98458 469
39.00469 470
39.02481 506
39.04492 491
39.06503 466
39.08515 527
39.10526 522
39.12538 460
39.14549 500
39.1656 540
39.18572 548
39.20583 552
39.22594 563
39.24606 649
39.26617 636
39.28628 684
39.3064 768
39.32651 861
39.34663 945
39.36674 876
39.38685 985
39.40697 936
39.42708 964
39.44719 865
39.46731 775
39.48742 717
39.50754 683
39.52765 600
39.54776 591
39.56788 504
39.58799 512
39.6081 447
39.62822 448
39.64833 421
39.66845 443
39.68856 436
39.70867 433
39.72879 420
39.7489 417
39.76901 417
39.78913 440
39.80924 445
39.82935 399
39.84947 427
39.86958 461
39.8897 426
39.90981 411
39.92992 471
39.95004 415
39.97015 416
39.99026 447
40.01038 452
40.03049 474
40.05061 524
40.07072 468
40.09083 499
40.11095 510
40.13106 541
40.15117 584
40.17129 626
40.1914 606
40.21152 676
40.23163 608
40.25174 651
40.27186 619
40.29197 570
40.31208 550
40.3322 529
40.35231 524
40.37242 469
40.39254 458
40.41265 438
40.43277 430
40.45288 418
40.47299 389
40.49311 414
40.51322 360
40.53333 406
40.55345 419
40.57356 403
40.59368 391
40.61379 387
40.6339 397
40.65402 397
40.67413 422
40.69424 378
40.71436 418
40.73447 367
40.75458 372
40.7747 399
40.79481 428
40.81493 415
40.83504 381
40.85515 396
40.87527 402
40.89538 389
40.91549 426
40.93561 425
40.95572 412
40.97584 401
40.99595 389
41.01606 433
41.03618 397
41.05629 399
41.0764 387
41.09652 394
41.11663 403
41.13675 379
41.15686 413
41.17697 379
41.19709 417
41.2172 389
41.23731 389
41.25743 413
41.27754 393
41.29765 384
41.31777 382
41.33788 385
41.358 384
41.37811 378
41.39822 384
41.41834 379
41.43845 378
41.45856 359
41.47868 364
41.49879 400
41.51891 354
41.53902 349
41.55913 397
41.57925 394
41.59936 364
41.61947 396
41.63959 375
41.6597 391
41.67982 412
41.69993 408
41.72004 394
41.74016 390
41.76027 402
41.78038 388
41.8005 376
41.82061 441
41.84072 380
41.86084 394
41.88095 378
41.90107 399
41.92118 403
41.94129 392
41.96141 383
41.98152 377
42.00163 383
42.02175 386
42.04186 379
42.06198 393
42.08209 411
42.1022 362
42.12232 400
42.14243 434
42.16254 430
42.18266 499
42.20277 481
42.22289 519
42.243 516
42.26311 566
42.28323 590
42.30334 638
42.32345 682
42.34357 720
42.36368 805
42.38379 731
42.40391 677
42.42402 713
42.44414 645
42.46425 577
42.48436 531
42.50448 546
42.52459 471
42.5447 491
42.56482 458
42.58493 386
42.60505 420
42.62516 390
42.64527 354
42.66539 350
42.6855 380
42.70561 378
42.72573 373
42.74584 395
42.76595 373
42.78607 363
42.80618 376
42.8263 362
42.84641 331
42.86652 324
42.88664 341
42.90675 383
42.92686 339
42.94698 377
42.96709 330
42.98721 382
43.00732 380
43.02743 342
43.04755 358
43.06766 414
43.08777 350
43.10789 360
43.128 333
43.14812 338
43.16823 354
43.18834 331
43.20846 322
43.22857 362
43.24868 337
43.2688 340
43.28891 353
43.30902 340
43.32914 345
43.34925 315
43.36937 343
43.38948 346
43.40959 312
43.42971 371
43.44982 356
43.46993 348
43.49005 348
43.51016 373
43.53028 300
43.55039 370
43.5705 311
43.59062 342
43.61073 351
43.63084 330
43.65096 352
43.67107 326
43.69119 318
43.7113 348
43.73141 300
43.75153 343
43.77164 360
43.79175 364
43.81187 345
43.83198 356
43.85209 343
43.87221 378
43.89232 324
43.91244 310
43.93255 334
43.95266 340
43.97278 317
43.99289 303
44.013 334
44.03312 340
44.05323 327
44.07335 337
44.09346 363
44.11357 322
44.13369 332
44.1538 349
44.17391 349
44.19403 343
44.21414 316
44.23426 343
44.25437 355
44.27448 380
44.2946 322
44.31471 343
44.33482 341
44.35494 327
44.37505 328
44.39516 342
44.41528 350
44.43539 327
44.45551 334
44.47562 335
44.49573 345
44.51585 334
44.53596 351
44.55607 358
44.57619 341
44.5963 387
44.61642 392
44.63653 341
44.65664 356
44.67676 366
44.69687 342
44.71698 379
44.7371 359
44.75721 343
44.77732 316
44.79744 349
44.81755 349
44.83767 377
44.85778 346
44.87789 370
44.89801 345
44.91812 358
44.93823 350
44.95835 357
44.97846 351
44.99858 357
45.01869 361
45.0388 354
45.05892 344
45.07903 367
45.09914 349
45.11926 366
45.13937 336
45.15949 346
45.1796 356
45.19971 401
45.21983 378
45.23994 381
45.26005 387
45.28017 394
45.30028 403
45.32039 395
45.34051 354
45.36062 388
45.38074 369
45.40085 423
45.42096 382
45.44108 422
45.46119 401
45.4813 455
45.50142 428
45.52153 438
45.54165 411
45.56176 445
45.58187 458
45.60199 479
45.6221 517
45.64221 550
45.66233 611
45.68244 606
45.70256 602
45.72267 628
45.74278 622
45.7629 627
45.78301 574
45.80312 492
45.82324 501
45.84335 447
45.86346 465
45.88358 433
45.90369 418
45.92381 416
45.94392 370
45.96403 382
45.98415 392
46.00426 370
46.02437 333
46.04449 328
46.0646 353
46.08472 339
46.10483 387
46.12494 368
46.14506 365
46.16517 390
46.18528 344
46.2054 336
46.22551 327
46.24563 382
46.26574 366
46.28585 342
46.30597 326
46.32608 377
46.34619 329
46.36631 329
46.38642 357
46.40653 358
46.42665 345
46.44676 338
46.46688 346
46.48699 332
46.5071 327
46.52722 330
46.54733 338
46.56744 373
46.58756 363
46.60767 342
46.62779 358
46.6479 345
46.66801 331
46.68813 359
46.70824 348
46.72835 328
46.74847 320
46.76858 374
46.78869 371
46.80881 345
46.82892 327
46.84904 359
46.86915 336
46.88926 343
46.90938 349
46.92949 318
46.9496 341
46.96972 339
46.98983 325
47.00995 372
47.03006 354
47.05017 347
47.07029 383
47.0904 299
47.11051 325
47.13063 339
47.15074 361
47.17086 340
47.19097 329
47.21108 359
47.2312 330
47.25131 319
47.27142 376
47.29154 324
47.31165 356
47.33176 347
47.35188 314
47.37199 340
47.39211 352
47.41222 382
47.43233 384
47.45245 363
47.47256 384
47.49267 322
47.51279 321
47.5329 345
47.55302 333
47.57313 339
47.59324 332
47.61336 340
47.63347 333
47.65358 321
47.6737 311
47.69381 364
47.71393 331
47.73404 340
47.75415 347
47.77427 358
47.79438 326
47.81449 329
47.83461 382
47.85472 331
47.87483 328
47.89495 337
47.91506 353
47.93518 367
47.95529 343
47.9754 323
47.99552 316
48.01563 319
48.03574 350
48.05586 351
48.07597 317
48.09609 344
48.1162 324
48.13631 328
48.15643 337
48.17654 336
48.19665 342
48.21677 316
48.23688 303
48.257 346
48.27711 357
48.29722 335
48.31734 340
48.33745 321
48.35756 316
48.37768 335
48.39779 310
48.4179 345
48.43802 321
48.45813 324
48.47825 323
48.49836 330
48.51847 328
48.53859 321
48.5587 325
48.57881 317
48.59893 337
48.61904 316
48.63916 309
48.65927 334
48.67938 326
48.6995 334
48.71961 298
48.73972 315
48.75984 345
48.77995 340
48.80006 306
48.82018 325
48.84029 308
48.86041 321
48.88052 350
48.90063 310
48.92075 303
48.94086 338
48.96097 309
48.98109 345
49.0012 308
49.02132 325
49.04143 339
49.06154 330
49.08166 294
49.10177 339
49.12188 298
49.142 316
49.16211 302
49.18223 305
49.20234 327
49.22245 335
49.24257 297
49.26268 299
49.28279 332
49.30291 359
49.32302 333
49.34313 324
49.36325 285
49.38336 309
49.40348 320
49.42359 321
49.4437 317
49.46382 298
49.48393 336
49.50404 327
49.52416 301
49.54427 320
49.56439 347
49.5845 321
49.60461 333
49.62473 361
49.64484 332
49.66495 355
49.68507 339
49.70518 352
49.7253 329
49.74541 396
49.76552 402
49.78564 426
49.80575 434
49.82586 477
49.84598 462
49.86609 577
49.8862 583
49.90632 635
49.92643 633
49.94655 778
49.96666 880
49.98677 1013
50.00689 1028
50.027 1140
50.04711 1174
50.06723 1181
50.08734 1145
50.10746 1064
50.12757 1019
50.14768 906
50.1678 786
50.18791 755
50.20802 756
50.22814 703
50.24825 584
50.26837 520
50.28848 462
50.30859 379
50.32871 360
50.34882 437
50.36893 380
50.38905 356
50.40916 366
50.42927 346
50.44939 379
50.4695 344
50.48962 382
50.50973 409
50.52984 389
50.54996 332
50.57007 349
50.59018 311
50.6103 332
50.63041 359
50.65053 332
50.67064 318
50.69075 332
50.71087 337
50.73098 331
50.75109 321
50.77121 335
50.79132 299
50.81143 322
50.83155 322
50.85166 351
50.87178 329
50.89189 284
50.912 304
50.93212 340
50.95223 307
50.97234 288
50.99246 308
51.01257 290
51.03269 310
51.0528 306
51.07291 310
51.09303 312
51.11314 321
51.13325 307
51.15337 295
51.17348 299
51.1936 295
51.21371 267
51.23382 317
51.25394 302
51.27405 308
51.29416 305
51.31428 288
51.33439 322
51.3545 327
51.37462 304
51.39473 295
51.41485 303
51.43496 260
51.45507 293
51.47519 274
51.4953 314
51.51541 276
51.53553 306
51.55564 277
51.57576 285
51.59587 289
51.61598 291
51.6361 296
51.65621 290
51.67632 294
51.69644 327
51.71655 310
51.73667 315
51.75678 277
51.77689 315
51.79701 280
51.81712 317
51.83723 298
51.85735 306
51.87746 279
51.89757 293
51.91769 281
51.9378 304
51.95792 277
51.97803 297
51.99814 314
52.01826 278
52.03837 267
52.05848 283
52.0786 318
52.09871 310
52.11883 302
52.13894 285
52.15905 311
52.17917 325
52.19928 283
52.21939 301
52.23951 323
52.25962 266
52.27974 298
52.29985 299
52.31996 292
52.34008 293
52.36019 293
52.3803 325
52.40042 312
52.42053 288
52.44064 303
52.46076 274
52.48087 314
52.50099 301
52.5211 295
52.54121 279
52.56133 305
52.58144 311
52.60155 285
52.62167 321
52.64178 302
52.6619 310
52.68201 290
52.70212 300
52.72224 319
52.74235 297
52.76246 321
52.78258 288
52.80269 312
52.8228 301
52.84292 304
52.86303 291
52.88315 324
52.90326 330
52.92337 335
52.94349 310
52.9636 299
52.98371 303
53.00383 297
53.02394 305
53.04406 289
53.06417 315
53.08428 326
53.1044 345
53.12451 315
53.14462 320
53.16474 348
53.18485 298
53.20497 340
53.22508 308
53.24519 330
53.26531 320
53.28542 343
53.30553 347
53.32565 345
53.34576 348
53.36587 326
53.38599 343
53.4061 330
53.42622 350
53.44633 323
53.46644 356
53.48656 303
53.50667 326
53.52678 355
53.5469 384
53.56701 336
53.58713 366
53.60724 368
53.62735 365
53.64747 367
53.66758 374
53.68769 353
53.70781 377
53.72792 355
53.74804 373
53.76815 358
53.78826 352
53.80838 381
53.82849 392
53.8486 395
53.86872 383
53.88883 398
53.90894 388
53.92906 386
53.94917 363
53.96929 456
53.9894 391
54.00951 375
54.02963 387
54.04974 399
54.06985 379
54.08997 400
54.11008 435
54.1302 382
54.15031 420
54.17042 414
54.19054 431
54.21065 416
54.23076 418
54.25088 414
54.27099 394
54.29111 439
54.31122 455
54.33133 415
54.35145 436
54.37156 402
54.39167 428
54.41179 444
54.4319 417
54.45201 415
54.47213 423
54.49224 416
54.51236 434
54.53247 452
54.55258 444
54.5727 459
54.59281 414
54.61292 496
54.63304 491
54.65315 517
54.67327 562
54.69338 584
54.71349 566
54.73361 644
54.75372 642
54.77383 645
54.79395 670
54.81406 657
54.83417 667
54.85429 617
54.8744 599
54.89452 590
54.91463 571
54.93474 525
54.95486 536
54.97497 514
54.99508 499
55.0152 488
55.03531 470
55.05543 497
55.07554 495
55.09565 440
55.11577 488
55.13588 472
55.15599 456
55.17611 498
55.19622 490
55.21634 483
55.23645 510
55.25656 544
55.27668 494
55.29679 464
55.3169 490
55.33702 498
55.35713 479
55.37724 495
55.39736 454
55.41747 435
55.43759 445
55.4577 416
55.47781 386
55.49793 384
55.51804 405
55.53815 399
55.55827 392
55.57838 403
55.5985 400
55.61861 405
55.63872 393
55.65884 400
55.67895 415
55.69906 347
55.71918 415
55.73929 374
55.75941 427
55.77952 414
55.79963 384
55.81975 373
55.83986 355
55.85997 373
55.88009 385
55.9002 362
55.92031 361
55.94043 383
55.96054 343
55.98066 351
56.00077 362
56.02088 379
56.041 369
56.06111 365
56.08122 351
56.10134 325
56.12145 368
56.14157 368
56.16168 347
56.18179 366
56.20191 361
56.22202 344
56.24213 363
56.26225 376
56.28236 338
56.30248 368
56.32259 349
56.3427 350
56.36282 385
56.38293 365
56.40304 393
56.42316 349
56.44327 327
56.46338 340
56.4835 351
56.50361 378
56.52373 372
56.54384 375
56.56395 343
56.58407 364
56.60418 325
56.62429 383
56.64441 361
56.66452 334
56.68464 325
56.70475 372
56.72486 360
56.74498 364
56.76509 369
56.7852 357
56.80532 323
56.82543 355
56.84554 353
56.86566 324
56.88577 398
56.90589 341
56.926 375
56.94611 348
56.96623 346
56.98634 346
57.00645 358
57.02657 304
57.04668 342
57.0668 348
57.08691 361
57.10702 329
57.12714 346
57.14725 334
57.16736 368
57.18748 346
57.20759 362
57.22771 335
57.24782 341
57.26793 335
57.28805 363
57.30816 371
57.32827 301
57.34839 325
57.3685 322
57.38861 365
57.40873 318
57.42884 337
57.44896 308
57.46907 302
57.48918 316
57.5093 349
57.52941 303
57.54952 316
57.56964 345
57.58975 339
57.60987 314
57.62998 338
57.65009 336
57.67021 305
57.69032 323
57.71043 331
57.73055 322
57.75066 336
57.77078 332
57.79089 334
57.811 310
57.83112 323
57.85123 310
57.87134 313
57.89146 276
57.91157 319
57.93168 306
57.9518 311
57.97191 301
57.99203 330
58.01214 295
58.03225 305
58.05237 300
58.07248 319
58.09259 298
58.11271 320
58.13282 285
58.15294 319
58.17305 327
58.19316 309
58.21328 310
58.23339 323
58.2535 299
58.27362 294
58.29373 309
58.31385 344
58.33396 325
58.35407 297
58.37419 325
58.3943 294
58.41441 306
58.43453 306
58.45464 334
58.47475 318
58.49487 294
58.51498 282
58.5351 345
58.55521 320
58.57532 333
58.59544 330
58.61555 308
58.63566 301
58.65578 325
58.67589 308
58.69601 299
58.71612 283
58.73623 315
58.75635 307
58.77646 305
58.79657 320
58.81669 310
58.8368 329
58.85691 319
58.87703 345
58.89714 290
58.91726 296
58.93737 314
58.95748 308
58.9776 282
58.99771 324
59.01782 330
59.03794 323
59.05805 323
59.07817 339
59.09828 340
59.11839 291
59.13851 341
59.15862 288
59.17873 342
59.19885 326
59.21896 305
59.23908 325
59.25919 338
59.2793 340
59.29942 343
59.31953 322
59.33964 301
59.35976 315
59.37987 329
59.39998 347
59.4201 315
59.44021 357
59.46033 355
59.48044 333
59.50055 361
59.52067 391
59.54078 353
59.56089 429
59.58101 378
59.60112 399
59.62124 444
59.64135 438
59.66146 475
59.68158 479
59.70169 499
59.7218 537
59.74192 568
59.76203 640
59.78215 719
59.80226 731
59.82237 797
59.84249 868
59.8626 867
59.88271 834
59.90283 829
59.92294 797
59.94305 765
59.96317 691
59.98328 642
60.0034 629
60.02351 615
60.04362 605
60.06374 556
60.08385 512
60.10396 472
60.12408 420
60.14419 413
60.16431 410
60.18442 354
60.20453 365
60.22465 297
60.24476 345
60.26487 318
60.28499 332
60.3051 336
60.32522 350
60.34533 320
60.36544 342
60.38556 341
60.40567 338
60.42578 303
60.4459 314
60.46601 324
60.48612 339
60.50624 348
60.52635 333
60.54647 335
60.56658 335
60.58669 308
60.60681 334
60.62692 323
60.64703 309
60.66715 335
60.68726 329
60.70738 343
60.72749 314
60.7476 336
60.76772 323
60.78783 329
60.80794 330
60.82806 330
60.84817 342
60.86828 327
60.8884 330
60.90851 304
60.92863 354
60.94874 348
60.96885 347
60.98897 343
61.00908 362
61.02919 376
61.04931 324
61.06942 345
61.08954 346
61.10965 362
61.12976 387
61.14988 355
61.16999 394
61.1901 369
61.21022 388
61.23033 360
61.25045 370
61.27056 378
61.29067 382
61.31079 394
61.3309 384
61.35101 420
61.37113 399
61.39124 395
61.41135 409
61.43147 447
61.45158 430
61.4717 436
61.49181 426
61.51192 456
61.53204 444
61.55215 442
61.57226 448
61.59238 438
61.61249 444
61.63261 457
61.65272 459
61.67283 479
61.69295 482
61.71306 449
61.73317 464
61.75329 465
61.7734 449
61.79352 484
61.81363 432
61.83374 499
61.85386 442
61.87397 473
61.89408 499
61.9142 517
61.93431 479
61.95442 475
61.97454 482
61.99465 487
62.01477 497
62.03488 502
62.05499 486
62.07511 503
62.09522 511
62.11533 450
62.13545 497
62.15556 453
62.17568 490
62.19579 485
62.2159 478
62.23602 451
62.25613 471
62.27624 458
62.29636 469
62.31647 400
62.33659 421
62.3567 446
62.37681 432
62.39693 446
62.41704 406
62.43715 407
62.45727 345
62.47738 378
62.49749 389
62.51761 349
62.53772 355
62.55784 353
62.57795 397
62.59806 374
62.61818 354
62.63829 369
62.6584 359
62.67852 359
62.69863 380
62.71875 349
62.73886 324
62.75897 347
62.77909 352
62.7992 316
62.81931 321
62.83943 329
62.85954 342
62.87965 305
62.89977 339
62.91988 306
62.94 350
62.96011 327
62.98022 314
63.00034 324
63.02045 320
63.04056 314
63.06068 345
63.08079 351
63.10091 324
63.12102 351
63.14113 308
63.16125 320
63.18136 339
63.20147 317
63.22159 303
63.2417 317
63.26182 291
63.28193 331
63.30204 341
63.32216 313
63.34227 337
63.36238 295
63.3825 306
63.40261 315
63.42272 347
63.44284 291
63.46295 311
63.48307 314
63.50318 279
63.52329 316
63.54341 336
63.56352 336
63.58363 321
63.60375 307
63.62386 349
63.64398 330
63.66409 351
63.6842 314
63.70432 362
63.72443 342
63.74454 364
63.76466 332
63.78477 322
63.80489 358
63.825 366
63.84511 382
63.86523 405
63.88534 389
63.90545 393
63.92557 407
63.94568 422
63.96579 416
63.98591 424
64.00602 403
64.02614 397
64.04625 370
64.06636 355
64.08648 393
64.10659 355
64.1267 344
64.14682 361
64.16693 361
64.18705 320
64.20716 331
64.22727 296
64.24739 339
64.2675 312
64.28761 303
64.30773 286
64.32784 321
64.34796 313
64.36807 302
64.38818 313
64.4083 254
64.42841 317
64.44852 312
64.46864 300
64.48875 301
64.50886 295
64.52898 303
64.54909 303
64.56921 268
64.58932 290
64.60943 269
64.62955 292
64.64966 304
64.66977 285
64.68989 329
64.71 267
64.73012 298
64.75023 308
64.77034 277
64.79046 337
64.81057 283
64.83068 294
64.8508 325
64.87091 273
64.89102 318
64.91114 316
64.93125 290
64.95137 288
64.97148 298
64.99159 311
65.01171 269
65.03182 330
65.05193 295
65.07205 323
65.09216 307
65.11228 290
65.13239 279
65.1525 291
65.17262 291
65.19273 300
65.21284 304
65.23296 297
65.25307 300
65.27319 311
65.2933 309
65.31341 317
65.33353 318
65.35364 302
65.37375 294
65.39387 306
65.41398 318
65.43409 265
65.45421 287
65.47432 298
65.49444 287
65.51455 319
65.53466 314
65.55478 310
65.57489 342
65.595 300
65.61512 323
65.63523 302
65.65535 316
65.67546 325
65.69557 318
65.71569 302
65.7358 324
65.75591 325
65.77603 339
65.79614 301
65.81626 320
65.83637 274
65.85648 323
65.8766 308
65.89671 318
65.91682 300
65.93694 311
65.95705 295
65.97716 300
65.99728 302
66.01739 292
66.03751 275
66.05762 293
66.07773 290
66.09785 279
66.11796 256
66.13807 284
66.15819 294
66.1783 282
66.19842 307
66.21853 303
66.23864 262
66.25876 306
66.27887 258
66.29898 265
66.3191 280
66.33921 306
66.35933 290
66.37944 306
66.39955 321
66.41967 306
66.43978 278
66.45989 297
66.48001 269
66.50012 307
66.52023 298
66.54035 273
66.56046 244
66.58058 287
66.60069 279
66.6208 290
66.64092 285
66.66103 318
66.68114 276
66.70126 324
66.72137 300
66.74149 285
66.7616 274
66.78171 305
66.80183 285
66.82194 319
66.84205 286
66.86217 305
66.88228 293
66.90239 301
66.92251 272
66.94262 287
66.96274 296
66.98285 267
67.00296 280
67.02308 275
67.04319 294
67.0633 304
67.08342 314
67.10353 313
67.12365 326
67.14376 313
67.16387 327
67.18399 314
67.2041 318
67.22421 332
67.24433 303
67.26444 317
67.28456 318
67.30467 335
67.32478 342
67.3449 301
67.36501 341
67.38512 379
67.40524 387
67.42535 360
67.44546 388
67.46558 359
67.48569 399
67.50581 407
67.52592 442
67.54603 475
67.56615 529
67.58626 548
67.60637 604
67.62649 616
67.6466 627
67.66672 691
67.68683 620
67.70694 568
67.72706 584
67.74717 541
67.76728 556
67.7874 515
67.80751 546
67.82763 548
67.84774 574
67.86785 510
67.88797 556
67.90808 650
67.92819 584
67.94831 630
67.96842 690
67.98853 682
68.00865 749
68.02876 734
68.04888 826
68.06899 790
68.0891 776
68.10922 756
68.12933 766
68.14944 693
68.16956 698
68.18967 757
68.20979 713
68.2299 652
68.25001 685
68.27013 640
68.29024 601
68.31035 559
68.33047 540
68.35058 506
68.3707 454
68.39081 472
68.41092 405
68.43104 435
68.45115 422
68.47126 363
68.49138 357
68.51149 347
68.5316 345
68.55172 325
68.57183 308
68.59195 319
68.61206 320
68.63217 290
68.65229 296
68.6724 311
68.69251 331
68.71263 292
68.73274 305
68.75286 321
68.77297 334
68.79308 303
68.8132 320
68.83331 312
68.85342 306
68.87354 305
68.89365 320
68.91376 317
68.93388 294
68.95399 284
68.97411 285
68.99422 329
69.01433 290
69.03445 311
69.05456 261
69.07467 298
69.09479 289
69.1149 319
69.13502 291
69.15513 302
69.17524 288
69.19536 279
69.21547 312
69.23558 292
69.2557 307
69.27581 321
69.29593 312
69.31604 298
69.33615 272
69.35627 314
69.37638 301
69.39649 294
69.41661 293
69.43672 291
69.45683 292
69.47695 306
69.49706 294
69.51718 301
69.53729 310
69.5574 261
69.57752 288
69.59763 306
69.61774 307
69.63786 290
69.65797 293
69.67809 268
69.6982 288
69.71831 266
69.73843 292
69.75854 319
69.77865 304
69.79877 285
69.81888 314
69.839 282
69.85911 280
69.87922 288
69.89934 299
69.91945 264
69.93956 307
69.95968 299
69.97979 277
69.9999 314
70.02002 303
70.04013 304
70.06025 277
70.08036 302
70.10047 291
70.12059 304
70.1407 291
70.16081 275
70.18093 281
70.20104 288
70.22116 289
70.24127 291
70.26138 262
70.2815 274
70.30161 302
70.32172 294
70.34184 264
70.36195 267
70.38207 309
70.40218 277
70.42229 289
70.44241 261
70.46252 281
70.48263 301
70.50275 291
70.52286 293
70.54297 285
70.56309 286
70.5832 294
70.60332 295
70.62343 288
70.64354 293
70.66366 284
70.68377 279
70.70388 269
70.724 256
70.74411 269
70.76423 278
70.78434 283
70.80445 267
70.82457 299
70.84468 293
70.86479 297
70.88491 307
70.90502 245
70.92513 315
70.94525 307
70.96536 302
70.98548 291
71.00559 313
71.0257 248
71.04582 279
71.06593 302
71.08604 261
71.10616 281
71.12627 268
71.14639 269
71.1665 295
71.18661 285
71.20673 271
71.22684 251
71.24695 261
71.26707 269
71.28718 279
71.3073 292
71.32741 303
71.34752 253
71.36764 299
71.38775 267
71.40786 293
71.42798 254
71.44809 299
71.4682 262
71.48832 249
71.50843 291
71.52855 284
71.54866 259
71.56877 281
71.58889 265
71.609 296
71.62911 278
71.64923 312
71.66934 278
71.68946 295
71.70957 272
71.72968 266
71.7498 293
71.76991 301
71.79002 256
71.81014 300
71.83025 282
71.85037 290
71.87048 280
71.89059 309
71.91071 262
71.93082 302
71.95093 294
71.97105 284
71.99116 319
72.01127 268
72.03139 276
72.0515 314
72.07162 309
72.09173 282
72.11184 286
72.13196 318
72.15207 333
72.17218 300
72.1923 266
72.21241 292
72.23253 323
72.25264 261
72.27275 269
72.29287 275
72.31298 272
72.33309 310
72.35321 301
72.37332 330
72.39344 304
72.41355 321
72.43366 309
72.45378 305
72.47389 308
72.494 277
72.51412 300
72.53423 264
72.55434 322
72.57446 338
72.59457 317
72.61469 319
72.6348 332
72.65491 318
72.67503 326
72.69514 329
72.71525 322
72.73537 302
72.75548 313
72.7756 297
72.79571 292
72.81582 357
72.83594 311
72.85605 322
72.87616 303
72.89628 300
72.91639 337
72.9365 323
72.95662 316
72.97673 339
72.99685 300
73.01696 348
73.03707 330
73.05719 343
73.0773 371
73.09741 336
73.11753 348
73.13764 334
73.15776 371
73.17787 357
73.19798 365
73.2181 368
73.23821 367
73.25832 381
73.27844 433
73.29855 407
73.31867 440
73.33878 448
73.35889 445
73.37901 432
73.39912 439
73.41923 399
73.43935 397
73.45946 380
73.47957 392
73.49969 389
73.5198 413
73.53992 374
73.56003 378
73.58014 398
73.60026 380
73.62037 373
73.64048 370
73.6606 342
73.68071 336
73.70083 345
73.72094 319
73.74105 314
73.76117 272
73.78128 326
73.80139 318
73.82151 316
73.84162 301
73.86174 346
73.88185 290
73.90196 303
73.92208 295
73.94219 294
73.9623 301
73.98242 294
74.00253 335
74.02264 314
74.04276 279
74.06287 281
74.08299 304
74.1031 313
74.12321 290
74.14333 281
74.16344 321
74.18355 299
74.20367 294
74.22378 328
74.2439 299
74.26401 305
74.28412 294
74.30424 312
74.32435 275
74.34446 296
74.36458 300
74.38469 292
74.40481 292
74.42492 285
74.44503 300
74.46515 284
74.48526 297
74.50537 294
74.52549 267
74.5456 293
74.56571 317
74.58583 296
74.60594 295
74.62606 296
74.64617 323
74.66628 311
74.6864 281
74.70651 286
74.72662 293
74.74674 305
74.76685 307
74.78697 282
74.80708 306
74.82719 316
74.84731 303
74.86742 290
74.88753 290
74.90765 312
74.92776 316
74.94787 321
74.96799 311
74.9881 276
75.00822 280
