3.00117 20764
3.02128 20102
3.0414 19520
3.06151 19230
3.08162 18749
3.10174 17795
3.12185 17524
3.14197 16907
3.16208 16691
3.18219 15836
3.20231 15563
3.22242 15123
3.24253 14362
3.26265 14547
3.28276 13691
3.30288 13621
3.32299 12865
3.3431 12505
3.36322 12409
3.38333 11669
3.40344 11393
3.42356 10905
3.44367 10589
3.46379 10600
3.4839 10058
3.50401 9800
3.52413 9306
3.54424 8925
3.56435 8784
3.58447 8304
3.60458 8036
3.62469 7928
3.64481 7332
3.66492 7275
3.68504 6885
3.70515 6814
3.72526 6560
3.74538 6083
3.76549 6200
3.7856 5671
3.80572 5514
3.82583 5188
3.84595 4725
3.86606 4932
3.88617 4768
3.90629 4383
3.9264 4134
3.94651 4067
3.96663 4037
3.98674 3855
4.00686 3648
4.02697 3429
4.04708 3249
4.0672 3200
4.08731 3123
4.10742 2981
4.12754 2866
4.14765 2680
4.16776 2710
4.18788 2557
4.20799 2507
4.22811 2316
4.24822 2305
4.26833 2252
4.28845 2091
4.30856 2051
4.32867 2085
4.34879 1852
4.3689 1981
4.38902 2032
4.40913 1859
4.42924 1886
4.44936 1756
4.46947 1779
4.48958 1792
4.5097 1727
4.52981 1518
4.54992 1605
4.57004 1628
4.59015 1602
4.61027 1465
4.63038 1552
4.65049 1404
4.67061 1475
4.69072 1474
4.71083 1367
4.73095 1333
4.75106 1297
4.77118 1344
4.79129 1355
4.8114 1218
4.83152 1255
4.85163 1259
4.87174 1181
4.89186 1217
4.91197 1148
4.93209 1204
4.9522 1158
4.97231 1142
4.99243 1071
5.01254 1079
5.03265 1053
5.05277 1115
5.07288 1005
5.09299 1016
5.11311 977
5.13322 1011
5.15334 1034
5.17345 1040
5.19356 1076
5.21368 947
5.23379 924
5.2539 938
5.27402 921
5.29413 985
5.31425 939
5.33436 931
5.35447 927
5.37459 919
5.3947 950
5.41481 871
5.43493 877
5.45504 930
5.47516 902
5.49527 889
5.51538 845
5.5355 865
5.55561 856
5.57572 840
5.59584 854
5.61595 850
5.63606 853
5.65618 867
5.67629 852
5.69641 828
5.71652 866
5.73663 803
5.75675 804
5.77686 823
5.79697 833
5.81709 879
5.8372 884
5.85732 864
5.87743 897
5.89754 834
5.91766 850
5.93777 854
5.95788 859
5.978 856
5.99811 851
6.01823 865
6.03834 846
6.05845 900
6.07857 843
6.09868 893
6.11879 787
6.13891 801
6.15902 833
6.17913 791
6.19925 844
6.21936 807
6.23948 790
6.25959 814
6.2797 744
6.29982 706
6.31993 664
6.34004 722
6.36016 662
6.38027 671
6.40039 668
6.4205 647
6.44061 662
6.46073 625
6.48084 645
6.50095 629
6.52107 548
6.54118 616
6.56129 587
6.58141 612
6.60152 546
6.62164 602
6.64175 548
6.66186 547
6.68198 564
6.70209 603
6.7222 549
6.74232 512
6.76243 510
6.78255 504
6.80266 517
6.82277 554
6.84289 491
6.863 484
6.88311 473
6.90323 501
6.92334 479
6.94346 519
6.96357 472
6.98368 449
7.0038 489
7.02391 473
7.04402 478
7.06414 456
7.08425 470
7.10436 463
7.12448 510
7.14459 472
7.16471 416
7.18482 480
7.20493 444
7.22505 452
7.24516 471
7.26527 481
7.28539 421
7.3055 439
7.32562 470
7.34573 474
7.36584 414
7.38596 452
7.40607 438
7.42618 431
7.4463 448
7.46641 408
7.48653 438
7.50664 436
7.52675 425
7.54687 414
7.56698 420
7.58709 439
7.60721 396
7.62732 428
7.64743 415
7.66755 420
7.68766 447
7.70778 405
7.72789 427
7.748 373
7.76812 418
7.78823 375
7.80834 441
7.82846 423
7.84857 385
7.86869 435
7.8888 444
7.90891 408
7.92903 420
7.94914 417
7.96925 410
7.98937 414
8.00948 400
8.0296 388
8.04971 379
8.06982 432
8.08994 436
8.11005 416
8.13016 362
8.15028 392
8.17039 385
8.1905 387
8.21062 411
8.23073 440
8.25085 396
8.27096 394
8.29107 386
8.31119 399
8.3313 378
8.35141 386
8.37153 376
8.39164 412
8.41176 393
8.43187 412
8.45198 425
8.4721 418
8.49221 438
8.51232 417
8.53244 377
8.55255 416
8.57266 426
8.59278 409
8.61289 430
8.63301 432
8.65312 392
8.67323 464
8.69335 439
8.71346 458
8.73357 462
8.75369 488
8.7738 516
8.79392 500
8.81403 506
8.83414 549
8.85426 549
8.87437 513
8.89448 489
8.9146 499
8.93471 445
8.95483 418
8.97494 427
8.99505 405
9.01517 386
9.03528 394
9.05539 370
9.07551 420
9.09562 407
9.11573 419
9.13585 357
9.15596 350
9.17608 338
9.19619 379
9.2163 378
9.23642 352
9.25653 378
9.27664 360
9.29676 394
9.31687 320
9.33699 339
9.3571 364
9.37721 337
9.39733 346
9.41744 377
9.43755 313
9.45767 343
9.47778 369
9.4979 333
9.51801 332
9.53812 368
9.55824 348
9.57835 332
9.59846 384
9.61858 369
9.63869 372
9.6588 371
9.67892 329
9.69903 372
9.71915 373
9.73926 333
9.75937 349
9.77949 358
9.7996 350
9.81971 316
9.83983 315
9.85994 341
9.88006 338
9.90017 357
9.92028 335
9.9404 309
9.96051 337
9.98062 379
10.00074 382
10.02085 345
10.04097 344
10.06108 336
10.08119 315
10.10131 339
10.12142 387
10.14153 354
10.16165 311
10.18176 342
10.20187 347
10.22199 324
10.2421 303
10.26222 347
10.28233 330
10.30244 345
10.32256 359
10.34267 327
10.36278 359
10.3829 338
10.40301 321
10.42313 370
10.44324 343
10.46335 354
10.48347 355
10.50358 333
10.52369 315
10.54381 319
10.56392 350
10.58403 329
10.60415 396
10.62426 315
10.64438 366
10.66449 334
10.6846 347
10.70472 306
10.72483 309
10.74494 309
10.76506 341
10.78517 316
10.80529 359
10.8254 356
10.84551 379
10.86563 331
10.88574 343
10.90585 374
10.92597 312
10.94608 350
10.9662 330
10.98631 333
11.00642 326
11.02654 360
11.04665 285
11.06676 358
11.08688 326
11.10699 322
11.1271 324
11.14722 307
11.16733 317
11.18745 327
11.20756 311
11.22767 343
11.24779 342
11.2679 354
11.28801 344
11.30813 373
11.32824 308
11.34836 326
11.36847 332
11.38858 345
11.4087 322
11.42881 332
11.44892 345
11.46904 342
11.48915 345
11.50927 360
11.52938 356
11.54949 312
11.56961 318
11.58972 338
11.60983 335
11.62995 343
11.65006 330
11.67017 344
11.69029 366
11.7104 317
11.73052 345
11.75063 350
11.77074 377
11.79086 365
11.81097 308
11.83108 343
11.8512 361
11.87131 399
11.89143 329
11.91154 352
11.93165 373
11.95177 348
11.97188 378
11.99199 374
12.01211 352
12.03222 404
12.05234 442
12.07245 442
12.09256 443
12.11268 417
12.13279 428
12.1529 429
12.17302 443
12.19313 445
12.21324 495
12.23336 482
12.25347 555
12.27359 501
12.2937 467
12.31381 504
12.33393 496
12.35404 481
12.37415 507
12.39427 488
12.41438 496
12.4345 468
12.45461 475
12.47472 424
12.49484 469
12.51495 408
12.53506 374
12.55518 388
12.57529 427
12.5954 365
12.61552 420
12.63563 358
12.65575 363
12.67586 328
12.69597 348
12.71609 328
12.7362 354
12.75631 335
12.77643 322
12.79654 326
12.81666 297
12.83677 339
12.85688 306
12.877 327
12.89711 341
12.91722 344
12.93734 292
12.95745 298
12.97757 324
12.99768 317
13.01779 296
13.03791 315
13.05802 294
13.07813 319
13.09825 307
13.11836 306
13.13847 295
13.15859 291
13.1787 302
13.19882 321
13.21893 283
13.23904 308
13.25916 286
13.27927 287
13.29938 309
13.3195 330
13.33961 289
13.35973 302
13.37984 257
13.39995 306
13.42007 322
13.44018 292
13.46029 338
13.48041 277
13.50052 308
13.52064 328
13.54075 305
13.56086 313
13.58098 331
13.60109 311
13.6212 311
13.64132 309
13.66143 359
13.68154 334
13.70166 351
13.72177 315
13.74189 336
13.762 329
13.78211 339
13.80223 336
13.82234 352
13.84245 358
13.86257 360
13.88268 363
13.9028 328
13.92291 318
13.94302 349
13.96314 330
13.98325 293
14.00336 326
14.02348 298
14.04359 353
14.06371 286
14.08382 314
14.10393 314
14.12405 305
14.14416 317
14.16427 294
14.18439 262
14.2045 326
14.22461 321
14.24473 296
14.26484 312
14.28496 322
14.30507 295
14.32518 286
14.3453 273
14.36541 294
14.38552 252
14.40564 293
14.42575 289
14.44587 259
14.46598 257
14.48609 286
14.50621 289
14.52632 247
14.54643 268
14.56655 285
14.58666 290
14.60677 299
14.62689 290
14.647 290
14.66712 279
14.68723 300
14.70734 266
14.72746 265
14.74757 270
14.76768 292
14.7878 318
14.80791 301
14.82803 301
14.84814 314
14.86825 300
14.88837 308
14.90848 299
14.92859 328
14.94871 319
14.96882 375
14.98894 307
15.00905 306
15.02916 339
15.04928 276
15.06939 303
15.0895 291
15.10962 305
15.12973 334
15.14984 285
15.16996 277
15.19007 276
15.21019 307
15.2303 290
15.25041 325
15.27053 304
15.29064 296
15.31075 289
15.33087 281
15.35098 326
15.3711 301
15.39121 281
15.41132 299
15.43144 276
15.45155 297
15.47166 285
15.49178 262
15.51189 290
15.53201 274
15.55212 270
15.57223 277
15.59235 309
15.61246 260
15.63257 255
15.65269 287
15.6728 292
15.69291 277
15.71303 287
15.73314 306
15.75326 290
15.77337 290
15.79348 273
15.8136 289
15.83371 243
15.85382 333
15.87394 300
15.89405 285
15.91417 294
15.93428 283
15.95439 296
15.97451 302
15.99462 298
16.01473 281
16.03485 322
16.05496 283
16.07508 254
16.09519 287
16.1153 277
16.13542 287
16.15553 281
16.17564 288
16.19576 314
16.21587 289
16.23598 299
16.2561 279
16.27621 303
16.29633 284
16.31644 256
16.33655 276
16.35667 262
16.37678 288
16.39689 315
16.41701 282
16.43712 267
16.45724 270
16.47735 274
16.49746 245
16.51758 271
16.53769 281
16.5578 262
16.57792 280
16.59803 304
16.61814 240
16.63826 278
16.65837 279
16.67849 329
16.6986 262
16.71871 295
16.73883 300
16.75894 278
16.77905 295
16.79917 269
16.81928 258
16.8394 273
16.85951 280
16.87962 285
16.89974 268
16.91985 277
16.93996 295
16.96008 284
16.98019 267
17.00031 248
17.02042 247
17.04053 313
17.06065 271
17.08076 296
17.10087 295
17.12099 264
17.1411 304
17.16121 266
17.18133 276
17.20144 264
17.22156 278
17.24167 293
17.26178 276
17.2819 279
17.30201 276
17.32212 294
17.34224 296
17.36235 280
17.38247 306
17.40258 275
17.42269 263
17.44281 284
17.46292 297
17.48303 278
17.50315 330
17.52326 301
17.54338 309
17.56349 303
17.5836 299
17.60372 326
17.62383 314
17.64394 305
17.66406 352
17.68417 316
17.70428 372
17.7244 360
17.74451 343
17.76463 339
17.78474 364
17.80485 357
17.82497 344
17.84508 324
17.86519 300
17.88531 305
17.90542 352
17.92554 333
17.94565 308
17.96576 338
17.98588 297
18.00599 333
18.0261 297
18.04622 347
18.06633 279
18.08645 317
18.10656 288
18.12667 316
18.14679 314
18.1669 306
18.18701 320
18.20713 321
18.22724 307
18.24735 290
18.26747 299
18.28758 275
18.3077 290
18.32781 295
18.34792 244
18.36804 288
18.38815 283
18.40826 286
18.42838 320
18.44849 306
18.46861 271
18.48872 295
18.50883 307
18.52895 273
18.54906 295
18.56917 282
18.58929 321
18.6094 317
18.62951 296
18.64963 324
18.66974 318
18.68986 302
18.70997 289
18.73008 313
18.7502 328
18.77031 312
18.79042 318
18.81054 322
18.83065 332
18.85077 299
18.87088 299
18.89099 327
18.91111 290
18.93122 298
18.95133 343
18.97145 320
18.99156 319
19.01168 311
19.03179 319
19.0519 287
19.07202 303
19.09213 305
19.11224 290
19.13236 295
19.15247 332
19.17258 316
19.1927 319
19.21281 321
19.23293 329
19.25304 333
19.27315 364
19.29327 351
19.31338 371
19.33349 358
19.35361 397
19.37372 404
19.39384 377
19.41395 383
19.43406 362
19.45418 423
19.47429 391
19.4944 431
19.51452 467
19.53463 477
19.55475 502
19.57486 528
19.59497 584
19.61509 606
19.6352 600
19.65531 660
19.67543 771
19.69554 747
19.71565 760
19.73577 783
19.75588 886
19.776 807
19.79611 821
19.81622 821
19.83634 865
19.85645 871
19.87656 794
19.89668 716
19.91679 759
19.93691 689
19.95702 660
19.97713 672
19.99725 647
20.01736 597
20.03747 649
20.05759 631
20.0777 592
20.09782 572
20.11793 603
20.13804 526
20.15816 567
20.17827 594
20.19838 552
20.2185 638
20.23861 540
20.25872 630
20.27884 506
20.29895 591
20.31907 625
20.33918 576
20.35929 566
20.37941 573
20.39952 600
20.41963 605
20.43975 609
20.45986 611
20.47998 583
20.50009 609
20.5202 628
20.54032 634
20.56043 618
20.58054 692
20.60066 709
20.62077 703
20.64088 726
20.661 883
20.68111 1002
20.70123 1351
20.72134 1614
20.74145 2110
20.76157 2818
20.78168 3399
20.80179 3755
20.82191 3925
20.84202 3844
20.86214 3306
20.88225 2578
20.90236 1965
20.92248 1495
20.94259 1135
20.9627 934
20.98282 814
21.00293 720
21.02305 724
21.04316 715
21.06327 633
21.08339 599
21.1035 615
21.12361 605
21.14373 621
21.16384 564
21.18395 546
21.20407 599
21.22418 522
21.2443 562
21.26441 508
21.28452 500
21.30464 552
21.32475 510
21.34486 527
21.36498 493
21.38509 467
21.40521 506
21.42532 464
21.44543 494
21.46555 493
21.48566 523
21.50577 524
21.52589 507
21.546 506
21.56612 527
21.58623 472
21.60634 475
21.62646 471
21.64657 508
21.66668 489
21.6868 487
21.70691 457
21.72702 431
21.74714 482
21.76725 471
21.78737 474
21.80748 443
21.82759 448
21.84771 492
21.86782 495
21.88793 503
21.90805 551
21.92816 537
21.94828 600
21.96839 637
21.9885 695
22.00862 742
22.02873 671
22.04884 670
22.06896 539
22.08907 568
22.10919 555
22.1293 494
22.14941 484
22.16953 469
22.18964 451
22.20975 413
22.22987 464
22.24998 469
22.27009 472
22.29021 490
22.31032 475
22.33044 433
22.35055 460
22.37066 439
22.39078 453
22.41089 403
22.431 389
22.45112 446
22.47123 395
22.49135 414
22.51146 384
22.53157 461
22.55169 402
22.5718 449
22.59191 451
22.61203 427
22.63214 402
22.65225 416
22.67237 460
22.69248 429
22.7126 416
22.73271 457
22.75282 467
22.77294 435
22.79305 436
22.81316 462
22.83328 496
22.85339 471
22.87351 531
22.89362 513
22.91373 468
22.93385 463
22.95396 475
22.97407 451
22.99419 465
23.0143 464
23.03442 477
23.05453 476
23.07464 480
23.09476 425
23.11487 455
23.13498 479
23.1551 461
23.17521 483
23.19532 417
23.21544 421
23.23555 423
23.25567 392
23.27578 398
23.29589 430
23.31601 395
23.33612 394
23.35623 426
23.37635 453
23.39646 451
23.41658 451
23.43669 503
23.4568 501
23.47692 478
23.49703 487
23.51714 481
23.53726 516
23.55737 521
23.57749 538
23.5976 475
23.61771 441
23.63783 464
23.65794 471
23.67805 462
23.69817 487
23.71828 469
23.73839 484
23.75851 496
23.77862 480
23.79874 506
23.81885 480
23.83896 480
23.85908 536
23.87919 549
23.8993 531
23.91942 493
23.93953 474
23.95965 461
23.97976 469
23.99987 548
24.01999 491
24.0401 488
24.06021 509
24.08033 472
24.10044 471
24.12056 499
24.14067 540
24.16078 570
24.1809 539
24.20101 586
24.22112 582
24.24124 623
24.26135 584
24.28146 550
24.30158 548
24.32169 549
24.34181 502
24.36192 484
24.38203 457
24.40215 464
24.42226 492
24.44237 449
24.46249 426
24.4826 442
24.50272 443
24.52283 406
24.54294 439
24.56306 444
24.58317 452
24.60328 449
24.6234 467
24.64351 479
24.66362 469
24.68374 513
24.70385 466
24.72397 505
24.74408 494
24.76419 507
24.78431 553
24.80442 557
24.82453 539
24.84465 476
24.86476 541
24.88488 524
24.90499 544
24.9251 532
24.94522 554
24.96533 522
24.98544 544
25.00556 511
25.02567 533
25.04579 525
25.0659 517
25.08601 491
25.10613 481
25.12624 523
25.14635 536
25.16647 496
25.18658 505
25.20669 547
25.22681 520
25.24692 549
25.26704 562
25.28715 538
25.30726 570
25.32738 535
25.34749 544
25.3676 549
25.38772 581
25.40783 624
25.42795 617
25.44806 617
25.46817 621
25.48829 601
25.5084 604
25.52851 594
25.54863 594
25.56874 529
25.58886 593
25.60897 605
25.62908 555
25.6492 575
25.66931 537
25.68942 523
25.70954 527
25.72965 514
25.74976 496
25.76988 531
25.78999 501
25.81011 534
25.83022 500
25.85033 461
25.87045 522
25.89056 530
25.91067 491
25.93079 546
25.9509 597
25.97102 489
25.99113 551
26.01124 542
26.03136 555
26.05147 564
26.07158 608
26.0917 533
26.11181 635
26.13193 614
26.15204 652
26.17215 673
26.19227 709
26.21238 750
26.23249 837
26.25261 851
26.27272 908
26.29283 986
26.31295 1039
26.33306 1159
26.35318 1315
26.37329 1490
26.3934 1728
26.41352 2035
26.43363 2597
26.45374 3566
26.47386 4775
26.49397 6415
26.51409 8919
26.5342 11517
26.55431 14316
26.57443 16121
26.59454 16616
26.61465 15950
26.63477 13987
26.65488 11388
26.67499 8573
26.69511 6202
26.71522 4185
26.73534 2817
26.75545 1926
26.77556 1490
26.79568 1355
26.81579 1173
26.8359 1061
26.85602 977
26.87613 885
26.89625 854
26.91636 825
26.93647 820
26.95659 762
26.9767 709
26.99681 692
27.01693 696
27.03704 709
27.05716 684
27.07727 608
27.09738 639
27.1175 595
27.13761 584
27.15772 521
27.17784 543
27.19795 558
27.21806 561
27.23818 580
27.25829 603
27.27841 635
27.29852 608
27.31863 663
27.33875 669
27.35886 738
27.37897 719
27.39909 788
27.4192 773
27.43932 741
27.45943 738
27.47954 711
27.49966 611
27.51977 634
27.53988 628
27.56 579
27.58011 583
27.60023 624
27.62034 678
27.64045 659
27.66057 680
27.68068 766
27.70079 724
27.72091 692
27.74102 726
27.76113 728
27.78125 775
27.80136 780
27.82148 851
27.84159 890
27.8617 947
27.88182 938
27.90193 963
27.92204 906
27.94216 809
27.96227 749
27.98239 645
28.0025 681
28.02261 569
28.04273 561
28.06284 563
28.08295 591
28.10307 566
28.12318 584
28.1433 488
28.16341 556
28.18352 513
28.20364 494
28.22375 525
28.24386 506
28.26398 499
28.28409 464
28.3042 447
28.32432 436
28.34443 415
28.36455 425
28.38466 422
28.40477 375
28.42489 382
28.445 383
28.46511 386
28.48523 398
28.50534 358
28.52546 433
28.54557 385
28.56568 384
28.5858 371
28.60591 410
28.62602 372
28.64614 398
28.66625 355
28.68636 399
28.70648 346
28.72659 349
28.74671 377
28.76682 357
28.78693 400
28.80705 367
28.82716 377
28.84727 373
28.86739 388
28.8875 372
28.90762 341
28.92773 349
28.94784 358
28.96796 374
28.98807 361
29.00818 400
29.0283 365
29.04841 365
29.06853 359
29.08864 396
29.10875 363
29.12887 361
29.14898 352
29.16909 342
29.18921 350
29.20932 429
29.22943 387
29.24955 380
29.26966 395
29.28978 394
29.30989 363
29.33 387
29.35012 388
29.37023 393
29.39034 403
29.41046 392
29.43057 407
29.45069 386
29.4708 351
29.49091 411
29.51103 362
29.53114 429
29.55125 402
29.57137 364
29.59148 412
29.6116 345
29.63171 410
29.65182 426
29.67194 396
29.69205 404
29.71216 432
29.73228 432
29.75239 486
29.7725 470
29.79262 453
29.81273 482
29.83285 444
29.85296 461
29.87307 467
29.89319 471
29.9133 475
29.93341 443
29.95353 443
29.97364 433
29.99376 418
30.01387 436
30.03398 447
30.0541 516
30.07421 487
30.09432 535
30.11444 470
30.13455 547
30.15467 458
30.17478 465
30.19489 472
30.21501 456
30.23512 402
30.25523 444
30.27535 405
30.29546 417
30.31557 408
30.33569 393
30.3558 429
30.37592 422
30.39603 417
30.41614 440
30.43626 434
30.45637 416
30.47648 457
30.4966 430
30.51671 392
30.53683 388
30.55694 358
30.57705 383
30.59717 421
30.61728 392
30.63739 410
30.65751 379
30.67762 433
30.69773 410
30.71785 407
30.73796 404
30.75808 436
30.77819 420
30.7983 431
30.81842 415
30.83853 381
30.85864 360
30.87876 358
30.89887 361
30.91899 400
30.9391 364
30.95921 349
30.97933 349
30.99944 375
31.01955 356
31.03967 372
31.05978 367
31.0799 389
31.10001 364
31.12012 447
31.14024 440
31.16035 424
31.18046 439
31.20058 489
31.22069 429
31.2408 445
31.26092 403
31.28103 384
31.30115 432
31.32126 379
31.34137 373
31.36149 352
31.3816 364
31.40171 382
31.42183 363
31.44194 352
31.46206 353
31.48217 378
31.50228 301
31.5224 344
31.54251 328
31.56262 341
31.58274 335
31.60285 364
31.62297 311
31.64308 368
31.66319 316
31.68331 382
31.70342 357
31.72353 338
31.74365 326
31.76376 343
31.78387 356
31.80399 339
31.8241 335
31.84422 332
31.86433 369
31.88444 318
31.90456 367
31.92467 373
31.94478 379
31.9649 406
31.98501 382
32.00513 365
32.02524 336
32.04535 397
32.06547 364
32.08558 383
32.10569 390
32.12581 388
32.14592 369
32.16604 341
32.18615 333
32.20626 373
32.22638 325
32.24649 319
32.2666 351
32.28672 347
32.30683 344
32.32694 368
32.34706 342
32.36717 334
32.38729 353
32.4074 352
32.42751 351
32.44763 315
32.46774 333
32.48785 356
32.50797 333
32.52808 318
32.5482 307
32.56831 342
32.58842 298
32.60854 333
32.62865 315
32.64876 320
32.66888 303
32.68899 312
32.7091 269
32.72922 305
32.74933 310
32.76945 330
32.78956 340
32.80967 342
32.82979 312
32.8499 331
32.87001 365
32.89013 352
32.91024 329
32.93036 329
32.95047 352
32.97058 291
32.9907 304
33.01081 337
33.03092 327
33.05104 329
33.07115 338
33.09127 347
33.11138 341
33.13149 338
33.15161 362
33.17172 362
33.19183 314
33.21195 324
33.23206 352
33.25217 333
33.27229 315
33.2924 327
33.31252 342
33.33263 364
33.35274 345
33.37286 341
33.39297 320
33.41308 345
33.4332 330
33.45331 332
33.47343 340
33.49354 324
33.51365 330
33.53377 321
33.55388 344
33.57399 344
33.59411 367
33.61422 344
33.63434 305
33.65445 307
33.67456 290
33.69468 316
33.71479 325
33.7349 321
33.75502 353
33.77513 335
33.79524 329
33.81536 349
33.83547 291
33.85559 352
33.8757 346
33.89581 371
33.91593 318
33.93604 329
33.95615 342
33.97627 322
33.99638 353
34.0165 350
34.03661 347
34.05672 340
34.07684 354
34.09695 371
34.11706 385
34.13718 378
34.15729 367
34.17741 395
34.19752 382
34.21763 416
34.23775 410
34.25786 414
34.27797 395
34.29809 407
34.3182 392
34.33831 446
34.35843 444
34.37854 455
34.39866 437
34.41877 491
34.43888 495
34.459 468
34.47911 535
34.49922 507
34.51934 492
34.53945 483
34.55957 489
34.57968 500
34.59979 479
34.61991 536
34.64002 535
34.66013 582
34.68025 573
34.70036 636
34.72047 606
34.74059 647
34.7607 641
34.78082 652
34.80093 686
34.82104 777
34.84116 730
34.86127 742
34.88138 762
34.9015 690
34.92161 731
34.94173 684
34.96184 670
34.98195 666
35.00207 715
35.02218 650
35.04229 595
35.06241 587
35.08252 593
35.10264 556
35.12275 519
35.14286 487
35.16298 538
35.18309 508
35.2032 482
35.22332 468
35.24343 523
35.26354 486
35.28366 481
35.30377 522
35.32389 524
35.344 506
35.36411 467
35.38423 452
35.40434 476
35.42445 498
35.44457 501
35.46468 471
35.4848 462
35.50491 461
35.52502 492
35.54514 509
35.56525 473
35.58536 484
35.60548 499
35.62559 459
35.64571 425
35.66582 489
35.68593 444
35.70605 453
35.72616 459
35.74627 432
35.76639 462
35.7865 453
35.80661 479
35.82673 478
35.84684 472
35.86696 460
35.88707 422
35.90718 472
35.9273 438
35.94741 481
35.96752 482
35.98764 448
36.00775 440
36.02787 527
36.04798 460
36.06809 436
36.08821 457
36.10832 452
36.12843 442
36.14855 443
36.16866 435
36.18878 494
36.20889 470
36.229 461
36.24912 460
36.26923 499
36.28934 528
36.30946 565
36.32957 641
36.34968 709
36.3698 783
36.38991 929
36.41003 1003
36.43014 1243
36.45025 1321
36.47037 1469
36.49048 1516
36.51059 1391
36.53071 1343
36.55082 1264
36.57094 1105
36.59105 966
36.61116 849
36.63128 728
36.65139 674
36.6715 539
36.69162 498
36.71173 517
36.73184 481
36.75196 499
36.77207 516
36.79219 438
36.8123 447
36.83241 469
36.85253 453
36.87264 442
36.89275 452
36.91287 450
36.93298 420
36.9531 429
36.97321 458
36.99332 399
37.01344 438
37.03355 406
37.05366 432
37.07378 441
37.09389 430
37.11401 408
37.13412 403
37.15423 377
37.17435 439
37.19446 403
37.21457 399
37.23469 378
37.2548 406
37.27491 424
37.29503 450
37.31514 420
37.33526 425
37.35537 422
37.37548 435
37.3956 425
37.41571 447
37.43582 443
37.45594 416
37.47605 410
37.49617 456
37.51628 409
37.53639 483
37.55651 451
37.57662 422
37.59673 467
37.61685 485
37.63696 445
37.65708 446
37.67719 441
37.6973 460
37.71742 416
37.73753 431
37.75764 408
37.77776 482
37.79787 448
37.81798 410
37.8381 393
37.85821 387
37.87833 410
37.89844 410
37.91855 406
37.93867 410
37.95878 393
37.97889 396
37.99901 389
38.01912 339
38.03924 393
38.05935 432
38.07946 385
38.09958 365
38.11969 386
38.1398 389
38.15992 383
38.18003 404
38.20015 410
38.22026 404
38.24037 422
38.26049 417
38.2806 436
38.30071 416
38.32083 440
38.34094 366
38.36105 396
38.38117 405
38.40128 426
38.4214 393
38.44151 395
38.46162 444
38.48174 408
38.50185 384
38.52196 378
38.54208 405
38.56219 397
38.58231 357
38.60242 386
38.62253 386
38.64265 344
38.66276 371
38.68287 353
38.70299 363
38.7231 402
38.74321 365
38.76333 397
38.78344 386
38.80356 373
38.82367 364
38.84378 355
38.8639 380
38.88401 383
38.90412 395
38.92424 379
38.94435 352
38.96447 368
38.98458 380
39.00469 361
39.02481 376
39.04492 405
39.06503 418
39.08515 417
39.10526 408
39.12538 431
39.14549 433
39.1656 491
39.18572 476
39.20583 445
39.22594 478
39.24606 510
39.26617 594
39.28628 635
39.3064 768
39.32651 817
39.34663 1009
39.36674 1171
39.38685 1232
39.40697 1275
39.42708 1240
39.44719 1191
39.46731 1043
39.48742 960
39.50754 900
39.52765 818
39.54776 699
39.56788 568
39.58799 490
39.6081 441
39.62822 424
39.64833 394
39.66845 351
39.68856 365
39.70867 357
39.72879 348
39.7489 366
39.76901 345
39.78913 346
39.80924 360
39.82935 385
39.84947 418
39.86958 405
39.8897 417
39.90981 326
39.92992 397
39.95004 413
39.97015 392
39.99026 398
40.01038 454
40.03049 425
40.05061 453
40.07072 462
40.09083 455
40.11095 535
40.13106 566
40.15117 579
40.17129 655
40.1914 723
40.21152 743
40.23163 812
40.25174 776
40.27186 732
40.29197 644
40.31208 602
40.3322 601
40.35231 508
40.37242 493
40.39254 440
40.41265 415
40.43277 398
40.45288 365
40.47299 337
40.49311 371
40.51322 366
40.53333 342
40.55345 347
40.57356 346
40.59368 354
40.61379 337
40.6339 338
40.65402 350
40.67413 328
40.69424 383
40.71436 357
40.73447 367
40.75458 372
40.7747 391
40.79481 369
40.81493 343
40.83504 371
40.85515 345
40.87527 368
40.89538 356
40.91549 370
40.93561 381
40.95572 306
40.97584 377
40.99595 393
41.01606 347
41.03618 351
41.05629 383
41.0764 360
41.09652 343
41.11663 367
41.13675 377
41.15686 402
41.17697 381
41.19709 383
41.2172 383
41.23731 392
41.25743 360
41.27754 356
41.29765 386
41.31777 403
41.33788 361
41.358 315
41.37811 356
41.39822 341
41.41834 349
41.43845 345
41.45856 355
41.47868 344
41.49879 326
41.51891 320
41.53902 350
41.55913 304
41.57925 364
41.59936 326
41.61947 328
41.63959 319
41.6597 359
41.67982 350
41.69993 355
41.72004 383
41.74016 425
41.76027 367
41.78038 375
41.8005 351
41.82061 372
41.84072 388
41.86084 379
41.88095 331
41.90107 384
41.92118 367
41.94129 366
41.96141 355
41.98152 357
42.00163 363
42.02175 371
42.04186 361
42.06198 348
42.08209 400
42.1022 381
42.12232 414
42.14243 448
42.16254 400
42.18266 459
42.20277 460
42.22289 488
42.243 548
42.26311 585
42.28323 666
42.30334 738
42.32345 831
42.34357 937
42.36368 1028
42.38379 1052
42.40391 1077
42.42402 933
42.44414 945
42.46425 784
42.48436 738
42.50448 668
42.52459 669
42.5447 534
42.56482 499
42.58493 485
42.60505 396
42.62516 413
42.64527 356
42.66539 359
42.6855 348
42.70561 333
42.72573 346
42.74584 310
42.76595 322
42.78607 306
42.80618 350
42.8263 357
42.84641 309
42.86652 327
42.88664 330
42.90675 309
42.92686 320
42.94698 289
42.96709 310
42.98721 302
43.00732 329
43.02743 289
43.04755 301
43.06766 295
43.08777 322
43.10789 313
43.128 303
43.14812 296
43.16823 322
43.18834 321
43.20846 308
43.22857 299
43.24868 308
43.2688 273
43.28891 276
43.30902 289
43.32914 296
43.34925 283
43.36937 347
43.38948 314
43.40959 309
43.42971 332
43.44982 329
43.46993 316
43.49005 317
43.51016 343
43.53028 315
43.55039 289
43.5705 301
43.59062 324
43.61073 296
43.63084 287
43.65096 288
43.67107 297
43.69119 311
43.7113 276
43.73141 278
43.75153 258
43.77164 277
43.79175 278
43.81187 326
43.83198 297
43.85209 295
43.87221 325
43.89232 314
43.91244 306
43.93255 310
43.95266 285
43.97278 322
43.99289 292
44.013 300
44.03312 291
44.05323 297
44.07335 287
44.09346 287
44.11357 276
44.13369 284
44.1538 318
44.17391 287
44.19403 329
44.21414 300
44.23426 281
44.25437 318
44.27448 277
44.2946 290
44.31471 272
44.33482 334
44.35494 340
44.37505 278
44.39516 275
44.41528 314
44.43539 321
44.45551 308
44.47562 262
44.49573 308
44.51585 306
44.53596 323
44.55607 312
44.57619 308
44.5963 277
44.61642 298
44.63653 311
44.65664 307
44.67676 301
44.69687 320
44.71698 299
44.7371 325
44.75721 276
44.77732 307
44.79744 312
44.81755 308
44.83767 308
44.85778 310
44.87789 320
44.89801 315
44.91812 304
44.93823 331
44.95835 312
44.97846 323
44.99858 328
45.01869 299
45.0388 330
45.05892 294
45.07903 337
45.09914 331
45.11926 338
45.13937 341
45.15949 339
45.1796 333
45.19971 339
45.21983 381
45.23994 374
45.26005 364
45.28017 391
45.30028 354
45.32039 356
45.34051 395
45.36062 390
45.38074 363
45.40085 403
45.42096 424
45.44108 455
45.46119 431
45.4813 426
45.50142 419
45.52153 417
45.54165 469
45.56176 452
45.58187 478
45.60199 504
45.6221 534
45.64221 579
45.66233 610
45.68244 694
45.70256 758
45.72267 721
45.74278 759
45.7629 738
45.78301 670
45.80312 625
45.82324 562
45.84335 575
45.86346 536
45.88358 509
45.90369 482
45.92381 411
45.94392 363
45.96403 368
45.98415 340
46.00426 344
46.02437 336
46.04449 365
46.0646 332
46.08472 318
46.10483 308
46.12494 323
46.14506 314
46.16517 320
46.18528 320
46.2054 306
46.22551 301
46.24563 286
46.26574 329
46.28585 284
46.30597 299
46.32608 320
46.34619 286
46.36631 321
46.38642 324
46.40653 306
46.42665 310
46.44676 301
46.46688 298
46.48699 289
46.5071 283
46.52722 320
46.54733 310
46.56744 281
46.58756 302
46.60767 308
46.62779 305
46.6479 285
46.66801 304
46.68813 307
46.70824 253
46.72835 304
46.74847 268
46.76858 262
46.78869 317
46.80881 276
46.82892 306
46.84904 286
46.86915 292
46.88926 287
46.90938 302
46.92949 272
46.9496 295
46.96972 284
46.98983 266
47.00995 300
47.03006 289
47.05017 311
47.07029 286
47.0904 294
47.11051 296
47.13063 321
47.15074 315
47.17086 276
47.19097 314
47.21108 327
47.2312 294
47.25131 287
47.27142 260
47.29154 267
47.31165 260
47.33176 311
47.35188 291
47.37199 266
47.39211 283
47.41222 289
47.43233 279
47.45245 316
47.47256 271
47.49267 310
47.51279 300
47.5329 263
47.55302 274
47.57313 254
47.59324 281
47.61336 268
47.63347 307
47.65358 288
47.6737 311
47.69381 297
47.71393 305
47.73404 255
47.75415 285
47.77427 290
47.79438 297
47.81449 304
47.83461 311
47.85472 281
47.87483 300
47.89495 358
47.91506 281
47.93518 300
47.95529 294
47.9754 319
47.99552 321
48.01563 330
48.03574 304
48.05586 309
48.07597 319
48.09609 282
48.1162 296
48.13631 314
48.15643 274
48.17654 278
48.19665 297
48.21677 304
48.23688 304
48.257 309
48.27711 314
48.29722 302
48.31734 312
48.33745 298
48.35756 306
48.37768 244
48.39779 305
48.4179 309
48.43802 313
48.45813 254
48.47825 277
48.49836 292
48.51847 300
48.53859 273
48.5587 265
48.57881 305
48.59893 335
48.61904 295
48.63916 274
48.65927 279
48.67938 319
48.6995 288
48.71961 287
48.73972 315
48.75984 299
48.77995 326
48.80006 292
48.82018 270
48.84029 296
48.86041 308
48.88052 309
48.90063 297
48.92075 267
48.94086 338
48.96097 313
48.98109 318
49.0012 285
49.02132 322
49.04143 292
49.06154 282
49.08166 308
49.10177 284
49.12188 296
49.142 332
49.16211 363
49.18223 314
49.20234 314
49.22245 351
49.24257 328
49.26268 319
49.28279 291
49.30291 333
49.32302 292
49.34313 288
49.36325 319
49.38336 315
49.40348 342
49.42359 310
49.4437 341
49.46382 321
49.48393 334
49.50404 314
49.52416 334
49.54427 281
49.56439 348
49.5845 314
49.60461 308
49.62473 354
49.64484 356
49.66495 349
49.68507 365
49.70518 378
49.7253 374
49.74541 382
49.76552 429
49.78564 394
49.80575 436
49.82586 442
49.84598 467
49.86609 472
49.8862 611
49.90632 668
49.92643 725
49.94655 889
49.96666 1033
49.98677 1210
50.00689 1455
50.027 1664
50.04711 1822
50.06723 1879
50.08734 1915
50.10746 1723
50.12757 1582
50.14768 1352
50.1678 1218
50.18791 1144
50.20802 1132
50.22814 960
50.24825 870
50.26837 658
50.28848 510
50.30859 478
50.32871 426
50.34882 374
50.36893 364
50.38905 391
50.40916 384
50.42927 358
50.44939 389
50.4695 398
50.48962 390
50.50973 406
50.52984 405
50.54996 373
50.57007 390
50.59018 372
50.6103 384
50.63041 386
50.65053 354
50.67064 318
50.69075 338
50.71087 315
50.73098 329
50.75109 323
50.77121 294
50.79132 336
50.81143 294
50.83155 330
50.85166 327
50.87178 316
50.89189 330
50.912 291
50.93212 286
50.95223 319
50.97234 305
50.99246 343
51.01257 321
51.03269 322
51.0528 337
51.07291 304
51.09303 323
51.11314 319
51.13325 324
51.15337 274
51.17348 274
51.1936 332
51.21371 298
51.23382 324
51.25394 266
51.27405 277
51.29416 297
51.31428 280
51.33439 290
51.3545 278
51.37462 311
51.39473 265
51.41485 240
51.43496 262
51.45507 283
51.47519 256
51.4953 271
51.51541 276
51.53553 296
51.55564 270
51.57576 273
51.59587 273
51.61598 257
51.6361 238
51.65621 294
51.67632 295
51.69644 277
51.71655 265
51.73667 267
51.75678 272
51.77689 263
51.79701 280
51.81712 265
51.83723 250
51.85735 280
51.87746 278
51.89757 300
51.91769 285
51.9378 298
51.95792 262
51.97803 294
51.99814 261
52.01826 263
52.03837 259
52.05848 301
52.0786 258
52.09871 285
52.11883 276
52.13894 286
52.15905 278
52.17917 280
52.19928 281
52.21939 282
52.23951 284
52.25962 304
52.27974 286
52.29985 296
52.31996 283
52.34008 280
52.36019 278
52.3803 312
52.40042 288
52.42053 274
52.44064 275
52.46076 286
52.48087 309
52.50099 267
52.5211 275
52.54121 291
52.56133 315
52.58144 266
52.60155 278
52.62167 281
52.64178 276
52.6619 282
52.68201 282
52.70212 328
52.72224 286
52.74235 289
52.76246 295
52.78258 285
52.80269 309
52.8228 301
52.84292 303
52.86303 287
52.88315 306
52.90326 316
52.92337 265
52.94349 304
52.9636 324
52.98371 352
53.00383 330
53.02394 323
53.04406 279
53.06417 343
53.08428 311
53.1044 298
53.12451 310
53.14462 306
53.16474 350
53.18485 312
53.20497 319
53.22508 311
53.24519 316
53.26531 349
53.28542 315
53.30553 316
53.32565 313
53.34576 330
53.36587 327
53.38599 316
53.4061 327
53.42622 345
53.44633 339
53.46644 337
53.48656 357
53.50667 324
53.52678 341
53.5469 326
53.56701 345
53.58713 328
53.60724 374
53.62735 337
53.64747 322
53.66758 350
53.68769 337
53.70781 365
53.72792 314
53.74804 340
53.76815 360
53.78826 355
53.80838 345
53.82849 344
53.8486 333
53.86872 327
53.88883 351
53.90894 297
53.92906 355
53.94917 340
53.96929 335
53.9894 342
54.00951 385
54.02963 356
54.04974 369
54.06985 361
54.08997 350
54.11008 341
54.1302 324
54.15031 348
54.17042 363
54.19054 355
54.21065 331
54.23076 349
54.25088 390
54.27099 364
54.29111 372
54.31122 351
54.33133 367
54.35145 362
54.37156 392
54.39167 383
54.41179 379
54.4319 396
54.45201 383
54.47213 363
54.49224 368
54.51236 421
54.53247 345
54.55258 381
54.5727 397
54.59281 403
54.61292 405
54.63304 376
54.65315 435
54.67327 461
54.69338 531
54.71349 599
54.73361 593
54.75372 755
54.77383 772
54.79395 805
54.81406 801
54.83417 718
54.85429 730
54.8744 681
54.89452 613
54.91463 651
54.93474 566
54.95486 583
54.97497 527
54.99508 515
55.0152 541
55.03531 505
55.05543 463
55.07554 442
55.09565 441
55.11577 417
55.13588 443
55.15599 446
55.17611 496
55.19622 502
55.21634 530
55.23645 533
55.25656 589
55.27668 550
55.29679 564
55.3169 486
55.33702 465
55.35713 476
55.37724 466
55.39736 436
55.41747 466
55.43759 409
55.4577 431
55.47781 392
55.49793 403
55.51804 391
55.53815 359
55.55827 366
55.57838 311
55.5985 364
55.61861 355
55.63872 367
55.65884 352
55.67895 404
55.69906 370
55.71918 339
55.73929 366
55.75941 373
55.77952 343
55.79963 360
55.81975 370
55.83986 350
55.85997 331
55.88009 343
55.9002 359
55.92031 325
55.94043 348
55.96054 339
55.98066 327
56.00077 313
56.02088 311
56.041 316
56.06111 368
56.08122 320
56.10134 294
56.12145 364
56.14157 311
56.16168 294
56.18179 340
56.20191 334
56.22202 292
56.24213 319
56.26225 330
56.28236 323
56.30248 298
56.32259 327
56.3427 314
56.36282 314
56.38293 314
56.40304 309
56.42316 335
56.44327 301
56.46338 341
56.4835 308
56.50361 305
56.52373 320
56.54384 309
56.56395 346
56.58407 306
56.60418 312
56.62429 295
56.64441 302
56.66452 329
56.68464 334
56.70475 299
56.72486 336
56.74498 325
56.76509 325
56.7852 305
56.80532 315
56.82543 296
56.84554 325
56.86566 290
56.88577 304
56.90589 296
56.926 318
56.94611 268
56.96623 287
56.98634 297
57.00645 312
57.02657 273
57.04668 304
57.0668 322
57.08691 291
57.10702 311
57.12714 364
57.14725 328
57.16736 312
57.18748 279
57.20759 304
57.22771 342
57.24782 322
57.26793 329
57.28805 309
57.30816 310
57.32827 332
57.34839 325
57.3685 324
57.38861 317
57.40873 318
57.42884 304
57.44896 307
57.46907 295
57.48918 298
57.5093 304
57.52941 336
57.54952 313
57.56964 294
57.58975 283
57.60987 268
57.62998 268
57.65009 272
57.67021 276
57.69032 277
57.71043 270
57.73055 294
57.75066 320
57.77078 278
57.79089 286
57.811 317
57.83112 288
57.85123 281
57.87134 310
57.89146 308
57.91157 284
57.93168 294
57.9518 275
57.97191 307
57.99203 315
58.01214 315
58.03225 297
58.05237 309
58.07248 306
58.09259 283
58.11271 289
58.13282 280
58.15294 305
58.17305 299
58.19316 295
58.21328 299
58.23339 308
58.2535 282
58.27362 289
58.29373 330
58.31385 314
58.33396 284
58.35407 305
58.37419 291
58.3943 275
58.41441 310
58.43453 309
58.45464 323
58.47475 309
58.49487 304
58.51498 282
58.5351 310
58.55521 315
58.57532 309
58.59544 301
58.61555 323
58.63566 309
58.65578 278
58.67589 319
58.69601 290
58.71612 298
58.73623 304
58.75635 320
58.77646 262
58.79657 255
58.81669 283
58.8368 298
58.85691 325
58.87703 288
58.89714 290
58.91726 314
58.93737 272
58.95748 315
58.9776 310
58.99771 314
59.01782 321
59.03794 301
59.05805 302
59.07817 276
59.09828 288
59.11839 307
59.13851 342
59.15862 336
59.17873 292
59.19885 336
59.21896 304
59.23908 307
59.25919 311
59.2793 293
59.29942 323
59.31953 325
59.33964 307
59.35976 295
59.37987 312
59.39998 335
59.4201 347
59.44021 321
59.46033 306
59.48044 372
59.50055 328
59.52067 341
59.54078 350
59.56089 369
59.58101 374
59.60112 408
59.62124 411
59.64135 357
59.66146 416
59.68158 502
59.70169 518
59.7218 600
59.74192 700
59.76203 694
59.78215 830
59.80226 905
59.82237 1036
59.84249 1173
59.8626 1227
59.88271 1321
59.90283 1249
59.92294 1116
59.94305 1113
59.96317 967
59.98328 858
60.0034 832
60.02351 832
60.04362 833
60.06374 796
60.08385 711
60.10396 631
60.12408 540
60.14419 439
60.16431 448
60.18442 383
60.20453 358
60.22465 360
60.24476 334
60.26487 390
60.28499 344
60.3051 376
60.32522 361
60.34533 346
60.36544 342
60.38556 373
60.40567 358
60.42578 319
60.4459 340
60.46601 303
60.48612 319
60.50624 332
60.52635 336
60.54647 341
60.56658 325
60.58669 333
60.60681 331
60.62692 323
60.64703 328
60.66715 323
60.68726 315
60.70738 334
60.72749 328
60.7476 337
60.76772 333
60.78783 324
60.80794 329
60.82806 316
60.84817 312
60.86828 289
60.8884 315
60.90851 307
60.92863 333
60.94874 312
60.96885 340
60.98897 343
61.00908 298
61.02919 282
61.04931 330
61.06942 341
61.08954 350
61.10965 336
61.12976 335
61.14988 300
61.16999 375
61.1901 354
61.21022 337
61.23033 357
61.25045 327
61.27056 346
61.29067 331
61.31079 384
61.3309 362
61.35101 396
61.37113 373
61.39124 390
61.41135 391
61.43147 398
61.45158 390
61.4717 417
61.49181 425
61.51192 421
61.53204 420
61.55215 431
61.57226 432
61.59238 440
61.61249 416
61.63261 430
61.65272 426
61.67283 390
61.69295 405
61.71306 413
61.73317 388
61.75329 422
61.7734 385
61.79352 394
61.81363 394
61.83374 382
61.85386 424
61.87397 394
61.89408 377
61.9142 389
61.93431 356
61.95442 391
61.97454 411
61.99465 401
62.01477 387
62.03488 376
62.05499 381
62.07511 393
62.09522 378
62.11533 407
62.13545 365
62.15556 365
62.17568 385
62.19579 393
62.2159 365
62.23602 345
62.25613 366
62.27624 394
62.29636 385
62.31647 366
62.33659 329
62.3567 348
62.37681 373
62.39693 349
62.41704 361
62.43715 339
62.45727 353
62.47738 344
62.49749 340
62.51761 345
62.53772 314
62.55784 309
62.57795 318
62.59806 313
62.61818 328
62.63829 335
62.6584 329
62.67852 281
62.69863 274
62.71875 320
62.73886 306
62.75897 304
62.77909 300
62.7992 291
62.81931 304
62.83943 298
62.85954 327
62.87965 328
62.89977 320
62.91988 295
62.94 312
62.96011 308
62.98022 271
63.00034 293
63.02045 288
63.04056 279
63.06068 295
63.08079 318
63.10091 296
63.12102 316
63.14113 316
63.16125 276
63.18136 277
63.20147 282
63.22159 299
63.2417 315
63.26182 293
63.28193 289
63.30204 322
63.32216 318
63.34227 298
63.36238 329
63.3825 279
63.40261 327
63.42272 295
63.44284 299
63.46295 311
63.48307 301
63.50318 313
63.52329 307
63.54341 317
63.56352 317
63.58363 313
63.60375 339
63.62386 311
63.64398 330
63.66409 311
63.6842 318
63.70432 335
63.72443 355
63.74454 335
63.76466 339
63.78477 343
63.80489 348
63.825 405
63.84511 390
63.86523 400
63.88534 448
63.90545 434
63.92557 453
63.94568 510
63.96579 547
63.98591 504
64.00602 458
64.02614 423
64.04625 407
64.06636 422
64.08648 408
64.10659 419
64.1267 429
64.14682 368
64.16693 395
64.18705 346
64.20716 364
64.22727 322
64.24739 329
64.2675 302
64.28761 301
64.30773 293
64.32784 324
64.34796 296
64.36807 292
64.38818 291
64.4083 293
64.42841 304
64.44852 312
64.46864 273
64.48875 289
64.50886 297
64.52898 262
64.54909 274
64.56921 267
64.58932 287
64.60943 271
64.62955 280
64.64966 273
64.66977 274
64.68989 316
64.71 279
64.73012 278
64.75023 278
64.77034 299
64.79046 279
64.81057 287
64.83068 285
64.8508 273
64.87091 286
64.89102 324
64.91114 291
64.93125 306
64.95137 278
64.97148 290
64.99159 288
65.01171 284
65.03182 300
65.05193 270
65.07205 286
65.09216 287
65.11228 320
65.13239 319
65.1525 306
65.17262 300
65.19273 306
65.21284 313
65.23296 313
65.25307 258
65.27319 314
65.2933 279
65.31341 285
65.33353 302
65.35364 278
65.37375 295
65.39387 303
65.41398 294
65.43409 284
65.45421 299
65.47432 269
65.49444 296
65.51455 278
65.53466 308
65.55478 297
65.57489 279
65.595 310
65.61512 315
65.63523 324
65.65535 309
65.67546 312
65.69557 349
65.71569 320
65.7358 329
65.75591 304
65.77603 301
65.79614 294
65.81626 292
65.83637 330
65.85648 278
65.8766 259
65.89671 299
65.91682 325
65.93694 309
65.95705 286
65.97716 317
65.99728 293
66.01739 246
66.03751 235
66.05762 293
66.07773 292
66.09785 287
66.11796 295
66.13807 281
66.15819 292
66.1783 300
66.19842 283
66.21853 287
66.23864 296
66.25876 277
66.27887 300
66.29898 303
66.3191 319
66.33921 257
66.35933 296
66.37944 280
66.39955 295
66.41967 291
66.43978 292
66.45989 290
66.48001 291
66.50012 276
66.52023 290
66.54035 268
66.56046 263
66.58058 255
66.60069 277
66.6208 286
66.64092 276
66.66103 286
66.68114 257
66.70126 278
66.72137 258
66.74149 297
66.7616 293
66.78171 264
66.80183 311
66.82194 281
66.84205 290
66.86217 277
66.88228 293
66.90239 268
66.92251 309
66.94262 279
66.96274 284
66.98285 294
67.00296 290
67.02308 254
67.04319 303
67.0633 308
67.08342 273
67.10353 297
67.12365 295
67.14376 318
67.16387 318
67.18399 287
67.2041 283
67.22421 304
67.24433 311
67.26444 333
67.28456 328
67.30467 301
67.32478 340
67.3449 319
67.36501 345
67.38512 342
67.40524 332
67.42535 349
67.44546 362
67.46558 401
67.48569 414
67.50581 459
67.52592 493
67.54603 558
67.56615 612
67.58626 697
67.60637 669
67.62649 820
67.6466 865
67.66672 929
67.68683 885
67.70694 838
67.72706 764
67.74717 687
67.76728 615
67.7874 653
67.80751 639
67.82763 709
67.84774 721
67.86785 715
67.88797 741
67.90808 737
67.92819 706
67.94831 734
67.96842 760
67.98853 834
68.00865 923
68.02876 997
68.04888 1090
68.06899 1075
68.0891 1088
68.10922 1113
68.12933 1022
68.14944 987
68.16956 964
68.18967 1019
68.20979 1062
68.2299 1055
68.25001 1051
68.27013 1017
68.29024 958
68.31035 805
68.33047 721
68.35058 657
68.3707 545
68.39081 595
68.41092 535
68.43104 571
68.45115 546
68.47126 450
68.49138 443
68.51149 412
68.5316 366
68.55172 329
68.57183 352
68.59195 317
68.61206 332
68.63217 310
68.65229 290
68.6724 308
68.69251 300
68.71263 306
68.73274 317
68.75286 324
68.77297 315
68.79308 315
68.8132 279
68.83331 308
68.85342 314
68.87354 316
68.89365 319
68.91376 278
68.93388 297
68.95399 307
68.97411 310
68.99422 279
69.01433 295
69.03445 309
69.05456 284
69.07467 289
69.09479 300
69.1149 308
69.13502 293
69.15513 301
69.17524 309
69.19536 284
69.21547 305
69.23558 308
69.2557 320
69.27581 297
69.29593 289
69.31604 324
69.33615 293
69.35627 301
69.37638 308
69.39649 292
69.41661 311
69.43672 306
69.45683 323
69.47695 293
69.49706 328
69.51718 328
69.53729 308
69.5574 284
69.57752 328
69.59763 322
69.61774 283
69.63786 300
69.65797 285
69.67809 271
69.6982 278
69.71831 284
69.73843 308
69.75854 322
69.77865 282
69.79877 287
69.81888 290
69.839 262
69.85911 288
69.87922 274
69.89934 300
69.91945 319
69.93956 251
69.95968 329
69.97979 307
69.9999 326
70.02002 282
70.04013 268
70.06025 303
70.08036 310
70.10047 287
70.12059 309
70.1407 269
70.16081 269
70.18093 306
70.20104 302
70.22116 287
70.24127 281
70.26138 273
70.2815 287
70.30161 292
70.32172 285
70.34184 302
70.36195 310
70.38207 274
70.40218 272
70.42229 273
70.44241 253
70.46252 301
70.48263 270
70.50275 270
70.52286 302
70.54297 310
70.56309 271
70.5832 257
70.60332 275
70.62343 281
70.64354 285
70.66366 267
70.68377 290
70.70388 264
70.724 248
70.74411 312
70.76423 266
70.78434 283
70.80445 284
70.82457 264
70.84468 291
70.86479 269
70.88491 278
70.90502 275
70.92513 253
70.94525 265
70.96536 270
70.98548 276
71.00559 281
71.0257 288
71.04582 253
71.06593 266
71.08604 268
71.10616 276
71.12627 273
71.14639 267
71.1665 243
71.18661 260
71.20673 283
71.22684 309
71.24695 239
71.26707 276
71.28718 270
71.3073 274
71.32741 259
71.34752 277
71.36764 277
71.38775 280
71.40786 278
71.42798 308
71.44809 296
71.4682 274
71.48832 259
71.50843 267
71.52855 270
71.54866 263
71.56877 284
71.58889 261
71.609 280
71.62911 272
71.64923 284
71.66934 288
71.68946 263
71.70957 248
71.72968 287
71.7498 319
71.76991 246
71.79002 276
71.81014 267
71.83025 286
71.85037 295
71.87048 284
71.89059 287
71.91071 295
71.93082 284
71.95093 276
71.97105 282
71.99116 312
72.01127 297
72.03139 278
72.0515 282
72.07162 280
72.09173 265
72.11184 299
72.13196 290
72.15207 305
72.17218 316
72.1923 298
72.21241 289
72.23253 304
72.25264 310
72.27275 323
72.29287 301
72.31298 283
72.33309 326
72.35321 333
72.37332 273
72.39344 334
72.41355 299
72.43366 304
72.45378 286
72.47389 301
72.494 287
72.51412 297
72.53423 322
72.55434 310
72.57446 294
72.59457 286
72.61469 331
72.6348 331
72.65491 307
72.67503 291
72.69514 291
72.71525 309
72.73537 293
72.75548 301
72.7756 293
72.79571 292
72.81582 312
72.83594 304
72.85605 301
72.87616 329
72.89628 317
72.91639 297
72.9365 297
72.95662 285
72.97673 307
72.99685 310
73.01696 329
73.03707 317
73.05719 310
73.0773 324
73.09741 327
73.11753 321
73.13764 318
73.15776 340
73.17787 347
73.19798 336
73.2181 376
73.23821 338
73.25832 378
73.27844 384
73.29855 417
73.31867 472
73.33878 460
73.35889 507
73.37901 511
73.39912 505
73.41923 521
73.43935 472
73.45946 432
73.47957 410
73.49969 369
73.5198 412
73.53992 376
73.56003 422
73.58014 434
73.60026 390
73.62037 408
73.64048 422
73.6606 369
73.68071 353
73.70083 337
73.72094 320
73.74105 282
73.76117 309
73.78128 276
73.80139 304
73.82151 311
73.84162 301
73.86174 307
73.88185 322
73.90196 285
73.92208 283
73.94219 292
73.9623 293
73.98242 312
74.00253 275
74.02264 269
74.04276 279
74.06287 292
74.08299 285
74.1031 316
74.12321 265
74.14333 268
74.16344 282
74.18355 294
74.20367 241
74.22378 304
74.2439 268
74.26401 289
74.28412 264
74.30424 287
74.32435 250
74.34446 257
74.36458 296
74.38469 301
74.40481 311
74.42492 299
74.44503 260
74.46515 299
74.48526 284
74.50537 278
74.52549 314
74.5456 306
74.56571 288
74.58583 279
74.60594 283
74.62606 294
74.64617 262
74.66628 299
74.6864 316
74.70651 281
74.72662 311
74.74674 304
74.76685 287
74.78697 257
74.80708 270
74.82719 297
74.84731 255
74.86742 265
74.88753 273
74.90765 289
74.92776 276
74.94787 276
74.96799 267
74.9881 253
75.00822 270
