3.00117 20744
3.02128 20027
3.0414 19312
3.06151 18862
3.08162 18522
3.10174 18042
3.12185 17097
3.14197 16830
3.16208 16088
3.18219 15950
3.20231 15732
3.22242 14816
3.24253 14482
3.26265 14218
3.28276 13751
3.30288 13268
3.32299 12943
3.3431 12434
3.36322 12035
3.38333 11674
3.40344 11565
3.42356 10795
3.44367 10578
3.46379 10417
3.4839 10028
3.50401 9540
3.52413 9242
3.54424 9082
3.56435 8527
3.58447 8299
3.60458 8074
3.62469 7690
3.64481 7624
3.66492 7021
3.68504 7099
3.70515 6902
3.72526 6452
3.74538 6323
3.76549 5939
3.7856 5766
3.80572 5634
3.82583 5295
3.84595 5170
3.86606 4934
3.88617 4818
3.90629 4641
3.9264 4349
3.94651 4074
3.96663 3969
3.98674 3852
4.00686 3912
4.02697 3565
4.04708 3523
4.0672 3309
4.08731 3250
4.10742 3303
4.12754 2903
4.14765 2904
4.16776 2875
4.18788 2851
4.20799 2714
4.22811 2494
4.24822 2519
4.26833 2449
4.28845 2494
4.30856 2336
4.32867 2180
4.34879 2189
4.3689 2243
4.38902 2109
4.40913 2177
4.42924 1941
4.44936 2080
4.46947 2032
4.48958 1919
4.5097 1963
4.52981 1711
4.54992 1849
4.57004 1889
4.59015 1863
4.61027 1805
4.63038 1694
4.65049 1746
4.67061 1748
4.69072 1704
4.71083 1647
4.73095 1578
4.75106 1641
4.77118 1670
4.79129 1636
4.8114 1531
4.83152 1503
4.85163 1603
4.87174 1550
4.89186 1506
4.91197 1527
4.93209 1491
4.9522 1496
4.97231 1451
4.99243 1453
5.01254 1440
5.03265 1452
5.05277 1473
5.07288 1350
5.09299 1398
5.11311 1491
5.13322 1416
5.15334 1332
5.17345 1491
5.19356 1464
5.21368 1439
5.23379 1418
5.2539 1395
5.27402 1342
5.29413 1420
5.31425 1413
5.33436 1393
5.35447 1377
5.37459 1425
5.3947 1475
5.41481 1513
5.43493 1438
5.45504 1546
5.47516 1520
5.49527 1591
5.51538 1552
5.5355 1529
5.55561 1585
5.57572 1578
5.59584 1539
5.61595 1641
5.63606 1722
5.65618 1751
5.67629 1772
5.69641 1807
5.71652 1930
5.73663 1914
5.75675 1955
5.77686 2063
5.79697 2038
5.81709 2038
5.8372 2122
5.85732 2162
5.87743 2200
5.89754 2206
5.91766 2217
5.93777 2137
5.95788 2214
5.978 2073
5.99811 1915
6.01823 1999
6.03834 1839
6.05845 1769
6.07857 1813
6.09868 1741
6.11879 1641
6.13891 1648
6.15902 1504
6.17913 1538
6.19925 1526
6.21936 1444
6.23948 1297
6.25959 1374
6.2797 1233
6.29982 1228
6.31993 1206
6.34004 1291
6.36016 1211
6.38027 1141
6.40039 1222
6.4205 1062
6.44061 1194
6.46073 1107
6.48084 1052
6.50095 1064
6.52107 1048
6.54118 948
6.56129 959
6.58141 1000
6.60152 923
6.62164 992
6.64175 1018
6.66186 940
6.68198 920
6.70209 893
6.7222 875
6.74232 914
6.76243 901
6.78255 846
6.80266 914
6.82277 795
6.84289 816
6.863 821
6.88311 841
6.90323 763
6.92334 745
6.94346 801
6.96357 755
6.98368 771
7.0038 763
7.02391 772
7.04402 790
7.06414 680
7.08425 694
7.10436 747
7.12448 746
7.14459 690
7.16471 629
7.18482 704
7.20493 697
7.22505 666
7.24516 775
7.26527 654
7.28539 644
7.3055 634
7.32562 635
7.34573 658
7.36584 683
7.38596 657
7.40607 634
7.42618 644
7.4463 651
7.46641 641
7.48653 621
7.50664 639
7.52675 630
7.54687 609
7.56698 614
7.58709 637
7.60721 639
7.62732 553
7.64743 625
7.66755 669
7.68766 590
7.70778 596
7.72789 589
7.748 630
7.76812 614
7.78823 629
7.80834 637
7.82846 612
7.84857 604
7.86869 560
7.8888 552
7.90891 575
7.92903 573
7.94914 583
7.96925 541
7.98937 605
8.00948 613
8.0296 572
8.04971 543
8.06982 571
8.08994 560
8.11005 616
8.13016 565
8.15028 588
8.17039 563
8.1905 509
8.21062 585
8.23073 536
8.25085 540
8.27096 534
8.29107 601
8.31119 579
8.3313 523
8.35141 571
8.37153 593
8.39164 613
8.41176 523
8.43187 541
8.45198 562
8.4721 519
8.49221 573
8.51232 539
8.53244 550
8.55255 527
8.57266 565
8.59278 535
8.61289 576
8.63301 520
8.65312 555
8.67323 548
8.69335 527
8.71346 504
8.73357 550
8.75369 543
8.7738 526
8.79392 597
8.81403 532
8.83414 517
8.85426 509
8.87437 573
8.89448 550
8.9146 558
8.93471 551
8.95483 554
8.97494 526
8.99505 529
9.01517 511
9.03528 497
9.05539 527
9.07551 523
9.09562 527
9.11573 513
9.13585 520
9.15596 484
9.17608 508
9.19619 521
9.2163 525
9.23642 493
9.25653 490
9.27664 515
9.29676 493
9.31687 488
9.33699 535
9.3571 539
9.37721 541
9.39733 502
9.41744 512
9.43755 528
9.45767 537
9.47778 558
9.4979 511
9.51801 531
9.53812 505
9.55824 508
9.57835 524
9.59846 510
9.61858 503
9.63869 502
9.6588 498
9.67892 537
9.69903 581
9.71915 554
9.73926 571
9.75937 584
9.77949 595
9.7996 570
9.81971 650
9.83983 618
9.85994 599
9.88006 573
9.90017 513
9.92028 548
9.9404 509
9.96051 537
9.98062 499
10.00074 513
10.02085 517
10.04097 475
10.06108 523
10.08119 497
10.10131 478
10.12142 498
10.14153 472
10.16165 475
10.18176 511
10.20187 458
10.22199 527
10.2421 519
10.26222 555
10.28233 477
10.30244 466
10.32256 468
10.34267 484
10.36278 488
10.3829 494
10.40301 527
10.42313 514
10.44324 461
10.46335 500
10.48347 481
10.50358 543
10.52369 518
10.54381 440
10.56392 500
10.58403 475
10.60415 500
10.62426 511
10.64438 497
10.66449 494
10.6846 465
10.70472 502
10.72483 512
10.74494 531
10.76506 524
10.78517 511
10.80529 517
10.8254 535
10.84551 505
10.86563 475
10.88574 493
10.90585 518
10.92597 504
10.94608 523
10.9662 477
10.98631 528
11.00642 470
11.02654 541
11.04665 511
11.06676 478
11.08688 497
11.10699 513
11.1271 452
11.14722 556
11.16733 568
11.18745 487
11.20756 499
11.22767 568
11.24779 482
11.2679 502
11.28801 540
11.30813 535
11.32824 530
11.34836 478
11.36847 489
11.38858 519
11.4087 496
11.42881 507
11.44892 476
11.46904 574
11.48915 493
11.50927 523
11.52938 506
11.54949 523
11.56961 530
11.58972 537
11.60983 541
11.62995 534
11.65006 496
11.67017 543
11.69029 531
11.7104 546
11.73052 509
11.75063 548
11.77074 551
11.79086 543
11.81097 558
11.83108 488
11.8512 531
11.87131 520
11.89143 539
11.91154 493
11.93165 542
11.95177 514
11.97188 511
11.99199 534
12.01211 560
12.03222 517
12.05234 516
12.07245 510
12.09256 563
12.11268 532
12.13279 535
12.1529 527
12.17302 495
12.19313 508
12.21324 545
12.23336 492
12.25347 536
12.27359 505
12.2937 478
12.31381 563
12.33393 506
12.35404 502
12.37415 521
12.39427 498
12.41438 503
12.4345 512
12.45461 534
12.47472 485
12.49484 486
12.51495 502
12.53506 489
12.55518 510
12.57529 462
12.5954 511
12.61552 475
12.63563 493
12.65575 495
12.67586 459
12.69597 482
12.71609 479
12.7362 467
12.75631 449
12.77643 475
12.79654 466
12.81666 445
12.83677 496
12.85688 492
12.877 490
12.89711 478
12.91722 464
12.93734 488
12.95745 481
12.97757 474
12.99768 491
13.01779 478
13.03791 483
13.05802 495
13.07813 450
13.09825 464
13.11836 493
13.13847 451
13.15859 467
13.1787 488
13.19882 475
13.21893 481
13.23904 463
13.25916 490
13.27927 467
13.29938 459
13.3195 491
13.33961 467
13.35973 481
13.37984 497
13.39995 477
13.42007 462
13.44018 504
13.46029 488
13.48041 447
13.50052 505
13.52064 473
13.54075 468
13.56086 512
13.58098 543
13.60109 532
13.6212 512
13.64132 483
13.66143 513
13.68154 554
13.70166 509
13.72177 499
13.74189 528
13.762 500
13.78211 515
13.80223 497
13.82234 485
13.84245 479
13.86257 434
13.88268 436
13.9028 455
13.92291 471
13.94302 442
13.96314 425
13.98325 457
14.00336 468
14.02348 443
14.04359 456
14.06371 444
14.08382 447
14.10393 459
14.12405 477
14.14416 440
14.16427 415
14.18439 460
14.2045 505
14.22461 434
14.24473 396
14.26484 434
14.28496 472
14.30507 468
14.32518 434
14.3453 420
14.36541 431
14.38552 440
14.40564 462
14.42575 472
14.44587 446
14.46598 491
14.48609 443
14.50621 424
14.52632 438
14.54643 439
14.56655 435
14.58666 434
14.60677 456
14.62689 479
14.647 411
14.66712 442
14.68723 460
14.70734 443
14.72746 439
14.74757 438
14.76768 411
14.7878 460
14.80791 465
14.82803 475
14.84814 500
14.86825 463
14.88837 445
14.90848 429
14.92859 420
14.94871 453
14.96882 432
14.98894 445
15.00905 468
15.02916 472
15.04928 456
15.06939 478
15.0895 434
15.10962 499
15.12973 444
15.14984 432
15.16996 495
15.19007 486
15.21019 484
15.2303 503
15.25041 448
15.27053 459
15.29064 454
15.31075 432
15.33087 431
15.35098 458
15.3711 461
15.39121 450
15.41132 429
15.43144 446
15.45155 483
15.47166 413
15.49178 455
15.51189 432
15.53201 482
15.55212 421
15.57223 425
15.59235 417
15.61246 444
15.63257 454
15.65269 441
15.6728 466
15.69291 457
15.71303 465
15.73314 460
15.75326 433
15.77337 476
15.79348 443
15.8136 434
15.83371 507
15.85382 425
15.87394 471
15.89405 407
15.91417 459
15.93428 428
15.95439 447
15.97451 446
15.99462 455
16.01473 455
16.03485 431
16.05496 480
16.07508 393
16.09519 410
16.1153 455
16.13542 497
16.15553 469
16.17564 451
16.19576 435
16.21587 419
16.23598 476
16.2561 469
16.27621 420
16.29633 428
16.31644 437
16.33655 457
16.35667 428
16.37678 400
16.39689 435
16.41701 446
16.43712 452
16.45724 486
16.47735 423
16.49746 450
16.51758 440
16.53769 483
16.5578 472
16.57792 475
16.59803 493
16.61814 462
16.63826 466
16.65837 454
16.67849 505
16.6986 470
16.71871 492
16.73883 467
16.75894 432
16.77905 442
16.79917 480
16.81928 452
16.8394 435
16.85951 495
16.87962 451
16.89974 485
16.91985 460
16.93996 460
16.96008 452
16.98019 465
17.00031 464
17.02042 457
17.04053 445
17.06065 435
17.08076 473
17.10087 429
17.12099 445
17.1411 462
17.16121 423
17.18133 477
17.20144 488
17.22156 511
17.24167 469
17.26178 447
17.2819 422
17.30201 466
17.32212 451
17.34224 458
17.36235 469
17.38247 464
17.40258 487
17.42269 452
17.44281 488
17.46292 496
17.48303 463
17.50315 483
17.52326 479
17.54338 428
17.56349 448
17.5836 478
17.60372 477
17.62383 435
17.64394 441
17.66406 461
17.68417 469
17.70428 502
17.7244 480
17.74451 473
17.76463 459
17.78474 481
17.80485 424
17.82497 454
17.84508 475
17.86519 425
17.88531 484
17.90542 462
17.92554 484
17.94565 508
17.96576 453
17.98588 472
18.00599 443
18.0261 433
18.04622 481
18.06633 457
18.08645 455
18.10656 447
18.12667 454
18.14679 459
18.1669 473
18.18701 505
18.20713 530
18.22724 505
18.24735 486
18.26747 493
18.28758 521
18.3077 474
18.32781 491
18.34792 458
18.36804 478
18.38815 505
18.40826 423
18.42838 449
18.44849 504
18.46861 434
18.48872 471
18.50883 460
18.52895 496
18.54906 477
18.56917 493
18.58929 488
18.6094 481
18.62951 444
18.64963 453
18.66974 477
18.68986 456
18.70997 498
18.73008 497
18.7502 524
18.77031 465
18.79042 497
18.81054 510
18.83065 483
18.85077 476
18.87088 515
18.89099 530
18.91111 521
18.93122 503
18.95133 532
18.97145 550
18.99156 524
19.01168 564
19.03179 486
19.0519 555
19.07202 508
19.09213 541
19.11224 526
19.13236 577
19.15247 509
19.17258 529
19.1927 556
19.21281 544
19.23293 627
19.25304 632
19.27315 669
19.29327 638
19.31338 638
19.33349 670
19.35361 685
19.37372 706
19.39384 687
19.41395 729
19.43406 705
19.45418 699
19.47429 724
19.4944 772
19.51452 778
19.53463 765
19.55475 828
19.57486 749
19.59497 783
19.61509 803
19.6352 802
19.65531 825
19.67543 844
19.69554 739
19.71565 858
19.73577 895
19.75588 820
19.776 860
19.79611 834
19.81622 850
19.83634 810
19.85645 807
19.87656 827
19.89668 887
19.91679 821
19.93691 791
19.95702 818
19.97713 807
19.99725 827
20.01736 776
20.03747 782
20.05759 757
20.0777 787
20.09782 745
20.11793 760
20.13804 736
20.15816 736
20.17827 665
20.19838 740
20.2185 778
20.23861 751
20.25872 777
20.27884 760
20.29895 701
20.31907 696
20.33918 725
20.35929 724
20.37941 714
20.39952 731
20.41963 714
20.43975 677
20.45986 683
20.47998 708
20.50009 660
20.5202 725
20.54032 733
20.56043 682
20.58054 704
20.60066 723
20.62077 673
20.64088 706
20.661 719
20.68111 710
20.70123 667
20.72134 753
20.74145 749
20.76157 760
20.78168 730
20.80179 804
20.82191 821
20.84202 756
20.86214 794
20.88225 831
20.90236 770
20.92248 788
20.94259 726
20.9627 728
20.98282 719
21.00293 722
21.02305 727
21.04316 625
21.06327 718
21.08339 683
21.1035 651
21.12361 691
21.14373 619
21.16384 693
21.18395 679
21.20407 667
21.22418 663
21.2443 672
21.26441 650
21.28452 680
21.30464 662
21.32475 607
21.34486 651
21.36498 647
21.38509 609
21.40521 650
21.42532 607
21.44543 634
21.46555 649
21.48566 635
21.50577 660
21.52589 673
21.546 630
21.56612 630
21.58623 645
21.60634 676
21.62646 610
21.64657 659
21.66668 632
21.6868 656
21.70691 631
21.72702 666
21.74714 661
21.76725 687
21.78737 719
21.80748 718
21.82759 819
21.84771 820
21.86782 893
21.88793 910
21.90805 924
21.92816 939
21.94828 997
21.96839 908
21.9885 784
22.00862 783
22.02873 757
22.04884 687
22.06896 608
22.08907 675
22.10919 640
22.1293 652
22.14941 643
22.16953 614
22.18964 650
22.20975 652
22.22987 648
22.24998 622
22.27009 638
22.29021 636
22.31032 681
22.33044 686
22.35055 684
22.37066 674
22.39078 669
22.41089 673
22.431 674
22.45112 671
22.47123 676
22.49135 662
22.51146 687
22.53157 676
22.55169 685
22.5718 604
22.59191 617
22.61203 610
22.63214 644
22.65225 639
22.67237 661
22.69248 673
22.7126 642
22.73271 638
22.75282 643
22.77294 695
22.79305 683
22.81316 692
22.83328 673
22.85339 651
22.87351 676
22.89362 602
22.91373 587
22.93385 625
22.95396 560
22.97407 600
22.99419 607
23.0143 600
23.03442 607
23.05453 580
23.07464 571
23.09476 593
23.11487 622
23.13498 567
23.1551 613
23.17521 626
23.19532 580
23.21544 596
23.23555 575
23.25567 616
23.27578 594
23.29589 609
23.31601 667
23.33612 655
23.35623 621
23.37635 645
23.39646 648
23.41658 676
23.43669 696
23.4568 727
23.47692 776
23.49703 793
23.51714 819
23.53726 793
23.55737 805
23.57749 933
23.5976 904
23.61771 848
23.63783 867
23.65794 924
23.67805 861
23.69817 796
23.71828 781
23.73839 817
23.75851 744
23.77862 737
23.79874 755
23.81885 707
23.83896 735
23.85908 767
23.87919 815
23.8993 795
23.91942 698
23.93953 730
23.95965 724
23.97976 739
23.99987 705
24.01999 700
24.0401 643
24.06021 650
24.08033 688
24.10044 664
24.12056 641
24.14067 669
24.16078 671
24.1809 693
24.20101 632
24.22112 699
24.24124 698
24.26135 649
24.28146 727
24.30158 693
24.32169 742
24.34181 802
24.36192 816
24.38203 816
24.40215 777
24.42226 787
24.44237 713
24.46249 723
24.4826 706
24.50272 678
24.52283 668
24.54294 629
24.56306 664
24.58317 677
24.60328 622
24.6234 618
24.64351 602
24.66362 674
24.68374 637
24.70385 565
24.72397 621
24.74408 624
24.76419 603
24.78431 623
24.80442 620
24.82453 592
24.84465 648
24.86476 616
24.88488 628
24.90499 628
24.9251 648
24.94522 614
24.96533 659
24.98544 670
25.00556 581
25.02567 617
25.04579 659
25.0659 636
25.08601 569
25.10613 686
25.12624 586
25.14635 624
25.16647 622
25.18658 641
25.20669 613
25.22681 657
25.24692 599
25.26704 626
25.28715 596
25.30726 566
25.32738 588
25.34749 561
25.3676 634
25.38772 583
25.40783 624
25.42795 599
25.44806 616
25.46817 587
25.48829 613
25.5084 580
25.52851 611
25.54863 673
25.56874 634
25.58886 691
25.60897 673
25.62908 684
25.6492 712
25.66931 690
25.68942 696
25.70954 706
25.72965 665
25.74976 642
25.76988 666
25.78999 661
25.81011 650
25.83022 591
25.85033 610
25.87045 635
25.89056 640
25.91067 640
25.93079 658
25.9509 639
25.97102 607
25.99113 679
26.01124 622
26.03136 555
26.05147 649
26.07158 599
26.0917 606
26.11181 591
26.13193 602
26.15204 591
26.17215 634
26.19227 650
26.21238 579
26.23249 617
26.25261 619
26.27272 629
26.29283 628
26.31295 624
26.33306 660
26.35318 713
26.37329 731
26.3934 671
26.41352 741
26.43363 767
26.45374 746
26.47386 824
26.49397 885
26.51409 904
26.5342 1087
26.55431 1038
26.57443 1129
26.59454 1127
26.61465 1124
26.63477 1085
26.65488 993
26.67499 913
26.69511 866
26.71522 837
26.73534 756
26.75545 801
26.77556 753
26.79568 696
26.81579 757
26.8359 722
26.85602 669
26.87613 696
26.89625 733
26.91636 702
26.93647 639
26.95659 693
26.9767 652
26.99681 647
27.01693 637
27.03704 653
27.05716 654
27.07727 673
27.09738 691
27.1175 613
27.13761 648
27.15772 653
27.17784 614
27.19795 637
27.21806 601
27.23818 667
27.25829 662
27.27841 622
27.29852 643
27.31863 710
27.33875 660
27.35886 692
27.37897 707
27.39909 782
27.4192 796
27.43932 816
27.45943 836
27.47954 905
27.49966 904
27.51977 970
27.53988 1036
27.56 992
27.58011 1025
27.60023 1067
27.62034 1104
27.64045 1128
27.66057 1128
27.68068 1189
27.70079 1253
27.72091 1277
27.74102 1167
27.76113 1212
27.78125 1113
27.80136 1143
27.82148 975
27.84159 913
27.8617 950
27.88182 927
27.90193 994
27.92204 968
27.94216 1035
27.96227 1121
27.98239 1028
28.0025 1047
28.02261 867
28.04273 919
28.06284 791
28.08295 682
28.10307 675
28.12318 657
28.1433 583
28.16341 644
28.18352 607
28.20364 637
28.22375 620
28.24386 643
28.26398 608
28.28409 692
28.3042 663
28.32432 692
28.34443 713
28.36455 694
28.38466 696
28.40477 630
28.42489 612
28.445 618
28.46511 627
28.48523 590
28.50534 594
28.52546 569
28.54557 565
28.56568 563
28.5858 549
28.60591 554
28.62602 555
28.64614 559
28.66625 548
28.68636 504
28.70648 531
28.72659 547
28.74671 539
28.76682 548
28.78693 574
28.80705 532
28.82716 538
28.84727 503
28.86739 567
28.8875 573
28.90762 579
28.92773 589
28.94784 548
28.96796 554
28.98807 592
29.00818 587
29.0283 566
29.04841 552
29.06853 561
29.08864 576
29.10875 543
29.12887 564
29.14898 539
29.16909 560
29.18921 541
29.20932 521
29.22943 546
29.24955 604
29.26966 519
29.28978 528
29.30989 558
29.33 553
29.35012 589
29.37023 624
29.39034 559
29.41046 637
29.43057 581
29.45069 604
29.4708 697
29.49091 679
29.51103 690
29.53114 717
29.55125 661
29.57137 658
29.59148 670
29.6116 737
29.63171 746
29.65182 768
29.67194 761
29.69205 839
29.71216 850
29.73228 761
29.75239 762
29.7725 780
29.79262 732
29.81273 679
29.83285 781
29.85296 658
29.87307 642
29.89319 696
29.9133 624
29.93341 677
29.95353 626
29.97364 661
29.99376 608
30.01387 625
30.03398 658
30.0541 628
30.07421 642
30.09432 633
30.11444 652
30.13455 689
30.15467 722
30.17478 705
30.19489 730
30.21501 738
30.23512 754
30.25523 767
30.27535 760
30.29546 688
30.31557 731
30.33569 685
30.3558 759
30.37592 712
30.39603 745
30.41614 644
30.43626 700
30.45637 659
30.47648 676
30.4966 635
30.51671 661
30.53683 639
30.55694 655
30.57705 685
30.59717 626
30.61728 663
30.63739 658
30.65751 654
30.67762 665
30.69773 673
30.71785 644
30.73796 604
30.75808 630
30.77819 647
30.7983 584
30.81842 617
30.83853 570
30.85864 590
30.87876 555
30.89887 555
30.91899 586
30.9391 534
30.95921 538
30.97933 573
30.99944 584
31.01955 527
31.03967 518
31.05978 503
31.0799 531
31.10001 540
31.12012 544
31.14024 477
31.16035 507
31.18046 503
31.20058 539
31.22069 556
31.2408 545
31.26092 548
31.28103 541
31.30115 536
31.32126 567
31.34137 513
31.36149 584
31.3816 554
31.40171 618
31.42183 563
31.44194 566
31.46206 561
31.48217 544
31.50228 550
31.5224 556
31.54251 527
31.56262 560
31.58274 522
31.60285 504
31.62297 547
31.64308 577
31.66319 512
31.68331 549
31.70342 559
31.72353 571
31.74365 526
31.76376 564
31.78387 518
31.80399 520
31.8241 612
31.84422 582
31.86433 610
31.88444 608
31.90456 627
31.92467 544
31.94478 546
31.9649 540
31.98501 543
32.00513 536
32.02524 525
32.04535 572
32.06547 516
32.08558 551
32.10569 534
32.12581 518
32.14592 547
32.16604 548
32.18615 505
32.20626 494
32.22638 556
32.24649 540
32.2666 575
32.28672 510
32.30683 564
32.32694 586
32.34706 560
32.36717 553
32.38729 545
32.4074 562
32.42751 576
32.44763 594
32.46774 575
32.48785 618
32.50797 654
32.52808 712
32.5482 748
32.56831 726
32.58842 735
32.60854 814
32.62865 780
32.64876 769
32.66888 744
32.68899 723
32.7091 694
32.72922 686
32.74933 650
32.76945 641
32.78956 624
32.80967 594
32.82979 601
32.8499 575
32.87001 548
32.89013 574
32.91024 504
32.93036 568
32.95047 493
32.97058 534
32.9907 543
33.01081 529
33.03092 572
33.05104 544
33.07115 523
33.09127 534
33.11138 510
33.13149 496
33.15161 529
33.17172 572
33.19183 534
33.21195 542
33.23206 513
33.25217 448
33.27229 477
33.2924 482
33.31252 511
33.33263 526
33.35274 509
33.37286 491
33.39297 504
33.41308 485
33.4332 535
33.45331 462
33.47343 518
33.49354 573
33.51365 542
33.53377 543
33.55388 547
33.57399 562
33.59411 570
33.61422 561
33.63434 532
33.65445 572
33.67456 561
33.69468 572
33.71479 533
33.7349 502
33.75502 557
33.77513 515
33.79524 535
33.81536 528
33.83547 586
33.85559 562
33.8757 590
33.89581 585
33.91593 548
33.93604 567
33.95615 610
33.97627 579
33.99638 584
34.0165 559
34.03661 565
34.05672 580
34.07684 611
34.09695 598
34.11706 602
34.13718 605
34.15729 600
34.17741 610
34.19752 608
34.21763 558
34.23775 617
34.25786 610
34.27797 612
34.29809 641
34.3182 638
34.33831 654
34.35843 609
34.37854 602
34.39866 654
34.41877 637
34.43888 636
34.459 686
34.47911 709
34.49922 654
34.51934 724
34.53945 696
34.55957 714
34.57968 699
34.59979 732
34.61991 707
34.64002 748
34.66013 705
34.68025 705
34.70036 822
34.72047 770
34.74059 773
34.7607 775
34.78082 802
34.80093 815
34.82104 778
34.84116 783
34.86127 837
34.88138 768
34.9015 769
34.92161 752
34.94173 769
34.96184 769
34.98195 755
35.00207 697
35.02218 753
35.04229 709
35.06241 731
35.08252 749
35.10264 749
35.12275 771
35.14286 718
35.16298 721
35.18309 840
35.2032 783
35.22332 822
35.24343 911
35.26354 863
35.28366 886
35.30377 849
35.32389 947
35.344 876
35.36411 924
35.38423 973
35.40434 955
35.42445 945
35.44457 972
35.46468 1015
35.4848 1017
35.50491 1040
35.52502 1002
35.54514 1008
35.56525 982
35.58536 949
35.60548 961
35.62559 948
35.64571 924
35.66582 846
35.68593 898
35.70605 835
35.72616 854
35.74627 847
35.76639 789
35.7865 758
35.80661 774
35.82673 714
35.84684 720
35.86696 708
35.88707 734
35.90718 731
35.9273 640
35.94741 672
35.96752 675
35.98764 630
36.00775 656
36.02787 693
36.04798 618
36.06809 644
36.08821 657
36.10832 642
36.12843 628
36.14855 644
36.16866 607
36.18878 646
36.20889 620
36.229 624
36.24912 652
36.26923 580
36.28934 647
36.30946 622
36.32957 618
36.34968 619
36.3698 628
36.38991 648
36.41003 683
36.43014 648
36.45025 614
36.47037 618
36.49048 709
36.51059 643
36.53071 632
36.55082 595
36.57094 662
36.59105 621
36.61116 623
36.63128 636
36.65139 550
36.6715 606
36.69162 598
36.71173 667
36.73184 583
36.75196 623
36.77207 601
36.79219 575
36.8123 607
36.83241 585
36.85253 629
36.87264 610
36.89275 550
36.91287 614
36.93298 603
36.9531 587
36.97321 618
36.99332 592
37.01344 608
37.03355 602
37.05366 641
37.07378 652
37.09389 601
37.11401 599
37.13412 643
37.15423 628
37.17435 578
37.19446 624
37.21457 644
37.23469 630
37.2548 587
37.27491 615
37.29503 587
37.31514 632
37.33526 612
37.35537 594
37.37548 624
37.3956 636
37.41571 593
37.43582 601
37.45594 576
37.47605 639
37.49617 603
37.51628 592
37.53639 611
37.55651 591
37.57662 654
37.59673 567
37.61685 623
37.63696 590
37.65708 594
37.67719 602
37.6973 562
37.71742 654
37.73753 581
37.75764 601
37.77776 573
37.79787 638
37.81798 630
37.8381 599
37.85821 608
37.87833 570
37.89844 587
37.91855 591
37.93867 599
37.95878 534
37.97889 582
37.99901 551
38.01912 551
38.03924 579
38.05935 607
38.07946 587
38.09958 592
38.11969 529
38.1398 587
38.15992 567
38.18003 552
38.20015 531
38.22026 557
38.24037 576
38.26049 561
38.2806 575
38.30071 583
38.32083 544
38.34094 529
38.36105 521
38.38117 573
38.40128 541
38.4214 557
38.44151 541
38.46162 566
38.48174 560
38.50185 539
38.52196 526
38.54208 565
38.56219 571
38.58231 553
38.60242 560
38.62253 595
38.64265 566
38.66276 542
38.68287 570
38.70299 553
38.7231 553
38.74321 564
38.76333 522
38.78344 568
38.80356 552
38.82367 549
38.84378 521
38.8639 541
38.88401 596
38.90412 561
38.92424 610
38.94435 562
38.96447 598
38.98458 582
39.00469 573
39.02481 576
39.04492 572
39.06503 581
39.08515 558
39.10526 582
39.12538 573
39.14549 601
39.1656 588
39.18572 597
39.20583 538
39.22594 553
39.24606 593
39.26617 572
39.28628 578
39.3064 624
39.32651 619
39.34663 580
39.36674 597
39.38685 595
39.40697 579
39.42708 592
39.44719 553
39.46731 575
39.48742 608
39.50754 572
39.52765 538
39.54776 583
39.56788 578
39.58799 553
39.6081 564
39.62822 501
39.64833 541
39.66845 582
39.68856 533
39.70867 543
39.72879 546
39.7489 521
39.76901 546
39.78913 522
39.80924 538
39.82935 569
39.84947 537
39.86958 518
39.8897 525
39.90981 505
39.92992 508
39.95004 531
39.97015 535
39.99026 564
40.01038 554
40.03049 549
40.05061 560
40.07072 542
40.09083 546
40.11095 551
40.13106 547
40.15117 581
40.17129 562
40.1914 564
40.21152 537
40.23163 587
40.25174 561
40.27186 628
40.29197 626
40.31208 613
40.3322 618
40.35231 630
40.37242 609
40.39254 599
40.41265 596
40.43277 591
40.45288 594
40.47299 590
40.49311 565
40.51322 610
40.53333 554
40.55345 523
40.57356 565
40.59368 590
40.61379 562
40.6339 627
40.65402 564
40.67413 535
40.69424 572
40.71436 542
40.73447 523
40.75458 604
40.7747 571
40.79481 621
40.81493 550
40.83504 553
40.85515 551
40.87527 583
40.89538 554
40.91549 517
40.93561 523
40.95572 558
40.97584 547
40.99595 530
41.01606 551
41.03618 521
41.05629 566
41.0764 569
41.09652 542
41.11663 483
41.13675 514
41.15686 532
41.17697 515
41.19709 545
41.2172 551
41.23731 524
41.25743 520
41.27754 522
41.29765 508
41.31777 498
41.33788 520
41.358 580
41.37811 529
41.39822 509
41.41834 543
41.43845 563
41.45856 544
41.47868 572
41.49879 518
41.51891 546
41.53902 555
41.55913 573
41.57925 558
41.59936 528
41.61947 491
41.63959 541
41.6597 513
41.67982 519
41.69993 531
41.72004 553
41.74016 569
41.76027 592
41.78038 553
41.8005 556
41.82061 493
41.84072 543
41.86084 542
41.88095 588
41.90107 529
41.92118 509
41.94129 522
41.96141 550
41.98152 528
42.00163 530
42.02175 546
42.04186 515
42.06198 569
42.08209 584
42.1022 631
42.12232 595
42.14243 595
42.16254 556
42.18266 564
42.20277 577
42.22289 561
42.243 585
42.26311 557
42.28323 529
42.30334 602
42.32345 584
42.34357 508
42.36368 573
42.38379 564
42.40391 595
42.42402 567
42.44414 556
42.46425 542
42.48436 560
42.50448 538
42.52459 540
42.5447 554
42.56482 575
42.58493 572
42.60505 566
42.62516 543
42.64527 486
42.66539 517
42.6855 507
42.70561 542
42.72573 605
42.74584 542
42.76595 510
42.78607 510
42.80618 535
42.8263 495
42.84641 539
42.86652 523
42.88664 540
42.90675 543
42.92686 506
42.94698 500
42.96709 534
42.98721 506
43.00732 531
43.02743 534
43.04755 536
43.06766 499
43.08777 531
43.10789 536
43.128 521
43.14812 514
43.16823 528
43.18834 512
43.20846 484
43.22857 530
43.24868 522
43.2688 549
43.28891 513
43.30902 488
43.32914 478
43.34925 510
43.36937 504
43.38948 516
43.40959 509
43.42971 472
43.44982 520
43.46993 459
43.49005 494
43.51016 506
43.53028 506
43.55039 510
43.5705 467
43.59062 482
43.61073 465
43.63084 485
43.65096 483
43.67107 498
43.69119 487
43.7113 471
43.73141 478
43.75153 478
43.77164 475
43.79175 494
43.81187 459
43.83198 482
43.85209 530
43.87221 484
43.89232 530
43.91244 498
43.93255 527
43.95266 525
43.97278 471
43.99289 473
44.013 500
44.03312 489
44.05323 478
44.07335 505
44.09346 532
44.11357 526
44.13369 497
44.1538 488
44.17391 509
44.19403 509
44.21414 522
44.23426 456
44.25437 481
44.27448 539
44.2946 483
44.31471 495
44.33482 481
44.35494 509
44.37505 462
44.39516 510
44.41528 484
44.43539 480
44.45551 477
44.47562 486
44.49573 490
44.51585 503
44.53596 512
44.55607 442
44.57619 493
44.5963 536
44.61642 550
44.63653 510
44.65664 484
44.67676 507
44.69687 484
44.71698 524
44.7371 515
44.75721 470
44.77732 484
44.79744 511
44.81755 513
44.83767 480
44.85778 480
44.87789 497
44.89801 530
44.91812 474
44.93823 475
44.95835 499
44.97846 462
44.99858 500
45.01869 498
45.0388 482
45.05892 477
45.07903 503
45.09914 495
45.11926 529
45.13937 489
45.15949 519
45.1796 512
45.19971 480
45.21983 505
45.23994 513
45.26005 510
45.28017 485
45.30028 490
45.32039 464
45.34051 490
45.36062 513
45.38074 494
45.40085 516
45.42096 494
45.44108 488
45.46119 529
45.4813 513
45.50142 490
45.52153 501
45.54165 517
45.56176 548
45.58187 471
45.60199 506
45.6221 500
45.64221 499
45.66233 452
45.68244 527
45.70256 483
45.72267 516
45.74278 497
45.7629 463
45.78301 485
45.80312 476
45.82324 512
45.84335 475
45.86346 466
45.88358 457
45.90369 527
45.92381 490
45.94392 482
45.96403 503
45.98415 488
46.00426 464
46.02437 465
46.04449 498
46.0646 535
46.08472 505
46.10483 500
46.12494 503
46.14506 499
46.16517 451
46.18528 502
46.2054 475
46.22551 473
46.24563 467
46.26574 467
46.28585 439
46.30597 456
46.32608 499
46.34619 462
46.36631 498
46.38642 468
46.40653 482
46.42665 495
46.44676 452
46.46688 454
46.48699 454
46.5071 487
46.52722 476
46.54733 490
46.56744 500
46.58756 483
46.60767 484
46.62779 464
46.6479 458
46.66801 517
46.68813 469
46.70824 529
46.72835 465
46.74847 482
46.76858 484
46.78869 449
46.80881 477
46.82892 483
46.84904 510
46.86915 512
46.88926 472
46.90938 510
46.92949 472
46.9496 476
46.96972 469
46.98983 530
47.00995 477
47.03006 501
47.05017 513
47.07029 488
47.0904 471
47.11051 491
47.13063 486
47.15074 454
47.17086 515
47.19097 453
47.21108 495
47.2312 528
47.25131 476
47.27142 467
47.29154 466
47.31165 505
47.33176 451
47.35188 439
47.37199 475
47.39211 461
47.41222 454
47.43233 455
47.45245 454
47.47256 452
47.49267 469
47.51279 464
47.5329 472
47.55302 455
47.57313 431
47.59324 457
47.61336 469
47.63347 469
47.65358 480
47.6737 431
47.69381 509
47.71393 466
47.73404 462
47.75415 459
47.77427 454
47.79438 440
47.81449 483
47.83461 454
47.85472 477
47.87483 457
47.89495 455
47.91506 456
47.93518 481
47.95529 463
47.9754 486
47.99552 444
48.01563 483
48.03574 458
48.05586 435
48.07597 447
48.09609 508
48.1162 478
48.13631 447
48.15643 478
48.17654 467
48.19665 459
48.21677 479
48.23688 476
48.257 491
48.27711 498
48.29722 508
48.31734 485
48.33745 479
48.35756 507
48.37768 512
48.39779 494
48.4179 458
48.43802 462
48.45813 462
48.47825 446
48.49836 469
48.51847 513
48.53859 494
48.5587 503
48.57881 477
48.59893 463
48.61904 494
48.63916 478
48.65927 487
48.67938 508
48.6995 508
48.71961 491
48.73972 481
48.75984 511
48.77995 562
48.80006 545
48.82018 498
48.84029 495
48.86041 526
48.88052 506
48.90063 564
48.92075 491
48.94086 545
48.96097 513
48.98109 531
49.0012 516
49.02132 494
49.04143 492
49.06154 546
49.08166 520
49.10177 563
49.12188 516
49.142 538
49.16211 540
49.18223 491
49.20234 508
49.22245 481
49.24257 461
49.26268 497
49.28279 470
49.30291 503
49.32302 495
49.34313 504
49.36325 456
49.38336 470
49.40348 472
49.42359 530
49.4437 470
49.46382 473
49.48393 504
49.50404 546
49.52416 531
49.54427 538
49.56439 520
49.5845 550
49.60461 538
49.62473 548
49.64484 586
49.66495 547
49.68507 518
49.70518 481
49.7253 556
49.74541 494
49.76552 489
49.78564 509
49.80575 514
49.82586 525
49.84598 517
49.86609 485
49.8862 482
49.90632 483
49.92643 502
49.94655 514
49.96666 517
49.98677 516
50.00689 523
50.027 494
50.04711 464
50.06723 481
50.08734 520
50.10746 504
50.12757 495
50.14768 505
50.1678 519
50.18791 533
50.20802 487
50.22814 479
50.24825 496
50.26837 453
50.28848 496
50.30859 493
50.32871 443
50.34882 474
50.36893 479
50.38905 436
50.40916 471
50.42927 488
50.44939 460
50.4695 501
50.48962 480
50.50973 471
50.52984 472
50.54996 476
50.57007 482
50.59018 478
50.6103 512
50.63041 517
50.65053 501
50.67064 513
50.69075 551
50.71087 491
50.73098 544
50.75109 521
50.77121 506
50.79132 472
50.81143 522
50.83155 482
50.85166 522
50.87178 476
50.89189 518
50.912 483
50.93212 499
50.95223 466
50.97234 489
50.99246 468
51.01257 477
51.03269 453
51.0528 498
51.07291 458
51.09303 486
51.11314 447
51.13325 477
51.15337 463
51.17348 506
51.1936 468
51.21371 503
51.23382 440
51.25394 488
51.27405 527
51.29416 510
51.31428 498
51.33439 517
51.3545 524
51.37462 559
51.39473 558
51.41485 498
51.43496 496
51.45507 552
51.47519 495
51.4953 502
51.51541 516
51.53553 492
51.55564 471
51.57576 489
51.59587 474
51.61598 464
51.6361 493
51.65621 491
51.67632 452
51.69644 484
51.71655 450
51.73667 437
51.75678 445
51.77689 477
51.79701 449
51.81712 461
51.83723 463
51.85735 483
51.87746 427
51.89757 478
51.91769 472
51.9378 458
51.95792 457
51.97803 474
51.99814 495
52.01826 486
52.03837 462
52.05848 485
52.0786 445
52.09871 441
52.11883 459
52.13894 497
52.15905 449
52.17917 443
52.19928 495
52.21939 474
52.23951 478
52.25962 473
52.27974 475
52.29985 464
52.31996 495
52.34008 451
52.36019 462
52.3803 493
52.40042 474
52.42053 467
52.44064 421
52.46076 460
52.48087 453
52.50099 468
52.5211 448
52.54121 446
52.56133 468
52.58144 467
52.60155 504
52.62167 478
52.64178 524
52.6619 509
52.68201 500
52.70212 490
52.72224 474
52.74235 485
52.76246 490
52.78258 450
52.80269 490
52.8228 466
52.84292 506
52.86303 460
52.88315 512
52.90326 491
52.92337 477
52.94349 489
52.9636 526
52.98371 517
53.00383 516
53.02394 556
53.04406 518
53.06417 532
53.08428 524
53.1044 555
53.12451 580
53.14462 606
53.16474 596
53.18485 614
53.20497 609
53.22508 609
53.24519 612
53.26531 604
53.28542 595
53.30553 586
53.32565 567
53.34576 605
53.36587 538
53.38599 570
53.4061 534
53.42622 523
53.44633 539
53.46644 556
53.48656 618
53.50667 548
53.52678 513
53.5469 505
53.56701 524
53.58713 538
53.60724 524
53.62735 508
53.64747 508
53.66758 517
53.68769 525
53.70781 513
53.72792 548
53.74804 503
53.76815 527
53.78826 528
53.80838 552
53.82849 509
53.8486 523
53.86872 496
53.88883 498
53.90894 499
53.92906 499
53.94917 508
53.96929 506
53.9894 485
54.00951 494
54.02963 520
54.04974 513
54.06985 480
54.08997 507
54.11008 502
54.1302 504
54.15031 483
54.17042 520
54.19054 513
54.21065 472
54.23076 500
54.25088 504
54.27099 497
54.29111 474
54.31122 497
54.33133 485
54.35145 522
54.37156 508
54.39167 468
54.41179 512
54.4319 474
54.45201 494
54.47213 500
54.49224 509
54.51236 492
54.53247 503
54.55258 519
54.5727 499
54.59281 509
54.61292 474
54.63304 521
54.65315 487
54.67327 533
54.69338 460
54.71349 485
54.73361 480
54.75372 506
54.77383 525
54.79395 505
54.81406 560
54.83417 483
54.85429 510
54.8744 484
54.89452 513
54.91463 503
54.93474 539
54.95486 504
54.97497 502
54.99508 464
55.0152 467
55.03531 484
55.05543 463
55.07554 482
55.09565 516
55.11577 496
55.13588 463
55.15599 496
55.17611 495
55.19622 498
55.21634 468
55.23645 507
55.25656 489
55.27668 488
55.29679 499
55.3169 525
55.33702 495
55.35713 504
55.37724 472
55.39736 497
55.41747 528
55.43759 504
55.4577 517
55.47781 463
55.49793 502
55.51804 502
55.53815 475
55.55827 464
55.57838 475
55.5985 470
55.61861 495
55.63872 465
55.65884 486
55.67895 459
55.69906 478
55.71918 478
55.73929 449
55.75941 472
55.77952 491
55.79963 494
55.81975 474
55.83986 483
55.85997 504
55.88009 480
55.9002 471
55.92031 510
55.94043 476
55.96054 479
55.98066 491
56.00077 445
56.02088 527
56.041 502
56.06111 451
56.08122 474
56.10134 482
56.12145 499
56.14157 463
56.16168 525
56.18179 482
56.20191 485
56.22202 483
56.24213 468
56.26225 537
56.28236 504
56.30248 562
56.32259 566
56.3427 510
56.36282 533
56.38293 512
56.40304 523
56.42316 559
56.44327 538
56.46338 517
56.4835 471
56.50361 523
56.52373 479
56.54384 545
56.56395 524
56.58407 515
56.60418 525
56.62429 485
56.64441 496
56.66452 466
56.68464 510
56.70475 514
56.72486 486
56.74498 505
56.76509 482
56.7852 526
56.80532 466
56.82543 475
56.84554 491
56.86566 501
56.88577 480
56.90589 475
56.926 503
56.94611 446
56.96623 502
56.98634 468
57.00645 479
57.02657 524
57.04668 500
57.0668 486
57.08691 482
57.10702 475
57.12714 524
57.14725 520
57.16736 503
57.18748 473
57.20759 475
57.22771 495
57.24782 490
57.26793 489
57.28805 510
57.30816 514
57.32827 463
57.34839 485
57.3685 483
57.38861 492
57.40873 456
57.42884 463
57.44896 496
57.46907 454
57.48918 476
57.5093 448
57.52941 450
57.54952 467
57.56964 457
57.58975 454
57.60987 434
57.62998 434
57.65009 475
57.67021 442
57.69032 518
57.71043 500
57.73055 449
57.75066 435
57.77078 429
57.79089 451
57.811 470
57.83112 479
57.85123 477
57.87134 462
57.89146 426
57.91157 435
57.93168 464
57.9518 432
57.97191 439
57.99203 474
58.01214 428
58.03225 419
58.05237 456
58.07248 464
58.09259 482
58.11271 487
58.13282 411
58.15294 445
58.17305 460
58.19316 474
58.21328 451
58.23339 475
58.2535 450
58.27362 438
58.29373 472
58.31385 461
58.33396 448
58.35407 458
58.37419 442
58.3943 454
58.41441 486
58.43453 475
58.45464 472
58.47475 449
58.49487 467
58.51498 440
58.5351 455
58.55521 462
58.57532 468
58.59544 446
58.61555 435
58.63566 447
58.65578 445
58.67589 472
58.69601 428
58.71612 459
58.73623 441
58.75635 464
58.77646 459
58.79657 480
58.81669 460
58.8368 468
58.85691 415
58.87703 500
58.89714 472
58.91726 441
58.93737 463
58.95748 472
58.9776 472
58.99771 498
59.01782 457
59.03794 469
59.05805 433
59.07817 438
59.09828 456
59.11839 464
59.13851 494
59.15862 441
59.17873 435
59.19885 442
59.21896 433
59.23908 468
59.25919 464
59.2793 488
59.29942 451
59.31953 455
59.33964 434
59.35976 465
59.37987 439
59.39998 464
59.4201 465
59.44021 423
59.46033 477
59.48044 453
59.50055 453
59.52067 426
59.54078 475
59.56089 498
59.58101 434
59.60112 494
59.62124 497
59.64135 467
59.66146 451
59.68158 468
59.70169 477
59.7218 483
59.74192 473
59.76203 503
59.78215 455
59.80226 499
59.82237 524
59.84249 493
59.8626 505
59.88271 512
59.90283 520
59.92294 484
59.94305 503
59.96317 530
59.98328 526
60.0034 508
60.02351 515
60.04362 460
60.06374 488
60.08385 466
60.10396 512
60.12408 518
60.14419 528
60.16431 515
60.18442 535
60.20453 521
60.22465 530
60.24476 565
60.26487 513
60.28499 513
60.3051 531
60.32522 555
60.34533 520
60.36544 489
60.38556 540
60.40567 553
60.42578 548
60.4459 523
60.46601 531
60.48612 527
60.50624 566
60.52635 520
60.54647 566
60.56658 550
60.58669 560
60.60681 488
60.62692 511
60.64703 532
60.66715 511
60.68726 529
60.70738 516
60.72749 489
60.7476 518
60.76772 524
60.78783 523
60.80794 520
60.82806 491
60.84817 494
60.86828 520
60.8884 518
60.90851 526
60.92863 545
60.94874 496
60.96885 488
60.98897 502
61.00908 505
61.02919 526
61.04931 522
61.06942 504
61.08954 545
61.10965 556
61.12976 547
61.14988 541
61.16999 520
61.1901 535
61.21022 517
61.23033 556
61.25045 551
61.27056 528
61.29067 492
61.31079 558
61.3309 579
61.35101 498
61.37113 537
61.39124 545
61.41135 540
61.43147 575
61.45158 555
61.4717 492
61.49181 560
61.51192 548
61.53204 578
61.55215 581
61.57226 530
61.59238 540
61.61249 541
61.63261 554
61.65272 524
61.67283 568
61.69295 600
61.71306 578
61.73317 590
61.75329 528
61.7734 524
61.79352 546
61.81363 514
61.83374 568
61.85386 540
61.87397 529
61.89408 515
61.9142 533
61.93431 538
61.95442 566
61.97454 548
61.99465 510
62.01477 536
62.03488 514
62.05499 504
62.07511 558
62.09522 530
62.11533 547
62.13545 508
62.15556 541
62.17568 530
62.19579 574
62.2159 515
62.23602 511
62.25613 535
62.27624 513
62.29636 517
62.31647 505
62.33659 516
62.3567 520
62.37681 509
62.39693 508
62.41704 589
62.43715 502
62.45727 546
62.47738 521
62.49749 509
62.51761 509
62.53772 526
62.55784 479
62.57795 467
62.59806 481
62.61818 473
62.63829 521
62.6584 459
62.67852 526
62.69863 527
62.71875 490
62.73886 483
62.75897 505
62.77909 502
62.7992 455
62.81931 493
62.83943 519
62.85954 474
62.87965 495
62.89977 514
62.91988 533
62.94 524
62.96011 505
62.98022 518
63.00034 537
63.02045 489
63.04056 516
63.06068 484
63.08079 474
63.10091 497
63.12102 447
63.14113 473
63.16125 464
63.18136 488
63.20147 475
63.22159 513
63.2417 492
63.26182 501
63.28193 497
63.30204 497
63.32216 506
63.34227 475
63.36238 506
63.3825 520
63.40261 471
63.42272 488
63.44284 487
63.46295 500
63.48307 524
63.50318 477
63.52329 477
63.54341 481
63.56352 509
63.58363 504
63.60375 476
63.62386 495
63.64398 484
63.66409 474
63.6842 478
63.70432 473
63.72443 492
63.74454 474
63.76466 463
63.78477 485
63.80489 483
63.825 498
63.84511 467
63.86523 460
63.88534 471
63.90545 473
63.92557 484
63.94568 450
63.96579 485
63.98591 479
64.00602 473
64.02614 507
64.04625 475
64.06636 462
64.08648 453
64.10659 463
64.1267 469
64.14682 442
64.16693 464
64.18705 414
64.20716 457
64.22727 463
64.24739 432
64.2675 434
64.28761 434
64.30773 431
64.32784 471
64.34796 411
64.36807 453
64.38818 426
64.4083 459
64.42841 467
64.44852 390
64.46864 440
64.48875 424
64.50886 465
64.52898 479
64.54909 468
64.56921 466
64.58932 452
64.60943 434
64.62955 457
64.64966 438
64.66977 409
64.68989 415
64.71 461
64.73012 482
64.75023 474
64.77034 386
64.79046 442
64.81057 432
64.83068 423
64.8508 476
64.87091 437
64.89102 456
64.91114 426
64.93125 461
64.95137 421
64.97148 467
64.99159 453
65.01171 446
65.03182 438
65.05193 437
65.07205 409
65.09216 438
65.11228 468
65.13239 429
65.1525 410
65.17262 411
65.19273 418
65.21284 400
65.23296 427
65.25307 467
65.27319 426
65.2933 416
65.31341 431
65.33353 435
65.35364 440
65.37375 424
65.39387 390
65.41398 428
65.43409 425
65.45421 438
65.47432 422
65.49444 442
65.51455 403
65.53466 445
65.55478 427
65.57489 425
65.595 493
65.61512 459
65.63523 456
65.65535 456
65.67546 401
65.69557 447
65.71569 450
65.7358 456
65.75591 485
65.77603 469
65.79614 484
65.81626 482
65.83637 439
65.85648 432
65.8766 475
65.89671 460
65.91682 449
65.93694 485
65.95705 467
65.97716 459
65.99728 457
66.01739 455
66.03751 446
66.05762 437
66.07773 437
66.09785 433
66.11796 432
66.13807 451
66.15819 387
66.1783 481
66.19842 417
66.21853 414
66.23864 418
66.25876 432
66.27887 445
66.29898 429
66.3191 422
66.33921 453
66.35933 397
66.37944 418
66.39955 418
66.41967 434
66.43978 388
66.45989 405
66.48001 427
66.50012 411
66.52023 410
66.54035 430
66.56046 379
66.58058 435
66.60069 363
66.6208 444
66.64092 410
66.66103 400
66.68114 406
66.70126 404
66.72137 418
66.74149 415
66.7616 458
66.78171 423
66.80183 422
66.82194 428
66.84205 408
66.86217 370
66.88228 413
66.90239 403
66.92251 436
66.94262 406
66.96274 426
66.98285 459
67.00296 401
67.02308 418
67.04319 422
67.0633 434
67.08342 417
67.10353 401
67.12365 454
67.14376 422
67.16387 423
67.18399 464
67.2041 418
67.22421 426
67.24433 402
67.26444 417
67.28456 421
67.30467 420
67.32478 427
67.3449 428
67.36501 443
67.38512 418
67.40524 384
67.42535 435
67.44546 445
67.46558 444
67.48569 402
67.50581 471
67.52592 448
67.54603 442
67.56615 451
67.58626 499
67.60637 453
67.62649 479
67.6466 439
67.66672 456
67.68683 486
67.70694 447
67.72706 437
67.74717 454
67.76728 458
67.7874 450
67.80751 442
67.82763 393
67.84774 392
67.86785 435
67.88797 453
67.90808 457
67.92819 475
67.94831 467
67.96842 456
67.98853 439
68.00865 434
68.02876 445
68.04888 423
68.06899 462
68.0891 423
68.10922 434
68.12933 444
68.14944 414
68.16956 438
68.18967 479
68.20979 440
68.2299 432
68.25001 468
68.27013 451
68.29024 449
68.31035 437
68.33047 442
68.35058 454
68.3707 403
68.39081 441
68.41092 421
68.43104 459
68.45115 423
68.47126 425
68.49138 429
68.51149 414
68.5316 436
68.55172 407
68.57183 474
68.59195 403
68.61206 419
68.63217 409
68.65229 407
68.6724 418
68.69251 452
68.71263 411
68.73274 400
68.75286 402
68.77297 429
68.79308 435
68.8132 440
68.83331 460
68.85342 398
68.87354 455
68.89365 410
68.91376 425
68.93388 420
68.95399 418
68.97411 425
68.99422 429
69.01433 396
69.03445 407
69.05456 397
69.07467 447
69.09479 439
69.1149 403
69.13502 451
69.15513 434
69.17524 454
69.19536 416
69.21547 430
69.23558 438
69.2557 413
69.27581 429
69.29593 431
69.31604 415
69.33615 411
69.35627 422
69.37638 448
69.39649 434
69.41661 444
69.43672 426
69.45683 432
69.47695 427
69.49706 432
69.51718 449
69.53729 421
69.5574 414
69.57752 423
69.59763 416
69.61774 405
69.63786 414
69.65797 423
69.67809 417
69.6982 426
69.71831 408
69.73843 430
69.75854 417
69.77865 411
69.79877 467
69.81888 427
69.839 401
69.85911 424
69.87922 423
69.89934 395
69.91945 402
69.93956 428
69.95968 456
69.97979 431
69.9999 411
70.02002 388
70.04013 410
70.06025 436
70.08036 393
70.10047 408
70.12059 408
70.1407 391
70.16081 429
70.18093 430
70.20104 454
70.22116 421
70.24127 422
70.26138 440
70.2815 420
70.30161 415
70.32172 423
70.34184 422
70.36195 410
70.38207 429
70.40218 439
70.42229 424
70.44241 423
70.46252 443
70.48263 444
70.50275 433
70.52286 437
70.54297 443
70.56309 412
70.5832 424
70.60332 442
70.62343 405
70.64354 403
70.66366 442
70.68377 420
70.70388 444
70.724 424
70.74411 458
70.76423 416
70.78434 394
70.80445 442
70.82457 433
70.84468 418
70.86479 455
70.88491 407
70.90502 443
70.92513 377
70.94525 407
70.96536 404
70.98548 405
71.00559 420
71.0257 402
71.04582 416
71.06593 426
71.08604 416
71.10616 406
71.12627 447
71.14639 413
71.1665 433
71.18661 436
71.20673 449
71.22684 412
71.24695 452
71.26707 457
71.28718 466
71.3073 442
71.32741 437
71.34752 464
71.36764 460
71.38775 399
71.40786 417
71.42798 417
71.44809 427
71.4682 430
71.48832 482
71.50843 409
71.52855 426
71.54866 453
71.56877 421
71.58889 409
71.609 436
71.62911 390
71.64923 429
71.66934 393
71.68946 436
71.70957 441
71.72968 459
71.7498 466
71.76991 442
71.79002 399
71.81014 412
71.83025 410
71.85037 389
71.87048 411
71.89059 431
71.91071 427
71.93082 400
71.95093 434
71.97105 407
71.99116 463
72.01127 438
72.03139 417
72.0515 418
72.07162 432
72.09173 418
72.11184 434
72.13196 418
72.15207 426
72.17218 417
72.1923 428
72.21241 428
72.23253 433
72.25264 413
72.27275 440
72.29287 409
72.31298 412
72.33309 440
72.35321 413
72.37332 413
72.39344 420
72.41355 445
72.43366 432
72.45378 398
72.47389 394
72.494 407
72.51412 450
72.53423 371
72.55434 455
72.57446 432
72.59457 456
72.61469 439
72.6348 434
72.65491 426
72.67503 425
72.69514 419
72.71525 396
72.73537 352
72.75548 397
72.7756 411
72.79571 451
72.81582 426
72.83594 458
72.85605 425
72.87616 474
72.89628 397
72.91639 419
72.9365 436
72.95662 415
72.97673 438
72.99685 414
73.01696 406
73.03707 457
73.05719 449
73.0773 419
73.09741 416
73.11753 425
73.13764 456
73.15776 419
73.17787 464
73.19798 441
73.2181 453
73.23821 440
73.25832 421
73.27844 429
73.29855 414
73.31867 432
73.33878 397
73.35889 429
73.37901 424
73.39912 413
73.41923 427
73.43935 401
73.45946 456
73.47957 414
73.49969 434
73.5198 428
73.53992 424
73.56003 437
73.58014 437
73.60026 454
73.62037 431
73.64048 437
73.6606 432
73.68071 450
73.70083 414
73.72094 422
73.74105 403
73.76117 451
73.78128 398
73.80139 415
73.82151 434
73.84162 387
73.86174 415
73.88185 395
73.90196 378
73.92208 435
73.94219 404
73.9623 391
73.98242 442
74.00253 441
74.02264 441
74.04276 427
74.06287 422
74.08299 396
74.1031 414
74.12321 425
74.14333 428
74.16344 442
74.18355 387
74.20367 439
74.22378 430
74.2439 451
74.26401 414
74.28412 381
74.30424 420
74.32435 414
74.34446 438
74.36458 443
74.38469 416
74.40481 419
74.42492 429
74.44503 408
74.46515 452
74.48526 393
74.50537 400
74.52549 426
74.5456 466
74.56571 375
74.58583 423
74.60594 433
74.62606 416
74.64617 409
74.66628 404
74.6864 428
74.70651 421
74.72662 391
74.74674 421
74.76685 419
74.78697 412
74.80708 397
74.82719 429
74.84731 391
74.86742 407
74.88753 411
74.90765 410
74.92776 377
74.94787 385
74.96799 415
74.9881 416
75.00822 404
