3.00117 20144
3.02128 20071
3.0414 19252
3.06151 18780
3.08162 18057
3.10174 17690
3.12185 17339
3.14197 16713
3.16208 16219
3.18219 16022
3.20231 15439
3.22242 15002
3.24253 14546
3.26265 13935
3.28276 13382
3.30288 12812
3.32299 12665
3.3431 12214
3.36322 11890
3.38333 11051
3.40344 10922
3.42356 10887
3.44367 10236
3.46379 10053
3.4839 9429
3.50401 9438
3.52413 9113
3.54424 8580
3.56435 8300
3.58447 7940
3.60458 7836
3.62469 7326
3.64481 6952
3.66492 6950
3.68504 6473
3.70515 6325
3.72526 6170
3.74538 5829
3.76549 5677
3.7856 5286
3.80572 5121
3.82583 4908
3.84595 4904
3.86606 4637
3.88617 4262
3.90629 4054
3.9264 3858
3.94651 3720
3.96663 3840
3.98674 3483
4.00686 3267
4.02697 3275
4.04708 3027
4.0672 3016
4.08731 2704
4.10742 2538
4.12754 2616
4.14765 2371
4.16776 2341
4.18788 2186
4.20799 2145
4.22811 2090
4.24822 1892
4.26833 1802
4.28845 1725
4.30856 1692
4.32867 1826
4.34879 1764
4.3689 1597
4.38902 1521
4.40913 1446
4.42924 1574
4.44936 1446
4.46947 1346
4.48958 1398
4.5097 1297
4.52981 1265
4.54992 1241
4.57004 1261
4.59015 1153
4.61027 1154
4.63038 1226
4.65049 1144
4.67061 1044
4.69072 1105
4.71083 1031
4.73095 1050
4.75106 1019
4.77118 942
4.79129 944
4.8114 901
4.83152 916
4.85163 818
4.87174 789
4.89186 847
4.91197 759
4.93209 761
4.9522 802
4.97231 739
4.99243 737
5.01254 698
5.03265 673
5.05277 707
5.07288 642
5.09299 660
5.11311 628
5.13322 660
5.15334 614
5.17345 527
5.19356 571
5.21368 572
5.23379 539
5.2539 616
5.27402 467
5.29413 477
5.31425 511
5.33436 515
5.35447 478
5.37459 409
5.3947 421
5.41481 448
5.43493 485
5.45504 458
5.47516 334
5.49527 421
5.51538 368
5.5355 411
5.55561 405
5.57572 364
5.59584 367
5.61595 354
5.63606 340
5.65618 333
5.67629 334
5.69641 284
5.71652 301
5.73663 319
5.75675 333
5.77686 300
5.79697 264
5.81709 358
5.8372 288
5.85732 269
5.87743 310
5.89754 287
5.91766 306
5.93777 272
5.95788 257
5.978 263
5.99811 269
6.01823 258
6.03834 270
6.05845 260
6.07857 256
6.09868 230
6.11879 237
6.13891 246
6.15902 223
6.17913 228
6.19925 232
6.21936 265
6.23948 235
6.25959 252
6.2797 247
6.29982 257
6.31993 235
6.34004 237
6.36016 230
6.38027 224
6.40039 237
6.4205 255
6.44061 259
6.46073 237
6.48084 220
6.50095 212
6.52107 191
6.54118 222
6.56129 198
6.58141 211
6.60152 244
6.62164 222
6.64175 201
6.66186 206
6.68198 217
6.70209 210
6.7222 204
6.74232 185
6.76243 204
6.78255 199
6.80266 223
6.82277 189
6.84289 183
6.863 183
6.88311 223
6.90323 194
6.92334 212
6.94346 194
6.96357 179
6.98368 205
7.0038 196
7.02391 234
7.04402 215
7.06414 213
7.08425 208
7.10436 210
7.12448 204
7.14459 194
7.16471 215
7.18482 210
7.20493 190
7.22505 234
7.24516 202
7.26527 243
7.28539 232
7.3055 213
7.32562 199
7.34573 194
7.36584 195
7.38596 205
7.40607 218
7.42618 214
7.4463 209
7.46641 190
7.48653 215
7.50664 230
7.52675 211
7.54687 219
7.56698 210
7.58709 222
7.60721 226
7.62732 216
7.64743 191
7.66755 230
7.68766 231
7.70778 214
7.72789 228
7.748 241
7.76812 223
7.78823 211
7.80834 197
7.82846 211
7.84857 236
7.86869 207
7.8888 196
7.90891 229
7.92903 227
7.94914 218
7.96925 230
7.98937 235
8.00948 208
8.0296 220
8.04971 207
8.06982 248
8.08994 227
8.11005 211
8.13016 180
8.15028 207
8.17039 215
8.1905 226
8.21062 224
8.23073 212
8.25085 210
8.27096 232
8.29107 239
8.31119 240
8.3313 212
8.35141 219
8.37153 228
8.39164 222
8.41176 244
8.43187 227
8.45198 232
8.4721 237
8.49221 236
8.51232 222
8.53244 227
8.55255 219
8.57266 229
8.59278 212
8.61289 197
8.63301 224
8.65312 259
8.67323 203
8.69335 203
8.71346 196
8.73357 214
8.75369 224
8.7738 258
8.79392 209
8.81403 229
8.83414 239
8.85426 232
8.87437 244
8.89448 214
8.9146 205
8.93471 227
8.95483 219
8.97494 237
8.99505 240
9.01517 252
9.03528 229
9.05539 220
9.07551 247
9.09562 233
9.11573 197
9.13585 254
9.15596 258
9.17608 257
9.19619 251
9.2163 239
9.23642 237
9.25653 244
9.27664 252
9.29676 230
9.31687 223
9.33699 251
9.3571 245
9.37721 244
9.39733 244
9.41744 261
9.43755 265
9.45767 221
9.47778 230
9.4979 248
9.51801 229
9.53812 242
9.55824 211
9.57835 242
9.59846 226
9.61858 219
9.63869 237
9.6588 232
9.67892 200
9.69903 253
9.71915 234
9.73926 224
9.75937 212
9.77949 217
9.7996 227
9.81971 248
9.83983 213
9.85994 234
9.88006 233
9.90017 243
9.92028 250
9.9404 210
9.96051 226
9.98062 221
10.00074 225
10.02085 221
10.04097 232
10.06108 248
10.08119 240
10.10131 215
10.12142 247
10.14153 253
10.16165 229
10.18176 237
10.20187 246
10.22199 213
10.2421 227
10.26222 249
10.28233 243
10.30244 227
10.32256 249
10.34267 221
10.36278 243
10.3829 259
10.40301 236
10.42313 244
10.44324 240
10.46335 236
10.48347 228
10.50358 230
10.52369 250
10.54381 217
10.56392 226
10.58403 213
10.60415 259
10.62426 252
10.64438 272
10.66449 224
10.6846 230
10.70472 217
10.72483 236
10.74494 244
10.76506 212
10.78517 226
10.80529 211
10.8254 230
10.84551 233
10.86563 200
10.88574 260
10.90585 230
10.92597 233
10.94608 255
10.9662 232
10.98631 245
11.00642 254
11.02654 221
11.04665 247
11.06676 286
11.08688 235
11.10699 214
11.1271 245
11.14722 218
11.16733 254
11.18745 215
11.20756 254
11.22767 254
11.24779 228
11.2679 251
11.28801 262
11.30813 268
11.32824 254
11.34836 248
11.36847 223
11.38858 241
11.4087 240
11.42881 258
11.44892 209
11.46904 228
11.48915 247
11.50927 254
11.52938 247
11.54949 271
11.56961 248
11.58972 245
11.60983 278
11.62995 236
11.65006 274
11.67017 273
11.69029 251
11.7104 263
11.73052 249
11.75063 234
11.77074 239
11.79086 274
11.81097 254
11.83108 270
11.8512 295
11.87131 265
11.89143 277
11.91154 315
11.93165 278
11.95177 263
11.97188 303
11.99199 292
12.01211 313
12.03222 281
12.05234 318
12.07245 299
12.09256 375
12.11268 400
12.13279 357
12.1529 342
12.17302 372
12.19313 360
12.21324 356
12.23336 363
12.25347 394
12.27359 425
12.2937 365
12.31381 352
12.33393 381
12.35404 366
12.37415 395
12.39427 310
12.41438 328
12.4345 336
12.45461 310
12.47472 331
12.49484 287
12.51495 292
12.53506 283
12.55518 282
12.57529 271
12.5954 262
12.61552 263
12.63563 274
12.65575 265
12.67586 231
12.69597 271
12.71609 264
12.7362 255
12.75631 270
12.77643 236
12.79654 270
12.81666 236
12.83677 229
12.85688 232
12.877 234
12.89711 195
12.91722 228
12.93734 237
12.95745 248
12.97757 218
12.99768 223
13.01779 240
13.03791 243
13.05802 220
13.07813 234
13.09825 241
13.11836 224
13.13847 234
13.15859 215
13.1787 201
13.19882 211
13.21893 232
13.23904 229
13.25916 215
13.27927 227
13.29938 208
13.3195 206
13.33961 251
13.35973 231
13.37984 191
13.39995 227
13.42007 218
13.44018 189
13.46029 194
13.48041 223
13.50052 204
13.52064 228
13.54075 201
13.56086 196
13.58098 209
13.60109 206
13.6212 225
13.64132 201
13.66143 216
13.68154 202
13.70166 183
13.72177 193
13.74189 208
13.762 213
13.78211 234
13.80223 207
13.82234 196
13.84245 176
13.86257 217
13.88268 214
13.9028 197
13.92291 223
13.94302 209
13.96314 212
13.98325 186
14.00336 212
14.02348 211
14.04359 228
14.06371 190
14.08382 202
14.10393 209
14.12405 202
14.14416 189
14.16427 212
14.18439 177
14.2045 228
14.22461 202
14.24473 200
14.26484 222
14.28496 204
14.30507 222
14.32518 193
14.3453 212
14.36541 214
14.38552 189
14.40564 205
14.42575 196
14.44587 202
14.46598 215
14.48609 204
14.50621 209
14.52632 175
14.54643 206
14.56655 189
14.58666 198
14.60677 184
14.62689 202
14.647 190
14.66712 218
14.68723 192
14.70734 213
14.72746 174
14.74757 185
14.76768 196
14.7878 181
14.80791 191
14.82803 189
14.84814 184
14.86825 211
14.88837 198
14.90848 182
14.92859 210
14.94871 202
14.96882 181
14.98894 169
15.00905 201
15.02916 192
15.04928 204
15.06939 218
15.0895 206
15.10962 214
15.12973 209
15.14984 172
15.16996 195
15.19007 198
15.21019 201
15.2303 190
15.25041 227
15.27053 168
15.29064 207
15.31075 198
15.33087 179
15.35098 192
15.3711 199
15.39121 175
15.41132 207
15.43144 189
15.45155 187
15.47166 156
15.49178 181
15.51189 186
15.53201 153
15.55212 204
15.57223 199
15.59235 211
15.61246 197
15.63257 174
15.65269 197
15.6728 201
15.69291 203
15.71303 188
15.73314 182
15.75326 207
15.77337 181
15.79348 193
15.8136 199
15.83371 194
15.85382 191
15.87394 193
15.89405 196
15.91417 225
15.93428 195
15.95439 196
15.97451 171
15.99462 186
16.01473 196
16.03485 185
16.05496 188
16.07508 191
16.09519 178
16.1153 191
16.13542 192
16.15553 156
16.17564 168
16.19576 157
16.21587 160
16.23598 195
16.2561 179
16.27621 181
16.29633 200
16.31644 188
16.33655 159
16.35667 211
16.37678 151
16.39689 185
16.41701 180
16.43712 210
16.45724 183
16.47735 203
16.49746 189
16.51758 202
16.53769 207
16.5578 193
16.57792 211
16.59803 172
16.61814 198
16.63826 198
16.65837 191
16.67849 172
16.6986 155
16.71871 172
16.73883 175
16.75894 177
16.77905 165
16.79917 186
16.81928 182
16.8394 188
16.85951 189
16.87962 170
16.89974 191
16.91985 195
16.93996 187
16.96008 186
16.98019 177
17.00031 165
17.02042 156
17.04053 196
17.06065 190
17.08076 199
17.10087 173
17.12099 202
17.1411 190
17.16121 176
17.18133 172
17.20144 197
17.22156 203
17.24167 155
17.26178 168
17.2819 188
17.30201 207
17.32212 155
17.34224 175
17.36235 202
17.38247 177
17.40258 176
17.42269 161
17.44281 174
17.46292 195
17.48303 173
17.50315 202
17.52326 175
17.54338 179
17.56349 196
17.5836 194
17.60372 150
17.62383 175
17.64394 153
17.66406 173
17.68417 154
17.70428 176
17.7244 162
17.74451 184
17.76463 194
17.78474 193
17.80485 198
17.82497 176
17.84508 199
17.86519 161
17.88531 169
17.90542 171
17.92554 188
17.94565 181
17.96576 187
17.98588 191
18.00599 200
18.0261 165
18.04622 187
18.06633 178
18.08645 179
18.10656 172
18.12667 190
18.14679 170
18.1669 193
18.18701 158
18.20713 182
18.22724 190
18.24735 177
18.26747 167
18.28758 195
18.3077 184
18.32781 161
18.34792 210
18.36804 179
18.38815 174
18.40826 180
18.42838 194
18.44849 172
18.46861 194
18.48872 202
18.50883 184
18.52895 154
18.54906 166
18.56917 187
18.58929 204
18.6094 176
18.62951 178
18.64963 191
18.66974 197
18.68986 173
18.70997 206
18.73008 202
18.7502 186
18.77031 173
18.79042 209
18.81054 186
18.83065 196
18.85077 189
18.87088 174
18.89099 165
18.91111 184
18.93122 187
18.95133 198
18.97145 189
18.99156 178
19.01168 176
19.03179 179
19.0519 189
19.07202 179
19.09213 188
19.11224 205
19.13236 196
19.15247 181
19.17258 182
19.1927 181
19.21281 184
19.23293 189
19.25304 172
19.27315 206
19.29327 214
19.31338 195
19.33349 203
19.35361 185
19.37372 212
19.39384 203
19.41395 200
19.43406 215
19.45418 201
19.47429 202
19.4944 200
19.51452 200
19.53463 203
19.55475 223
19.57486 224
19.59497 231
19.61509 224
19.6352 260
19.65531 250
19.67543 250
19.69554 242
19.71565 296
19.73577 281
19.75588 279
19.776 281
19.79611 324
19.81622 323
19.83634 357
19.85645 367
19.87656 369
19.89668 368
19.91679 345
19.93691 344
19.95702 347
19.97713 352
19.99725 354
20.01736 343
20.03747 353
20.05759 356
20.0777 338
20.09782 344
20.11793 343
20.13804 380
20.15816 358
20.17827 352
20.19838 339
20.2185 388
20.23861 350
20.25872 379
20.27884 403
20.29895 358
20.31907 393
20.33918 386
20.35929 379
20.37941 370
20.39952 421
20.41963 434
20.43975 428
20.45986 476
20.47998 502
20.50009 472
20.5202 547
20.54032 532
20.56043 594
20.58054 609
20.60066 712
20.62077 879
20.64088 993
20.661 1272
20.68111 1696
20.70123 2327
20.72134 3028
20.74145 3940
20.76157 5007
20.78168 6194
20.80179 6724
20.82191 7006
20.84202 6128
20.86214 5336
20.88225 3991
20.90236 2836
20.92248 1969
20.94259 1293
20.9627 946
20.98282 728
21.00293 644
21.02305 603
21.04316 533
21.06327 508
21.08339 493
21.1035 475
21.12361 436
21.14373 417
21.16384 383
21.18395 383
21.20407 380
21.22418 366
21.2443 370
21.26441 344
21.28452 344
21.30464 359
21.32475 346
21.34486 346
21.36498 342
21.38509 362
21.40521 322
21.42532 326
21.44543 348
21.46555 265
21.48566 292
21.50577 311
21.52589 312
21.546 295
21.56612 298
21.58623 282
21.60634 284
21.62646 289
21.64657 300
21.66668 274
21.6868 258
21.70691 267
21.72702 270
21.74714 245
21.76725 242
21.78737 284
21.80748 292
21.82759 276
21.84771 298
21.86782 259
21.88793 275
21.90805 280
21.92816 277
21.94828 261
21.96839 232
21.9885 263
22.00862 270
22.02873 271
22.04884 242
22.06896 262
22.08907 261
22.10919 245
22.1293 240
22.14941 268
22.16953 223
22.18964 283
22.20975 266
22.22987 244
22.24998 249
22.27009 263
22.29021 253
22.31032 256
22.33044 241
22.35055 274
22.37066 246
22.39078 260
22.41089 244
22.431 223
22.45112 260
22.47123 251
22.49135 270
22.51146 244
22.53157 213
22.55169 213
22.5718 232
22.59191 239
22.61203 256
22.63214 248
22.65225 220
22.67237 256
22.69248 248
22.7126 241
22.73271 259
22.75282 256
22.77294 233
22.79305 244
22.81316 241
22.83328 225
22.85339 250
22.87351 230
22.89362 250
22.91373 227
22.93385 212
22.95396 247
22.97407 236
22.99419 242
23.0143 221
23.03442 237
23.05453 255
23.07464 246
23.09476 240
23.11487 233
23.13498 240
23.1551 256
23.17521 275
23.19532 259
23.21544 260
23.23555 256
23.25567 228
23.27578 237
23.29589 242
23.31601 232
23.33612 238
23.35623 224
23.37635 271
23.39646 260
23.41658 239
23.43669 215
23.4568 228
23.47692 244
23.49703 228
23.51714 235
23.53726 239
23.55737 260
23.57749 221
23.5976 231
23.61771 232
23.63783 256
23.65794 228
23.67805 261
23.69817 266
23.71828 255
23.73839 236
23.75851 241
23.77862 255
23.79874 254
23.81885 247
23.83896 245
23.85908 300
23.87919 291
23.8993 295
23.91942 325
23.93953 315
23.95965 291
23.97976 326
23.99987 325
24.01999 300
24.0401 273
24.06021 263
24.08033 243
24.10044 254
24.12056 254
24.14067 275
24.16078 261
24.1809 264
24.20101 235
24.22112 254
24.24124 282
24.26135 269
24.28146 254
24.30158 251
24.32169 266
24.34181 244
24.36192 232
24.38203 265
24.40215 262
24.42226 279
24.44237 265
24.46249 299
24.4826 267
24.50272 275
24.52283 270
24.54294 303
24.56306 270
24.58317 282
24.60328 320
24.6234 307
24.64351 296
24.66362 350
24.68374 309
24.70385 339
24.72397 333
24.74408 306
24.76419 369
24.78431 324
24.80442 341
24.82453 336
24.84465 333
24.86476 320
24.88488 325
24.90499 316
24.9251 348
24.94522 325
24.96533 319
24.98544 274
25.00556 327
25.02567 310
25.04579 292
25.0659 291
25.08601 302
25.10613 306
25.12624 272
25.14635 302
25.16647 316
25.18658 289
25.20669 304
25.22681 296
25.24692 278
25.26704 300
25.28715 312
25.30726 267
25.32738 293
25.34749 285
25.3676 308
25.38772 255
25.40783 318
25.42795 330
25.44806 327
25.46817 309
25.48829 293
25.5084 332
25.52851 290
25.54863 347
25.56874 367
25.58886 374
25.60897 349
25.62908 394
25.6492 409
25.66931 440
25.68942 420
25.70954 406
25.72965 474
25.74976 463
25.76988 439
25.78999 467
25.81011 501
25.83022 484
25.85033 486
25.87045 510
25.89056 555
25.91067 524
25.93079 539
25.9509 617
25.97102 529
25.99113 563
26.01124 614
26.03136 586
26.05147 653
26.07158 706
26.0917 738
26.11181 796
26.13193 819
26.15204 834
26.17215 917
26.19227 1006
26.21238 1047
26.23249 1224
26.25261 1284
26.27272 1394
26.29283 1510
26.31295 1763
26.33306 1905
26.35318 2353
26.37329 2837
26.3934 3513
26.41352 4285
26.43363 5881
26.45374 7999
26.47386 10650
26.49397 14325
26.51409 18760
26.5342 23735
26.55431 28041
26.57443 30387
26.59454 31175
26.61465 29279
26.63477 25311
26.65488 20182
26.67499 14800
26.69511 10529
26.71522 6902
26.73534 4521
26.75545 2997
26.77556 2100
26.79568 1845
26.81579 1534
26.8359 1467
26.85602 1283
26.87613 1150
26.89625 1018
26.91636 970
26.93647 937
26.95659 867
26.9767 754
26.99681 684
27.01693 725
27.03704 640
27.05716 602
27.07727 609
27.09738 528
27.1175 530
27.13761 495
27.15772 469
27.17784 484
27.19795 477
27.21806 463
27.23818 497
27.25829 445
27.27841 480
27.29852 435
27.31863 441
27.33875 494
27.35886 502
27.37897 438
27.39909 479
27.4192 471
27.43932 461
27.45943 468
27.47954 425
27.49966 390
27.51977 371
27.53988 366
27.56 374
27.58011 339
27.60023 339
27.62034 334
27.64045 378
27.66057 332
27.68068 364
27.70079 343
27.72091 326
27.74102 287
27.76113 334
27.78125 338
27.80136 317
27.82148 303
27.84159 280
27.8617 287
27.88182 275
27.90193 282
27.92204 330
27.94216 289
27.96227 305
27.98239 291
28.0025 265
28.02261 249
28.04273 315
28.06284 281
28.08295 297
28.10307 260
28.12318 276
28.1433 281
28.16341 284
28.18352 293
28.20364 276
28.22375 241
28.24386 255
28.26398 315
28.28409 310
28.3042 273
28.32432 277
28.34443 250
28.36455 267
28.38466 245
28.40477 252
28.42489 253
28.445 248
28.46511 242
28.48523 251
28.50534 285
28.52546 269
28.54557 276
28.56568 232
28.5858 233
28.60591 261
28.62602 232
28.64614 244
28.66625 242
28.68636 260
28.70648 266
28.72659 254
28.74671 253
28.76682 266
28.78693 225
28.80705 261
28.82716 249
28.84727 241
28.86739 224
28.8875 233
28.90762 240
28.92773 258
28.94784 231
28.96796 225
28.98807 250
29.00818 238
29.0283 231
29.04841 248
29.06853 252
29.08864 222
29.10875 233
29.12887 274
29.14898 230
29.16909 222
29.18921 237
29.20932 207
29.22943 241
29.24955 242
29.26966 217
29.28978 230
29.30989 236
29.33 260
29.35012 250
29.37023 257
29.39034 222
29.41046 223
29.43057 234
29.45069 261
29.4708 232
29.49091 229
29.51103 238
29.53114 229
29.55125 205
29.57137 206
29.59148 231
29.6116 210
29.63171 232
29.65182 218
29.67194 233
29.69205 217
29.71216 237
29.73228 206
29.75239 219
29.7725 219
29.79262 219
29.81273 217
29.83285 225
29.85296 228
29.87307 214
29.89319 230
29.9133 236
29.93341 215
29.95353 226
29.97364 227
29.99376 252
30.01387 211
30.03398 227
30.0541 256
30.07421 223
30.09432 241
30.11444 242
30.13455 239
30.15467 219
30.17478 239
30.19489 230
30.21501 224
30.23512 227
30.25523 230
30.27535 226
30.29546 248
30.31557 230
30.33569 207
30.3558 213
30.37592 209
30.39603 242
30.41614 214
30.43626 202
30.45637 215
30.47648 201
30.4966 226
30.51671 204
30.53683 212
30.55694 211
30.57705 206
30.59717 217
30.61728 214
30.63739 270
30.65751 240
30.67762 211
30.69773 199
30.71785 239
30.73796 200
30.75808 220
30.77819 231
30.7983 214
30.81842 198
30.83853 225
30.85864 222
30.87876 203
30.89887 224
30.91899 225
30.9391 179
30.95921 205
30.97933 188
30.99944 192
31.01955 189
31.03967 183
31.05978 200
31.0799 197
31.10001 194
31.12012 188
31.14024 191
31.16035 198
31.18046 185
31.20058 208
31.22069 206
31.2408 168
31.26092 193
31.28103 211
31.30115 196
31.32126 168
31.34137 190
31.36149 203
31.3816 212
31.40171 178
31.42183 215
31.44194 180
31.46206 181
31.48217 179
31.50228 184
31.5224 205
31.54251 174
31.56262 177
31.58274 210
31.60285 204
31.62297 219
31.64308 192
31.66319 213
31.68331 193
31.70342 183
31.72353 169
31.74365 162
31.76376 225
31.78387 188
31.80399 201
31.8241 193
31.84422 178
31.86433 188
31.88444 185
31.90456 169
31.92467 183
31.94478 170
31.9649 208
31.98501 182
32.00513 169
32.02524 191
32.04535 190
32.06547 206
32.08558 197
32.10569 207
32.12581 208
32.14592 215
32.16604 181
32.18615 204
32.20626 213
32.22638 211
32.24649 177
32.2666 212
32.28672 180
32.30683 206
32.32694 184
32.34706 212
32.36717 217
32.38729 228
32.4074 220
32.42751 213
32.44763 223
32.46774 200
32.48785 191
32.50797 232
32.52808 192
32.5482 211
32.56831 222
32.58842 208
32.60854 213
32.62865 201
32.64876 210
32.66888 208
32.68899 177
32.7091 183
32.72922 168
32.74933 203
32.76945 194
32.78956 202
32.80967 200
32.82979 192
32.8499 184
32.87001 177
32.89013 166
32.91024 195
32.93036 177
32.95047 188
32.97058 177
32.9907 177
33.01081 164
33.03092 179
33.05104 162
33.07115 213
33.09127 154
33.11138 189
33.13149 156
33.15161 196
33.17172 160
33.19183 179
33.21195 196
33.23206 177
33.25217 206
33.27229 187
33.2924 198
33.31252 192
33.33263 178
33.35274 160
33.37286 206
33.39297 179
33.41308 185
33.4332 164
33.45331 170
33.47343 178
33.49354 215
33.51365 183
33.53377 164
33.55388 174
33.57399 178
33.59411 219
33.61422 167
33.63434 170
33.65445 186
33.67456 183
33.69468 175
33.71479 162
33.7349 179
33.75502 166
33.77513 162
33.79524 165
33.81536 176
33.83547 153
33.85559 165
33.8757 168
33.89581 168
33.91593 181
33.93604 183
33.95615 179
33.97627 183
33.99638 166
34.0165 210
34.03661 175
34.05672 190
34.07684 181
34.09695 191
34.11706 140
34.13718 170
34.15729 165
34.17741 187
34.19752 151
34.21763 179
34.23775 174
34.25786 182
34.27797 157
34.29809 184
34.3182 177
34.33831 179
34.35843 151
34.37854 187
34.39866 175
34.41877 184
34.43888 188
34.459 182
34.47911 193
34.49922 181
34.51934 180
34.53945 173
34.55957 200
34.57968 179
34.59979 172
34.61991 197
34.64002 187
34.66013 193
34.68025 211
34.70036 202
34.72047 211
34.74059 225
34.7607 210
34.78082 231
34.80093 235
34.82104 239
34.84116 240
34.86127 229
34.88138 221
34.9015 222
34.92161 236
34.94173 233
34.96184 263
34.98195 224
35.00207 258
35.02218 218
35.04229 212
35.06241 234
35.08252 266
35.10264 225
35.12275 248
35.14286 237
35.16298 253
35.18309 228
35.2032 230
35.22332 230
35.24343 245
35.26354 231
35.28366 201
35.30377 248
35.32389 220
35.344 244
35.36411 279
35.38423 232
35.40434 253
35.42445 236
35.44457 253
35.46468 231
35.4848 254
35.50491 256
35.52502 259
35.54514 254
35.56525 227
35.58536 210
35.60548 260
35.62559 281
35.64571 246
35.66582 249
35.68593 250
35.70605 224
35.72616 252
35.74627 258
35.76639 269
35.7865 270
35.80661 270
35.82673 257
35.84684 257
35.86696 257
35.88707 255
35.90718 266
35.9273 267
35.94741 278
35.96752 240
35.98764 281
36.00775 280
36.02787 296
36.04798 284
36.06809 261
36.08821 269
36.10832 314
36.12843 289
36.14855 295
36.16866 327
36.18878 326
36.20889 343
36.229 370
36.24912 373
36.26923 468
36.28934 521
36.30946 622
36.32957 685
36.34968 809
36.3698 1068
36.38991 1223
36.41003 1566
36.43014 1774
36.45025 2030
36.47037 2183
36.49048 2153
36.51059 1965
36.53071 1754
36.55082 1579
36.57094 1349
36.59105 1248
36.61116 907
36.63128 723
36.65139 589
36.6715 445
36.69162 372
36.71173 331
36.73184 301
36.75196 297
36.77207 286
36.79219 276
36.8123 262
36.83241 279
36.85253 271
36.87264 252
36.89275 246
36.91287 236
36.93298 243
36.9531 237
36.97321 233
36.99332 234
37.01344 253
37.03355 216
37.05366 225
37.07378 208
37.09389 219
37.11401 235
37.13412 202
37.15423 238
37.17435 230
37.19446 206
37.21457 205
37.23469 221
37.2548 190
37.27491 204
37.29503 192
37.31514 188
37.33526 212
37.35537 167
37.37548 228
37.3956 206
37.41571 208
37.43582 211
37.45594 234
37.47605 199
37.49617 221
37.51628 207
37.53639 216
37.55651 213
37.57662 214
37.59673 220
37.61685 212
37.63696 211
37.65708 193
37.67719 235
37.6973 182
37.71742 209
37.73753 227
37.75764 199
37.77776 217
37.79787 212
37.81798 200
37.8381 211
37.85821 195
37.87833 205
37.89844 190
37.91855 244
37.93867 190
37.95878 204
37.97889 205
37.99901 214
38.01912 220
38.03924 208
38.05935 212
38.07946 213
38.09958 198
38.11969 246
38.1398 263
38.15992 240
38.18003 250
38.20015 202
38.22026 213
38.24037 242
38.26049 237
38.2806 241
38.30071 260
38.32083 241
38.34094 258
38.36105 220
38.38117 231
38.40128 265
38.4214 228
38.44151 241
38.46162 243
38.48174 255
38.50185 240
38.52196 228
38.54208 243
38.56219 229
38.58231 211
38.60242 240
38.62253 215
38.64265 223
38.66276 228
38.68287 238
38.70299 229
38.7231 198
38.74321 220
38.76333 248
38.78344 212
38.80356 226
38.82367 222
38.84378 217
38.8639 240
38.88401 230
38.90412 229
38.92424 231
38.94435 244
38.96447 238
38.98458 212
39.00469 261
39.02481 271
39.04492 273
39.06503 288
39.08515 283
39.10526 273
39.12538 337
39.14549 334
39.1656 387
39.18572 408
39.20583 478
39.22594 563
39.24606 651
39.26617 724
39.28628 879
39.3064 1112
39.32651 1265
39.34663 1643
39.36674 1814
39.38685 1994
39.40697 2099
39.42708 2064
39.44719 1742
39.46731 1455
39.48742 1365
39.50754 1188
39.52765 941
39.54776 772
39.56788 603
39.58799 436
39.6081 381
39.62822 350
39.64833 287
39.66845 307
39.68856 260
39.70867 274
39.72879 240
39.7489 263
39.76901 252
39.78913 257
39.80924 259
39.82935 233
39.84947 225
39.86958 240
39.8897 215
39.90981 278
39.92992 265
39.95004 290
39.97015 269
39.99026 302
40.01038 311
40.03049 336
40.05061 342
40.07072 417
40.09083 468
40.11095 527
40.13106 730
40.15117 813
40.17129 879
40.1914 984
40.21152 1016
40.23163 1132
40.25174 1099
40.27186 912
40.29197 873
40.31208 700
40.3322 682
40.35231 619
40.37242 489
40.39254 444
40.41265 327
40.43277 306
40.45288 231
40.47299 261
40.49311 218
40.51322 224
40.53333 208
40.55345 214
40.57356 223
40.59368 232
40.61379 188
40.6339 200
40.65402 192
40.67413 217
40.69424 213
40.71436 226
40.73447 177
40.75458 229
40.7747 183
40.79481 204
40.81493 197
40.83504 191
40.85515 176
40.87527 188
40.89538 201
40.91549 208
40.93561 211
40.95572 217
40.97584 209
40.99595 211
41.01606 195
41.03618 213
41.05629 218
41.0764 205
41.09652 202
41.11663 198
41.13675 191
41.15686 213
41.17697 216
41.19709 207
41.2172 196
41.23731 195
41.25743 174
41.27754 177
41.29765 212
41.31777 190
41.33788 197
41.358 202
41.37811 224
41.39822 200
41.41834 208
41.43845 199
41.45856 175
41.47868 200
41.49879 180
41.51891 195
41.53902 221
41.55913 202
41.57925 192
41.59936 181
41.61947 177
41.63959 204
41.6597 205
41.67982 210
41.69993 193
41.72004 217
41.74016 221
41.76027 202
41.78038 205
41.8005 193
41.82061 203
41.84072 185
41.86084 203
41.88095 189
41.90107 197
41.92118 176
41.94129 181
41.96141 202
41.98152 214
42.00163 227
42.02175 228
42.04186 221
42.06198 244
42.08209 257
42.1022 254
42.12232 276
42.14243 320
42.16254 317
42.18266 336
42.20277 431
42.22289 473
42.243 499
42.26311 686
42.28323 802
42.30334 923
42.32345 1133
42.34357 1374
42.36368 1367
42.38379 1460
42.40391 1374
42.42402 1330
42.44414 1080
42.46425 976
42.48436 864
42.50448 780
42.52459 676
42.5447 589
42.56482 448
42.58493 352
42.60505 309
42.62516 254
42.64527 235
42.66539 236
42.6855 221
42.70561 217
42.72573 205
42.74584 227
42.76595 197
42.78607 193
42.80618 188
42.8263 173
42.84641 172
42.86652 175
42.88664 176
42.90675 165
42.92686 193
42.94698 183
42.96709 177
42.98721 171
43.00732 190
43.02743 155
43.04755 149
43.06766 164
43.08777 184
43.10789 187
43.128 176
43.14812 178
43.16823 171
43.18834 150
43.20846 161
43.22857 152
43.24868 169
43.2688 187
43.28891 176
43.30902 156
43.32914 188
43.34925 181
43.36937 171
43.38948 155
43.40959 156
43.42971 174
43.44982 175
43.46993 168
43.49005 181
43.51016 178
43.53028 172
43.55039 193
43.5705 138
43.59062 177
43.61073 189
43.63084 185
43.65096 171
43.67107 167
43.69119 169
43.7113 167
43.73141 160
43.75153 179
43.77164 160
43.79175 170
43.81187 165
43.83198 175
43.85209 177
43.87221 174
43.89232 160
43.91244 178
43.93255 138
43.95266 173
43.97278 162
43.99289 197
44.013 161
44.03312 150
44.05323 153
44.07335 185
44.09346 150
44.11357 192
44.13369 152
44.1538 177
44.17391 156
44.19403 174
44.21414 169
44.23426 139
44.25437 180
44.27448 154
44.2946 159
44.31471 172
44.33482 174
44.35494 181
44.37505 168
44.39516 175
44.41528 181
44.43539 155
44.45551 203
44.47562 176
44.49573 160
44.51585 158
44.53596 146
44.55607 157
44.57619 153
44.5963 170
44.61642 157
44.63653 152
44.65664 143
44.67676 178
44.69687 171
44.71698 172
44.7371 181
44.75721 166
44.77732 186
44.79744 151
44.81755 173
44.83767 189
44.85778 182
44.87789 171
44.89801 147
44.91812 183
44.93823 175
44.95835 192
44.97846 173
44.99858 183
45.01869 190
45.0388 174
45.05892 190
45.07903 174
45.09914 167
45.11926 191
45.13937 152
45.15949 185
45.1796 181
45.19971 153
45.21983 180
45.23994 179
45.26005 182
45.28017 178
45.30028 193
45.32039 217
45.34051 207
45.36062 207
45.38074 218
45.40085 203
45.42096 233
45.44108 235
45.46119 250
45.4813 271
45.50142 276
45.52153 310
45.54165 349
45.56176 365
45.58187 454
45.60199 466
45.6221 624
45.64221 715
45.66233 821
45.68244 901
45.70256 977
45.72267 1064
45.74278 969
45.7629 919
45.78301 761
45.80312 740
45.82324 630
45.84335 585
45.86346 548
45.88358 448
45.90369 387
45.92381 294
45.94392 312
45.96403 210
45.98415 219
46.00426 212
46.02437 207
46.04449 178
46.0646 190
46.08472 168
46.10483 165
46.12494 196
46.14506 160
46.16517 183
46.18528 181
46.2054 178
46.22551 160
46.24563 171
46.26574 157
46.28585 179
46.30597 148
46.32608 158
46.34619 167
46.36631 168
46.38642 178
46.40653 165
46.42665 176
46.44676 169
46.46688 168
46.48699 179
46.5071 181
46.52722 167
46.54733 167
46.56744 165
46.58756 162
46.60767 176
46.62779 155
46.6479 147
46.66801 179
46.68813 167
46.70824 168
46.72835 162
46.74847 155
46.76858 169
46.78869 155
46.80881 152
46.82892 160
46.84904 175
46.86915 164
46.88926 146
46.90938 149
46.92949 166
46.9496 166
46.96972 136
46.98983 153
47.00995 166
47.03006 156
47.05017 171
47.07029 163
47.0904 155
47.11051 150
47.13063 165
47.15074 166
47.17086 163
47.19097 165
47.21108 164
47.2312 158
47.25131 173
47.27142 142
47.29154 142
47.31165 156
47.33176 174
47.35188 163
47.37199 165
47.39211 141
47.41222 149
47.43233 155
47.45245 155
47.47256 170
47.49267 152
47.51279 152
47.5329 162
47.55302 155
47.57313 155
47.59324 152
47.61336 155
47.63347 148
47.65358 182
47.6737 148
47.69381 151
47.71393 156
47.73404 148
47.75415 154
47.77427 145
47.79438 150
47.81449 146
47.83461 155
47.85472 182
47.87483 156
47.89495 158
47.91506 153
47.93518 171
47.95529 167
47.9754 162
47.99552 154
48.01563 149
48.03574 147
48.05586 157
48.07597 160
48.09609 166
48.1162 169
48.13631 159
48.15643 163
48.17654 168
48.19665 148
48.21677 145
48.23688 147
48.257 183
48.27711 158
48.29722 134
48.31734 173
48.33745 160
48.35756 157
48.37768 182
48.39779 157
48.4179 156
48.43802 174
48.45813 198
48.47825 161
48.49836 175
48.51847 170
48.53859 143
48.5587 165
48.57881 170
48.59893 163
48.61904 182
48.63916 182
48.65927 180
48.67938 184
48.6995 200
48.71961 188
48.73972 162
48.75984 164
48.77995 196
48.80006 183
48.82018 160
48.84029 169
48.86041 190
48.88052 188
48.90063 169
48.92075 178
48.94086 173
48.96097 164
48.98109 171
49.0012 154
49.02132 176
49.04143 188
49.06154 175
49.08166 190
49.10177 182
49.12188 185
49.142 206
49.16211 213
49.18223 167
49.20234 188
49.22245 171
49.24257 181
49.26268 179
49.28279 161
49.30291 184
49.32302 197
49.34313 187
49.36325 200
49.38336 184
49.40348 212
49.42359 199
49.4437 207
49.46382 182
49.48393 218
49.50404 190
49.52416 196
49.54427 205
49.56439 213
49.5845 227
49.60461 236
49.62473 235
49.64484 253
49.66495 261
49.68507 301
49.70518 306
49.7253 325
49.74541 396
49.76552 371
49.78564 450
49.80575 475
49.82586 590
49.84598 601
49.86609 696
49.8862 798
49.90632 969
49.92643 1196
49.94655 1431
49.96666 1710
49.98677 2037
50.00689 2399
50.027 2843
50.04711 3131
50.06723 3155
50.08734 3121
50.10746 2705
50.12757 2352
50.14768 2115
50.1678 1884
50.18791 1766
50.20802 1603
50.22814 1527
50.24825 1175
50.26837 895
50.28848 703
50.30859 499
50.32871 421
50.34882 374
50.36893 341
50.38905 337
50.40916 289
50.42927 327
50.44939 311
50.4695 307
50.48962 312
50.50973 281
50.52984 280
50.54996 290
50.57007 273
50.59018 298
50.6103 287
50.63041 246
50.65053 233
50.67064 247
50.69075 224
50.71087 227
50.73098 199
50.75109 173
50.77121 243
50.79132 219
50.81143 186
50.83155 199
50.85166 184
50.87178 199
50.89189 171
50.912 153
50.93212 150
50.95223 191
50.97234 197
50.99246 186
51.01257 144
51.03269 185
51.0528 174
51.07291 169
51.09303 196
51.11314 153
51.13325 168
51.15337 148
51.17348 163
51.1936 175
51.21371 171
51.23382 153
51.25394 168
51.27405 167
51.29416 145
51.31428 162
51.33439 162
51.3545 136
51.37462 153
51.39473 164
51.41485 132
51.43496 154
51.45507 160
51.47519 145
51.4953 148
51.51541 173
51.53553 150
51.55564 166
51.57576 166
51.59587 157
51.61598 152
51.6361 150
51.65621 133
51.67632 148
51.69644 134
51.71655 148
51.73667 128
51.75678 173
51.77689 154
51.79701 134
51.81712 151
51.83723 138
51.85735 148
51.87746 158
51.89757 157
51.91769 133
51.9378 138
51.95792 149
51.97803 151
51.99814 139
52.01826 139
52.03837 163
52.05848 134
52.0786 149
52.09871 129
52.11883 145
52.13894 153
52.15905 149
52.17917 162
52.19928 148
52.21939 164
52.23951 134
52.25962 151
52.27974 148
52.29985 140
52.31996 151
52.34008 156
52.36019 137
52.3803 144
52.40042 131
52.42053 148
52.44064 120
52.46076 155
52.48087 153
52.50099 139
52.5211 153
52.54121 155
52.56133 127
52.58144 131
52.60155 144
52.62167 135
52.64178 144
52.6619 149
52.68201 153
52.70212 157
52.72224 167
52.74235 151
52.76246 166
52.78258 167
52.80269 139
52.8228 167
52.84292 151
52.86303 157
52.88315 144
52.90326 159
52.92337 158
52.94349 182
52.9636 161
52.98371 171
53.00383 183
53.02394 140
53.04406 167
53.06417 177
53.08428 159
53.1044 148
53.12451 179
53.14462 183
53.16474 161
53.18485 182
53.20497 165
53.22508 148
53.24519 174
53.26531 180
53.28542 172
53.30553 194
53.32565 151
53.34576 191
53.36587 158
53.38599 179
53.4061 165
53.42622 164
53.44633 178
53.46644 192
53.48656 145
53.50667 172
53.52678 173
53.5469 187
53.56701 189
53.58713 183
53.60724 176
53.62735 183
53.64747 174
53.66758 169
53.68769 191
53.70781 180
53.72792 187
53.74804 190
53.76815 180
53.78826 161
53.80838 183
53.82849 172
53.8486 164
53.86872 178
53.88883 168
53.90894 172
53.92906 154
53.94917 197
53.96929 169
53.9894 158
54.00951 174
54.02963 158
54.04974 195
54.06985 171
54.08997 170
54.11008 183
54.1302 200
54.15031 168
54.17042 190
54.19054 211
54.21065 192
54.23076 192
54.25088 216
54.27099 209
54.29111 206
54.31122 214
54.33133 203
54.35145 199
54.37156 204
54.39167 195
54.41179 221
54.4319 214
54.45201 228
54.47213 235
54.49224 270
54.51236 262
54.53247 294
54.55258 273
54.5727 340
54.59281 337
54.61292 350
54.63304 405
54.65315 490
54.67327 535
54.69338 553
54.71349 648
54.73361 824
54.75372 879
54.77383 976
54.79395 1054
54.81406 1051
54.83417 938
54.85429 810
54.8744 742
54.89452 692
54.91463 676
54.93474 643
54.95486 578
54.97497 556
54.99508 486
55.0152 421
55.03531 389
55.05543 323
55.07554 343
55.09565 331
55.11577 312
55.13588 346
55.15599 413
55.17611 433
55.19622 498
55.21634 550
55.23645 546
55.25656 542
55.27668 552
55.29679 493
55.3169 440
55.33702 404
55.35713 400
55.37724 349
55.39736 387
55.41747 343
55.43759 287
55.4577 315
55.47781 236
55.49793 279
55.51804 200
55.53815 194
55.55827 205
55.57838 199
55.5985 191
55.61861 223
55.63872 164
55.65884 189
55.67895 186
55.69906 162
55.71918 157
55.73929 159
55.75941 202
55.77952 173
55.79963 179
55.81975 176
55.83986 183
55.85997 173
55.88009 160
55.9002 140
55.92031 170
55.94043 165
55.96054 161
55.98066 154
56.00077 136
56.02088 182
56.041 150
56.06111 181
56.08122 176
56.10134 168
56.12145 184
56.14157 144
56.16168 194
56.18179 165
56.20191 158
56.22202 151
56.24213 149
56.26225 165
56.28236 150
56.30248 173
56.32259 139
56.3427 150
56.36282 158
56.38293 183
56.40304 160
56.42316 170
56.44327 180
56.46338 170
56.4835 146
56.50361 152
56.52373 151
56.54384 168
56.56395 180
56.58407 171
56.60418 150
56.62429 131
56.64441 158
56.66452 179
56.68464 184
56.70475 168
56.72486 156
56.74498 153
56.76509 172
56.7852 160
56.80532 169
56.82543 149
56.84554 170
56.86566 155
56.88577 148
56.90589 174
56.926 159
56.94611 167
56.96623 152
56.98634 167
57.00645 163
57.02657 179
57.04668 173
57.0668 188
57.08691 184
57.10702 176
57.12714 176
57.14725 226
57.16736 195
57.18748 181
57.20759 206
57.22771 192
57.24782 184
57.26793 187
57.28805 152
57.30816 165
57.32827 149
57.34839 144
57.3685 169
57.38861 157
57.40873 165
57.42884 153
57.44896 140
57.46907 163
57.48918 157
57.5093 158
57.52941 163
57.54952 173
57.56964 158
57.58975 148
57.60987 135
57.62998 168
57.65009 143
57.67021 175
57.69032 154
57.71043 139
57.73055 139
57.75066 151
57.77078 138
57.79089 153
57.811 160
57.83112 150
57.85123 152
57.87134 139
57.89146 149
57.91157 141
57.93168 147
57.9518 128
57.97191 174
57.99203 185
58.01214 147
58.03225 175
58.05237 137
58.07248 153
58.09259 165
58.11271 154
58.13282 154
58.15294 161
58.17305 131
58.19316 157
58.21328 167
58.23339 164
58.2535 162
58.27362 155
58.29373 153
58.31385 151
58.33396 134
58.35407 142
58.37419 145
58.3943 156
58.41441 137
58.43453 150
58.45464 144
58.47475 135
58.49487 173
58.51498 156
58.5351 157
58.55521 142
58.57532 171
58.59544 119
58.61555 180
58.63566 156
58.65578 147
58.67589 133
58.69601 174
58.71612 154
58.73623 152
58.75635 158
58.77646 171
58.79657 168
58.81669 169
58.8368 160
58.85691 155
58.87703 168
58.89714 164
58.91726 158
58.93737 168
58.95748 156
58.9776 142
58.99771 165
59.01782 167
59.03794 158
59.05805 153
59.07817 150
59.09828 159
59.11839 170
59.13851 166
59.15862 168
59.17873 163
59.19885 172
59.21896 180
59.23908 205
59.25919 195
59.2793 194
59.29942 184
59.31953 181
59.33964 203
59.35976 182
59.37987 201
59.39998 206
59.4201 247
59.44021 213
59.46033 209
59.48044 249
59.50055 304
59.52067 288
59.54078 292
59.56089 347
59.58101 331
59.60112 361
59.62124 398
59.64135 458
59.66146 527
59.68158 583
59.70169 658
59.7218 789
59.74192 880
59.76203 1076
59.78215 1211
59.80226 1467
59.82237 1644
59.84249 1829
59.8626 2027
59.88271 2075
59.90283 1865
59.92294 1795
59.94305 1512
59.96317 1256
59.98328 1144
60.0034 1169
60.02351 1111
60.04362 1090
60.06374 1069
60.08385 825
60.10396 642
60.12408 531
60.14419 403
60.16431 336
60.18442 270
60.20453 271
60.22465 221
60.24476 234
60.26487 214
60.28499 221
60.3051 210
60.32522 195
60.34533 208
60.36544 197
60.38556 166
60.40567 203
60.42578 170
60.4459 153
60.46601 184
60.48612 170
60.50624 148
60.52635 174
60.54647 155
60.56658 159
60.58669 160
60.60681 165
60.62692 152
60.64703 155
60.66715 158
60.68726 163
60.70738 182
60.72749 161
60.7476 162
60.76772 184
60.78783 170
60.80794 166
60.82806 170
60.84817 164
60.86828 148
60.8884 157
60.90851 186
60.92863 152
60.94874 157
60.96885 146
60.98897 159
61.00908 156
61.02919 189
61.04931 146
61.06942 144
61.08954 166
61.10965 149
61.12976 141
61.14988 156
61.16999 140
61.1901 167
61.21022 144
61.23033 150
61.25045 131
61.27056 139
61.29067 157
61.31079 163
61.3309 176
61.35101 158
61.37113 158
61.39124 150
61.41135 133
61.43147 155
61.45158 157
61.4717 144
61.49181 150
61.51192 154
61.53204 149
61.55215 169
61.57226 189
61.59238 162
61.61249 160
61.63261 154
61.65272 173
61.67283 155
61.69295 158
61.71306 151
61.73317 148
61.75329 143
61.7734 153
61.79352 185
61.81363 152
61.83374 184
61.85386 170
61.87397 182
61.89408 169
61.9142 171
61.93431 180
61.95442 170
61.97454 189
61.99465 176
62.01477 194
62.03488 190
62.05499 162
62.07511 191
62.09522 199
62.11533 222
62.13545 189
62.15556 195
62.17568 198
62.19579 216
62.2159 190
62.23602 204
62.25613 204
62.27624 198
62.29636 196
62.31647 188
62.33659 195
62.3567 192
62.37681 177
62.39693 195
62.41704 187
62.43715 146
62.45727 187
62.47738 178
62.49749 179
62.51761 147
62.53772 167
62.55784 159
62.57795 164
62.59806 150
62.61818 140
62.63829 164
62.6584 141
62.67852 154
62.69863 128
62.71875 172
62.73886 160
62.75897 146
62.77909 159
62.7992 127
62.81931 158
62.83943 143
62.85954 129
62.87965 140
62.89977 159
62.91988 163
62.94 138
62.96011 146
62.98022 144
63.00034 168
63.02045 162
63.04056 148
63.06068 159
63.08079 152
63.10091 154
63.12102 130
63.14113 151
63.16125 152
63.18136 146
63.20147 175
63.22159 151
63.2417 176
63.26182 142
63.28193 140
63.30204 195
63.32216 166
63.34227 174
63.36238 169
63.3825 175
63.40261 183
63.42272 158
63.44284 145
63.46295 159
63.48307 151
63.50318 140
63.52329 169
63.54341 168
63.56352 173
63.58363 184
63.60375 150
63.62386 203
63.64398 170
63.66409 189
63.6842 195
63.70432 207
63.72443 195
63.74454 208
63.76466 224
63.78477 215
63.80489 291
63.825 313
63.84511 307
63.86523 369
63.88534 393
63.90545 421
63.92557 458
63.94568 447
63.96579 453
63.98591 466
64.00602 399
64.02614 366
64.04625 330
64.06636 333
64.08648 278
64.10659 316
64.1267 303
64.14682 317
64.16693 272
64.18705 261
64.20716 249
64.22727 224
64.24739 180
64.2675 177
64.28761 169
64.30773 181
64.32784 172
64.34796 159
64.36807 153
64.38818 155
64.4083 160
64.42841 159
64.44852 127
64.46864 148
64.48875 156
64.50886 139
64.52898 158
64.54909 130
64.56921 135
64.58932 154
64.60943 153
64.62955 139
64.64966 144
64.66977 141
64.68989 149
64.71 142
64.73012 145
64.75023 149
64.77034 149
64.79046 133
64.81057 144
64.83068 135
64.8508 135
64.87091 156
64.89102 131
64.91114 137
64.93125 157
64.95137 138
64.97148 141
64.99159 149
65.01171 130
65.03182 153
65.05193 157
65.07205 166
65.09216 112
65.11228 150
65.13239 162
65.1525 164
65.17262 150
65.19273 121
65.21284 133
65.23296 134
65.25307 149
65.27319 154
65.2933 157
65.31341 147
65.33353 168
65.35364 150
65.37375 136
65.39387 164
65.41398 186
65.43409 156
65.45421 157
65.47432 168
65.49444 127
65.51455 152
65.53466 162
65.55478 193
65.57489 190
65.595 176
65.61512 220
65.63523 186
65.65535 209
65.67546 232
65.69557 256
65.71569 222
65.7358 226
65.75591 198
65.77603 202
65.79614 205
65.81626 179
65.83637 190
65.85648 190
65.8766 194
65.89671 202
65.91682 171
65.93694 173
65.95705 176
65.97716 163
65.99728 173
66.01739 149
66.03751 158
66.05762 163
66.07773 177
66.09785 166
66.11796 131
66.13807 157
66.15819 151
66.1783 150
66.19842 130
66.21853 149
66.23864 138
66.25876 142
66.27887 150
66.29898 150
66.3191 184
66.33921 163
66.35933 169
66.37944 138
66.39955 140
66.41967 151
66.43978 141
66.45989 163
66.48001 143
66.50012 151
66.52023 154
66.54035 155
66.56046 148
66.58058 140
66.60069 156
66.6208 163
66.64092 140
66.66103 134
66.68114 166
66.70126 162
66.72137 155
66.74149 148
66.7616 155
66.78171 159
66.80183 145
66.82194 153
66.84205 162
66.86217 156
66.88228 148
66.90239 155
66.92251 172
66.94262 164
66.96274 163
66.98285 170
67.00296 177
67.02308 160
67.04319 190
67.0633 157
67.08342 200
67.10353 174
67.12365 203
67.14376 181
67.16387 194
67.18399 214
67.2041 205
67.22421 214
67.24433 202
67.26444 240
67.28456 240
67.30467 221
67.32478 242
67.3449 269
67.36501 285
67.38512 300
67.40524 351
67.42535 382
67.44546 415
67.46558 402
67.48569 456
67.50581 529
67.52592 609
67.54603 720
67.56615 878
67.58626 963
67.60637 992
67.62649 1130
67.6466 1189
67.66672 1207
67.68683 1219
67.70694 1116
67.72706 987
67.74717 910
67.76728 819
67.7874 842
67.80751 883
67.82763 867
67.84774 950
67.86785 988
67.88797 982
67.90808 975
67.92819 1038
67.94831 1003
67.96842 1096
67.98853 1197
68.00865 1356
68.02876 1508
68.04888 1594
68.06899 1716
68.0891 1646
68.10922 1532
68.12933 1525
68.14944 1392
68.16956 1452
68.18967 1382
68.20979 1417
68.2299 1438
68.25001 1457
68.27013 1357
68.29024 1173
68.31035 955
68.33047 925
68.35058 757
68.3707 634
68.39081 633
68.41092 666
68.43104 523
68.45115 553
68.47126 468
68.49138 389
68.51149 356
68.5316 292
68.55172 248
68.57183 257
68.59195 234
68.61206 193
68.63217 228
68.65229 193
68.6724 200
68.69251 196
68.71263 178
68.73274 213
68.75286 175
68.77297 148
68.79308 182
68.8132 149
68.83331 173
68.85342 174
68.87354 185
68.89365 182
68.91376 155
68.93388 167
68.95399 154
68.97411 168
68.99422 157
69.01433 143
69.03445 138
69.05456 156
69.07467 170
69.09479 152
69.1149 160
69.13502 160
69.15513 140
69.17524 144
69.19536 151
69.21547 143
69.23558 137
69.2557 142
69.27581 139
69.29593 147
69.31604 121
69.33615 135
69.35627 128
69.37638 138
69.39649 145
69.41661 149
69.43672 146
69.45683 158
69.47695 150
69.49706 140
69.51718 143
69.53729 146
69.5574 146
69.57752 161
69.59763 143
69.61774 138
69.63786 143
69.65797 148
69.67809 143
69.6982 149
69.71831 139
69.73843 134
69.75854 128
69.77865 151
69.79877 160
69.81888 147
69.839 133
69.85911 121
69.87922 154
69.89934 145
69.91945 156
69.93956 155
69.95968 129
69.97979 138
69.9999 137
70.02002 137
70.04013 139
70.06025 133
70.08036 132
70.10047 149
70.12059 139
70.1407 134
70.16081 126
70.18093 118
70.20104 139
70.22116 144
70.24127 135
70.26138 140
70.2815 147
70.30161 129
70.32172 143
70.34184 132
70.36195 156
70.38207 147
70.40218 139
70.42229 134
70.44241 153
70.46252 132
70.48263 137
70.50275 135
70.52286 138
70.54297 123
70.56309 117
70.5832 151
70.60332 121
70.62343 142
70.64354 135
70.66366 135
70.68377 128
70.70388 138
70.724 118
70.74411 138
70.76423 125
70.78434 136
70.80445 129
70.82457 154
70.84468 112
70.86479 139
70.88491 136
70.90502 115
70.92513 123
70.94525 145
70.96536 146
70.98548 134
71.00559 134
71.0257 129
71.04582 101
71.06593 127
71.08604 133
71.10616 134
71.12627 126
71.14639 122
71.1665 128
71.18661 134
71.20673 129
71.22684 143
71.24695 123
71.26707 132
71.28718 131
71.3073 116
71.32741 136
71.34752 135
71.36764 129
71.38775 131
71.40786 111
71.42798 100
71.44809 139
71.4682 126
71.48832 114
71.50843 110
71.52855 126
71.54866 138
71.56877 149
71.58889 138
71.609 110
71.62911 153
71.64923 133
71.66934 112
71.68946 128
71.70957 122
71.72968 131
71.7498 111
71.76991 115
71.79002 143
71.81014 130
71.83025 133
71.85037 130
71.87048 147
71.89059 129
71.91071 134
71.93082 124
71.95093 132
71.97105 139
71.99116 156
72.01127 124
72.03139 128
72.0515 153
72.07162 128
72.09173 126
72.11184 115
72.13196 119
72.15207 131
72.17218 127
72.1923 137
72.21241 124
72.23253 145
72.25264 136
72.27275 125
72.29287 121
72.31298 147
72.33309 124
72.35321 121
72.37332 118
72.39344 129
72.41355 126
72.43366 136
72.45378 149
72.47389 132
72.494 117
72.51412 126
72.53423 123
72.55434 130
72.57446 126
72.59457 134
72.61469 133
72.6348 119
72.65491 131
72.67503 142
72.69514 150
72.71525 136
72.73537 119
72.75548 141
72.7756 135
72.79571 137
72.81582 126
72.83594 132
72.85605 150
72.87616 150
72.89628 146
72.91639 164
72.9365 149
72.95662 147
72.97673 145
72.99685 160
73.01696 160
73.03707 150
73.05719 180
73.0773 177
73.09741 182
73.11753 188
73.13764 196
73.15776 231
73.17787 224
73.19798 248
73.2181 241
73.23821 273
73.25832 283
73.27844 329
73.29855 361
73.31867 389
73.33878 463
73.35889 462
73.37901 453
73.39912 473
73.41923 437
73.43935 397
73.45946 363
73.47957 330
73.49969 285
73.5198 306
73.53992 304
73.56003 306
73.58014 318
73.60026 302
73.62037 276
73.64048 272
73.6606 243
73.68071 207
73.70083 161
73.72094 147
73.74105 155
73.76117 152
73.78128 177
73.80139 154
73.82151 165
73.84162 143
73.86174 182
73.88185 135
73.90196 127
73.92208 145
73.94219 138
73.9623 135
73.98242 124
74.00253 124
74.02264 120
74.04276 143
74.06287 135
74.08299 142
74.1031 116
74.12321 154
74.14333 148
74.16344 139
74.18355 129
74.20367 122
74.22378 129
74.2439 127
74.26401 141
74.28412 142
74.30424 113
74.32435 131
74.34446 131
74.36458 125
74.38469 147
74.40481 144
74.42492 133
74.44503 146
74.46515 117
74.48526 144
74.50537 158
74.52549 143
74.5456 149
74.56571 142
74.58583 106
74.60594 129
74.62606 141
74.64617 140
74.66628 124
74.6864 152
74.70651 126
74.72662 137
74.74674 134
74.76685 145
74.78697 130
74.80708 131
74.82719 126
74.84731 135
74.86742 135
74.88753 149
74.90765 136
74.92776 117
74.94787 153
74.96799 135
74.9881 133
75.00822 130
