3.00117 21990
3.02128 21034
3.0414 20351
3.06151 20193
3.08162 19262
3.10174 19257
3.12185 18398
3.14197 18197
3.16208 17570
3.18219 17069
3.20231 17027
3.22242 15857
3.24253 15852
3.26265 15397
3.28276 14726
3.30288 14555
3.32299 13724
3.3431 13513
3.36322 12735
3.38333 12396
3.40344 12314
3.42356 11443
3.44367 11559
3.46379 11081
3.4839 10600
3.50401 10413
3.52413 9916
3.54424 9551
3.56435 9405
3.58447 9021
3.60458 8664
3.62469 8430
3.64481 8167
3.66492 7772
3.68504 7433
3.70515 7295
3.72526 6602
3.74538 6738
3.76549 6414
3.7856 6145
3.80572 5727
3.82583 5502
3.84595 5591
3.86606 5389
3.88617 5047
3.90629 4988
3.9264 4542
3.94651 4365
3.96663 4458
3.98674 4022
4.00686 3978
4.02697 3737
4.04708 3547
4.0672 3667
4.08731 3184
4.10742 3196
4.12754 2955
4.14765 2928
4.16776 2960
4.18788 2591
4.20799 2521
4.22811 2448
4.24822 2401
4.26833 2423
4.28845 2158
4.30856 2237
4.32867 1977
4.34879 1989
4.3689 2021
4.38902 1804
4.40913 1751
4.42924 1875
4.44936 1761
4.46947 1789
4.48958 1595
4.5097 1719
4.52981 1606
4.54992 1613
4.57004 1603
4.59015 1459
4.61027 1364
4.63038 1347
4.65049 1374
4.67061 1424
4.69072 1244
4.71083 1360
4.73095 1251
4.75106 1244
4.77118 1203
4.79129 1123
4.8114 1169
4.83152 1181
4.85163 1142
4.87174 1130
4.89186 1018
4.91197 1033
4.93209 1070
4.9522 973
4.97231 1029
4.99243 916
5.01254 924
5.03265 880
5.05277 925
5.07288 947
5.09299 912
5.11311 823
5.13322 909
5.15334 810
5.17345 853
5.19356 827
5.21368 776
5.23379 824
5.2539 756
5.27402 761
5.29413 687
5.31425 714
5.33436 762
5.35447 696
5.37459 713
5.3947 678
5.41481 670
5.43493 628
5.45504 702
5.47516 603
5.49527 606
5.51538 609
5.5355 602
5.55561 637
5.57572 592
5.59584 574
5.61595 572
5.63606 626
5.65618 602
5.67629 569
5.69641 539
5.71652 548
5.73663 546
5.75675 589
5.77686 565
5.79697 512
5.81709 509
5.8372 544
5.85732 507
5.87743 548
5.89754 479
5.91766 498
5.93777 500
5.95788 509
5.978 479
5.99811 497
6.01823 499
6.03834 518
6.05845 480
6.07857 491
6.09868 478
6.11879 474
6.13891 527
6.15902 487
6.17913 535
6.19925 521
6.21936 496
6.23948 476
6.25959 521
6.2797 460
6.29982 501
6.31993 455
6.34004 471
6.36016 465
6.38027 461
6.40039 503
6.4205 418
6.44061 462
6.46073 452
6.48084 453
6.50095 403
6.52107 429
6.54118 461
6.56129 425
6.58141 424
6.60152 424
6.62164 478
6.64175 435
6.66186 440
6.68198 436
6.70209 446
6.7222 424
6.74232 476
6.76243 423
6.78255 445
6.80266 440
6.82277 406
6.84289 445
6.863 454
6.88311 408
6.90323 413
6.92334 447
6.94346 447
6.96357 392
6.98368 435
7.0038 465
7.02391 466
7.04402 421
7.06414 382
7.08425 434
7.10436 412
7.12448 426
7.14459 400
7.16471 430
7.18482 427
7.20493 408
7.22505 420
7.24516 412
7.26527 404
7.28539 406
7.3055 428
7.32562 386
7.34573 414
7.36584 427
7.38596 390
7.40607 394
7.42618 419
7.4463 446
7.46641 410
7.48653 453
7.50664 430
7.52675 396
7.54687 401
7.56698 431
7.58709 401
7.60721 384
7.62732 435
7.64743 388
7.66755 398
7.68766 392
7.70778 414
7.72789 408
7.748 418
7.76812 393
7.78823 437
7.80834 400
7.82846 392
7.84857 447
7.86869 356
7.8888 369
7.90891 410
7.92903 394
7.94914 446
7.96925 361
7.98937 434
8.00948 406
8.0296 392
8.04971 436
8.06982 363
8.08994 419
8.11005 403
8.13016 423
8.15028 395
8.17039 385
8.1905 414
8.21062 413
8.23073 397
8.25085 414
8.27096 371
8.29107 401
8.31119 400
8.3313 373
8.35141 392
8.37153 430
8.39164 411
8.41176 383
8.43187 363
8.45198 378
8.4721 402
8.49221 407
8.51232 375
8.53244 391
8.55255 404
8.57266 411
8.59278 409
8.61289 399
8.63301 369
8.65312 378
8.67323 376
8.69335 411
8.71346 377
8.73357 421
8.75369 443
8.7738 410
8.79392 388
8.81403 430
8.83414 406
8.85426 410
8.87437 420
8.89448 385
8.9146 391
8.93471 383
8.95483 364
8.97494 405
8.99505 391
9.01517 399
9.03528 425
9.05539 404
9.07551 391
9.09562 369
9.11573 418
9.13585 385
9.15596 404
9.17608 415
9.19619 405
9.2163 363
9.23642 385
9.25653 389
9.27664 395
9.29676 409
9.31687 412
9.33699 382
9.3571 413
9.37721 390
9.39733 375
9.41744 396
9.43755 390
9.45767 375
9.47778 403
9.4979 401
9.51801 376
9.53812 350
9.55824 390
9.57835 381
9.59846 378
9.61858 362
9.63869 369
9.6588 378
9.67892 372
9.69903 350
9.71915 369
9.73926 362
9.75937 383
9.77949 349
9.7996 348
9.81971 396
9.83983 360
9.85994 399
9.88006 383
9.90017 349
9.92028 408
9.9404 369
9.96051 398
9.98062 357
10.00074 401
10.02085 412
10.04097 380
10.06108 382
10.08119 414
10.10131 361
10.12142 377
10.14153 396
10.16165 342
10.18176 323
10.20187 392
10.22199 371
10.2421 392
10.26222 382
10.28233 427
10.30244 373
10.32256 378
10.34267 373
10.36278 417
10.3829 370
10.40301 381
10.42313 383
10.44324 372
10.46335 387
10.48347 396
10.50358 385
10.52369 349
10.54381 361
10.56392 363
10.58403 401
10.60415 383
10.62426 362
10.64438 366
10.66449 381
10.6846 360
10.70472 407
10.72483 395
10.74494 382
10.76506 374
10.78517 340
10.80529 336
10.8254 378
10.84551 367
10.86563 363
10.88574 365
10.90585 421
10.92597 390
10.94608 370
10.9662 367
10.98631 342
11.00642 395
11.02654 395
11.04665 375
11.06676 450
11.08688 370
11.10699 401
11.1271 390
11.14722 424
11.16733 378
11.18745 384
11.20756 399
11.22767 412
11.24779 394
11.2679 388
11.28801 442
11.30813 376
11.32824 400
11.34836 394
11.36847 376
11.38858 416
11.4087 407
11.42881 401
11.44892 396
11.46904 389
11.48915 403
11.50927 376
11.52938 404
11.54949 383
11.56961 416
11.58972 392
11.60983 428
11.62995 433
11.65006 419
11.67017 425
11.69029 485
11.7104 422
11.73052 418
11.75063 438
11.77074 453
11.79086 444
11.81097 466
11.83108 491
11.8512 482
11.87131 499
11.89143 436
11.91154 469
11.93165 498
11.95177 473
11.97188 523
11.99199 519
12.01211 529
12.03222 565
12.05234 614
12.07245 574
12.09256 556
12.11268 588
12.13279 625
12.1529 673
12.17302 603
12.19313 657
12.21324 708
12.23336 666
12.25347 674
12.27359 720
12.2937 661
12.31381 708
12.33393 646
12.35404 636
12.37415 620
12.39427 611
12.41438 547
12.4345 569
12.45461 556
12.47472 523
12.49484 518
12.51495 509
12.53506 492
12.55518 498
12.57529 477
12.5954 441
12.61552 436
12.63563 481
12.65575 399
12.67586 433
12.69597 447
12.71609 421
12.7362 393
12.75631 450
12.77643 433
12.79654 387
12.81666 361
12.83677 375
12.85688 373
12.877 381
12.89711 361
12.91722 378
12.93734 359
12.95745 377
12.97757 398
12.99768 364
13.01779 373
13.03791 378
13.05802 354
13.07813 384
13.09825 367
13.11836 363
13.13847 411
13.15859 340
13.1787 344
13.19882 377
13.21893 354
13.23904 329
13.25916 369
13.27927 349
13.29938 322
13.3195 341
13.33961 322
13.35973 346
13.37984 323
13.39995 339
13.42007 334
13.44018 365
13.46029 353
13.48041 350
13.50052 382
13.52064 344
13.54075 338
13.56086 344
13.58098 356
13.60109 339
13.6212 353
13.64132 363
13.66143 333
13.68154 341
13.70166 346
13.72177 357
13.74189 316
13.762 331
13.78211 317
13.80223 351
13.82234 320
13.84245 312
13.86257 356
13.88268 361
13.9028 323
13.92291 343
13.94302 357
13.96314 353
13.98325 372
14.00336 303
14.02348 333
14.04359 352
14.06371 354
14.08382 355
14.10393 332
14.12405 335
14.14416 374
14.16427 383
14.18439 337
14.2045 349
14.22461 306
14.24473 353
14.26484 313
14.28496 315
14.30507 337
14.32518 368
14.3453 331
14.36541 318
14.38552 312
14.40564 333
14.42575 331
14.44587 326
14.46598 313
14.48609 320
14.50621 330
14.52632 318
14.54643 314
14.56655 332
14.58666 336
14.60677 372
14.62689 291
14.647 320
14.66712 338
14.68723 312
14.70734 317
14.72746 311
14.74757 340
14.76768 324
14.7878 345
14.80791 328
14.82803 290
14.84814 323
14.86825 310
14.88837 329
14.90848 332
14.92859 339
14.94871 298
14.96882 312
14.98894 310
15.00905 342
15.02916 330
15.04928 357
15.06939 349
15.0895 324
15.10962 338
15.12973 283
15.14984 320
15.16996 323
15.19007 291
15.21019 291
15.2303 342
15.25041 351
15.27053 328
15.29064 331
15.31075 323
15.33087 324
15.35098 279
15.3711 335
15.39121 288
15.41132 303
15.43144 305
15.45155 275
15.47166 301
15.49178 292
15.51189 296
15.53201 307
15.55212 320
15.57223 337
15.59235 321
15.61246 367
15.63257 319
15.65269 324
15.6728 345
15.69291 313
15.71303 299
15.73314 309
15.75326 301
15.77337 313
15.79348 310
15.8136 291
15.83371 318
15.85382 303
15.87394 293
15.89405 313
15.91417 339
15.93428 329
15.95439 326
15.97451 291
15.99462 329
16.01473 333
16.03485 322
16.05496 351
16.07508 347
16.09519 341
16.1153 303
16.13542 319
16.15553 340
16.17564 291
16.19576 311
16.21587 306
16.23598 290
16.2561 341
16.27621 314
16.29633 315
16.31644 318
16.33655 327
16.35667 327
16.37678 314
16.39689 359
16.41701 316
16.43712 343
16.45724 318
16.47735 343
16.49746 310
16.51758 299
16.53769 321
16.5578 316
16.57792 348
16.59803 353
16.61814 315
16.63826 325
16.65837 353
16.67849 303
16.6986 298
16.71871 348
16.73883 330
16.75894 298
16.77905 284
16.79917 319
16.81928 305
16.8394 335
16.85951 329
16.87962 323
16.89974 311
16.91985 306
16.93996 309
16.96008 321
16.98019 303
17.00031 300
17.02042 310
17.04053 281
17.06065 324
17.08076 354
17.10087 316
17.12099 307
17.1411 339
17.16121 334
17.18133 318
17.20144 329
17.22156 327
17.24167 323
17.26178 319
17.2819 330
17.30201 329
17.32212 349
17.34224 307
17.36235 301
17.38247 365
17.40258 318
17.42269 319
17.44281 324
17.46292 319
17.48303 347
17.50315 346
17.52326 311
17.54338 321
17.56349 370
17.5836 308
17.60372 336
17.62383 363
17.64394 319
17.66406 353
17.68417 349
17.70428 356
17.7244 361
17.74451 326
17.76463 364
17.78474 350
17.80485 340
17.82497 356
17.84508 342
17.86519 359
17.88531 379
17.90542 357
17.92554 342
17.94565 371
17.96576 319
17.98588 385
18.00599 371
18.0261 393
18.04622 378
18.06633 338
18.08645 361
18.10656 354
18.12667 361
18.14679 362
18.1669 365
18.18701 388
18.20713 382
18.22724 371
18.24735 382
18.26747 359
18.28758 343
18.3077 344
18.32781 345
18.34792 378
18.36804 350
18.38815 354
18.40826 336
18.42838 362
18.44849 385
18.46861 340
18.48872 355
18.50883 306
18.52895 351
18.54906 368
18.56917 354
18.58929 350
18.6094 338
18.62951 323
18.64963 354
18.66974 351
18.68986 351
18.70997 343
18.73008 369
18.7502 386
18.77031 338
18.79042 351
18.81054 338
18.83065 315
18.85077 371
18.87088 300
18.89099 308
18.91111 357
18.93122 331
18.95133 319
18.97145 336
18.99156 360
19.01168 373
19.03179 372
19.0519 325
19.07202 337
19.09213 344
19.11224 343
19.13236 340
19.15247 362
19.17258 391
19.1927 368
19.21281 366
19.23293 354
19.25304 363
19.27315 387
19.29327 392
19.31338 378
19.33349 361
19.35361 381
19.37372 407
19.39384 395
19.41395 372
19.43406 443
19.45418 427
19.47429 427
19.4944 420
19.51452 424
19.53463 430
19.55475 491
19.57486 522
19.59497 520
19.61509 550
19.6352 595
19.65531 602
19.67543 594
19.69554 673
19.71565 662
19.73577 735
19.75588 740
19.776 795
19.79611 807
19.81622 793
19.83634 803
19.85645 765
19.87656 777
19.89668 766
19.91679 728
19.93691 787
19.95702 750
19.97713 697
19.99725 742
20.01736 677
20.03747 733
20.05759 658
20.0777 640
20.09782 716
20.11793 684
20.13804 657
20.15816 686
20.17827 714
20.19838 695
20.2185 759
20.23861 694
20.25872 619
20.27884 714
20.29895 710
20.31907 731
20.33918 701
20.35929 675
20.37941 631
20.39952 686
20.41963 687
20.43975 744
20.45986 715
20.47998 717
20.50009 694
20.5202 782
20.54032 776
20.56043 769
20.58054 874
20.60066 880
20.62077 1004
20.64088 1198
20.661 1315
20.68111 1622
20.70123 2057
20.72134 2493
20.74145 2895
20.76157 3272
20.78168 3676
20.80179 3659
20.82191 3418
20.84202 3188
20.86214 2690
20.88225 2074
20.90236 1670
20.92248 1281
20.94259 1005
20.9627 907
20.98282 812
21.00293 812
21.02305 761
21.04316 693
21.06327 752
21.08339 734
21.1035 638
21.12361 744
21.14373 660
21.16384 715
21.18395 687
21.20407 719
21.22418 629
21.2443 718
21.26441 699
21.28452 672
21.30464 700
21.32475 674
21.34486 713
21.36498 704
21.38509 715
21.40521 685
21.42532 663
21.44543 642
21.46555 666
21.48566 610
21.50577 645
21.52589 662
21.546 619
21.56612 607
21.58623 593
21.60634 587
21.62646 606
21.64657 602
21.66668 596
21.6868 610
21.70691 608
21.72702 567
21.74714 538
21.76725 573
21.78737 522
21.80748 537
21.82759 533
21.84771 596
21.86782 537
21.88793 535
21.90805 571
21.92816 495
21.94828 560
21.96839 471
21.9885 504
22.00862 509
22.02873 510
22.04884 515
22.06896 547
22.08907 498
22.10919 507
22.1293 509
22.14941 504
22.16953 489
22.18964 514
22.20975 475
22.22987 497
22.24998 491
22.27009 470
22.29021 498
22.31032 475
22.33044 461
22.35055 462
22.37066 470
22.39078 476
22.41089 455
22.431 445
22.45112 456
22.47123 474
22.49135 481
22.51146 453
22.53157 494
22.55169 458
22.5718 420
22.59191 435
22.61203 469
22.63214 470
22.65225 500
22.67237 457
22.69248 487
22.7126 440
22.73271 470
22.75282 471
22.77294 441
22.79305 487
22.81316 489
22.83328 474
22.85339 465
22.87351 473
22.89362 500
22.91373 484
22.93385 482
22.95396 463
22.97407 484
22.99419 414
23.0143 460
23.03442 421
23.05453 456
23.07464 435
23.09476 430
23.11487 466
23.13498 425
23.1551 436
23.17521 448
23.19532 447
23.21544 415
23.23555 432
23.25567 438
23.27578 482
23.29589 499
23.31601 417
23.33612 441
23.35623 413
23.37635 465
23.39646 444
23.41658 507
23.43669 437
23.4568 422
23.47692 436
23.49703 439
23.51714 414
23.53726 431
23.55737 430
23.57749 440
23.5976 441
23.61771 470
23.63783 445
23.65794 456
23.67805 453
23.69817 435
23.71828 466
23.73839 456
23.75851 456
23.77862 465
23.79874 480
23.81885 448
23.83896 482
23.85908 490
23.87919 472
23.8993 408
23.91942 473
23.93953 436
23.95965 463
23.97976 465
23.99987 494
24.01999 495
24.0401 505
24.06021 503
24.08033 473
24.10044 445
24.12056 406
24.14067 439
24.16078 485
24.1809 457
24.20101 482
24.22112 457
24.24124 443
24.26135 483
24.28146 454
24.30158 469
24.32169 450
24.34181 469
24.36192 488
24.38203 470
24.40215 486
24.42226 517
24.44237 506
24.46249 497
24.4826 495
24.50272 475
24.52283 482
24.54294 551
24.56306 529
24.58317 534
24.60328 545
24.6234 595
24.64351 595
24.66362 610
24.68374 624
24.70385 601
24.72397 652
24.74408 644
24.76419 643
24.78431 710
24.80442 666
24.82453 711
24.84465 708
24.86476 684
24.88488 707
24.90499 655
24.9251 668
24.94522 684
24.96533 630
24.98544 591
25.00556 619
25.02567 580
25.04579 586
25.0659 662
25.08601 613
25.10613 607
25.12624 640
25.14635 614
25.16647 614
25.18658 625
25.20669 652
25.22681 605
25.24692 616
25.26704 601
25.28715 645
25.30726 612
25.32738 531
25.34749 570
25.3676 498
25.38772 531
25.40783 487
25.42795 531
25.44806 557
25.46817 500
25.48829 512
25.5084 516
25.52851 501
25.54863 516
25.56874 545
25.58886 490
25.60897 519
25.62908 537
25.6492 544
25.66931 579
25.68942 554
25.70954 556
25.72965 548
25.74976 539
25.76988 601
25.78999 577
25.81011 567
25.83022 574
25.85033 571
25.87045 572
25.89056 581
25.91067 613
25.93079 538
25.9509 542
25.97102 593
25.99113 587
26.01124 651
26.03136 630
26.05147 655
26.07158 685
26.0917 666
26.11181 748
26.13193 672
26.15204 790
26.17215 812
26.19227 790
26.21238 854
26.23249 945
26.25261 945
26.27272 1137
26.29283 1250
26.31295 1417
26.33306 1607
26.35318 1871
26.37329 2236
26.3934 2855
26.41352 3529
26.43363 4720
26.45374 6119
26.47386 7656
26.49397 9824
26.51409 11591
26.5342 13547
26.55431 14599
26.57443 15141
26.59454 14193
26.61465 12686
26.63477 10661
26.65488 8380
26.67499 6166
26.69511 4407
26.71522 3236
26.73534 2170
26.75545 1653
26.77556 1274
26.79568 1182
26.81579 1060
26.8359 924
26.85602 887
26.87613 865
26.89625 801
26.91636 750
26.93647 679
26.95659 666
26.9767 668
26.99681 594
27.01693 583
27.03704 553
27.05716 571
27.07727 579
27.09738 553
27.1175 516
27.13761 545
27.15772 489
27.17784 502
27.19795 496
27.21806 515
27.23818 517
27.25829 517
27.27841 564
27.29852 550
27.31863 548
27.33875 561
27.35886 562
27.37897 536
27.39909 549
27.4192 558
27.43932 517
27.45943 493
27.47954 516
27.49966 454
27.51977 477
27.53988 471
27.56 463
27.58011 466
27.60023 484
27.62034 478
27.64045 450
27.66057 450
27.68068 509
27.70079 474
27.72091 433
27.74102 447
27.76113 425
27.78125 445
27.80136 456
27.82148 451
27.84159 439
27.8617 474
27.88182 468
27.90193 442
27.92204 434
27.94216 417
27.96227 428
27.98239 398
28.0025 415
28.02261 414
28.04273 391
28.06284 394
28.08295 403
28.10307 415
28.12318 425
28.1433 378
28.16341 436
28.18352 390
28.20364 414
28.22375 410
28.24386 410
28.26398 369
28.28409 413
28.3042 377
28.32432 382
28.34443 381
28.36455 405
28.38466 396
28.40477 382
28.42489 378
28.445 406
28.46511 395
28.48523 365
28.50534 405
28.52546 403
28.54557 385
28.56568 415
28.5858 393
28.60591 368
28.62602 386
28.64614 370
28.66625 392
28.68636 372
28.70648 418
28.72659 372
28.74671 380
28.76682 374
28.78693 396
28.80705 340
28.82716 367
28.84727 394
28.86739 409
28.8875 409
28.90762 398
28.92773 375
28.94784 393
28.96796 367
28.98807 387
29.00818 416
29.0283 398
29.04841 412
29.06853 388
29.08864 402
29.10875 400
29.12887 369
29.14898 326
29.16909 383
29.18921 371
29.20932 359
29.22943 368
29.24955 386
29.26966 349
29.28978 359
29.30989 353
29.33 355
29.35012 368
29.37023 403
29.39034 380
29.41046 400
29.43057 404
29.45069 377
29.4708 356
29.49091 373
29.51103 357
29.53114 364
29.55125 369
29.57137 367
29.59148 376
29.6116 367
29.63171 348
29.65182 378
29.67194 353
29.69205 382
29.71216 369
29.73228 357
29.75239 370
29.7725 363
29.79262 367
29.81273 391
29.83285 390
29.85296 348
29.87307 331
29.89319 340
29.9133 398
29.93341 350
29.95353 372
29.97364 359
29.99376 366
30.01387 378
30.03398 373
30.0541 360
30.07421 378
30.09432 342
30.11444 359
30.13455 383
30.15467 348
30.17478 354
30.19489 405
30.21501 348
30.23512 384
30.25523 364
30.27535 394
30.29546 323
30.31557 358
30.33569 357
30.3558 347
30.37592 344
30.39603 357
30.41614 400
30.43626 354
30.45637 393
30.47648 360
30.4966 403
30.51671 379
30.53683 380
30.55694 379
30.57705 349
30.59717 406
30.61728 413
30.63739 370
30.65751 377
30.67762 342
30.69773 353
30.71785 349
30.73796 381
30.75808 374
30.77819 378
30.7983 337
30.81842 374
30.83853 350
30.85864 331
30.87876 391
30.89887 364
30.91899 388
30.9391 354
30.95921 333
30.97933 325
30.99944 397
31.01955 355
31.03967 378
31.05978 381
31.0799 377
31.10001 376
31.12012 363
31.14024 344
31.16035 344
31.18046 369
31.20058 361
31.22069 364
31.2408 365
31.26092 330
31.28103 352
31.30115 331
31.32126 385
31.34137 331
31.36149 348
31.3816 340
31.40171 344
31.42183 394
31.44194 367
31.46206 343
31.48217 371
31.50228 343
31.5224 382
31.54251 360
31.56262 359
31.58274 399
31.60285 311
31.62297 323
31.64308 320
31.66319 352
31.68331 326
31.70342 327
31.72353 343
31.74365 380
31.76376 312
31.78387 375
31.80399 373
31.8241 333
31.84422 344
31.86433 362
31.88444 340
31.90456 332
31.92467 338
31.94478 381
31.9649 355
31.98501 358
32.00513 341
32.02524 349
32.04535 359
32.06547 349
32.08558 342
32.10569 359
32.12581 350
32.14592 359
32.16604 363
32.18615 376
32.20626 362
32.22638 350
32.24649 357
32.2666 331
32.28672 342
32.30683 339
32.32694 381
32.34706 414
32.36717 358
32.38729 371
32.4074 350
32.42751 340
32.44763 335
32.46774 373
32.48785 370
32.50797 357
32.52808 355
32.5482 390
32.56831 368
32.58842 366
32.60854 351
32.62865 351
32.64876 380
32.66888 384
32.68899 313
32.7091 340
32.72922 365
32.74933 378
32.76945 354
32.78956 366
32.80967 325
32.82979 351
32.8499 380
32.87001 330
32.89013 376
32.91024 378
32.93036 359
32.95047 379
32.97058 382
32.9907 371
33.01081 367
33.03092 363
33.05104 379
33.07115 397
33.09127 334
33.11138 359
33.13149 372
33.15161 401
33.17172 398
33.19183 388
33.21195 372
33.23206 380
33.25217 399
33.27229 383
33.2924 389
33.31252 405
33.33263 425
33.35274 395
33.37286 427
33.39297 405
33.41308 367
33.4332 391
33.45331 395
33.47343 370
33.49354 391
33.51365 395
33.53377 385
33.55388 390
33.57399 384
33.59411 404
33.61422 386
33.63434 395
33.65445 393
33.67456 391
33.69468 403
33.71479 413
33.7349 379
33.75502 408
33.77513 364
33.79524 366
33.81536 375
33.83547 401
33.85559 356
33.8757 383
33.89581 357
33.91593 375
33.93604 358
33.95615 381
33.97627 400
33.99638 372
34.0165 387
34.03661 371
34.05672 375
34.07684 335
34.09695 393
34.11706 341
34.13718 391
34.15729 377
34.17741 380
34.19752 341
34.21763 376
34.23775 409
34.25786 341
34.27797 382
34.29809 378
34.3182 378
34.33831 415
34.35843 359
34.37854 379
34.39866 401
34.41877 379
34.43888 420
34.459 411
34.47911 458
34.49922 441
34.51934 419
34.53945 440
34.55957 467
34.57968 474
34.59979 440
34.61991 535
34.64002 494
34.66013 522
34.68025 513
34.70036 563
34.72047 518
34.74059 529
34.7607 605
34.78082 539
34.80093 544
34.82104 560
34.84116 593
34.86127 585
34.88138 547
34.9015 580
34.92161 564
34.94173 553
34.96184 529
34.98195 520
35.00207 523
35.02218 519
35.04229 519
35.06241 525
35.08252 496
35.10264 511
35.12275 472
35.14286 504
35.16298 480
35.18309 487
35.2032 525
35.22332 513
35.24343 526
35.26354 547
35.28366 517
35.30377 520
35.32389 516
35.344 501
35.36411 501
35.38423 518
35.40434 539
35.42445 526
35.44457 556
35.46468 534
35.4848 530
35.50491 541
35.52502 495
35.54514 520
35.56525 494
35.58536 525
35.60548 509
35.62559 577
35.64571 542
35.66582 498
35.68593 512
35.70605 556
35.72616 569
35.74627 567
35.76639 552
35.7865 545
35.80661 538
35.82673 600
35.84684 547
35.86696 595
35.88707 589
35.90718 534
35.9273 547
35.94741 533
35.96752 547
35.98764 562
36.00775 536
36.02787 542
36.04798 519
36.06809 552
36.08821 558
36.10832 508
36.12843 574
36.14855 563
36.16866 517
36.18878 494
36.20889 561
36.229 559
36.24912 589
36.26923 659
36.28934 643
36.30946 720
36.32957 767
36.34968 873
36.3698 981
36.38991 1137
36.41003 1138
36.43014 1320
36.45025 1359
36.47037 1399
36.49048 1313
36.51059 1263
36.53071 1114
36.55082 1083
36.57094 979
36.59105 799
36.61116 717
36.63128 615
36.65139 600
36.6715 518
36.69162 498
36.71173 510
36.73184 507
36.75196 470
36.77207 530
36.79219 518
36.8123 485
36.83241 522
36.85253 513
36.87264 518
36.89275 515
36.91287 457
36.93298 488
36.9531 534
36.97321 483
36.99332 497
37.01344 434
37.03355 467
37.05366 493
37.07378 492
37.09389 532
37.11401 487
37.13412 492
37.15423 499
37.17435 484
37.19446 477
37.21457 454
37.23469 470
37.2548 441
37.27491 464
37.29503 451
37.31514 488
37.33526 490
37.35537 486
37.37548 507
37.3956 443
37.41571 466
37.43582 448
37.45594 430
37.47605 469
37.49617 484
37.51628 472
37.53639 529
37.55651 496
37.57662 481
37.59673 482
37.61685 473
37.63696 516
37.65708 447
37.67719 492
37.6973 487
37.71742 532
37.73753 524
37.75764 518
37.77776 488
37.79787 489
37.81798 494
37.8381 498
37.85821 487
37.87833 443
37.89844 475
37.91855 439
37.93867 488
37.95878 463
37.97889 434
37.99901 465
38.01912 474
38.03924 471
38.05935 488
38.07946 519
38.09958 500
38.11969 526
38.1398 472
38.15992 524
38.18003 523
38.20015 490
38.22026 489
38.24037 514
38.26049 558
38.2806 495
38.30071 553
38.32083 534
38.34094 536
38.36105 533
38.38117 550
38.40128 512
38.4214 530
38.44151 541
38.46162 498
38.48174 550
38.50185 518
38.52196 511
38.54208 496
38.56219 488
38.58231 444
38.60242 473
38.62253 462
38.64265 466
38.66276 448
38.68287 485
38.70299 454
38.7231 464
38.74321 443
38.76333 497
38.78344 435
38.80356 464
38.82367 442
38.84378 444
38.8639 465
38.88401 460
38.90412 461
38.92424 463
38.94435 475
38.96447 478
38.98458 443
39.00469 441
39.02481 448
39.04492 472
39.06503 505
39.08515 457
39.10526 538
39.12538 529
39.14549 540
39.1656 559
39.18572 612
39.20583 604
39.22594 670
39.24606 741
39.26617 835
39.28628 887
39.3064 1011
39.32651 1087
39.34663 1195
39.36674 1255
39.38685 1223
39.40697 1254
39.42708 1131
39.44719 1020
39.46731 934
39.48742 850
39.50754 845
39.52765 710
39.54776 622
39.56788 521
39.58799 473
39.6081 452
39.62822 458
39.64833 444
39.66845 392
39.68856 401
39.70867 380
39.72879 411
39.7489 396
39.76901 398
39.78913 360
39.80924 367
39.82935 399
39.84947 402
39.86958 417
39.8897 399
39.90981 405
39.92992 410
39.95004 449
39.97015 449
39.99026 484
40.01038 434
40.03049 482
40.05061 529
40.07072 547
40.09083 626
40.11095 628
40.13106 640
40.15117 771
40.17129 796
40.1914 798
40.21152 785
40.23163 785
40.25174 745
40.27186 714
40.29197 630
40.31208 637
40.3322 613
40.35231 561
40.37242 500
40.39254 450
40.41265 467
40.43277 449
40.45288 419
40.47299 391
40.49311 407
40.51322 410
40.53333 417
40.55345 411
40.57356 401
40.59368 387
40.61379 428
40.6339 413
40.65402 437
40.67413 386
40.69424 394
40.71436 432
40.73447 392
40.75458 389
40.7747 407
40.79481 388
40.81493 406
40.83504 416
40.85515 377
40.87527 387
40.89538 388
40.91549 394
40.93561 383
40.95572 411
40.97584 412
40.99595 413
41.01606 426
41.03618 398
41.05629 414
41.0764 394
41.09652 411
41.11663 417
41.13675 389
41.15686 355
41.17697 378
41.19709 393
41.2172 378
41.23731 380
41.25743 370
41.27754 386
41.29765 384
41.31777 334
41.33788 380
41.358 389
41.37811 404
41.39822 352
41.41834 413
41.43845 401
41.45856 373
41.47868 406
41.49879 350
41.51891 387
41.53902 409
41.55913 355
41.57925 389
41.59936 391
41.61947 340
41.63959 376
41.6597 392
41.67982 389
41.69993 395
41.72004 366
41.74016 389
41.76027 372
41.78038 361
41.8005 415
41.82061 371
41.84072 388
41.86084 387
41.88095 359
41.90107 391
41.92118 395
41.94129 372
41.96141 358
41.98152 379
42.00163 364
42.02175 378
42.04186 411
42.06198 396
42.08209 396
42.1022 435
42.12232 422
42.14243 456
42.16254 469
42.18266 491
42.20277 539
42.22289 566
42.243 642
42.26311 686
42.28323 758
42.30334 848
42.32345 888
42.34357 937
42.36368 946
42.38379 906
42.40391 898
42.42402 833
42.44414 751
42.46425 643
42.48436 656
42.50448 617
42.52459 524
42.5447 495
42.56482 496
42.58493 413
42.60505 375
42.62516 348
42.64527 370
42.66539 324
42.6855 328
42.70561 362
42.72573 332
42.74584 349
42.76595 326
42.78607 331
42.80618 353
42.8263 337
42.84641 370
42.86652 338
42.88664 320
42.90675 342
42.92686 319
42.94698 333
42.96709 307
42.98721 342
43.00732 324
43.02743 342
43.04755 299
43.06766 310
43.08777 344
43.10789 308
43.128 342
43.14812 342
43.16823 298
43.18834 373
43.20846 308
43.22857 328
43.24868 344
43.2688 332
43.28891 318
43.30902 337
43.32914 342
43.34925 323
43.36937 349
43.38948 337
43.40959 315
43.42971 353
43.44982 321
43.46993 343
43.49005 318
43.51016 323
43.53028 326
43.55039 350
43.5705 329
43.59062 316
43.61073 324
43.63084 346
43.65096 312
43.67107 328
43.69119 294
43.7113 344
43.73141 333
43.75153 331
43.77164 307
43.79175 338
43.81187 327
43.83198 304
43.85209 291
43.87221 362
43.89232 341
43.91244 313
43.93255 328
43.95266 324
43.97278 306
43.99289 314
44.013 295
44.03312 308
44.05323 315
44.07335 333
44.09346 319
44.11357 315
44.13369 323
44.1538 354
44.17391 334
44.19403 355
44.21414 333
44.23426 355
44.25437 339
44.27448 325
44.2946 355
44.31471 354
44.33482 340
44.35494 342
44.37505 339
44.39516 315
44.41528 320
44.43539 366
44.45551 349
44.47562 341
44.49573 353
44.51585 295
44.53596 286
44.55607 296
44.57619 341
44.5963 341
44.61642 338
44.63653 305
44.65664 315
44.67676 336
44.69687 358
44.71698 340
44.7371 350
44.75721 335
44.77732 342
44.79744 320
44.81755 335
44.83767 321
44.85778 328
44.87789 363
44.89801 376
44.91812 327
44.93823 356
44.95835 335
44.97846 343
44.99858 372
45.01869 352
45.0388 352
45.05892 333
45.07903 350
45.09914 351
45.11926 365
45.13937 355
45.15949 379
45.1796 397
45.19971 383
45.21983 407
45.23994 375
45.26005 356
45.28017 401
45.30028 374
45.32039 396
45.34051 413
45.36062 405
45.38074 383
45.40085 401
45.42096 450
45.44108 422
45.46119 427
45.4813 446
45.50142 439
45.52153 481
45.54165 473
45.56176 471
45.58187 559
45.60199 597
45.6221 604
45.64221 702
45.66233 700
45.68244 768
45.70256 750
45.72267 760
45.74278 690
45.7629 696
45.78301 627
45.80312 593
45.82324 562
45.84335 508
45.86346 529
45.88358 520
45.90369 422
45.92381 422
45.94392 401
45.96403 373
45.98415 361
46.00426 357
46.02437 365
46.04449 347
46.0646 358
46.08472 345
46.10483 334
46.12494 362
46.14506 345
46.16517 365
46.18528 341
46.2054 327
46.22551 321
46.24563 314
46.26574 336
46.28585 320
46.30597 345
46.32608 325
46.34619 361
46.36631 354
46.38642 347
46.40653 352
46.42665 331
46.44676 318
46.46688 336
46.48699 356
46.5071 337
46.52722 369
46.54733 325
46.56744 340
46.58756 358
46.60767 312
46.62779 298
46.6479 302
46.66801 348
46.68813 364
46.70824 307
46.72835 296
46.74847 337
46.76858 340
46.78869 375
46.80881 368
46.82892 342
46.84904 331
46.86915 334
46.88926 341
46.90938 324
46.92949 331
46.9496 326
46.96972 331
46.98983 316
47.00995 335
47.03006 348
47.05017 343
47.07029 339
47.0904 350
47.11051 346
47.13063 304
47.15074 357
47.17086 359
47.19097 351
47.21108 330
47.2312 305
47.25131 309
47.27142 315
47.29154 372
47.31165 343
47.33176 307
47.35188 341
47.37199 328
47.39211 340
47.41222 317
47.43233 341
47.45245 337
47.47256 332
47.49267 346
47.51279 324
47.5329 340
47.55302 316
47.57313 322
47.59324 347
47.61336 315
47.63347 331
47.65358 313
47.6737 344
47.69381 320
47.71393 359
47.73404 367
47.75415 349
47.77427 332
47.79438 351
47.81449 373
47.83461 341
47.85472 341
47.87483 354
47.89495 382
47.91506 338
47.93518 352
47.95529 387
47.9754 365
47.99552 321
48.01563 348
48.03574 353
48.05586 373
48.07597 354
48.09609 327
48.1162 352
48.13631 353
48.15643 349
48.17654 339
48.19665 306
48.21677 313
48.23688 318
48.257 337
48.27711 359
48.29722 379
48.31734 314
48.33745 312
48.35756 342
48.37768 312
48.39779 339
48.4179 336
48.43802 304
48.45813 323
48.47825 293
48.49836 343
48.51847 312
48.53859 360
48.5587 336
48.57881 320
48.59893 327
48.61904 299
48.63916 350
48.65927 321
48.67938 302
48.6995 329
48.71961 365
48.73972 339
48.75984 346
48.77995 358
48.80006 333
48.82018 320
48.84029 346
48.86041 352
48.88052 318
48.90063 315
48.92075 305
48.94086 341
48.96097 308
48.98109 335
49.0012 323
49.02132 298
49.04143 317
49.06154 373
49.08166 345
49.10177 298
49.12188 329
49.142 375
49.16211 343
49.18223 307
49.20234 365
49.22245 358
49.24257 344
49.26268 327
49.28279 330
49.30291 355
49.32302 336
49.34313 324
49.36325 365
49.38336 322
49.40348 331
49.42359 379
49.4437 357
49.46382 356
49.48393 384
49.50404 337
49.52416 391
49.54427 371
49.56439 394
49.5845 339
49.60461 353
49.62473 390
49.64484 377
49.66495 416
49.68507 413
49.70518 419
49.7253 470
49.74541 449
49.76552 471
49.78564 554
49.80575 517
49.82586 584
49.84598 601
49.86609 760
49.8862 803
49.90632 934
49.92643 982
49.94655 1143
49.96666 1332
49.98677 1485
50.00689 1657
50.027 1766
50.04711 1832
50.06723 1771
50.08734 1692
50.10746 1507
50.12757 1358
50.14768 1253
50.1678 1161
50.18791 1025
50.20802 990
50.22814 866
50.24825 676
50.26837 611
50.28848 510
50.30859 502
50.32871 438
50.34882 402
50.36893 380
50.38905 386
50.40916 384
50.42927 372
50.44939 384
50.4695 405
50.48962 404
50.50973 413
50.52984 383
50.54996 398
50.57007 393
50.59018 400
50.6103 382
50.63041 357
50.65053 336
50.67064 338
50.69075 351
50.71087 374
50.73098 337
50.75109 309
50.77121 321
50.79132 321
50.81143 328
50.83155 341
50.85166 342
50.87178 349
50.89189 304
50.912 320
50.93212 322
50.95223 357
50.97234 371
50.99246 334
51.01257 319
51.03269 330
51.0528 336
51.07291 324
51.09303 312
51.11314 326
51.13325 312
51.15337 311
51.17348 343
51.1936 331
51.21371 329
51.23382 324
51.25394 348
51.27405 286
51.29416 333
51.31428 299
51.33439 302
51.3545 310
51.37462 290
51.39473 285
51.41485 283
51.43496 357
51.45507 319
51.47519 322
51.4953 355
51.51541 283
51.53553 318
51.55564 309
51.57576 310
51.59587 294
51.61598 294
51.6361 253
51.65621 321
51.67632 315
51.69644 309
51.71655 308
51.73667 320
51.75678 326
51.77689 307
51.79701 304
51.81712 278
51.83723 277
51.85735 303
51.87746 327
51.89757 317
51.91769 323
51.9378 312
51.95792 299
51.97803 320
51.99814 305
52.01826 316
52.03837 307
52.05848 315
52.0786 319
52.09871 320
52.11883 307
52.13894 334
52.15905 290
52.17917 287
52.19928 325
52.21939 288
52.23951 318
52.25962 316
52.27974 311
52.29985 313
52.31996 322
52.34008 291
52.36019 315
52.3803 309
52.40042 326
52.42053 313
52.44064 319
52.46076 303
52.48087 305
52.50099 343
52.5211 317
52.54121 328
52.56133 324
52.58144 349
52.60155 310
52.62167 291
52.64178 307
52.6619 328
52.68201 311
52.70212 300
52.72224 319
52.74235 314
52.76246 310
52.78258 319
52.80269 323
52.8228 333
52.84292 316
52.86303 339
52.88315 338
52.90326 325
52.92337 332
52.94349 341
52.9636 338
52.98371 316
53.00383 321
53.02394 340
53.04406 368
53.06417 343
53.08428 321
53.1044 330
53.12451 339
53.14462 340
53.16474 338
53.18485 309
53.20497 318
53.22508 344
53.24519 341
53.26531 321
53.28542 354
53.30553 344
53.32565 342
53.34576 360
53.36587 359
53.38599 333
53.4061 353
53.42622 379
53.44633 394
53.46644 396
53.48656 384
53.50667 376
53.52678 374
53.5469 378
53.56701 362
53.58713 416
53.60724 418
53.62735 409
53.64747 369
53.66758 381
53.68769 386
53.70781 364
53.72792 357
53.74804 419
53.76815 385
53.78826 425
53.80838 419
53.82849 397
53.8486 383
53.86872 379
53.88883 370
53.90894 440
53.92906 380
53.94917 409
53.96929 402
53.9894 419
54.00951 421
54.02963 436
54.04974 409
54.06985 420
54.08997 412
54.11008 413
54.1302 402
54.15031 414
54.17042 401
54.19054 441
54.21065 419
54.23076 452
54.25088 440
54.27099 464
54.29111 460
54.31122 464
54.33133 432
54.35145 403
54.37156 414
54.39167 433
54.41179 436
54.4319 439
54.45201 472
54.47213 432
54.49224 443
54.51236 461
54.53247 471
54.55258 431
54.5727 526
54.59281 511
54.61292 528
54.63304 540
54.65315 594
54.67327 654
54.69338 688
54.71349 686
54.73361 810
54.75372 785
54.77383 794
54.79395 790
54.81406 755
54.83417 805
54.85429 731
54.8744 703
54.89452 663
54.91463 674
54.93474 633
54.95486 627
54.97497 570
54.99508 583
55.0152 535
55.03531 524
55.05543 495
55.07554 485
55.09565 518
55.11577 502
55.13588 525
55.15599 532
55.17611 590
55.19622 552
55.21634 593
55.23645 577
55.25656 550
55.27668 562
55.29679 517
55.3169 480
55.33702 506
55.35713 535
55.37724 460
55.39736 461
55.41747 455
55.43759 454
55.4577 460
55.47781 415
55.49793 403
55.51804 386
55.53815 408
55.55827 407
55.57838 353
55.5985 391
55.61861 366
55.63872 392
55.65884 381
55.67895 364
55.69906 347
55.71918 387
55.73929 375
55.75941 389
55.77952 355
55.79963 371
55.81975 385
55.83986 370
55.85997 366
55.88009 373
55.9002 344
55.92031 360
55.94043 356
55.96054 364
55.98066 326
56.00077 365
56.02088 363
56.041 361
56.06111 365
56.08122 352
56.10134 338
56.12145 345
56.14157 364
56.16168 331
56.18179 344
56.20191 356
56.22202 346
56.24213 379
56.26225 349
56.28236 329
56.30248 364
56.32259 330
56.3427 367
56.36282 371
56.38293 369
56.40304 360
56.42316 314
56.44327 378
56.46338 361
56.4835 333
56.50361 358
56.52373 332
56.54384 352
56.56395 344
56.58407 362
56.60418 364
56.62429 373
56.64441 364
56.66452 351
56.68464 340
56.70475 343
56.72486 345
56.74498 336
56.76509 329
56.7852 332
56.80532 327
56.82543 354
56.84554 349
56.86566 313
56.88577 335
56.90589 340
56.926 319
56.94611 329
56.96623 323
56.98634 309
57.00645 361
57.02657 347
57.04668 328
57.0668 356
57.08691 354
57.10702 379
57.12714 337
57.14725 319
57.16736 324
57.18748 342
57.20759 340
57.22771 316
57.24782 352
57.26793 324
57.28805 332
57.30816 311
57.32827 319
57.34839 334
57.3685 348
57.38861 363
57.40873 338
57.42884 324
57.44896 351
57.46907 285
57.48918 357
57.5093 340
57.52941 335
57.54952 343
57.56964 307
57.58975 329
57.60987 334
57.62998 333
57.65009 339
57.67021 351
57.69032 308
57.71043 324
57.73055 281
57.75066 330
57.77078 358
57.79089 325
57.811 321
57.83112 311
57.85123 301
57.87134 343
57.89146 280
57.91157 303
57.93168 310
57.9518 339
57.97191 308
57.99203 314
58.01214 324
58.03225 339
58.05237 290
58.07248 335
58.09259 313
58.11271 318
58.13282 324
58.15294 343
58.17305 349
58.19316 340
58.21328 308
58.23339 344
58.2535 365
58.27362 318
58.29373 320
58.31385 332
58.33396 325
58.35407 312
58.37419 332
58.3943 364
58.41441 336
58.43453 350
58.45464 322
58.47475 288
58.49487 294
58.51498 312
58.5351 303
58.55521 313
58.57532 348
58.59544 337
58.61555 301
58.63566 345
58.65578 333
58.67589 340
58.69601 293
58.71612 325
58.73623 289
58.75635 347
58.77646 319
58.79657 332
58.81669 300
58.8368 314
58.85691 336
58.87703 339
58.89714 329
58.91726 309
58.93737 335
58.95748 313
58.9776 339
58.99771 316
59.01782 305
59.03794 335
59.05805 362
59.07817 386
59.09828 346
59.11839 319
59.13851 349
59.15862 344
59.17873 309
59.19885 335
59.21896 325
59.23908 358
59.25919 336
59.2793 334
59.29942 328
59.31953 344
59.33964 366
59.35976 367
59.37987 364
59.39998 362
59.4201 326
59.44021 338
59.46033 406
59.48044 366
59.50055 415
59.52067 426
59.54078 398
59.56089 476
59.58101 491
59.60112 443
59.62124 549
59.64135 515
59.66146 613
59.68158 575
59.70169 720
59.7218 714
59.74192 827
59.76203 941
59.78215 1001
59.80226 1067
59.82237 1144
59.84249 1208
59.8626 1225
59.88271 1168
59.90283 1123
59.92294 1031
59.94305 980
59.96317 911
59.98328 828
60.0034 763
60.02351 800
60.04362 794
60.06374 725
60.08385 657
60.10396 547
60.12408 504
60.14419 432
60.16431 424
60.18442 435
60.20453 353
60.22465 366
60.24476 344
60.26487 355
60.28499 373
60.3051 339
60.32522 365
60.34533 349
60.36544 342
60.38556 351
60.40567 353
60.42578 330
60.4459 328
60.46601 314
60.48612 326
60.50624 362
60.52635 351
60.54647 365
60.56658 337
60.58669 341
60.60681 321
60.62692 313
60.64703 315
60.66715 329
60.68726 319
60.70738 309
60.72749 333
60.7476 349
60.76772 355
60.78783 342
60.80794 323
60.82806 310
60.84817 291
60.86828 307
60.8884 321
60.90851 330
60.92863 318
60.94874 301
60.96885 322
60.98897 324
61.00908 317
61.02919 328
61.04931 321
61.06942 323
61.08954 336
61.10965 318
61.12976 311
61.14988 314
61.16999 340
61.1901 332
61.21022 348
61.23033 345
61.25045 314
61.27056 360
61.29067 330
61.31079 353
61.3309 350
61.35101 327
61.37113 327
61.39124 332
61.41135 364
61.43147 395
61.45158 369
61.4717 373
61.49181 398
61.51192 367
61.53204 396
61.55215 368
61.57226 397
61.59238 385
61.61249 394
61.63261 425
61.65272 377
61.67283 387
61.69295 374
61.71306 354
61.73317 371
61.75329 391
61.7734 364
61.79352 364
61.81363 398
61.83374 407
61.85386 389
61.87397 412
61.89408 361
61.9142 382
61.93431 455
61.95442 446
61.97454 421
61.99465 459
62.01477 432
62.03488 418
62.05499 437
62.07511 445
62.09522 394
62.11533 458
62.13545 453
62.15556 426
62.17568 450
62.19579 454
62.2159 458
62.23602 433
62.25613 453
62.27624 475
62.29636 415
62.31647 445
62.33659 438
62.3567 386
62.37681 395
62.39693 414
62.41704 405
62.43715 407
62.45727 431
62.47738 402
62.49749 386
62.51761 396
62.53772 371
62.55784 370
62.57795 362
62.59806 355
62.61818 365
62.63829 391
62.6584 369
62.67852 355
62.69863 381
62.71875 339
62.73886 320
62.75897 355
62.77909 341
62.7992 332
62.81931 349
62.83943 336
62.85954 358
62.87965 351
62.89977 340
62.91988 360
62.94 328
62.96011 324
62.98022 331
63.00034 318
63.02045 351
63.04056 357
63.06068 349
63.08079 332
63.10091 339
63.12102 332
63.14113 341
63.16125 316
63.18136 324
63.20147 328
63.22159 335
63.2417 326
63.26182 320
63.28193 323
63.30204 343
63.32216 320
63.34227 337
63.36238 327
63.3825 303
63.40261 326
63.42272 351
63.44284 355
63.46295 375
63.48307 356
63.50318 325
63.52329 340
63.54341 368
63.56352 347
63.58363 328
63.60375 317
63.62386 342
63.64398 375
63.66409 365
63.6842 350
63.70432 390
63.72443 378
63.74454 385
63.76466 363
63.78477 398
63.80489 398
63.825 437
63.84511 449
63.86523 464
63.88534 486
63.90545 503
63.92557 484
63.94568 503
63.96579 516
63.98591 461
64.00602 447
64.02614 413
64.04625 431
64.06636 438
64.08648 451
64.10659 408
64.1267 380
64.14682 385
64.16693 357
64.18705 377
64.20716 346
64.22727 358
64.24739 319
64.2675 322
64.28761 341
64.30773 316
64.32784 328
64.34796 314
64.36807 334
64.38818 336
64.4083 336
64.42841 318
64.44852 308
64.46864 337
64.48875 324
64.50886 325
64.52898 318
64.54909 305
64.56921 329
64.58932 327
64.60943 315
64.62955 342
64.64966 313
64.66977 301
64.68989 323
64.71 289
64.73012 334
64.75023 309
64.77034 327
64.79046 314
64.81057 316
64.83068 344
64.8508 286
64.87091 320
64.89102 275
64.91114 300
64.93125 338
64.95137 299
64.97148 325
64.99159 299
65.01171 299
65.03182 330
65.05193 325
65.07205 314
65.09216 303
65.11228 307
65.13239 324
65.1525 330
65.17262 288
65.19273 310
65.21284 313
65.23296 302
65.25307 309
65.27319 297
65.2933 309
65.31341 296
65.33353 301
65.35364 286
65.37375 326
65.39387 288
65.41398 325
65.43409 334
65.45421 338
65.47432 323
65.49444 318
65.51455 300
65.53466 309
65.55478 331
65.57489 331
65.595 355
65.61512 325
65.63523 352
65.65535 335
65.67546 336
65.69557 326
65.71569 389
65.7358 345
65.75591 329
65.77603 308
65.79614 313
65.81626 325
65.83637 320
65.85648 334
65.8766 326
65.89671 321
65.91682 315
65.93694 312
65.95705 312
65.97716 302
65.99728 314
66.01739 303
66.03751 292
66.05762 319
66.07773 277
66.09785 320
66.11796 321
66.13807 337
66.15819 322
66.1783 293
66.19842 313
66.21853 316
66.23864 319
66.25876 291
66.27887 268
66.29898 297
66.3191 297
66.33921 323
66.35933 291
66.37944 343
66.39955 319
66.41967 298
66.43978 288
66.45989 325
66.48001 286
66.50012 318
66.52023 317
66.54035 278
66.56046 285
66.58058 314
66.60069 298
66.6208 331
66.64092 286
66.66103 360
66.68114 310
66.70126 287
66.72137 306
66.74149 304
66.7616 326
66.78171 296
66.80183 300
66.82194 296
66.84205 314
66.86217 314
66.88228 304
66.90239 309
66.92251 316
66.94262 310
66.96274 299
66.98285 321
67.00296 337
67.02308 298
67.04319 342
67.0633 326
67.08342 319
67.10353 335
67.12365 349
67.14376 323
67.16387 323
67.18399 374
67.2041 318
67.22421 332
67.24433 333
67.26444 329
67.28456 367
67.30467 386
67.32478 396
67.3449 378
67.36501 393
67.38512 420
67.40524 441
67.42535 444
67.44546 491
67.46558 499
67.48569 541
67.50581 569
67.52592 643
67.54603 718
67.56615 669
67.58626 789
67.60637 842
67.62649 880
67.6466 833
67.66672 794
67.68683 820
67.70694 758
67.72706 733
67.74717 747
67.76728 652
67.7874 726
67.80751 732
67.82763 715
67.84774 754
67.86785 766
67.88797 747
67.90808 797
67.92819 784
67.94831 825
67.96842 906
67.98853 916
68.00865 991
68.02876 1079
68.04888 1118
68.06899 1095
68.0891 1034
68.10922 1026
68.12933 983
68.14944 1014
68.16956 1033
68.18967 1030
68.20979 1038
68.2299 1017
68.25001 941
68.27013 893
68.29024 805
68.31035 708
68.33047 716
68.35058 640
68.3707 595
68.39081 536
68.41092 540
68.43104 504
68.45115 480
68.47126 451
68.49138 448
68.51149 394
68.5316 374
68.55172 344
68.57183 338
68.59195 342
68.61206 331
68.63217 373
68.65229 333
68.6724 343
68.69251 333
68.71263 326
68.73274 349
68.75286 315
68.77297 340
68.79308 291
68.8132 294
68.83331 344
68.85342 315
68.87354 319
68.89365 307
68.91376 316
68.93388 289
68.95399 329
68.97411 345
68.99422 309
69.01433 304
69.03445 335
69.05456 279
69.07467 342
69.09479 300
69.1149 319
69.13502 311
69.15513 302
69.17524 299
69.19536 326
69.21547 312
69.23558 284
69.2557 283
69.27581 287
69.29593 309
69.31604 264
69.33615 284
69.35627 272
69.37638 311
69.39649 313
69.41661 312
69.43672 282
69.45683 311
69.47695 295
69.49706 281
69.51718 284
69.53729 255
69.5574 289
69.57752 282
69.59763 310
69.61774 284
69.63786 309
69.65797 301
69.67809 307
69.6982 316
69.71831 345
69.73843 294
69.75854 303
69.77865 309
69.79877 329
69.81888 315
69.839 316
69.85911 300
69.87922 309
69.89934 302
69.91945 296
69.93956 321
69.95968 306
69.97979 295
69.9999 297
70.02002 312
70.04013 287
70.06025 302
70.08036 309
70.10047 321
70.12059 326
70.1407 300
70.16081 324
70.18093 307
70.20104 330
70.22116 289
70.24127 294
70.26138 305
70.2815 303
70.30161 300
70.32172 309
70.34184 282
70.36195 295
70.38207 280
70.40218 285
70.42229 287
70.44241 313
70.46252 295
70.48263 298
70.50275 299
70.52286 303
70.54297 297
70.56309 323
70.5832 311
70.60332 296
70.62343 281
70.64354 301
70.66366 290
70.68377 317
70.70388 301
70.724 295
70.74411 324
70.76423 287
70.78434 284
70.80445 309
70.82457 292
70.84468 316
70.86479 301
70.88491 289
70.90502 318
70.92513 318
70.94525 267
70.96536 281
70.98548 290
71.00559 317
71.0257 282
71.04582 287
71.06593 283
71.08604 275
71.10616 281
71.12627 284
71.14639 268
71.1665 273
71.18661 293
71.20673 272
71.22684 275
71.24695 273
71.26707 287
71.28718 274
71.3073 315
71.32741 318
71.34752 292
71.36764 313
71.38775 287
71.40786 275
71.42798 273
71.44809 289
71.4682 268
71.48832 270
71.50843 285
71.52855 301
71.54866 293
71.56877 295
71.58889 295
71.609 318
71.62911 287
71.64923 268
71.66934 298
71.68946 276
71.70957 297
71.72968 273
71.7498 274
71.76991 298
71.79002 289
71.81014 305
71.83025 260
71.85037 306
71.87048 308
71.89059 281
71.91071 289
71.93082 313
71.95093 302
71.97105 291
71.99116 292
72.01127 316
72.03139 294
72.0515 283
72.07162 308
72.09173 308
72.11184 300
72.13196 308
72.15207 284
72.17218 317
72.1923 305
72.21241 290
72.23253 341
72.25264 282
72.27275 315
72.29287 270
72.31298 305
72.33309 307
72.35321 272
72.37332 278
72.39344 321
72.41355 300
72.43366 323
72.45378 291
72.47389 304
72.494 318
72.51412 302
72.53423 294
72.55434 321
72.57446 302
72.59457 337
72.61469 313
72.6348 323
72.65491 300
72.67503 300
72.69514 321
72.71525 340
72.73537 303
72.75548 303
72.7756 281
72.79571 320
72.81582 288
72.83594 304
72.85605 295
72.87616 305
72.89628 317
72.91639 312
72.9365 339
72.95662 349
72.97673 312
72.99685 314
73.01696 320
73.03707 320
73.05719 340
73.0773 325
73.09741 303
73.11753 357
73.13764 360
73.15776 366
73.17787 364
73.19798 383
73.2181 418
73.23821 399
73.25832 406
73.27844 415
73.29855 453
73.31867 453
73.33878 488
73.35889 511
73.37901 503
73.39912 473
73.41923 498
73.43935 440
73.45946 458
73.47957 408
73.49969 401
73.5198 387
73.53992 372
73.56003 428
73.58014 411
73.60026 377
73.62037 358
73.64048 380
73.6606 347
73.68071 337
73.70083 331
73.72094 318
73.74105 340
73.76117 289
73.78128 323
73.80139 314
73.82151 326
73.84162 317
73.86174 318
73.88185 281
73.90196 285
73.92208 270
73.94219 313
73.9623 292
73.98242 290
74.00253 274
74.02264 314
74.04276 287
74.06287 277
74.08299 295
74.1031 319
74.12321 314
74.14333 284
74.16344 289
74.18355 282
74.20367 289
74.22378 289
74.2439 283
74.26401 272
74.28412 321
74.30424 290
74.32435 270
74.34446 279
74.36458 295
74.38469 307
74.40481 289
74.42492 282
74.44503 265
74.46515 316
74.48526 316
74.50537 307
74.52549 287
74.5456 292
74.56571 289
74.58583 289
74.60594 312
74.62606 326
74.64617 308
74.66628 305
74.6864 303
74.70651 300
74.72662 321
74.74674 291
74.76685 307
74.78697 299
74.80708 291
74.82719 279
74.84731 281
74.86742 290
74.88753 285
74.90765 277
74.92776 321
74.94787 308
74.96799 284
74.9881 294
75.00822 314
