3.00117 21178
3.02128 20337
3.0414 19795
3.06151 19489
3.08162 18771
3.10174 18683
3.12185 18024
3.14197 17344
3.16208 16890
3.18219 16240
3.20231 16129
3.22242 15373
3.24253 15166
3.26265 14768
3.28276 14090
3.30288 13667
3.32299 13343
3.3431 12665
3.36322 12430
3.38333 11887
3.40344 11591
3.42356 11129
3.44367 10801
3.46379 10677
3.4839 10251
3.50401 9758
3.52413 9609
3.54424 9250
3.56435 9105
3.58447 8808
3.60458 8428
3.62469 7731
3.64481 7775
3.66492 7292
3.68504 7091
3.70515 6911
3.72526 6561
3.74538 6220
3.76549 6109
3.7856 5766
3.80572 5572
3.82583 5344
3.84595 5266
3.86606 4997
3.88617 4805
3.90629 4593
3.9264 4356
3.94651 4254
3.96663 4127
3.98674 3765
4.00686 3794
4.02697 3556
4.04708 3296
4.0672 3429
4.08731 3123
4.10742 3083
4.12754 2820
4.14765 2710
4.16776 2854
4.18788 2481
4.20799 2474
4.22811 2296
4.24822 2253
4.26833 2369
4.28845 2155
4.30856 2178
4.32867 2072
4.34879 2082
4.3689 1945
4.38902 1983
4.40913 1941
4.42924 1702
4.44936 1704
4.46947 1817
4.48958 1783
4.5097 1596
4.52981 1603
4.54992 1591
4.57004 1625
4.59015 1541
4.61027 1524
4.63038 1499
4.65049 1504
4.67061 1501
4.69072 1479
4.71083 1368
4.73095 1325
4.75106 1351
4.77118 1292
4.79129 1407
4.8114 1252
4.83152 1222
4.85163 1221
4.87174 1197
4.89186 1262
4.91197 1177
4.93209 1217
4.9522 1155
4.97231 1144
4.99243 1154
5.01254 1056
5.03265 1085
5.05277 1073
5.07288 1127
5.09299 1091
5.11311 1007
5.13322 1074
5.15334 1044
5.17345 1070
5.19356 1023
5.21368 929
5.23379 1043
5.2539 960
5.27402 928
5.29413 973
5.31425 949
5.33436 995
5.35447 962
5.37459 933
5.3947 961
5.41481 939
5.43493 867
5.45504 908
5.47516 876
5.49527 976
5.51538 902
5.5355 873
5.55561 894
5.57572 916
5.59584 897
5.61595 823
5.63606 867
5.65618 935
5.67629 878
5.69641 922
5.71652 826
5.73663 879
5.75675 900
5.77686 965
5.79697 874
5.81709 856
5.8372 851
5.85732 924
5.87743 918
5.89754 896
5.91766 878
5.93777 877
5.95788 952
5.978 909
5.99811 956
6.01823 1021
6.03834 1004
6.05845 980
6.07857 1013
6.09868 1091
6.11879 1020
6.13891 1069
6.15902 902
6.17913 917
6.19925 861
6.21936 803
6.23948 750
6.25959 752
6.2797 705
6.29982 673
6.31993 642
6.34004 628
6.36016 682
6.38027 638
6.40039 624
6.4205 610
6.44061 600
6.46073 546
6.48084 625
6.50095 600
6.52107 613
6.54118 567
6.56129 582
6.58141 547
6.60152 569
6.62164 588
6.64175 579
6.66186 555
6.68198 546
6.70209 564
6.7222 557
6.74232 587
6.76243 561
6.78255 553
6.80266 548
6.82277 534
6.84289 510
6.863 534
6.88311 508
6.90323 532
6.92334 479
6.94346 484
6.96357 489
6.98368 487
7.0038 467
7.02391 465
7.04402 496
7.06414 472
7.08425 472
7.10436 509
7.12448 457
7.14459 448
7.16471 473
7.18482 436
7.20493 493
7.22505 467
7.24516 500
7.26527 443
7.28539 449
7.3055 453
7.32562 434
7.34573 472
7.36584 421
7.38596 464
7.40607 440
7.42618 452
7.4463 449
7.46641 431
7.48653 457
7.50664 461
7.52675 441
7.54687 415
7.56698 443
7.58709 432
7.60721 387
7.62732 440
7.64743 430
7.66755 477
7.68766 430
7.70778 454
7.72789 478
7.748 428
7.76812 397
7.78823 424
7.80834 441
7.82846 402
7.84857 415
7.86869 426
7.8888 417
7.90891 395
7.92903 372
7.94914 425
7.96925 440
7.98937 462
8.00948 448
8.0296 421
8.04971 415
8.06982 422
8.08994 438
8.11005 375
8.13016 382
8.15028 414
8.17039 383
8.1905 384
8.21062 425
8.23073 385
8.25085 379
8.27096 393
8.29107 441
8.31119 408
8.3313 395
8.35141 391
8.37153 435
8.39164 424
8.41176 429
8.43187 371
8.45198 407
8.4721 394
8.49221 396
8.51232 413
8.53244 397
8.55255 386
8.57266 382
8.59278 410
8.61289 411
8.63301 421
8.65312 437
8.67323 396
8.69335 401
8.71346 362
8.73357 404
8.75369 446
8.7738 474
8.79392 395
8.81403 437
8.83414 397
8.85426 414
8.87437 411
8.89448 425
8.9146 425
8.93471 415
8.95483 357
8.97494 398
8.99505 416
9.01517 386
9.03528 370
9.05539 377
9.07551 394
9.09562 393
9.11573 404
9.13585 363
9.15596 375
9.17608 380
9.19619 371
9.2163 345
9.23642 378
9.25653 416
9.27664 404
9.29676 380
9.31687 404
9.33699 384
9.3571 389
9.37721 384
9.39733 371
9.41744 391
9.43755 368
9.45767 400
9.47778 389
9.4979 372
9.51801 362
9.53812 378
9.55824 357
9.57835 388
9.59846 381
9.61858 392
9.63869 441
9.6588 408
9.67892 385
9.69903 466
9.71915 452
9.73926 448
9.75937 475
9.77949 444
9.7996 464
9.81971 424
9.83983 405
9.85994 361
9.88006 364
9.90017 358
9.92028 358
9.9404 366
9.96051 342
9.98062 355
10.00074 408
10.02085 368
10.04097 396
10.06108 387
10.08119 365
10.10131 404
10.12142 400
10.14153 381
10.16165 388
10.18176 381
10.20187 394
10.22199 361
10.2421 391
10.26222 380
10.28233 414
10.30244 390
10.32256 403
10.34267 388
10.36278 434
10.3829 446
10.40301 462
10.42313 552
10.44324 597
10.46335 537
10.48347 556
10.50358 606
10.52369 548
10.54381 517
10.56392 488
10.58403 420
10.60415 372
10.62426 441
10.64438 368
10.66449 393
10.6846 404
10.70472 413
10.72483 404
10.74494 423
10.76506 392
10.78517 388
10.80529 344
10.8254 369
10.84551 364
10.86563 365
10.88574 400
10.90585 385
10.92597 380
10.94608 363
10.9662 361
10.98631 366
11.00642 414
11.02654 391
11.04665 378
11.06676 372
11.08688 352
11.10699 382
11.1271 401
11.14722 400
11.16733 378
11.18745 343
11.20756 400
11.22767 420
11.24779 406
11.2679 347
11.28801 355
11.30813 407
11.32824 357
11.34836 379
11.36847 378
11.38858 430
11.4087 420
11.42881 382
11.44892 391
11.46904 372
11.48915 379
11.50927 380
11.52938 420
11.54949 394
11.56961 416
11.58972 415
11.60983 366
11.62995 415
11.65006 383
11.67017 396
11.69029 407
11.7104 347
11.73052 424
11.75063 420
11.77074 418
11.79086 400
11.81097 391
11.83108 429
11.8512 451
11.87131 426
11.89143 365
11.91154 428
11.93165 400
11.95177 382
11.97188 409
11.99199 393
12.01211 435
12.03222 433
12.05234 416
12.07245 409
12.09256 439
12.11268 410
12.13279 429
12.1529 436
12.17302 392
12.19313 433
12.21324 422
12.23336 395
12.25347 397
12.27359 417
12.2937 363
12.31381 373
12.33393 395
12.35404 397
12.37415 346
12.39427 418
12.41438 396
12.4345 363
12.45461 346
12.47472 337
12.49484 359
12.51495 391
12.53506 372
12.55518 351
12.57529 390
12.5954 367
12.61552 387
12.63563 370
12.65575 365
12.67586 344
12.69597 342
12.71609 352
12.7362 348
12.75631 323
12.77643 364
12.79654 368
12.81666 341
12.83677 333
12.85688 352
12.877 345
12.89711 327
12.91722 368
12.93734 341
12.95745 329
12.97757 364
12.99768 340
13.01779 357
13.03791 380
13.05802 347
13.07813 356
13.09825 372
13.11836 358
13.13847 348
13.15859 368
13.1787 326
13.19882 366
13.21893 401
13.23904 379
13.25916 324
13.27927 342
13.29938 340
13.3195 294
13.33961 338
13.35973 351
13.37984 385
13.39995 330
13.42007 361
13.44018 348
13.46029 347
13.48041 332
13.50052 364
13.52064 312
13.54075 358
13.56086 375
13.58098 336
13.60109 328
13.6212 349
13.64132 357
13.66143 393
13.68154 395
13.70166 383
13.72177 374
13.74189 382
13.762 444
13.78211 497
13.80223 500
13.82234 485
13.84245 469
13.86257 427
13.88268 457
13.9028 445
13.92291 422
13.94302 356
13.96314 363
13.98325 408
14.00336 352
14.02348 370
14.04359 329
14.06371 332
14.08382 358
14.10393 368
14.12405 338
14.14416 334
14.16427 356
14.18439 352
14.2045 361
14.22461 323
14.24473 345
14.26484 297
14.28496 328
14.30507 341
14.32518 339
14.3453 329
14.36541 348
14.38552 331
14.40564 352
14.42575 312
14.44587 296
14.46598 337
14.48609 326
14.50621 321
14.52632 327
14.54643 302
14.56655 353
14.58666 318
14.60677 364
14.62689 353
14.647 334
14.66712 350
14.68723 342
14.70734 327
14.72746 358
14.74757 333
14.76768 318
14.7878 355
14.80791 333
14.82803 338
14.84814 341
14.86825 362
14.88837 324
14.90848 327
14.92859 353
14.94871 318
14.96882 370
14.98894 378
15.00905 347
15.02916 373
15.04928 361
15.06939 392
15.0895 389
15.10962 380
15.12973 389
15.14984 378
15.16996 346
15.19007 331
15.21019 346
15.2303 343
15.25041 350
15.27053 333
15.29064 346
15.31075 343
15.33087 355
15.35098 327
15.3711 357
15.39121 318
15.41132 315
15.43144 336
15.45155 337
15.47166 351
15.49178 300
15.51189 330
15.53201 298
15.55212 355
15.57223 340
15.59235 353
15.61246 333
15.63257 354
15.65269 347
15.6728 360
15.69291 344
15.71303 385
15.73314 333
15.75326 363
15.77337 333
15.79348 344
15.8136 337
15.83371 366
15.85382 322
15.87394 337
15.89405 317
15.91417 302
15.93428 361
15.95439 284
15.97451 303
15.99462 339
16.01473 324
16.03485 351
16.05496 312
16.07508 303
16.09519 345
16.1153 340
16.13542 304
16.15553 323
16.17564 334
16.19576 355
16.21587 318
16.23598 328
16.2561 341
16.27621 333
16.29633 306
16.31644 308
16.33655 351
16.35667 346
16.37678 317
16.39689 300
16.41701 313
16.43712 337
16.45724 347
16.47735 324
16.49746 305
16.51758 337
16.53769 336
16.5578 309
16.57792 318
16.59803 353
16.61814 306
16.63826 326
16.65837 346
16.67849 329
16.6986 334
16.71871 298
16.73883 341
16.75894 284
16.77905 303
16.79917 348
16.81928 305
16.8394 351
16.85951 331
16.87962 324
16.89974 297
16.91985 327
16.93996 351
16.96008 309
16.98019 352
17.00031 340
17.02042 305
17.04053 326
17.06065 305
17.08076 330
17.10087 327
17.12099 327
17.1411 346
17.16121 312
17.18133 358
17.20144 336
17.22156 346
17.24167 321
17.26178 333
17.2819 312
17.30201 363
17.32212 315
17.34224 328
17.36235 344
17.38247 349
17.40258 336
17.42269 332
17.44281 349
17.46292 319
17.48303 306
17.50315 311
17.52326 369
17.54338 322
17.56349 355
17.5836 344
17.60372 328
17.62383 331
17.64394 361
17.66406 321
17.68417 367
17.70428 339
17.7244 366
17.74451 360
17.76463 330
17.78474 321
17.80485 303
17.82497 339
17.84508 342
17.86519 373
17.88531 346
17.90542 346
17.92554 352
17.94565 370
17.96576 386
17.98588 373
18.00599 376
18.0261 385
18.04622 367
18.06633 349
18.08645 364
18.10656 344
18.12667 360
18.14679 340
18.1669 345
18.18701 335
18.20713 327
18.22724 338
18.24735 322
18.26747 348
18.28758 334
18.3077 320
18.32781 330
18.34792 327
18.36804 362
18.38815 393
18.40826 343
18.42838 333
18.44849 339
18.46861 336
18.48872 358
18.50883 337
18.52895 349
18.54906 336
18.56917 325
18.58929 314
18.6094 327
18.62951 326
18.64963 312
18.66974 367
18.68986 345
18.70997 328
18.73008 379
18.7502 351
18.77031 335
18.79042 360
18.81054 335
18.83065 334
18.85077 348
18.87088 364
18.89099 352
18.91111 361
18.93122 387
18.95133 375
18.97145 378
18.99156 373
19.01168 367
19.03179 346
19.0519 356
19.07202 360
19.09213 369
19.11224 384
19.13236 392
19.15247 362
19.17258 366
19.1927 381
19.21281 395
19.23293 399
19.25304 368
19.27315 406
19.29327 421
19.31338 392
19.33349 420
19.35361 406
19.37372 420
19.39384 420
19.41395 468
19.43406 473
19.45418 436
19.47429 511
19.4944 532
19.51452 488
19.53463 553
19.55475 527
19.57486 615
19.59497 600
19.61509 572
19.6352 550
19.65531 560
19.67543 610
19.69554 554
19.71565 617
19.73577 607
19.75588 627
19.776 579
19.79611 636
19.81622 627
19.83634 628
19.85645 647
19.87656 666
19.89668 641
19.91679 608
19.93691 625
19.95702 613
19.97713 576
19.99725 602
20.01736 584
20.03747 570
20.05759 567
20.0777 603
20.09782 586
20.11793 579
20.13804 550
20.15816 589
20.17827 550
20.19838 565
20.2185 559
20.23861 552
20.25872 562
20.27884 547
20.29895 591
20.31907 593
20.33918 542
20.35929 541
20.37941 589
20.39952 556
20.41963 563
20.43975 554
20.45986 603
20.47998 579
20.50009 569
20.5202 549
20.54032 567
20.56043 560
20.58054 586
20.60066 616
20.62077 645
20.64088 661
20.661 662
20.68111 780
20.70123 899
20.72134 990
20.74145 1185
20.76157 1405
20.78168 1669
20.80179 1856
20.82191 1985
20.84202 1948
20.86214 1813
20.88225 1585
20.90236 1265
20.92248 987
20.94259 872
20.9627 756
20.98282 699
21.00293 742
21.02305 663
21.04316 626
21.06327 640
21.08339 622
21.1035 625
21.12361 590
21.14373 620
21.16384 586
21.18395 574
21.20407 518
21.22418 585
21.2443 549
21.26441 600
21.28452 558
21.30464 567
21.32475 537
21.34486 546
21.36498 561
21.38509 564
21.40521 533
21.42532 545
21.44543 579
21.46555 535
21.48566 520
21.50577 537
21.52589 501
21.546 514
21.56612 474
21.58623 533
21.60634 482
21.62646 507
21.64657 528
21.66668 534
21.6868 517
21.70691 540
21.72702 483
21.74714 516
21.76725 562
21.78737 586
21.80748 617
21.82759 694
21.84771 681
21.86782 845
21.88793 934
21.90805 1214
21.92816 1394
21.94828 1503
21.96839 1484
21.9885 1504
22.00862 1337
22.02873 1061
22.04884 915
22.06896 707
22.08907 646
22.10919 572
22.1293 623
22.14941 519
22.16953 508
22.18964 507
22.20975 514
22.22987 483
22.24998 482
22.27009 505
22.29021 506
22.31032 515
22.33044 503
22.35055 477
22.37066 446
22.39078 475
22.41089 472
22.431 495
22.45112 469
22.47123 448
22.49135 490
22.51146 497
22.53157 480
22.55169 481
22.5718 477
22.59191 429
22.61203 479
22.63214 472
22.65225 473
22.67237 422
22.69248 475
22.7126 458
22.73271 435
22.75282 517
22.77294 490
22.79305 558
22.81316 558
22.83328 646
22.85339 628
22.87351 648
22.89362 633
22.91373 602
22.93385 652
22.95396 581
22.97407 530
22.99419 470
23.0143 510
23.03442 534
23.05453 465
23.07464 503
23.09476 473
23.11487 470
23.13498 484
23.1551 441
23.17521 472
23.19532 508
23.21544 481
23.23555 457
23.25567 476
23.27578 462
23.29589 514
23.31601 463
23.33612 460
23.35623 502
23.37635 477
23.39646 524
23.41658 535
23.43669 565
23.4568 595
23.47692 609
23.49703 690
23.51714 742
23.53726 783
23.55737 777
23.57749 891
23.5976 896
23.61771 805
23.63783 756
23.65794 798
23.67805 699
23.69817 670
23.71828 684
23.73839 624
23.75851 712
23.77862 701
23.79874 743
23.81885 763
23.83896 795
23.85908 895
23.87919 824
23.8993 881
23.91942 807
23.93953 738
23.95965 720
23.97976 676
23.99987 561
24.01999 597
24.0401 581
24.06021 584
24.08033 613
24.10044 585
24.12056 612
24.14067 614
24.16078 642
24.1809 700
24.20101 719
24.22112 795
24.24124 849
24.26135 886
24.28146 850
24.30158 921
24.32169 850
24.34181 827
24.36192 736
24.38203 725
24.40215 701
24.42226 580
24.44237 575
24.46249 530
24.4826 517
24.50272 507
24.52283 515
24.54294 492
24.56306 493
24.58317 503
24.60328 515
24.6234 508
24.64351 487
24.66362 499
24.68374 434
24.70385 528
24.72397 479
24.74408 498
24.76419 502
24.78431 495
24.80442 496
24.82453 502
24.84465 465
24.86476 459
24.88488 484
24.90499 538
24.9251 481
24.94522 481
24.96533 505
24.98544 519
25.00556 500
25.02567 550
25.04579 521
25.0659 521
25.08601 517
25.10613 492
25.12624 523
25.14635 523
25.16647 515
25.18658 548
25.20669 510
25.22681 505
25.24692 594
25.26704 503
25.28715 519
25.30726 560
25.32738 513
25.34749 526
25.3676 524
25.38772 575
25.40783 637
25.42795 638
25.44806 629
25.46817 662
25.48829 691
25.5084 690
25.52851 686
25.54863 654
25.56874 653
25.58886 625
25.60897 648
25.62908 616
25.6492 621
25.66931 593
25.68942 575
25.70954 552
25.72965 542
25.74976 589
25.76988 540
25.78999 548
25.81011 576
25.83022 563
25.85033 548
25.87045 507
25.89056 540
25.91067 498
25.93079 527
25.9509 499
25.97102 558
25.99113 513
26.01124 531
26.03136 510
26.05147 529
26.07158 540
26.0917 563
26.11181 568
26.13193 578
26.15204 626
26.17215 615
26.19227 664
26.21238 681
26.23249 739
26.25261 830
26.27272 757
26.29283 836
26.31295 911
26.33306 972
26.35318 1065
26.37329 1217
26.3934 1373
26.41352 1508
26.43363 1757
26.45374 2007
26.47386 2534
26.49397 3296
26.51409 4074
26.5342 5154
26.55431 6152
26.57443 6997
26.59454 7387
26.61465 7309
26.63477 6506
26.65488 5356
26.67499 4031
26.69511 3147
26.71522 2306
26.73534 1602
26.75545 1200
26.77556 1016
26.79568 913
26.81579 806
26.8359 818
26.85602 744
26.87613 807
26.89625 702
26.91636 680
26.93647 732
26.95659 743
26.9767 673
26.99681 708
27.01693 677
27.03704 720
27.05716 713
27.07727 663
27.09738 654
27.1175 639
27.13761 664
27.15772 685
27.17784 614
27.19795 578
27.21806 653
27.23818 581
27.25829 563
27.27841 610
27.29852 615
27.31863 616
27.33875 615
27.35886 647
27.37897 718
27.39909 742
27.4192 783
27.43932 759
27.45943 877
27.47954 845
27.49966 788
27.51977 757
27.53988 777
27.56 804
27.58011 837
27.60023 953
27.62034 1064
27.64045 1152
27.66057 1346
27.68068 1645
27.70079 1759
27.72091 2120
27.74102 2310
27.76113 2441
27.78125 2345
27.80136 2352
27.82148 2231
27.84159 2044
27.8617 1975
27.88182 1876
27.90193 1969
27.92204 1972
27.94216 1891
27.96227 1875
27.98239 1761
28.0025 1488
28.02261 1398
28.04273 1194
28.06284 1043
28.08295 886
28.10307 820
28.12318 707
28.1433 757
28.16341 663
28.18352 720
28.20364 794
28.22375 762
28.24386 794
28.26398 853
28.28409 899
28.3042 829
28.32432 840
28.34443 760
28.36455 669
28.38466 669
28.40477 610
28.42489 601
28.445 566
28.46511 593
28.48523 604
28.50534 590
28.52546 556
28.54557 530
28.56568 532
28.5858 476
28.60591 413
28.62602 465
28.64614 478
28.66625 466
28.68636 407
28.70648 410
28.72659 402
28.74671 422
28.76682 417
28.78693 391
28.80705 398
28.82716 425
28.84727 436
28.86739 463
28.8875 410
28.90762 452
28.92773 392
28.94784 388
28.96796 390
28.98807 412
29.00818 396
29.0283 408
29.04841 411
29.06853 394
29.08864 425
29.10875 392
29.12887 409
29.14898 397
29.16909 400
29.18921 435
29.20932 424
29.22943 397
29.24955 411
29.26966 437
29.28978 421
29.30989 439
29.33 394
29.35012 431
29.37023 436
29.39034 451
29.41046 444
29.43057 418
29.45069 407
29.4708 409
29.49091 406
29.51103 431
29.53114 448
29.55125 445
29.57137 486
29.59148 512
29.6116 541
29.63171 521
29.65182 615
29.67194 583
29.69205 617
29.71216 617
29.73228 647
29.75239 674
29.7725 624
29.79262 599
29.81273 594
29.83285 568
29.85296 497
29.87307 533
29.89319 447
29.9133 509
29.93341 430
29.95353 457
29.97364 439
29.99376 459
30.01387 487
30.03398 459
30.0541 479
30.07421 467
30.09432 469
30.11444 499
30.13455 507
30.15467 508
30.17478 554
30.19489 626
30.21501 627
30.23512 634
30.25523 660
30.27535 730
30.29546 796
30.31557 791
30.33569 825
30.3558 860
30.37592 796
30.39603 862
30.41614 821
30.43626 771
30.45637 749
30.47648 638
30.4966 583
30.51671 583
30.53683 596
30.55694 462
30.57705 495
30.59717 484
30.61728 482
30.63739 437
30.65751 445
30.67762 446
30.69773 429
30.71785 454
30.73796 458
30.75808 468
30.77819 433
30.7983 416
30.81842 449
30.83853 399
30.85864 401
30.87876 440
30.89887 430
30.91899 414
30.9391 405
30.95921 380
30.97933 381
30.99944 429
31.01955 398
31.03967 441
31.05978 396
31.0799 388
31.10001 414
31.12012 384
31.14024 402
31.16035 395
31.18046 382
31.20058 411
31.22069 459
31.2408 449
31.26092 471
31.28103 516
31.30115 493
31.32126 535
31.34137 549
31.36149 580
31.3816 600
31.40171 526
31.42183 528
31.44194 485
31.46206 482
31.48217 461
31.50228 454
31.5224 451
31.54251 403
31.56262 421
31.58274 440
31.60285 459
31.62297 424
31.64308 409
31.66319 426
31.68331 396
31.70342 419
31.72353 379
31.74365 380
31.76376 418
31.78387 411
31.80399 419
31.8241 368
31.84422 421
31.86433 419
31.88444 419
31.90456 429
31.92467 383
31.94478 399
31.9649 409
31.98501 388
32.00513 402
32.02524 390
32.04535 342
32.06547 393
32.08558 366
32.10569 393
32.12581 377
32.14592 426
32.16604 418
32.18615 418
32.20626 443
32.22638 414
32.24649 406
32.2666 409
32.28672 393
32.30683 437
32.32694 427
32.34706 395
32.36717 430
32.38729 463
32.4074 447
32.42751 496
32.44763 494
32.46774 459
32.48785 505
32.50797 497
32.52808 450
32.5482 470
32.56831 481
32.58842 457
32.60854 436
32.62865 447
32.64876 433
32.66888 440
32.68899 434
32.7091 465
32.72922 419
32.74933 460
32.76945 376
32.78956 429
32.80967 461
32.82979 424
32.8499 440
32.87001 475
32.89013 455
32.91024 474
32.93036 523
32.95047 543
32.97058 534
32.9907 530
33.01081 484
33.03092 508
33.05104 485
33.07115 479
33.09127 467
33.11138 430
33.13149 372
33.15161 457
33.17172 419
33.19183 391
33.21195 394
33.23206 392
33.25217 370
33.27229 385
33.2924 401
33.31252 365
33.33263 374
33.35274 367
33.37286 396
33.39297 387
33.41308 397
33.4332 383
33.45331 374
33.47343 393
33.49354 362
33.51365 365
33.53377 369
33.55388 375
33.57399 386
33.59411 401
33.61422 361
33.63434 410
33.65445 414
33.67456 420
33.69468 442
33.71479 459
33.7349 506
33.75502 474
33.77513 527
33.79524 486
33.81536 472
33.83547 462
33.85559 485
33.8757 431
33.89581 438
33.91593 443
33.93604 448
33.95615 452
33.97627 414
33.99638 399
34.0165 447
34.03661 422
34.05672 425
34.07684 403
34.09695 441
34.11706 439
34.13718 421
34.15729 452
34.17741 470
34.19752 466
34.21763 452
34.23775 445
34.25786 482
34.27797 483
34.29809 448
34.3182 466
34.33831 461
34.35843 492
34.37854 490
34.39866 458
34.41877 509
34.43888 496
34.459 489
34.47911 508
34.49922 525
34.51934 493
34.53945 511
34.55957 491
34.57968 466
34.59979 487
34.61991 527
34.64002 486
34.66013 491
34.68025 510
34.70036 516
34.72047 456
34.74059 504
34.7607 518
34.78082 476
34.80093 493
34.82104 546
34.84116 503
34.86127 526
34.88138 556
34.9015 561
34.92161 582
34.94173 527
34.96184 551
34.98195 584
35.00207 585
35.02218 605
35.04229 621
35.06241 605
35.08252 611
35.10264 637
35.12275 621
35.14286 659
35.16298 692
35.18309 712
35.2032 719
35.22332 736
35.24343 751
35.26354 753
35.28366 746
35.30377 757
35.32389 775
35.344 743
35.36411 738
35.38423 673
35.40434 651
35.42445 625
35.44457 636
35.46468 625
35.4848 589
35.50491 562
35.52502 588
35.54514 560
35.56525 578
35.58536 604
35.60548 564
35.62559 513
35.64571 526
35.66582 499
35.68593 509
35.70605 514
35.72616 550
35.74627 460
35.76639 486
35.7865 504
35.80661 513
35.82673 468
35.84684 478
35.86696 524
35.88707 490
35.90718 545
35.9273 530
35.94741 544
35.96752 527
35.98764 523
36.00775 577
36.02787 575
36.04798 599
36.06809 560
36.08821 582
36.10832 586
36.12843 604
36.14855 568
36.16866 571
36.18878 535
36.20889 511
36.229 501
36.24912 548
36.26923 489
36.28934 480
36.30946 536
36.32957 539
36.34968 567
36.3698 588
36.38991 634
36.41003 724
36.43014 717
36.45025 850
36.47037 857
36.49048 856
36.51059 885
36.53071 778
36.55082 771
36.57094 690
36.59105 675
36.61116 690
36.63128 594
36.65139 573
36.6715 507
36.69162 485
36.71173 492
36.73184 510
36.75196 505
36.77207 501
36.79219 476
36.8123 512
36.83241 498
36.85253 558
36.87264 505
36.89275 519
36.91287 592
36.93298 514
36.9531 531
36.97321 532
36.99332 502
37.01344 531
37.03355 532
37.05366 472
37.07378 484
37.09389 444
37.11401 511
37.13412 470
37.15423 493
37.17435 465
37.19446 455
37.21457 419
37.23469 484
37.2548 450
37.27491 437
37.29503 422
37.31514 443
37.33526 428
37.35537 483
37.37548 502
37.3956 470
37.41571 445
37.43582 473
37.45594 468
37.47605 440
37.49617 461
37.51628 525
37.53639 514
37.55651 466
37.57662 500
37.59673 511
37.61685 502
37.63696 541
37.65708 482
37.67719 432
37.6973 477
37.71742 442
37.73753 445
37.75764 433
37.77776 412
37.79787 453
37.81798 423
37.8381 449
37.85821 413
37.87833 412
37.89844 405
37.91855 443
37.93867 415
37.95878 407
37.97889 414
37.99901 392
38.01912 426
38.03924 382
38.05935 386
38.07946 413
38.09958 423
38.11969 390
38.1398 391
38.15992 459
38.18003 396
38.20015 450
38.22026 479
38.24037 409
38.26049 419
38.2806 444
38.30071 497
38.32083 450
38.34094 461
38.36105 468
38.38117 495
38.40128 455
38.4214 473
38.44151 453
38.46162 438
38.48174 477
38.50185 440
38.52196 464
38.54208 444
38.56219 420
38.58231 436
38.60242 418
38.62253 472
38.64265 404
38.66276 422
38.68287 425
38.70299 417
38.7231 412
38.74321 406
38.76333 405
38.78344 419
38.80356 440
38.82367 363
38.84378 437
38.8639 426
38.88401 410
38.90412 449
38.92424 412
38.94435 430
38.96447 464
38.98458 438
39.00469 438
39.02481 452
39.04492 430
39.06503 447
39.08515 493
39.10526 494
39.12538 480
39.14549 524
39.1656 472
39.18572 481
39.20583 539
39.22594 506
39.24606 545
39.26617 529
39.28628 545
39.3064 658
39.32651 678
39.34663 715
39.36674 754
39.38685 805
39.40697 860
39.42708 825
39.44719 757
39.46731 696
39.48742 680
39.50754 664
39.52765 624
39.54776 578
39.56788 515
39.58799 496
39.6081 442
39.62822 469
39.64833 460
39.66845 414
39.68856 429
39.70867 370
39.72879 423
39.7489 385
39.76901 384
39.78913 418
39.80924 410
39.82935 385
39.84947 392
39.86958 368
39.8897 408
39.90981 379
39.92992 382
39.95004 409
39.97015 416
39.99026 414
40.01038 405
40.03049 421
40.05061 411
40.07072 426
40.09083 465
40.11095 432
40.13106 523
40.15117 489
40.17129 554
40.1914 599
40.21152 544
40.23163 602
40.25174 616
40.27186 588
40.29197 567
40.31208 533
40.3322 491
40.35231 495
40.37242 443
40.39254 485
40.41265 431
40.43277 408
40.45288 407
40.47299 413
40.49311 406
40.51322 399
40.53333 397
40.55345 369
40.57356 386
40.59368 420
40.61379 417
40.6339 395
40.65402 397
40.67413 438
40.69424 432
40.71436 415
40.73447 396
40.75458 434
40.7747 430
40.79481 433
40.81493 386
40.83504 379
40.85515 385
40.87527 380
40.89538 402
40.91549 379
40.93561 423
40.95572 392
40.97584 391
40.99595 362
41.01606 350
41.03618 357
41.05629 390
41.0764 400
41.09652 411
41.11663 364
41.13675 378
41.15686 375
41.17697 389
41.19709 370
41.2172 413
41.23731 400
41.25743 403
41.27754 394
41.29765 384
41.31777 379
41.33788 391
41.358 409
41.37811 390
41.39822 420
41.41834 383
41.43845 412
41.45856 403
41.47868 463
41.49879 407
41.51891 425
41.53902 403
41.55913 409
41.57925 424
41.59936 442
41.61947 456
41.63959 430
41.6597 448
41.67982 451
41.69993 454
41.72004 494
41.74016 499
41.76027 450
41.78038 397
41.8005 427
41.82061 411
41.84072 454
41.86084 411
41.88095 379
41.90107 419
41.92118 428
41.94129 355
41.96141 361
41.98152 377
42.00163 388
42.02175 364
42.04186 391
42.06198 379
42.08209 414
42.1022 396
42.12232 418
42.14243 385
42.16254 430
42.18266 455
42.20277 513
42.22289 509
42.243 511
42.26311 490
42.28323 547
42.30334 543
42.32345 595
42.34357 667
42.36368 668
42.38379 662
42.40391 651
42.42402 637
42.44414 633
42.46425 531
42.48436 585
42.50448 538
42.52459 498
42.5447 474
42.56482 446
42.58493 404
42.60505 408
42.62516 393
42.64527 409
42.66539 399
42.6855 401
42.70561 433
42.72573 451
42.74584 444
42.76595 431
42.78607 458
42.80618 450
42.8263 502
42.84641 449
42.86652 491
42.88664 432
42.90675 438
42.92686 420
42.94698 407
42.96709 405
42.98721 386
43.00732 380
43.02743 380
43.04755 339
43.06766 383
43.08777 382
43.10789 373
43.128 405
43.14812 346
43.16823 372
43.18834 379
43.20846 394
43.22857 336
43.24868 362
43.2688 353
43.28891 346
43.30902 340
43.32914 345
43.34925 329
43.36937 330
43.38948 353
43.40959 386
43.42971 342
43.44982 308
43.46993 364
43.49005 338
43.51016 339
43.53028 390
43.55039 355
43.5705 324
43.59062 314
43.61073 334
43.63084 338
43.65096 290
43.67107 375
43.69119 338
43.7113 334
43.73141 339
43.75153 316
43.77164 329
43.79175 347
43.81187 356
43.83198 328
43.85209 309
43.87221 330
43.89232 347
43.91244 329
43.93255 329
43.95266 346
43.97278 349
43.99289 332
44.013 357
44.03312 330
44.05323 363
44.07335 370
44.09346 345
44.11357 349
44.13369 347
44.1538 349
44.17391 376
44.19403 351
44.21414 303
44.23426 324
44.25437 350
44.27448 339
44.2946 367
44.31471 330
44.33482 326
44.35494 334
44.37505 291
44.39516 354
44.41528 343
44.43539 323
44.45551 328
44.47562 311
44.49573 341
44.51585 318
44.53596 351
44.55607 345
44.57619 352
44.5963 365
44.61642 336
44.63653 367
44.65664 357
44.67676 353
44.69687 370
44.71698 395
44.7371 345
44.75721 386
44.77732 419
44.79744 393
44.81755 418
44.83767 389
44.85778 389
44.87789 375
44.89801 393
44.91812 433
44.93823 361
44.95835 366
44.97846 387
44.99858 380
45.01869 396
45.0388 378
45.05892 396
45.07903 371
45.09914 377
45.11926 403
45.13937 364
45.15949 379
45.1796 395
45.19971 366
45.21983 333
45.23994 398
45.26005 349
45.28017 373
45.30028 365
45.32039 340
45.34051 400
45.36062 391
45.38074 353
45.40085 339
45.42096 378
45.44108 393
45.46119 384
45.4813 352
45.50142 385
45.52153 371
45.54165 433
45.56176 413
45.58187 439
45.60199 468
45.6221 479
45.64221 488
45.66233 498
45.68244 532
45.70256 552
45.72267 540
45.74278 547
45.7629 541
45.78301 503
45.80312 487
45.82324 484
45.84335 472
45.86346 462
45.88358 478
45.90369 421
45.92381 393
45.94392 367
45.96403 352
45.98415 364
46.00426 361
46.02437 357
46.04449 375
46.0646 355
46.08472 361
46.10483 333
46.12494 336
46.14506 339
46.16517 296
46.18528 324
46.2054 365
46.22551 364
46.24563 306
46.26574 359
46.28585 355
46.30597 370
46.32608 348
46.34619 358
46.36631 334
46.38642 329
46.40653 334
46.42665 321
46.44676 303
46.46688 345
46.48699 315
46.5071 337
46.52722 329
46.54733 342
46.56744 326
46.58756 349
46.60767 328
46.62779 354
46.6479 330
46.66801 358
46.68813 363
46.70824 348
46.72835 342
46.74847 424
46.76858 345
46.78869 346
46.80881 346
46.82892 371
46.84904 345
46.86915 377
46.88926 347
46.90938 380
46.92949 357
46.9496 368
46.96972 312
46.98983 366
47.00995 363
47.03006 355
47.05017 320
47.07029 300
47.0904 345
47.11051 351
47.13063 353
47.15074 348
47.17086 332
47.19097 359
47.21108 338
47.2312 360
47.25131 346
47.27142 342
47.29154 357
47.31165 357
47.33176 360
47.35188 376
47.37199 395
47.39211 400
47.41222 376
47.43233 368
47.45245 416
47.47256 371
47.49267 382
47.51279 357
47.5329 369
47.55302 368
47.57313 379
47.59324 365
47.61336 381
47.63347 359
47.65358 327
47.6737 348
47.69381 373
47.71393 338
47.73404 364
47.75415 368
47.77427 319
47.79438 343
47.81449 347
47.83461 310
47.85472 348
47.87483 341
47.89495 336
47.91506 363
47.93518 327
47.95529 338
47.9754 337
47.99552 327
48.01563 369
48.03574 321
48.05586 360
48.07597 340
48.09609 369
48.1162 362
48.13631 346
48.15643 377
48.17654 367
48.19665 381
48.21677 374
48.23688 392
48.257 389
48.27711 367
48.29722 396
48.31734 394
48.33745 359
48.35756 375
48.37768 376
48.39779 353
48.4179 371
48.43802 394
48.45813 326
48.47825 371
48.49836 357
48.51847 354
48.53859 360
48.5587 370
48.57881 346
48.59893 388
48.61904 347
48.63916 335
48.65927 331
48.67938 381
48.6995 337
48.71961 358
48.73972 392
48.75984 370
48.77995 384
48.80006 380
48.82018 360
48.84029 394
48.86041 384
48.88052 385
48.90063 364
48.92075 395
48.94086 404
48.96097 386
48.98109 427
49.0012 387
49.02132 400
49.04143 362
49.06154 406
49.08166 427
49.10177 428
49.12188 450
49.142 453
49.16211 445
49.18223 458
49.20234 382
49.22245 425
49.24257 412
49.26268 418
49.28279 465
49.30291 406
49.32302 389
49.34313 386
49.36325 366
49.38336 365
49.40348 377
49.42359 363
49.4437 334
49.46382 371
49.48393 350
49.50404 390
49.52416 377
49.54427 376
49.56439 393
49.5845 403
49.60461 427
49.62473 423
49.64484 413
49.66495 424
49.68507 470
49.70518 470
49.7253 495
49.74541 512
49.76552 557
49.78564 562
49.80575 540
49.82586 566
49.84598 604
49.86609 578
49.8862 589
49.90632 582
49.92643 655
49.94655 639
49.96666 700
49.98677 781
50.00689 858
50.027 944
50.04711 985
50.06723 1025
50.08734 1042
50.10746 931
50.12757 860
50.14768 792
50.1678 730
50.18791 718
50.20802 681
50.22814 649
50.24825 548
50.26837 520
50.28848 442
50.30859 429
50.32871 412
50.34882 387
50.36893 411
50.38905 420
50.40916 402
50.42927 404
50.44939 373
50.4695 410
50.48962 384
50.50973 452
50.52984 429
50.54996 423
50.57007 454
50.59018 414
50.6103 459
50.63041 428
50.65053 462
50.67064 411
50.69075 467
50.71087 459
50.73098 396
50.75109 420
50.77121 425
50.79132 418
50.81143 359
50.83155 409
50.85166 359
50.87178 379
50.89189 344
50.912 356
50.93212 348
50.95223 385
50.97234 351
50.99246 345
51.01257 350
51.03269 387
51.0528 362
51.07291 404
51.09303 377
51.11314 388
51.13325 389
51.15337 388
51.17348 400
51.1936 412
51.21371 423
51.23382 472
51.25394 496
51.27405 459
51.29416 472
51.31428 466
51.33439 418
51.3545 422
51.37462 417
51.39473 393
51.41485 420
51.43496 406
51.45507 386
51.47519 354
51.4953 382
51.51541 356
51.53553 379
51.55564 339
51.57576 311
51.59587 343
51.61598 266
51.6361 338
51.65621 353
51.67632 346
51.69644 301
51.71655 319
51.73667 317
51.75678 296
51.77689 299
51.79701 299
51.81712 299
51.83723 342
51.85735 281
51.87746 319
51.89757 297
51.91769 330
51.9378 305
51.95792 326
51.97803 319
51.99814 282
52.01826 304
52.03837 310
52.05848 327
52.0786 329
52.09871 332
52.11883 362
52.13894 366
52.15905 364
52.17917 317
52.19928 344
52.21939 343
52.23951 362
52.25962 366
52.27974 316
52.29985 363
52.31996 313
52.34008 375
52.36019 352
52.3803 396
52.40042 345
52.42053 349
52.44064 353
52.46076 383
52.48087 375
52.50099 354
52.5211 352
52.54121 365
52.56133 385
52.58144 360
52.60155 363
52.62167 373
52.64178 383
52.6619 367
52.68201 338
52.70212 368
52.72224 389
52.74235 343
52.76246 357
52.78258 333
52.80269 348
52.8228 359
52.84292 367
52.86303 363
52.88315 405
52.90326 366
52.92337 388
52.94349 386
52.9636 398
52.98371 414
53.00383 374
53.02394 408
53.04406 426
53.06417 420
53.08428 424
53.1044 387
53.12451 403
53.14462 431
53.16474 405
53.18485 385
53.20497 408
53.22508 349
53.24519 381
53.26531 419
53.28542 375
53.30553 404
53.32565 369
53.34576 380
53.36587 358
53.38599 357
53.4061 339
53.42622 388
53.44633 378
53.46644 343
53.48656 360
53.50667 333
53.52678 371
53.5469 371
53.56701 320
53.58713 345
53.60724 377
53.62735 362
53.64747 367
53.66758 394
53.68769 414
53.70781 400
53.72792 413
53.74804 398
53.76815 362
53.78826 381
53.80838 362
53.82849 376
53.8486 400
53.86872 380
53.88883 358
53.90894 383
53.92906 388
53.94917 391
53.96929 395
53.9894 374
54.00951 384
54.02963 395
54.04974 387
54.06985 362
54.08997 403
54.11008 391
54.1302 420
54.15031 344
54.17042 381
54.19054 407
54.21065 400
54.23076 379
54.25088 392
54.27099 427
54.29111 406
54.31122 398
54.33133 403
54.35145 440
54.37156 419
54.39167 398
54.41179 416
54.4319 384
54.45201 419
54.47213 376
54.49224 383
54.51236 401
54.53247 405
54.55258 376
54.5727 422
54.59281 374
54.61292 435
54.63304 429
54.65315 414
54.67327 408
54.69338 408
54.71349 420
54.73361 497
54.75372 510
54.77383 530
54.79395 547
54.81406 539
54.83417 551
54.85429 460
54.8744 484
54.89452 472
54.91463 461
54.93474 441
54.95486 442
54.97497 441
54.99508 411
55.0152 420
55.03531 385
55.05543 394
55.07554 396
55.09565 415
55.11577 386
55.13588 412
55.15599 421
55.17611 383
55.19622 411
55.21634 430
55.23645 407
55.25656 459
55.27668 478
55.29679 426
55.3169 433
55.33702 418
55.35713 427
55.37724 378
55.39736 380
55.41747 396
55.43759 389
55.4577 383
55.47781 392
55.49793 380
55.51804 364
55.53815 366
55.55827 367
55.57838 365
55.5985 412
55.61861 374
55.63872 382
55.65884 348
55.67895 379
55.69906 345
55.71918 387
55.73929 354
55.75941 346
55.77952 365
55.79963 326
55.81975 349
55.83986 354
55.85997 361
55.88009 342
55.9002 348
55.92031 345
55.94043 346
55.96054 348
55.98066 313
56.00077 334
56.02088 320
56.041 340
56.06111 356
56.08122 339
56.10134 321
56.12145 320
56.14157 334
56.16168 363
56.18179 342
56.20191 333
56.22202 353
56.24213 327
56.26225 307
56.28236 309
56.30248 352
56.32259 343
56.3427 294
56.36282 329
56.38293 324
56.40304 309
56.42316 335
56.44327 294
56.46338 321
56.4835 335
56.50361 317
56.52373 328
56.54384 290
56.56395 341
56.58407 323
56.60418 300
56.62429 301
56.64441 338
56.66452 366
56.68464 342
56.70475 355
56.72486 326
56.74498 330
56.76509 323
56.7852 326
56.80532 330
56.82543 316
56.84554 299
56.86566 365
56.88577 299
56.90589 328
56.926 324
56.94611 319
56.96623 302
56.98634 286
57.00645 314
57.02657 314
57.04668 346
57.0668 323
57.08691 321
57.10702 321
57.12714 317
57.14725 333
57.16736 332
57.18748 316
57.20759 334
57.22771 340
57.24782 360
57.26793 325
57.28805 342
57.30816 361
57.32827 343
57.34839 358
57.3685 398
57.38861 342
57.40873 337
57.42884 359
57.44896 336
57.46907 358
57.48918 361
57.5093 321
57.52941 362
57.54952 326
57.56964 336
57.58975 307
57.60987 312
57.62998 323
57.65009 302
57.67021 309
57.69032 326
57.71043 307
57.73055 330
57.75066 313
57.77078 329
57.79089 313
57.811 344
57.83112 297
57.85123 312
57.87134 315
57.89146 320
57.91157 303
57.93168 341
57.9518 300
57.97191 366
57.99203 340
58.01214 329
58.03225 329
58.05237 369
58.07248 338
58.09259 338
58.11271 351
58.13282 320
58.15294 315
58.17305 325
58.19316 300
58.21328 320
58.23339 311
58.2535 327
58.27362 351
58.29373 354
58.31385 340
58.33396 328
58.35407 351
58.37419 344
58.3943 313
58.41441 319
58.43453 342
58.45464 383
58.47475 360
58.49487 337
58.51498 346
58.5351 328
58.55521 342
58.57532 334
58.59544 327
58.61555 338
58.63566 335
58.65578 325
58.67589 350
58.69601 337
58.71612 358
58.73623 323
58.75635 338
58.77646 307
58.79657 315
58.81669 294
58.8368 326
58.85691 331
58.87703 302
58.89714 336
58.91726 326
58.93737 304
58.95748 298
58.9776 311
58.99771 314
59.01782 287
59.03794 315
59.05805 327
59.07817 316
59.09828 331
59.11839 306
59.13851 343
59.15862 315
59.17873 316
59.19885 312
59.21896 296
59.23908 310
59.25919 336
59.2793 315
59.29942 339
59.31953 338
59.33964 337
59.35976 348
59.37987 353
59.39998 317
59.4201 328
59.44021 322
59.46033 350
59.48044 343
59.50055 357
59.52067 337
59.54078 357
59.56089 361
59.58101 369
59.60112 337
59.62124 396
59.64135 395
59.66146 383
59.68158 412
59.70169 442
59.7218 443
59.74192 443
59.76203 531
59.78215 550
59.80226 595
59.82237 600
59.84249 681
59.8626 714
59.88271 751
59.90283 722
59.92294 656
59.94305 629
59.96317 561
59.98328 566
60.0034 578
60.02351 559
60.04362 564
60.06374 564
60.08385 487
60.10396 513
60.12408 453
60.14419 412
60.16431 430
60.18442 359
60.20453 383
60.22465 378
60.24476 385
60.26487 364
60.28499 347
60.3051 356
60.32522 369
60.34533 382
60.36544 348
60.38556 346
60.40567 361
60.42578 341
60.4459 325
60.46601 340
60.48612 348
60.50624 339
60.52635 346
60.54647 339
60.56658 315
60.58669 320
60.60681 334
60.62692 356
60.64703 343
60.66715 345
60.68726 337
60.70738 320
60.72749 352
60.7476 373
60.76772 338
60.78783 334
60.80794 330
60.82806 347
60.84817 357
60.86828 340
60.8884 333
60.90851 356
60.92863 364
60.94874 354
60.96885 397
60.98897 333
61.00908 306
61.02919 381
61.04931 350
61.06942 348
61.08954 327
61.10965 339
61.12976 352
61.14988 359
61.16999 359
61.1901 385
61.21022 349
61.23033 373
61.25045 372
61.27056 336
61.29067 343
61.31079 361
61.3309 359
61.35101 403
61.37113 351
61.39124 394
61.41135 392
61.43147 387
61.45158 404
61.4717 363
61.49181 367
61.51192 376
61.53204 370
61.55215 383
61.57226 392
61.59238 406
61.61249 399
61.63261 404
61.65272 401
61.67283 384
61.69295 367
61.71306 380
61.73317 406
61.75329 401
61.7734 422
61.79352 408
61.81363 356
61.83374 356
61.85386 386
61.87397 353
61.89408 409
61.9142 377
61.93431 391
61.95442 370
61.97454 398
61.99465 374
62.01477 395
62.03488 407
62.05499 359
62.07511 342
62.09522 366
62.11533 382
62.13545 391
62.15556 421
62.17568 380
62.19579 412
62.2159 346
62.23602 361
62.25613 376
62.27624 368
62.29636 377
62.31647 402
62.33659 376
62.3567 373
62.37681 374
62.39693 343
62.41704 381
62.43715 344
62.45727 338
62.47738 362
62.49749 339
62.51761 365
62.53772 328
62.55784 286
62.57795 329
62.59806 316
62.61818 385
62.63829 340
62.6584 340
62.67852 312
62.69863 316
62.71875 353
62.73886 352
62.75897 351
62.77909 332
62.7992 344
62.81931 358
62.83943 324
62.85954 338
62.87965 328
62.89977 337
62.91988 351
62.94 348
62.96011 309
62.98022 349
63.00034 349
63.02045 332
63.04056 336
63.06068 351
63.08079 351
63.10091 335
63.12102 337
63.14113 373
63.16125 363
63.18136 364
63.20147 348
63.22159 352
63.2417 323
63.26182 335
63.28193 356
63.30204 347
63.32216 347
63.34227 320
63.36238 358
63.3825 350
63.40261 385
63.42272 387
63.44284 366
63.46295 359
63.48307 337
63.50318 375
63.52329 386
63.54341 370
63.56352 380
63.58363 387
63.60375 330
63.62386 369
63.64398 378
63.66409 396
63.6842 369
63.70432 411
63.72443 385
63.74454 383
63.76466 404
63.78477 375
63.80489 396
63.825 370
63.84511 370
63.86523 408
63.88534 385
63.90545 422
63.92557 446
63.94568 412
63.96579 401
63.98591 418
64.00602 391
64.02614 425
64.04625 353
64.06636 366
64.08648 378
64.10659 326
64.1267 340
64.14682 352
64.16693 339
64.18705 337
64.20716 346
64.22727 323
64.24739 326
64.2675 307
64.28761 330
64.30773 355
64.32784 311
64.34796 315
64.36807 324
64.38818 331
64.4083 307
64.42841 297
64.44852 306
64.46864 319
64.48875 289
64.50886 316
64.52898 287
64.54909 299
64.56921 333
64.58932 333
64.60943 307
64.62955 328
64.64966 314
64.66977 315
64.68989 299
64.71 335
64.73012 309
64.75023 328
64.77034 323
64.79046 338
64.81057 324
64.83068 295
64.8508 333
64.87091 296
64.89102 307
64.91114 325
64.93125 328
64.95137 318
64.97148 294
64.99159 334
65.01171 324
65.03182 304
65.05193 360
65.07205 315
65.09216 307
65.11228 308
65.13239 303
65.1525 326
65.17262 343
65.19273 341
65.21284 324
65.23296 316
65.25307 359
65.27319 344
65.2933 308
65.31341 342
65.33353 346
65.35364 325
65.37375 303
65.39387 308
65.41398 322
65.43409 322
65.45421 344
65.47432 356
65.49444 311
65.51455 327
65.53466 304
65.55478 335
65.57489 295
65.595 307
65.61512 290
65.63523 337
65.65535 311
65.67546 327
65.69557 308
65.71569 294
65.7358 280
65.75591 280
65.77603 289
65.79614 274
65.81626 280
65.83637 302
65.85648 290
65.8766 287
65.89671 286
65.91682 293
65.93694 307
65.95705 255
65.97716 280
65.99728 304
66.01739 293
66.03751 310
66.05762 293
66.07773 301
66.09785 302
66.11796 298
66.13807 291
66.15819 338
66.1783 283
66.19842 284
66.21853 320
66.23864 323
66.25876 307
66.27887 310
66.29898 302
66.3191 295
66.33921 276
66.35933 304
66.37944 296
66.39955 309
66.41967 285
66.43978 282
66.45989 321
66.48001 294
66.50012 309
66.52023 308
66.54035 287
66.56046 296
66.58058 295
66.60069 304
66.6208 296
66.64092 307
66.66103 308
66.68114 299
66.70126 262
66.72137 295
66.74149 309
66.7616 314
66.78171 304
66.80183 325
66.82194 289
66.84205 280
66.86217 308
66.88228 291
66.90239 324
66.92251 297
66.94262 293
66.96274 309
66.98285 273
67.00296 293
67.02308 289
67.04319 300
67.0633 311
67.08342 329
67.10353 324
67.12365 307
67.14376 302
67.16387 309
67.18399 291
67.2041 293
67.22421 325
67.24433 291
67.26444 312
67.28456 333
67.30467 312
67.32478 297
67.3449 321
67.36501 323
67.38512 316
67.40524 307
67.42535 319
67.44546 362
67.46558 358
67.48569 379
67.50581 397
67.52592 374
67.54603 406
67.56615 484
67.58626 469
67.60637 508
67.62649 512
67.6466 549
67.66672 571
67.68683 564
67.70694 543
67.72706 482
67.74717 486
67.76728 466
67.7874 455
67.80751 439
67.82763 465
67.84774 439
67.86785 457
67.88797 484
67.90808 443
67.92819 498
67.94831 522
67.96842 475
67.98853 516
68.00865 563
68.02876 647
68.04888 619
68.06899 601
68.0891 599
68.10922 565
68.12933 585
68.14944 600
68.16956 592
68.18967 542
68.20979 590
68.2299 572
68.25001 598
68.27013 585
68.29024 528
68.31035 536
68.33047 494
68.35058 437
68.3707 444
68.39081 418
68.41092 378
68.43104 443
68.45115 413
68.47126 367
68.49138 380
68.51149 342
68.5316 319
68.55172 337
68.57183 324
68.59195 356
68.61206 311
68.63217 319
68.65229 342
68.6724 346
68.69251 314
68.71263 341
68.73274 319
68.75286 314
68.77297 326
68.79308 337
68.8132 330
68.83331 310
68.85342 302
68.87354 293
68.89365 277
68.91376 321
68.93388 295
68.95399 306
68.97411 311
68.99422 280
69.01433 290
69.03445 317
69.05456 319
69.07467 339
69.09479 321
69.1149 351
69.13502 331
69.15513 342
69.17524 383
69.19536 359
69.21547 335
69.23558 327
69.2557 320
69.27581 345
69.29593 346
69.31604 333
69.33615 319
69.35627 324
69.37638 345
69.39649 305
69.41661 327
69.43672 326
69.45683 332
69.47695 297
69.49706 335
69.51718 311
69.53729 296
69.5574 321
69.57752 336
69.59763 326
69.61774 325
69.63786 307
69.65797 366
69.67809 316
69.6982 306
69.71831 360
69.73843 336
69.75854 355
69.77865 303
69.79877 314
69.81888 311
69.839 319
69.85911 290
69.87922 299
69.89934 326
69.91945 343
69.93956 289
69.95968 311
69.97979 308
69.9999 301
70.02002 279
70.04013 301
70.06025 322
70.08036 309
70.10047 288
70.12059 299
70.1407 268
70.16081 301
70.18093 251
70.20104 273
70.22116 302
70.24127 275
70.26138 294
70.2815 309
70.30161 256
70.32172 262
70.34184 282
70.36195 306
70.38207 273
70.40218 263
70.42229 276
70.44241 282
70.46252 318
70.48263 283
70.50275 294
70.52286 290
70.54297 304
70.56309 276
70.5832 282
70.60332 301
70.62343 283
70.64354 279
70.66366 293
70.68377 304
70.70388 297
70.724 315
70.74411 286
70.76423 308
70.78434 281
70.80445 289
70.82457 311
70.84468 274
70.86479 274
70.88491 264
70.90502 289
70.92513 307
70.94525 302
70.96536 298
70.98548 283
71.00559 308
71.0257 296
71.04582 312
71.06593 303
71.08604 285
71.10616 320
71.12627 330
71.14639 302
71.1665 328
71.18661 294
71.20673 302
71.22684 313
71.24695 298
71.26707 317
71.28718 272
71.3073 306
71.32741 281
71.34752 290
71.36764 295
71.38775 333
71.40786 302
71.42798 292
71.44809 308
71.4682 284
71.48832 303
71.50843 277
71.52855 303
71.54866 269
71.56877 294
71.58889 276
71.609 295
71.62911 298
71.64923 272
71.66934 265
71.68946 253
71.70957 293
71.72968 287
71.7498 283
71.76991 275
71.79002 281
71.81014 274
71.83025 295
71.85037 283
71.87048 265
71.89059 293
71.91071 251
71.93082 287
71.95093 272
71.97105 274
71.99116 266
72.01127 260
72.03139 254
72.0515 262
72.07162 278
72.09173 295
72.11184 292
72.13196 289
72.15207 264
72.17218 265
72.1923 254
72.21241 262
72.23253 274
72.25264 257
72.27275 282
72.29287 281
72.31298 263
72.33309 282
72.35321 294
72.37332 259
72.39344 288
72.41355 254
72.43366 285
72.45378 285
72.47389 282
72.494 269
72.51412 266
72.53423 287
72.55434 250
72.57446 275
72.59457 285
72.61469 264
72.6348 274
72.65491 313
72.67503 285
72.69514 300
72.71525 301
72.73537 249
72.75548 276
72.7756 262
72.79571 268
72.81582 280
72.83594 261
72.85605 270
72.87616 283
72.89628 293
72.91639 280
72.9365 268
72.95662 263
72.97673 300
72.99685 297
73.01696 299
73.03707 283
73.05719 287
73.0773 292
73.09741 294
73.11753 298
73.13764 310
73.15776 321
73.17787 297
73.19798 335
73.2181 329
73.23821 315
73.25832 319
73.27844 326
73.29855 305
73.31867 343
73.33878 374
73.35889 336
73.37901 383
73.39912 337
73.41923 348
73.43935 359
73.45946 337
73.47957 330
73.49969 321
73.5198 314
73.53992 327
73.56003 319
73.58014 312
73.60026 312
73.62037 333
73.64048 336
73.6606 317
73.68071 318
73.70083 287
73.72094 326
73.74105 326
73.76117 286
73.78128 306
73.80139 314
73.82151 311
73.84162 282
73.86174 311
73.88185 291
73.90196 327
73.92208 294
73.94219 290
73.9623 272
73.98242 290
74.00253 286
74.02264 299
74.04276 280
74.06287 271
74.08299 297
74.1031 283
74.12321 275
74.14333 262
74.16344 270
74.18355 273
74.20367 300
74.22378 252
74.2439 262
74.26401 272
74.28412 269
74.30424 291
74.32435 308
74.34446 294
74.36458 248
74.38469 261
74.40481 292
74.42492 304
74.44503 294
74.46515 287
74.48526 282
74.50537 312
74.52549 278
74.5456 299
74.56571 278
74.58583 313
74.60594 292
74.62606 322
74.64617 280
74.66628 289
74.6864 281
74.70651 267
74.72662 280
74.74674 312
74.76685 269
74.78697 293
74.80708 272
74.82719 292
74.84731 274
74.86742 278
74.88753 277
74.90765 275
74.92776 259
74.94787 281
74.96799 266
74.9881 272
75.00822 266
