3.00117 21122
3.02128 20188
3.0414 19429
3.06151 19326
3.08162 18683
3.10174 18414
3.12185 17736
3.14197 17231
3.16208 16744
3.18219 16117
3.20231 15984
3.22242 15180
3.24253 15130
3.26265 14467
3.28276 14067
3.30288 13668
3.32299 13203
3.3431 12800
3.36322 12317
3.38333 11729
3.40344 11888
3.42356 10960
3.44367 10806
3.46379 10328
3.4839 10123
3.50401 9933
3.52413 9269
3.54424 9361
3.56435 8849
3.58447 8527
3.60458 8382
3.62469 7788
3.64481 7892
3.66492 7421
3.68504 7220
3.70515 6908
3.72526 6570
3.74538 6357
3.76549 6128
3.7856 5795
3.80572 5865
3.82583 5353
3.84595 5242
3.86606 4903
3.88617 4870
3.90629 4854
3.9264 4324
3.94651 4492
3.96663 4142
3.98674 3995
4.00686 4045
4.02697 3655
4.04708 3683
4.0672 3428
4.08731 3360
4.10742 3278
4.12754 2956
4.14765 3052
4.16776 2812
4.18788 2823
4.20799 2815
4.22811 2460
4.24822 2522
4.26833 2403
4.28845 2377
4.30856 2413
4.32867 2113
4.34879 2292
4.3689 2154
4.38902 2259
4.40913 2092
4.42924 1854
4.44936 1975
4.46947 1913
4.48958 1994
4.5097 1997
4.52981 1771
4.54992 1811
4.57004 1868
4.59015 1781
4.61027 1828
4.63038 1743
4.65049 1647
4.67061 1759
4.69072 1681
4.71083 1681
4.73095 1651
4.75106 1546
4.77118 1610
4.79129 1610
4.8114 1572
4.83152 1508
4.85163 1527
4.87174 1422
4.89186 1468
4.91197 1444
4.93209 1456
4.9522 1484
4.97231 1420
4.99243 1386
5.01254 1366
5.03265 1402
5.05277 1383
5.07288 1411
5.09299 1329
5.11311 1348
5.13322 1280
5.15334 1311
5.17345 1346
5.19356 1279
5.21368 1245
5.23379 1282
5.2539 1350
5.27402 1236
5.29413 1316
5.31425 1261
5.33436 1301
5.35447 1214
5.37459 1233
5.3947 1168
5.41481 1194
5.43493 1248
5.45504 1282
5.47516 1267
5.49527 1257
5.51538 1230
5.5355 1212
5.55561 1151
5.57572 1371
5.59584 1220
5.61595 1172
5.63606 1211
5.65618 1190
5.67629 1271
5.69641 1245
5.71652 1189
5.73663 1132
5.75675 1201
5.77686 1178
5.79697 1179
5.81709 1167
5.8372 1230
5.85732 1125
5.87743 1185
5.89754 1142
5.91766 1104
5.93777 1149
5.95788 1094
5.978 1102
5.99811 1055
6.01823 1090
6.03834 1042
6.05845 1032
6.07857 982
6.09868 1031
6.11879 1027
6.13891 969
6.15902 1056
6.17913 964
6.19925 977
6.21936 972
6.23948 954
6.25959 948
6.2797 932
6.29982 918
6.31993 957
6.34004 988
6.36016 943
6.38027 890
6.40039 864
6.4205 788
6.44061 821
6.46073 834
6.48084 849
6.50095 799
6.52107 795
6.54118 767
6.56129 836
6.58141 769
6.60152 774
6.62164 762
6.64175 729
6.66186 740
6.68198 806
6.70209 741
6.7222 745
6.74232 797
6.76243 702
6.78255 735
6.80266 673
6.82277 705
6.84289 698
6.863 649
6.88311 649
6.90323 667
6.92334 666
6.94346 654
6.96357 651
6.98368 682
7.0038 597
7.02391 634
7.04402 627
7.06414 644
7.08425 595
7.10436 616
7.12448 602
7.14459 615
7.16471 593
7.18482 621
7.20493 589
7.22505 611
7.24516 612
7.26527 617
7.28539 604
7.3055 584
7.32562 555
7.34573 610
7.36584 611
7.38596 575
7.40607 578
7.42618 584
7.4463 557
7.46641 591
7.48653 555
7.50664 593
7.52675 553
7.54687 558
7.56698 513
7.58709 529
7.60721 526
7.62732 581
7.64743 517
7.66755 587
7.68766 554
7.70778 504
7.72789 557
7.748 491
7.76812 503
7.78823 506
7.80834 499
7.82846 524
7.84857 464
7.86869 524
7.8888 508
7.90891 539
7.92903 537
7.94914 521
7.96925 481
7.98937 490
8.00948 493
8.0296 469
8.04971 505
8.06982 475
8.08994 497
8.11005 481
8.13016 503
8.15028 525
8.17039 483
8.1905 462
8.21062 472
8.23073 493
8.25085 461
8.27096 483
8.29107 538
8.31119 515
8.3313 505
8.35141 460
8.37153 497
8.39164 459
8.41176 501
8.43187 497
8.45198 486
8.4721 511
8.49221 504
8.51232 518
8.53244 486
8.55255 451
8.57266 513
8.59278 493
8.61289 450
8.63301 505
8.65312 489
8.67323 482
8.69335 464
8.71346 475
8.73357 463
8.75369 508
8.7738 472
8.79392 534
8.81403 490
8.83414 494
8.85426 525
8.87437 496
8.89448 490
8.9146 457
8.93471 455
8.95483 508
8.97494 484
8.99505 459
9.01517 455
9.03528 483
9.05539 442
9.07551 418
9.09562 421
9.11573 398
9.13585 413
9.15596 496
9.17608 454
9.19619 466
9.2163 478
9.23642 404
9.25653 429
9.27664 438
9.29676 431
9.31687 437
9.33699 422
9.3571 422
9.37721 442
9.39733 448
9.41744 408
9.43755 441
9.45767 437
9.47778 425
9.4979 445
9.51801 393
9.53812 421
9.55824 410
9.57835 380
9.59846 429
9.61858 438
9.63869 418
9.6588 459
9.67892 382
9.69903 398
9.71915 437
9.73926 428
9.75937 482
9.77949 438
9.7996 425
9.81971 464
9.83983 449
9.85994 440
9.88006 447
9.90017 437
9.92028 384
9.9404 421
9.96051 376
9.98062 443
10.00074 409
10.02085 417
10.04097 422
10.06108 397
10.08119 408
10.10131 401
10.12142 393
10.14153 428
10.16165 400
10.18176 428
10.20187 394
10.22199 395
10.2421 416
10.26222 412
10.28233 407
10.30244 408
10.32256 405
10.34267 416
10.36278 390
10.3829 390
10.40301 424
10.42313 439
10.44324 389
10.46335 447
10.48347 415
10.50358 396
10.52369 449
10.54381 412
10.56392 425
10.58403 388
10.60415 370
10.62426 382
10.64438 369
10.66449 418
10.6846 427
10.70472 416
10.72483 424
10.74494 418
10.76506 404
10.78517 396
10.80529 410
10.8254 373
10.84551 399
10.86563 412
10.88574 388
10.90585 400
10.92597 371
10.94608 390
10.9662 380
10.98631 421
11.00642 382
11.02654 440
11.04665 340
11.06676 401
11.08688 387
11.10699 376
11.1271 386
11.14722 458
11.16733 390
11.18745 381
11.20756 393
11.22767 349
11.24779 396
11.2679 410
11.28801 395
11.30813 401
11.32824 349
11.34836 372
11.36847 366
11.38858 416
11.4087 417
11.42881 389
11.44892 373
11.46904 402
11.48915 409
11.50927 365
11.52938 395
11.54949 369
11.56961 387
11.58972 350
11.60983 382
11.62995 375
11.65006 358
11.67017 378
11.69029 410
11.7104 394
11.73052 389
11.75063 382
11.77074 351
11.79086 371
11.81097 391
11.83108 401
11.8512 426
11.87131 366
11.89143 386
11.91154 368
11.93165 402
11.95177 372
11.97188 357
11.99199 353
12.01211 400
12.03222 360
12.05234 404
12.07245 408
12.09256 382
12.11268 343
12.13279 380
12.1529 410
12.17302 375
12.19313 388
12.21324 400
12.23336 378
12.25347 398
12.27359 396
12.2937 394
12.31381 397
12.33393 379
12.35404 405
12.37415 404
12.39427 389
12.41438 417
12.4345 368
12.45461 409
12.47472 384
12.49484 330
12.51495 370
12.53506 388
12.55518 373
12.57529 411
12.5954 374
12.61552 403
12.63563 370
12.65575 385
12.67586 370
12.69597 365
12.71609 353
12.7362 348
12.75631 385
12.77643 372
12.79654 345
12.81666 370
12.83677 342
12.85688 350
12.877 390
12.89711 358
12.91722 348
12.93734 362
12.95745 360
12.97757 342
12.99768 382
13.01779 319
13.03791 369
13.05802 376
13.07813 375
13.09825 346
13.11836 389
13.13847 348
13.15859 377
13.1787 390
13.19882 390
13.21893 410
13.23904 396
13.25916 361
13.27927 419
13.29938 362
13.3195 380
13.33961 372
13.35973 375
13.37984 400
13.39995 417
13.42007 393
13.44018 448
13.46029 419
13.48041 444
13.50052 456
13.52064 476
13.54075 519
13.56086 566
13.58098 619
13.60109 645
13.6212 628
13.64132 652
13.66143 651
13.68154 598
13.70166 513
13.72177 485
13.74189 479
13.762 511
13.78211 473
13.80223 473
13.82234 447
13.84245 442
13.86257 400
13.88268 379
13.9028 383
13.92291 352
13.94302 359
13.96314 371
13.98325 388
14.00336 372
14.02348 375
14.04359 356
14.06371 392
14.08382 360
14.10393 365
14.12405 359
14.14416 330
14.16427 370
14.18439 343
14.2045 370
14.22461 387
14.24473 348
14.26484 351
14.28496 325
14.30507 329
14.32518 339
14.3453 350
14.36541 368
14.38552 350
14.40564 350
14.42575 326
14.44587 376
14.46598 339
14.48609 336
14.50621 354
14.52632 357
14.54643 364
14.56655 358
14.58666 339
14.60677 362
14.62689 363
14.647 337
14.66712 359
14.68723 352
14.70734 366
14.72746 332
14.74757 387
14.76768 357
14.7878 308
14.80791 335
14.82803 345
14.84814 334
14.86825 369
14.88837 320
14.90848 377
14.92859 373
14.94871 355
14.96882 391
14.98894 355
15.00905 385
15.02916 355
15.04928 407
15.06939 383
15.0895 398
15.10962 421
15.12973 443
15.14984 444
15.16996 468
15.19007 446
15.21019 501
15.2303 449
15.25041 431
15.27053 455
15.29064 422
15.31075 393
15.33087 404
15.35098 381
15.3711 417
15.39121 376
15.41132 366
15.43144 376
15.45155 366
15.47166 384
15.49178 348
15.51189 366
15.53201 364
15.55212 339
15.57223 340
15.59235 349
15.61246 320
15.63257 332
15.65269 365
15.6728 363
15.69291 389
15.71303 368
15.73314 388
15.75326 358
15.77337 369
15.79348 380
15.8136 335
15.83371 346
15.85382 360
15.87394 337
15.89405 356
15.91417 330
15.93428 316
15.95439 389
15.97451 335
15.99462 356
16.01473 320
16.03485 355
16.05496 347
16.07508 362
16.09519 333
16.1153 381
16.13542 375
16.15553 376
16.17564 346
16.19576 323
16.21587 359
16.23598 358
16.2561 366
16.27621 326
16.29633 354
16.31644 344
16.33655 352
16.35667 378
16.37678 366
16.39689 319
16.41701 343
16.43712 363
16.45724 398
16.47735 336
16.49746 351
16.51758 354
16.53769 389
16.5578 336
16.57792 338
16.59803 388
16.61814 380
16.63826 329
16.65837 347
16.67849 315
16.6986 366
16.71871 376
16.73883 350
16.75894 378
16.77905 365
16.79917 353
16.81928 343
16.8394 348
16.85951 367
16.87962 351
16.89974 356
16.91985 424
16.93996 331
16.96008 386
16.98019 341
17.00031 405
17.02042 378
17.04053 375
17.06065 324
17.08076 343
17.10087 346
17.12099 383
17.1411 353
17.16121 359
17.18133 366
17.20144 367
17.22156 364
17.24167 382
17.26178 363
17.2819 394
17.30201 397
17.32212 367
17.34224 374
17.36235 333
17.38247 348
17.40258 397
17.42269 360
17.44281 351
17.46292 372
17.48303 383
17.50315 360
17.52326 360
17.54338 390
17.56349 389
17.5836 339
17.60372 402
17.62383 410
17.64394 375
17.66406 341
17.68417 344
17.70428 364
17.7244 357
17.74451 364
17.76463 370
17.78474 357
17.80485 386
17.82497 384
17.84508 366
17.86519 392
17.88531 349
17.90542 387
17.92554 374
17.94565 384
17.96576 378
17.98588 349
18.00599 401
18.0261 346
18.04622 358
18.06633 376
18.08645 393
18.10656 383
18.12667 375
18.14679 360
18.1669 393
18.18701 375
18.20713 377
18.22724 383
18.24735 385
18.26747 386
18.28758 372
18.3077 389
18.32781 391
18.34792 371
18.36804 368
18.38815 382
18.40826 376
18.42838 376
18.44849 373
18.46861 364
18.48872 394
18.50883 408
18.52895 402
18.54906 367
18.56917 419
18.58929 365
18.6094 356
18.62951 352
18.64963 363
18.66974 408
18.68986 420
18.70997 354
18.73008 346
18.7502 356
18.77031 409
18.79042 403
18.81054 396
18.83065 376
18.85077 407
18.87088 375
18.89099 383
18.91111 393
18.93122 446
18.95133 387
18.97145 396
18.99156 385
19.01168 357
19.03179 399
19.0519 364
19.07202 392
19.09213 385
19.11224 378
19.13236 400
19.15247 419
19.17258 408
19.1927 430
19.21281 434
19.23293 475
19.25304 461
19.27315 498
19.29327 458
19.31338 488
19.33349 472
19.35361 459
19.37372 474
19.39384 530
19.41395 513
19.43406 589
19.45418 612
19.47429 594
19.4944 644
19.51452 656
19.53463 684
19.55475 701
19.57486 693
19.59497 755
19.61509 801
19.6352 846
19.65531 762
19.67543 875
19.69554 920
19.71565 855
19.73577 864
19.75588 837
19.776 904
19.79611 896
19.81622 860
19.83634 869
19.85645 852
19.87656 816
19.89668 872
19.91679 822
19.93691 748
19.95702 762
19.97713 770
19.99725 721
20.01736 729
20.03747 700
20.05759 671
20.0777 717
20.09782 740
20.11793 724
20.13804 691
20.15816 697
20.17827 680
20.19838 659
20.2185 713
20.23861 660
20.25872 636
20.27884 656
20.29895 671
20.31907 687
20.33918 606
20.35929 591
20.37941 693
20.39952 683
20.41963 637
20.43975 643
20.45986 632
20.47998 637
20.50009 663
20.5202 675
20.54032 686
20.56043 635
20.58054 614
20.60066 650
20.62077 651
20.64088 734
20.661 750
20.68111 761
20.70123 823
20.72134 957
20.74145 995
20.76157 1191
20.78168 1162
20.80179 1188
20.82191 1227
20.84202 1115
20.86214 1071
20.88225 927
20.90236 838
20.92248 713
20.94259 754
20.9627 715
20.98282 698
21.00293 675
21.02305 646
21.04316 638
21.06327 645
21.08339 665
21.1035 599
21.12361 615
21.14373 642
21.16384 625
21.18395 626
21.20407 625
21.22418 642
21.2443 630
21.26441 639
21.28452 630
21.30464 643
21.32475 583
21.34486 638
21.36498 700
21.38509 687
21.40521 714
21.42532 711
21.44543 792
21.46555 811
21.48566 899
21.50577 1011
21.52589 1131
21.546 1254
21.56612 1304
21.58623 1294
21.60634 1279
21.62646 1206
21.64657 1200
21.66668 996
21.6868 996
21.70691 868
21.72702 843
21.74714 794
21.76725 729
21.78737 800
21.80748 730
21.82759 778
21.84771 778
21.86782 805
21.88793 822
21.90805 860
21.92816 802
21.94828 819
21.96839 711
21.9885 753
22.00862 721
22.02873 679
22.04884 662
22.06896 591
22.08907 576
22.10919 594
22.1293 518
22.14941 603
22.16953 573
22.18964 562
22.20975 559
22.22987 561
22.24998 545
22.27009 507
22.29021 509
22.31032 534
22.33044 529
22.35055 518
22.37066 523
22.39078 523
22.41089 583
22.431 554
22.45112 564
22.47123 533
22.49135 511
22.51146 539
22.53157 539
22.55169 541
22.5718 551
22.59191 595
22.61203 582
22.63214 531
22.65225 506
22.67237 554
22.69248 578
22.7126 610
22.73271 598
22.75282 673
22.77294 765
22.79305 704
22.81316 703
22.83328 754
22.85339 775
22.87351 758
22.89362 752
22.91373 706
22.93385 701
22.95396 763
22.97407 709
22.99419 736
23.0143 665
23.03442 662
23.05453 655
23.07464 644
23.09476 616
23.11487 549
23.13498 600
23.1551 602
23.17521 561
23.19532 532
23.21544 574
23.23555 626
23.25567 633
23.27578 544
23.29589 619
23.31601 621
23.33612 648
23.35623 614
23.37635 681
23.39646 647
23.41658 655
23.43669 727
23.4568 695
23.47692 751
23.49703 803
23.51714 833
23.53726 864
23.55737 913
23.57749 1028
23.5976 1123
23.61771 1099
23.63783 1165
23.65794 1238
23.67805 1115
23.69817 1160
23.71828 1071
23.73839 1040
23.75851 1047
23.77862 933
23.79874 913
23.81885 815
23.83896 782
23.85908 801
23.87919 766
23.8993 673
23.91942 672
23.93953 614
23.95965 671
23.97976 619
23.99987 605
24.01999 653
24.0401 598
24.06021 598
24.08033 643
24.10044 583
24.12056 643
24.14067 569
24.16078 607
24.1809 595
24.20101 574
24.22112 603
24.24124 559
24.26135 542
24.28146 525
24.30158 609
24.32169 566
24.34181 573
24.36192 529
24.38203 542
24.40215 578
24.42226 567
24.44237 618
24.46249 526
24.4826 600
24.50272 567
24.52283 604
24.54294 599
24.56306 612
24.58317 624
24.60328 638
24.6234 553
24.64351 592
24.66362 584
24.68374 596
24.70385 546
24.72397 532
24.74408 565
24.76419 539
24.78431 549
24.80442 592
24.82453 543
24.84465 529
24.86476 565
24.88488 524
24.90499 535
24.9251 543
24.94522 535
24.96533 549
24.98544 584
25.00556 496
25.02567 520
25.04579 566
25.0659 525
25.08601 543
25.10613 546
25.12624 543
25.14635 569
25.16647 546
25.18658 630
25.20669 604
25.22681 582
25.24692 590
25.26704 622
25.28715 565
25.30726 579
25.32738 564
25.34749 549
25.3676 533
25.38772 547
25.40783 568
25.42795 587
25.44806 631
25.46817 545
25.48829 595
25.5084 656
25.52851 644
25.54863 630
25.56874 743
25.58886 725
25.60897 880
25.62908 888
25.6492 863
25.66931 854
25.68942 857
25.70954 832
25.72965 871
25.74976 789
25.76988 801
25.78999 737
25.81011 764
25.83022 659
25.85033 728
25.87045 655
25.89056 669
25.91067 649
25.93079 653
25.9509 626
25.97102 626
25.99113 634
26.01124 654
26.03136 603
26.05147 566
26.07158 532
26.0917 557
26.11181 593
26.13193 624
26.15204 597
26.17215 624
26.19227 585
26.21238 614
26.23249 606
26.25261 621
26.27272 667
26.29283 679
26.31295 675
26.33306 770
26.35318 741
26.37329 880
26.3934 929
26.41352 1041
26.43363 1232
26.45374 1512
26.47386 1862
26.49397 2412
26.51409 2760
26.5342 3069
26.55431 3329
26.57443 3614
26.59454 3439
26.61465 3009
26.63477 2713
26.65488 2129
26.67499 1757
26.69511 1403
26.71522 1121
26.73534 981
26.75545 917
26.77556 813
26.79568 786
26.81579 756
26.8359 793
26.85602 725
26.87613 698
26.89625 725
26.91636 684
26.93647 745
26.95659 628
26.9767 684
26.99681 721
27.01693 713
27.03704 688
27.05716 737
27.07727 757
27.09738 735
27.1175 736
27.13761 716
27.15772 765
27.17784 752
27.19795 799
27.21806 812
27.23818 889
27.25829 953
27.27841 1013
27.29852 1203
27.31863 1342
27.33875 1484
27.35886 1831
27.37897 2180
27.39909 2336
27.4192 2471
27.43932 2468
27.45943 2523
27.47954 2431
27.49966 2270
27.51977 1924
27.53988 1930
27.56 1751
27.58011 1724
27.60023 1568
27.62034 1633
27.64045 1750
27.66057 1791
27.68068 1869
27.70079 1902
27.72091 1996
27.74102 1974
27.76113 1907
27.78125 1752
27.80136 1569
27.82148 1446
27.84159 1316
27.8617 1225
27.88182 1098
27.90193 1030
27.92204 990
27.94216 908
27.96227 823
27.98239 770
28.0025 763
28.02261 709
28.04273 652
28.06284 647
28.08295 607
28.10307 586
28.12318 558
28.1433 587
28.16341 583
28.18352 557
28.20364 575
28.22375 603
28.24386 568
28.26398 545
28.28409 555
28.3042 541
28.32432 526
28.34443 543
28.36455 552
28.38466 554
28.40477 500
28.42489 490
28.445 512
28.46511 504
28.48523 498
28.50534 515
28.52546 488
28.54557 508
28.56568 500
28.5858 466
28.60591 496
28.62602 503
28.64614 477
28.66625 479
28.68636 445
28.70648 421
28.72659 471
28.74671 446
28.76682 455
28.78693 492
28.80705 474
28.82716 455
28.84727 446
28.86739 502
28.8875 450
28.90762 487
28.92773 470
28.94784 443
28.96796 466
28.98807 440
29.00818 444
29.0283 505
29.04841 439
29.06853 479
29.08864 460
29.10875 427
29.12887 488
29.14898 457
29.16909 437
29.18921 489
29.20932 445
29.22943 450
29.24955 473
29.26966 492
29.28978 441
29.30989 459
29.33 450
29.35012 493
29.37023 518
29.39034 472
29.41046 488
29.43057 485
29.45069 480
29.4708 479
29.49091 479
29.51103 506
29.53114 493
29.55125 532
29.57137 512
29.59148 527
29.6116 580
29.63171 507
29.65182 554
29.67194 580
29.69205 602
29.71216 565
29.73228 627
29.75239 657
29.7725 659
29.79262 592
29.81273 659
29.83285 673
29.85296 583
29.87307 634
29.89319 646
29.9133 613
29.93341 643
29.95353 705
29.97364 609
29.99376 632
30.01387 613
30.03398 636
30.0541 656
30.07421 647
30.09432 618
30.11444 640
30.13455 638
30.15467 573
30.17478 597
30.19489 600
30.21501 611
30.23512 645
30.25523 642
30.27535 618
30.29546 616
30.31557 583
30.33569 662
30.3558 626
30.37592 598
30.39603 634
30.41614 588
30.43626 633
30.45637 609
30.47648 607
30.4966 619
30.51671 636
30.53683 621
30.55694 589
30.57705 638
30.59717 617
30.61728 644
30.63739 658
30.65751 694
30.67762 644
30.69773 664
30.71785 634
30.73796 667
30.75808 660
30.77819 636
30.7983 678
30.81842 639
30.83853 633
30.85864 596
30.87876 614
30.89887 590
30.91899 593
30.9391 582
30.95921 570
30.97933 579
30.99944 528
31.01955 509
31.03967 542
31.05978 562
31.0799 503
31.10001 500
31.12012 480
31.14024 505
31.16035 508
31.18046 482
31.20058 442
31.22069 424
31.2408 482
31.26092 454
31.28103 471
31.30115 481
31.32126 471
31.34137 452
31.36149 453
31.3816 420
31.40171 410
31.42183 408
31.44194 418
31.46206 437
31.48217 423
31.50228 408
31.5224 439
31.54251 377
31.56262 411
31.58274 440
31.60285 406
31.62297 462
31.64308 396
31.66319 407
31.68331 413
31.70342 400
31.72353 411
31.74365 461
31.76376 428
31.78387 470
31.80399 379
31.8241 396
31.84422 438
31.86433 417
31.88444 436
31.90456 463
31.92467 427
31.94478 454
31.9649 431
31.98501 419
32.00513 456
32.02524 436
32.04535 404
32.06547 409
32.08558 438
32.10569 399
32.12581 474
32.14592 427
32.16604 428
32.18615 450
32.20626 452
32.22638 477
32.24649 424
32.2666 471
32.28672 442
32.30683 498
32.32694 487
32.34706 466
32.36717 510
32.38729 491
32.4074 473
32.42751 447
32.44763 473
32.46774 454
32.48785 496
32.50797 459
32.52808 464
32.5482 502
32.56831 436
32.58842 509
32.60854 484
32.62865 469
32.64876 499
32.66888 503
32.68899 467
32.7091 471
32.72922 477
32.74933 467
32.76945 468
32.78956 387
32.80967 451
32.82979 450
32.8499 451
32.87001 433
32.89013 433
32.91024 442
32.93036 428
32.95047 455
32.97058 458
32.9907 413
33.01081 456
33.03092 476
33.05104 448
33.07115 431
33.09127 430
33.11138 441
33.13149 429
33.15161 462
33.17172 445
33.19183 415
33.21195 413
33.23206 410
33.25217 414
33.27229 432
33.2924 404
33.31252 361
33.33263 405
33.35274 411
33.37286 407
33.39297 429
33.41308 383
33.4332 414
33.45331 376
33.47343 405
33.49354 379
33.51365 425
33.53377 382
33.55388 397
33.57399 408
33.59411 391
33.61422 402
33.63434 397
33.65445 398
33.67456 427
33.69468 412
33.71479 440
33.7349 422
33.75502 434
33.77513 394
33.79524 394
33.81536 410
33.83547 413
33.85559 439
33.8757 437
33.89581 404
33.91593 396
33.93604 430
33.95615 440
33.97627 412
33.99638 392
34.0165 424
34.03661 398
34.05672 400
34.07684 437
34.09695 450
34.11706 473
34.13718 423
34.15729 487
34.17741 462
34.19752 491
34.21763 449
34.23775 468
34.25786 458
34.27797 504
34.29809 508
34.3182 519
34.33831 504
34.35843 543
34.37854 517
34.39866 529
34.41877 526
34.43888 539
34.459 544
34.47911 553
34.49922 574
34.51934 582
34.53945 568
34.55957 570
34.57968 571
34.59979 645
34.61991 613
34.64002 633
34.66013 606
34.68025 624
34.70036 619
34.72047 654
34.74059 651
34.7607 674
34.78082 695
34.80093 652
34.82104 700
34.84116 706
34.86127 666
34.88138 680
34.9015 730
34.92161 625
34.94173 735
34.96184 693
34.98195 701
35.00207 720
35.02218 727
35.04229 729
35.06241 806
35.08252 871
35.10264 792
35.12275 840
35.14286 953
35.16298 914
35.18309 907
35.2032 917
35.22332 873
35.24343 819
35.26354 802
35.28366 786
35.30377 776
35.32389 802
35.344 763
35.36411 747
35.38423 726
35.40434 713
35.42445 746
35.44457 699
35.46468 748
35.4848 743
35.50491 698
35.52502 651
35.54514 693
35.56525 706
35.58536 650
35.60548 616
35.62559 634
35.64571 648
35.66582 612
35.68593 643
35.70605 598
35.72616 571
35.74627 584
35.76639 562
35.7865 583
35.80661 546
35.82673 539
35.84684 564
35.86696 503
35.88707 596
35.90718 529
35.9273 538
35.94741 548
35.96752 545
35.98764 588
36.00775 517
36.02787 491
36.04798 555
36.06809 492
36.08821 505
36.10832 543
36.12843 502
36.14855 557
36.16866 520
36.18878 477
36.20889 536
36.229 545
36.24912 546
36.26923 575
36.28934 527
36.30946 554
36.32957 557
36.34968 595
36.3698 665
36.38991 662
36.41003 681
36.43014 707
36.45025 740
36.47037 739
36.49048 732
36.51059 725
36.53071 646
36.55082 686
36.57094 639
36.59105 625
36.61116 608
36.63128 537
36.65139 594
36.6715 559
36.69162 567
36.71173 573
36.73184 583
36.75196 538
36.77207 557
36.79219 554
36.8123 557
36.83241 546
36.85253 570
36.87264 524
36.89275 561
36.91287 558
36.93298 496
36.9531 533
36.97321 523
36.99332 513
37.01344 560
37.03355 515
37.05366 518
37.07378 526
37.09389 505
37.11401 579
37.13412 543
37.15423 533
37.17435 597
37.19446 512
37.21457 556
37.23469 579
37.2548 577
37.27491 523
37.29503 504
37.31514 502
37.33526 504
37.35537 546
37.37548 500
37.3956 499
37.41571 516
37.43582 489
37.45594 504
37.47605 517
37.49617 469
37.51628 473
37.53639 494
37.55651 446
37.57662 489
37.59673 482
37.61685 513
37.63696 451
37.65708 474
37.67719 489
37.6973 452
37.71742 502
37.73753 483
37.75764 442
37.77776 466
37.79787 462
37.81798 458
37.8381 460
37.85821 423
37.87833 471
37.89844 491
37.91855 415
37.93867 455
37.95878 411
37.97889 469
37.99901 434
38.01912 473
38.03924 417
38.05935 440
38.07946 415
38.09958 400
38.11969 437
38.1398 434
38.15992 462
38.18003 425
38.20015 429
38.22026 412
38.24037 441
38.26049 447
38.2806 437
38.30071 460
38.32083 437
38.34094 437
38.36105 470
38.38117 488
38.40128 477
38.4214 433
38.44151 498
38.46162 493
38.48174 453
38.50185 501
38.52196 496
38.54208 502
38.56219 505
38.58231 513
38.60242 528
38.62253 504
38.64265 508
38.66276 485
38.68287 484
38.70299 484
38.7231 499
38.74321 459
38.76333 506
38.78344 497
38.80356 451
38.82367 441
38.84378 452
38.8639 433
38.88401 430
38.90412 436
38.92424 420
38.94435 473
38.96447 450
38.98458 478
39.00469 484
39.02481 429
39.04492 481
39.06503 471
39.08515 419
39.10526 426
39.12538 452
39.14549 456
39.1656 455
39.18572 455
39.20583 457
39.22594 469
39.24606 461
39.26617 473
39.28628 475
39.3064 515
39.32651 548
39.34663 539
39.36674 577
39.38685 594
39.40697 583
39.42708 524
39.44719 503
39.46731 544
39.48742 461
39.50754 457
39.52765 466
39.54776 489
39.56788 448
39.58799 432
39.6081 443
39.62822 423
39.64833 408
39.66845 435
39.68856 413
39.70867 427
39.72879 387
39.7489 445
39.76901 410
39.78913 403
39.80924 427
39.82935 465
39.84947 440
39.86958 459
39.8897 412
39.90981 425
39.92992 411
39.95004 411
39.97015 436
39.99026 430
40.01038 427
40.03049 449
40.05061 412
40.07072 450
40.09083 448
40.11095 456
40.13106 507
40.15117 495
40.17129 449
40.1914 444
40.21152 544
40.23163 491
40.25174 468
40.27186 477
40.29197 485
40.31208 456
40.3322 427
40.35231 474
40.37242 472
40.39254 419
40.41265 463
40.43277 457
40.45288 469
40.47299 416
40.49311 437
40.51322 444
40.53333 401
40.55345 420
40.57356 408
40.59368 429
40.61379 445
40.6339 445
40.65402 442
40.67413 413
40.69424 412
40.71436 438
40.73447 475
40.75458 417
40.7747 426
40.79481 419
40.81493 446
40.83504 438
40.85515 431
40.87527 396
40.89538 418
40.91549 439
40.93561 431
40.95572 431
40.97584 417
40.99595 459
41.01606 429
41.03618 425
41.05629 450
41.0764 412
41.09652 441
41.11663 423
41.13675 407
41.15686 414
41.17697 456
41.19709 449
41.2172 430
41.23731 378
41.25743 389
41.27754 427
41.29765 429
41.31777 423
41.33788 384
41.358 412
41.37811 389
41.39822 430
41.41834 450
41.43845 425
41.45856 480
41.47868 432
41.49879 491
41.51891 459
41.53902 505
41.55913 496
41.57925 553
41.59936 543
41.61947 582
41.63959 604
41.6597 611
41.67982 581
41.69993 591
41.72004 535
41.74016 521
41.76027 541
41.78038 504
41.8005 498
41.82061 463
41.84072 422
41.86084 498
41.88095 410
41.90107 425
41.92118 444
41.94129 437
41.96141 430
41.98152 420
42.00163 450
42.02175 405
42.04186 399
42.06198 418
42.08209 432
42.1022 440
42.12232 474
42.14243 423
42.16254 409
42.18266 428
42.20277 486
42.22289 480
42.243 464
42.26311 496
42.28323 496
42.30334 530
42.32345 508
42.34357 536
42.36368 538
42.38379 544
42.40391 523
42.42402 519
42.44414 487
42.46425 500
42.48436 478
42.50448 490
42.52459 443
42.5447 466
42.56482 440
42.58493 428
42.60505 438
42.62516 419
42.64527 451
42.66539 446
42.6855 461
42.70561 403
42.72573 439
42.74584 430
42.76595 407
42.78607 432
42.80618 416
42.8263 404
42.84641 422
42.86652 381
42.88664 420
42.90675 420
42.92686 411
42.94698 418
42.96709 410
42.98721 455
43.00732 415
43.02743 425
43.04755 439
43.06766 402
43.08777 394
43.10789 464
43.128 412
43.14812 363
43.16823 420
43.18834 351
43.20846 382
43.22857 382
43.24868 408
43.2688 388
43.28891 375
43.30902 399
43.32914 387
43.34925 421
43.36937 391
43.38948 388
43.40959 398
43.42971 385
43.44982 409
43.46993 391
43.49005 401
43.51016 382
43.53028 375
43.55039 398
43.5705 390
43.59062 383
43.61073 363
43.63084 374
43.65096 386
43.67107 376
43.69119 379
43.7113 379
43.73141 364
43.75153 416
43.77164 403
43.79175 390
43.81187 405
43.83198 420
43.85209 356
43.87221 408
43.89232 435
43.91244 391
43.93255 400
43.95266 400
43.97278 429
43.99289 416
44.013 394
44.03312 410
44.05323 398
44.07335 415
44.09346 416
44.11357 394
44.13369 399
44.1538 408
44.17391 430
44.19403 426
44.21414 384
44.23426 443
44.25437 379
44.27448 404
44.2946 394
44.31471 406
44.33482 385
44.35494 377
44.37505 396
44.39516 429
44.41528 413
44.43539 388
44.45551 405
44.47562 386
44.49573 412
44.51585 376
44.53596 354
44.55607 369
44.57619 389
44.5963 384
44.61642 396
44.63653 428
44.65664 379
44.67676 396
44.69687 367
44.71698 368
44.7371 411
44.75721 413
44.77732 396
44.79744 388
44.81755 367
44.83767 419
44.85778 393
44.87789 392
44.89801 377
44.91812 416
44.93823 358
44.95835 408
44.97846 400
44.99858 403
45.01869 412
45.0388 378
45.05892 380
45.07903 372
45.09914 408
45.11926 371
45.13937 416
45.15949 390
45.1796 375
45.19971 368
45.21983 403
45.23994 397
45.26005 376
45.28017 378
45.30028 365
45.32039 431
45.34051 393
45.36062 377
45.38074 417
45.40085 393
45.42096 365
45.44108 361
45.46119 402
45.4813 385
45.50142 437
45.52153 364
45.54165 411
45.56176 410
45.58187 437
45.60199 398
45.6221 401
45.64221 442
45.66233 458
45.68244 441
45.70256 477
45.72267 449
45.74278 468
45.7629 411
45.78301 434
45.80312 412
45.82324 403
45.84335 388
45.86346 427
45.88358 386
45.90369 429
45.92381 367
45.94392 378
45.96403 381
45.98415 395
46.00426 360
46.02437 358
46.04449 358
46.0646 373
46.08472 374
46.10483 378
46.12494 357
46.14506 391
46.16517 368
46.18528 423
46.2054 398
46.22551 380
46.24563 421
46.26574 408
46.28585 432
46.30597 425
46.32608 399
46.34619 450
46.36631 410
46.38642 440
46.40653 407
46.42665 418
46.44676 419
46.46688 407
46.48699 397
46.5071 425
46.52722 377
46.54733 370
46.56744 393
46.58756 418
46.60767 408
46.62779 369
46.6479 434
46.66801 433
46.68813 429
46.70824 446
46.72835 416
46.74847 396
46.76858 400
46.78869 389
46.80881 412
46.82892 425
46.84904 378
46.86915 348
46.88926 426
46.90938 424
46.92949 420
46.9496 382
46.96972 396
46.98983 353
47.00995 385
47.03006 386
47.05017 359
47.07029 411
47.0904 398
47.11051 410
47.13063 390
47.15074 376
47.17086 353
47.19097 388
47.21108 386
47.2312 398
47.25131 336
47.27142 374
47.29154 374
47.31165 341
47.33176 368
47.35188 359
47.37199 347
47.39211 356
47.41222 327
47.43233 397
47.45245 361
47.47256 358
47.49267 367
47.51279 358
47.5329 351
47.55302 358
47.57313 317
47.59324 324
47.61336 371
47.63347 351
47.65358 348
47.6737 389
47.69381 363
47.71393 368
47.73404 403
47.75415 369
47.77427 380
47.79438 355
47.81449 382
47.83461 364
47.85472 359
47.87483 365
47.89495 375
47.91506 406
47.93518 381
47.95529 365
47.9754 347
47.99552 404
48.01563 392
48.03574 398
48.05586 370
48.07597 377
48.09609 385
48.1162 394
48.13631 375
48.15643 378
48.17654 421
48.19665 402
48.21677 412
48.23688 389
48.257 411
48.27711 393
48.29722 380
48.31734 395
48.33745 405
48.35756 415
48.37768 395
48.39779 427
48.4179 395
48.43802 433
48.45813 425
48.47825 411
48.49836 441
48.51847 420
48.53859 378
48.5587 422
48.57881 384
48.59893 383
48.61904 412
48.63916 403
48.65927 391
48.67938 426
48.6995 406
48.71961 415
48.73972 399
48.75984 402
48.77995 396
48.80006 425
48.82018 424
48.84029 399
48.86041 407
48.88052 421
48.90063 399
48.92075 385
48.94086 404
48.96097 405
48.98109 397
49.0012 376
49.02132 407
49.04143 353
49.06154 389
49.08166 386
49.10177 385
49.12188 390
49.142 378
49.16211 385
49.18223 411
49.20234 367
49.22245 396
49.24257 366
49.26268 390
49.28279 390
49.30291 441
49.32302 378
49.34313 403
49.36325 410
49.38336 414
49.40348 414
49.42359 376
49.4437 380
49.46382 409
49.48393 381
49.50404 394
49.52416 408
49.54427 360
49.56439 417
49.5845 430
49.60461 415
49.62473 390
49.64484 391
49.66495 384
49.68507 380
49.70518 462
49.7253 438
49.74541 418
49.76552 405
49.78564 435
49.80575 404
49.82586 485
49.84598 429
49.86609 476
49.8862 443
49.90632 509
49.92643 511
49.94655 562
49.96666 552
49.98677 592
50.00689 649
50.027 635
50.04711 653
50.06723 614
50.08734 630
50.10746 575
50.12757 544
50.14768 531
50.1678 501
50.18791 471
50.20802 509
50.22814 469
50.24825 459
50.26837 417
50.28848 404
50.30859 370
50.32871 419
50.34882 391
50.36893 371
50.38905 396
50.40916 422
50.42927 385
50.44939 393
50.4695 434
50.48962 431
50.50973 473
50.52984 414
50.54996 438
50.57007 430
50.59018 452
50.6103 463
50.63041 435
50.65053 446
50.67064 443
50.69075 456
50.71087 398
50.73098 464
50.75109 460
50.77121 499
50.79132 490
50.81143 488
50.83155 522
50.85166 563
50.87178 579
50.89189 538
50.912 587
50.93212 602
50.95223 624
50.97234 541
50.99246 563
51.01257 497
51.03269 529
51.0528 530
51.07291 477
51.09303 510
51.11314 448
51.13325 499
51.15337 454
51.17348 404
51.1936 411
51.21371 412
51.23382 360
51.25394 400
51.27405 368
51.29416 394
51.31428 341
51.33439 359
51.3545 351
51.37462 368
51.39473 379
51.41485 358
51.43496 361
51.45507 357
51.47519 350
51.4953 377
51.51541 363
51.53553 330
51.55564 339
51.57576 381
51.59587 332
51.61598 346
51.6361 356
51.65621 338
51.67632 373
51.69644 344
51.71655 361
51.73667 360
51.75678 376
51.77689 330
51.79701 351
51.81712 384
51.83723 331
51.85735 339
51.87746 327
51.89757 316
51.91769 312
51.9378 357
51.95792 339
51.97803 361
51.99814 319
52.01826 332
52.03837 349
52.05848 319
52.0786 325
52.09871 351
52.11883 339
52.13894 313
52.15905 321
52.17917 311
52.19928 349
52.21939 307
52.23951 356
52.25962 368
52.27974 351
52.29985 334
52.31996 368
52.34008 333
52.36019 353
52.3803 328
52.40042 350
52.42053 373
52.44064 352
52.46076 353
52.48087 359
52.50099 334
52.5211 386
52.54121 365
52.56133 368
52.58144 373
52.60155 435
52.62167 387
52.64178 418
52.6619 392
52.68201 400
52.70212 381
52.72224 417
52.74235 423
52.76246 427
52.78258 413
52.80269 370
52.8228 419
52.84292 411
52.86303 351
52.88315 381
52.90326 406
52.92337 409
52.94349 412
52.9636 424
52.98371 406
53.00383 415
53.02394 406
53.04406 405
53.06417 385
53.08428 446
53.1044 390
53.12451 392
53.14462 415
53.16474 423
53.18485 420
53.20497 382
53.22508 460
53.24519 411
53.26531 449
53.28542 439
53.30553 446
53.32565 390
53.34576 411
53.36587 424
53.38599 416
53.4061 390
53.42622 378
53.44633 394
53.46644 426
53.48656 396
53.50667 399
53.52678 398
53.5469 418
53.56701 442
53.58713 413
53.60724 393
53.62735 445
53.64747 404
53.66758 447
53.68769 444
53.70781 372
53.72792 418
53.74804 424
53.76815 418
53.78826 444
53.80838 450
53.82849 451
53.8486 405
53.86872 460
53.88883 408
53.90894 419
53.92906 439
53.94917 475
53.96929 433
53.9894 447
54.00951 389
54.02963 408
54.04974 391
54.06985 407
54.08997 460
54.11008 417
54.1302 440
54.15031 436
54.17042 419
54.19054 417
54.21065 406
54.23076 397
54.25088 423
54.27099 410
54.29111 409
54.31122 400
54.33133 410
54.35145 409
54.37156 367
54.39167 406
54.41179 395
54.4319 439
54.45201 394
54.47213 391
54.49224 405
54.51236 387
54.53247 433
54.55258 380
54.5727 407
54.59281 388
54.61292 409
54.63304 411
54.65315 404
54.67327 441
54.69338 447
54.71349 492
54.73361 480
54.75372 520
54.77383 448
54.79395 448
54.81406 478
54.83417 475
54.85429 495
54.8744 409
54.89452 508
54.91463 470
54.93474 445
54.95486 456
54.97497 443
54.99508 442
55.0152 418
55.03531 399
55.05543 401
55.07554 406
55.09565 447
55.11577 398
55.13588 418
55.15599 422
55.17611 450
55.19622 414
55.21634 443
55.23645 437
55.25656 432
55.27668 413
55.29679 381
55.3169 412
55.33702 413
55.35713 436
55.37724 411
55.39736 395
55.41747 387
55.43759 386
55.4577 397
55.47781 398
55.49793 379
55.51804 350
55.53815 392
55.55827 390
55.57838 367
55.5985 383
55.61861 396
55.63872 383
55.65884 376
55.67895 407
55.69906 396
55.71918 391
55.73929 373
55.75941 416
55.77952 368
55.79963 384
55.81975 367
55.83986 373
55.85997 396
55.88009 337
55.9002 394
55.92031 368
55.94043 353
55.96054 393
55.98066 364
56.00077 339
56.02088 338
56.041 344
56.06111 388
56.08122 347
56.10134 348
56.12145 382
56.14157 361
56.16168 392
56.18179 387
56.20191 411
56.22202 387
56.24213 380
56.26225 403
56.28236 353
56.30248 377
56.32259 365
56.3427 309
56.36282 362
56.38293 358
56.40304 346
56.42316 361
56.44327 395
56.46338 372
56.4835 348
56.50361 399
56.52373 381
56.54384 372
56.56395 406
56.58407 391
56.60418 396
56.62429 370
56.64441 393
56.66452 347
56.68464 377
56.70475 371
56.72486 408
56.74498 395
56.76509 347
56.7852 397
56.80532 366
56.82543 355
56.84554 350
56.86566 365
56.88577 388
56.90589 367
56.926 375
56.94611 379
56.96623 388
56.98634 378
57.00645 386
57.02657 385
57.04668 355
57.0668 413
57.08691 367
57.10702 362
57.12714 401
57.14725 368
57.16736 355
57.18748 353
57.20759 350
57.22771 361
57.24782 401
57.26793 389
57.28805 392
57.30816 371
57.32827 407
57.34839 328
57.3685 389
57.38861 366
57.40873 351
57.42884 366
57.44896 388
57.46907 340
57.48918 378
57.5093 343
57.52941 370
57.54952 376
57.56964 353
57.58975 357
57.60987 369
57.62998 381
57.65009 360
57.67021 348
57.69032 379
57.71043 338
57.73055 372
57.75066 340
57.77078 328
57.79089 396
57.811 347
57.83112 346
57.85123 376
57.87134 344
57.89146 376
57.91157 350
57.93168 404
57.9518 370
57.97191 341
57.99203 356
58.01214 343
58.03225 348
58.05237 335
58.07248 342
58.09259 348
58.11271 363
58.13282 332
58.15294 343
58.17305 350
58.19316 364
58.21328 322
58.23339 344
58.2535 384
58.27362 358
58.29373 360
58.31385 373
58.33396 365
58.35407 373
58.37419 345
58.3943 366
58.41441 362
58.43453 391
58.45464 324
58.47475 373
58.49487 372
58.51498 366
58.5351 410
58.55521 337
58.57532 356
58.59544 412
58.61555 381
58.63566 371
58.65578 341
58.67589 355
58.69601 370
58.71612 380
58.73623 359
58.75635 387
58.77646 353
58.79657 354
58.81669 378
58.8368 364
58.85691 350
58.87703 368
58.89714 374
58.91726 396
58.93737 387
58.95748 366
58.9776 373
58.99771 391
59.01782 380
59.03794 381
59.05805 367
59.07817 382
59.09828 348
59.11839 425
59.13851 373
59.15862 370
59.17873 360
59.19885 358
59.21896 336
59.23908 367
59.25919 315
59.2793 363
59.29942 362
59.31953 318
59.33964 359
59.35976 355
59.37987 362
59.39998 341
59.4201 338
59.44021 340
59.46033 328
59.48044 381
59.50055 348
59.52067 334
59.54078 361
59.56089 379
59.58101 383
59.60112 353
59.62124 387
59.64135 394
59.66146 383
59.68158 374
59.70169 423
59.7218 425
59.74192 430
59.76203 467
59.78215 455
59.80226 460
59.82237 510
59.84249 517
59.8626 493
59.88271 522
59.90283 513
59.92294 505
59.94305 433
59.96317 473
59.98328 448
60.0034 467
60.02351 431
60.04362 445
60.06374 432
60.08385 399
60.10396 415
60.12408 426
60.14419 387
60.16431 361
60.18442 373
60.20453 394
60.22465 367
60.24476 369
60.26487 400
60.28499 361
60.3051 364
60.32522 370
60.34533 379
60.36544 385
60.38556 366
60.40567 355
60.42578 348
60.4459 331
60.46601 359
60.48612 370
60.50624 351
60.52635 357
60.54647 374
60.56658 365
60.58669 339
60.60681 354
60.62692 351
60.64703 363
60.66715 371
60.68726 366
60.70738 331
60.72749 369
60.7476 383
60.76772 355
60.78783 377
60.80794 347
60.82806 371
60.84817 388
60.86828 352
60.8884 334
60.90851 376
60.92863 346
60.94874 369
60.96885 376
60.98897 327
61.00908 396
61.02919 410
61.04931 337
61.06942 388
61.08954 386
61.10965 403
61.12976 385
61.14988 424
61.16999 403
61.1901 393
61.21022 416
61.23033 415
61.25045 425
61.27056 451
61.29067 424
61.31079 431
61.3309 446
61.35101 406
61.37113 426
61.39124 441
61.41135 418
61.43147 442
61.45158 452
61.4717 473
61.49181 506
61.51192 468
61.53204 492
61.55215 509
61.57226 474
61.59238 502
61.61249 530
61.63261 476
61.65272 509
61.67283 490
61.69295 498
61.71306 494
61.73317 511
61.75329 533
61.7734 544
61.79352 487
61.81363 478
61.83374 483
61.85386 482
61.87397 519
61.89408 526
61.9142 511
61.93431 497
61.95442 515
61.97454 495
61.99465 464
62.01477 510
62.03488 472
62.05499 501
62.07511 544
62.09522 508
62.11533 506
62.13545 504
62.15556 491
62.17568 467
62.19579 495
62.2159 500
62.23602 501
62.25613 460
62.27624 474
62.29636 459
62.31647 457
62.33659 458
62.3567 508
62.37681 476
62.39693 447
62.41704 446
62.43715 476
62.45727 413
62.47738 436
62.49749 420
62.51761 403
62.53772 417
62.55784 413
62.57795 414
62.59806 403
62.61818 372
62.63829 408
62.6584 425
62.67852 432
62.69863 376
62.71875 400
62.73886 363
62.75897 404
62.77909 398
62.7992 392
62.81931 380
62.83943 384
62.85954 395
62.87965 366
62.89977 361
62.91988 374
62.94 369
62.96011 359
62.98022 372
63.00034 352
63.02045 335
63.04056 354
63.06068 371
63.08079 360
63.10091 344
63.12102 355
63.14113 342
63.16125 364
63.18136 370
63.20147 405
63.22159 354
63.2417 370
63.26182 341
63.28193 346
63.30204 353
63.32216 333
63.34227 363
63.36238 353
63.3825 368
63.40261 345
63.42272 355
63.44284 334
63.46295 339
63.48307 337
63.50318 327
63.52329 365
63.54341 357
63.56352 372
63.58363 340
63.60375 338
63.62386 339
63.64398 348
63.66409 397
63.6842 406
63.70432 345
63.72443 361
63.74454 351
63.76466 338
63.78477 383
63.80489 374
63.825 358
63.84511 361
63.86523 344
63.88534 365
63.90545 362
63.92557 355
63.94568 392
63.96579 408
63.98591 378
64.00602 368
64.02614 381
64.04625 368
64.06636 354
64.08648 381
64.10659 349
64.1267 377
64.14682 346
64.16693 356
64.18705 345
64.20716 369
64.22727 372
64.24739 360
64.2675 350
64.28761 337
64.30773 374
64.32784 359
64.34796 324
64.36807 289
64.38818 334
64.4083 351
64.42841 358
64.44852 310
64.46864 330
64.48875 347
64.50886 343
64.52898 325
64.54909 324
64.56921 348
64.58932 349
64.60943 313
64.62955 340
64.64966 334
64.66977 358
64.68989 332
64.71 347
64.73012 332
64.75023 378
64.77034 357
64.79046 318
64.81057 351
64.83068 368
64.8508 368
64.87091 353
64.89102 341
64.91114 346
64.93125 366
64.95137 320
64.97148 374
64.99159 343
65.01171 342
65.03182 335
65.05193 350
65.07205 372
65.09216 384
65.11228 370
65.13239 368
65.1525 350
65.17262 328
65.19273 348
65.21284 350
65.23296 312
65.25307 371
65.27319 374
65.2933 339
65.31341 347
65.33353 366
65.35364 348
65.37375 343
65.39387 324
65.41398 334
65.43409 366
65.45421 336
65.47432 316
65.49444 346
65.51455 364
65.53466 363
65.55478 342
65.57489 400
65.595 324
65.61512 355
65.63523 325
65.65535 346
65.67546 357
65.69557 371
65.71569 351
65.7358 352
65.75591 359
65.77603 350
65.79614 346
65.81626 332
65.83637 338
65.85648 327
65.8766 353
65.89671 376
65.91682 355
65.93694 345
65.95705 354
65.97716 344
65.99728 358
66.01739 342
66.03751 340
66.05762 355
66.07773 329
66.09785 321
66.11796 342
66.13807 333
66.15819 353
66.1783 348
66.19842 332
66.21853 359
66.23864 372
66.25876 358
66.27887 313
66.29898 345
66.3191 351
66.33921 326
66.35933 397
66.37944 366
66.39955 366
66.41967 329
66.43978 300
66.45989 353
66.48001 347
66.50012 340
66.52023 338
66.54035 348
66.56046 326
66.58058 299
66.60069 291
66.6208 337
66.64092 368
66.66103 331
66.68114 316
66.70126 322
66.72137 344
66.74149 314
66.7616 323
66.78171 332
66.80183 327
66.82194 334
66.84205 317
66.86217 317
66.88228 312
66.90239 307
66.92251 326
66.94262 343
66.96274 304
66.98285 320
67.00296 316
67.02308 329
67.04319 305
67.0633 337
67.08342 346
67.10353 308
67.12365 302
67.14376 328
67.16387 339
67.18399 334
67.2041 326
67.22421 357
67.24433 320
67.26444 365
67.28456 334
67.30467 361
67.32478 352
67.3449 391
67.36501 329
67.38512 354
67.40524 350
67.42535 367
67.44546 379
67.46558 361
67.48569 387
67.50581 356
67.52592 417
67.54603 403
67.56615 429
67.58626 388
67.60637 435
67.62649 478
67.6466 467
67.66672 434
67.68683 457
67.70694 439
67.72706 430
67.74717 425
67.76728 416
67.7874 406
67.80751 429
67.82763 449
67.84774 477
67.86785 457
67.88797 431
67.90808 445
67.92819 467
67.94831 455
67.96842 479
67.98853 447
68.00865 475
68.02876 503
68.04888 485
68.06899 495
68.0891 524
68.10922 474
68.12933 511
68.14944 487
68.16956 471
68.18967 478
68.20979 471
68.2299 490
68.25001 452
68.27013 429
68.29024 411
68.31035 440
68.33047 400
68.35058 374
68.3707 413
68.39081 403
68.41092 421
68.43104 360
68.45115 387
68.47126 414
68.49138 346
68.51149 370
68.5316 371
68.55172 350
68.57183 357
68.59195 368
68.61206 359
68.63217 374
68.65229 335
68.6724 354
68.69251 373
68.71263 357
68.73274 340
68.75286 351
68.77297 350
68.79308 342
68.8132 342
68.83331 347
68.85342 384
68.87354 349
68.89365 327
68.91376 328
68.93388 361
68.95399 353
68.97411 326
68.99422 331
69.01433 327
69.03445 357
69.05456 319
69.07467 320
69.09479 346
69.1149 333
69.13502 332
69.15513 336
69.17524 317
69.19536 341
69.21547 366
69.23558 333
69.2557 367
69.27581 355
69.29593 320
69.31604 312
69.33615 325
69.35627 332
69.37638 339
69.39649 317
69.41661 321
69.43672 315
69.45683 364
69.47695 322
69.49706 337
69.51718 327
69.53729 323
69.5574 329
69.57752 344
69.59763 372
69.61774 323
69.63786 340
69.65797 348
69.67809 331
69.6982 317
69.71831 313
69.73843 364
69.75854 321
69.77865 313
69.79877 341
69.81888 350
69.839 310
69.85911 335
69.87922 305
69.89934 300
69.91945 349
69.93956 317
69.95968 323
69.97979 336
69.9999 307
70.02002 350
70.04013 321
70.06025 296
70.08036 322
70.10047 314
70.12059 316
70.1407 361
70.16081 315
70.18093 326
70.20104 332
70.22116 309
70.24127 337
70.26138 331
70.2815 317
70.30161 316
70.32172 357
70.34184 343
70.36195 348
70.38207 342
70.40218 321
70.42229 278
70.44241 310
70.46252 322
70.48263 304
70.50275 312
70.52286 334
70.54297 313
70.56309 337
70.5832 305
70.60332 324
70.62343 311
70.64354 330
70.66366 340
70.68377 295
70.70388 343
70.724 292
70.74411 314
70.76423 301
70.78434 306
70.80445 312
70.82457 288
70.84468 308
70.86479 276
70.88491 317
70.90502 319
70.92513 307
70.94525 319
70.96536 316
70.98548 297
71.00559 341
71.0257 308
71.04582 304
71.06593 328
71.08604 276
71.10616 320
71.12627 324
71.14639 321
71.1665 318
71.18661 299
71.20673 278
71.22684 285
71.24695 314
71.26707 316
71.28718 323
71.3073 272
71.32741 353
71.34752 317
71.36764 314
71.38775 303
71.40786 337
71.42798 307
71.44809 312
71.4682 339
71.48832 310
71.50843 323
71.52855 286
71.54866 341
71.56877 328
71.58889 284
71.609 325
71.62911 321
71.64923 312
71.66934 317
71.68946 343
71.70957 344
71.72968 359
71.7498 319
71.76991 335
71.79002 339
71.81014 347
71.83025 315
71.85037 331
71.87048 307
71.89059 332
71.91071 353
71.93082 366
71.95093 328
71.97105 353
71.99116 332
72.01127 314
72.03139 313
72.0515 306
72.07162 372
72.09173 356
72.11184 324
72.13196 302
72.15207 331
72.17218 345
72.1923 346
72.21241 357
72.23253 323
72.25264 354
72.27275 359
72.29287 347
72.31298 346
72.33309 337
72.35321 367
72.37332 364
72.39344 330
72.41355 340
72.43366 319
72.45378 298
72.47389 320
72.494 371
72.51412 338
72.53423 354
72.55434 340
72.57446 367
72.59457 337
72.61469 330
72.6348 352
72.65491 372
72.67503 357
72.69514 341
72.71525 308
72.73537 338
72.75548 311
72.7756 331
72.79571 368
72.81582 348
72.83594 357
72.85605 363
72.87616 395
72.89628 339
72.91639 341
72.9365 356
72.95662 395
72.97673 350
72.99685 412
73.01696 373
73.03707 344
73.05719 395
73.0773 354
73.09741 366
73.11753 378
73.13764 356
73.15776 363
73.17787 358
73.19798 407
73.2181 400
73.23821 394
73.25832 375
73.27844 344
73.29855 380
73.31867 407
73.33878 354
73.35889 336
73.37901 415
73.39912 386
73.41923 390
73.43935 392
73.45946 364
73.47957 352
73.49969 356
73.5198 361
73.53992 383
73.56003 383
73.58014 400
73.60026 401
73.62037 342
73.64048 372
73.6606 352
73.68071 325
73.70083 375
73.72094 342
73.74105 365
73.76117 387
73.78128 330
73.80139 343
73.82151 337
73.84162 338
73.86174 318
73.88185 364
73.90196 351
73.92208 367
73.94219 337
73.9623 318
73.98242 323
74.00253 369
74.02264 360
74.04276 344
74.06287 363
74.08299 303
74.1031 347
74.12321 331
74.14333 361
74.16344 362
74.18355 343
74.20367 359
74.22378 354
74.2439 328
74.26401 379
74.28412 341
74.30424 345
74.32435 380
74.34446 388
74.36458 342
74.38469 377
74.40481 364
74.42492 347
74.44503 376
74.46515 386
74.48526 381
74.50537 358
74.52549 360
74.5456 341
74.56571 328
74.58583 401
74.60594 365
74.62606 361
74.64617 356
74.66628 358
74.6864 369
74.70651 356
74.72662 366
74.74674 399
74.76685 361
74.78697 344
74.80708 377
74.82719 348
74.84731 339
74.86742 346
74.88753 346
74.90765 363
74.92776 328
74.94787 335
74.96799 313
74.9881 316
75.00822 369
