3.00117 20019
3.02128 19560
3.0414 19365
3.06151 18485
3.08162 17846
3.10174 17877
3.12185 16841
3.14197 16480
3.16208 15818
3.18219 15494
3.20231 15226
3.22242 14907
3.24253 14318
3.26265 13995
3.28276 13534
3.30288 13144
3.32299 12510
3.3431 12264
3.36322 11858
3.38333 11463
3.40344 11187
3.42356 10578
3.44367 10173
3.46379 10067
3.4839 9482
3.50401 9612
3.52413 8768
3.54424 8928
3.56435 8424
3.58447 7970
3.60458 7906
3.62469 7422
3.64481 7364
3.66492 6918
3.68504 6529
3.70515 6812
3.72526 6246
3.74538 6020
3.76549 5895
3.7856 5444
3.80572 5546
3.82583 5163
3.84595 4900
3.86606 4741
3.88617 4544
3.90629 4535
3.9264 4203
3.94651 4164
3.96663 3851
3.98674 3689
4.00686 3593
4.02697 3377
4.04708 3378
4.0672 3172
4.08731 3091
4.10742 3047
4.12754 2846
4.14765 2826
4.16776 2656
4.18788 2586
4.20799 2541
4.22811 2503
4.24822 2434
4.26833 2316
4.28845 2193
4.30856 2251
4.32867 2215
4.34879 2112
4.3689 2069
4.38902 1923
4.40913 1914
4.42924 2010
4.44936 1793
4.46947 1790
4.48958 1755
4.5097 1850
4.52981 1798
4.54992 1694
4.57004 1683
4.59015 1702
4.61027 1689
4.63038 1559
4.65049 1534
4.67061 1521
4.69072 1402
4.71083 1539
4.73095 1511
4.75106 1448
4.77118 1439
4.79129 1375
4.8114 1367
4.83152 1295
4.85163 1298
4.87174 1237
4.89186 1319
4.91197 1228
4.93209 1274
4.9522 1246
4.97231 1238
4.99243 1111
5.01254 1127
5.03265 1161
5.05277 1154
5.07288 1068
5.09299 1162
5.11311 1102
5.13322 1044
5.15334 1055
5.17345 1074
5.19356 1044
5.21368 1062
5.23379 1014
5.2539 940
5.27402 986
5.29413 935
5.31425 899
5.33436 924
5.35447 895
5.37459 948
5.3947 991
5.41481 853
5.43493 849
5.45504 894
5.47516 916
5.49527 878
5.51538 861
5.5355 842
5.55561 780
5.57572 803
5.59584 821
5.61595 840
5.63606 868
5.65618 739
5.67629 831
5.69641 731
5.71652 752
5.73663 747
5.75675 792
5.77686 718
5.79697 773
5.81709 763
5.8372 740
5.85732 816
5.87743 684
5.89754 717
5.91766 735
5.93777 686
5.95788 661
5.978 770
5.99811 685
6.01823 693
6.03834 684
6.05845 660
6.07857 647
6.09868 665
6.11879 638
6.13891 601
6.15902 634
6.17913 674
6.19925 615
6.21936 666
6.23948 598
6.25959 662
6.2797 655
6.29982 624
6.31993 601
6.34004 584
6.36016 569
6.38027 572
6.40039 603
6.4205 617
6.44061 581
6.46073 596
6.48084 592
6.50095 573
6.52107 613
6.54118 602
6.56129 572
6.58141 597
6.60152 585
6.62164 562
6.64175 565
6.66186 542
6.68198 576
6.70209 569
6.7222 534
6.74232 563
6.76243 531
6.78255 549
6.80266 544
6.82277 543
6.84289 527
6.863 543
6.88311 555
6.90323 522
6.92334 553
6.94346 464
6.96357 564
6.98368 530
7.0038 516
7.02391 484
7.04402 478
7.06414 455
7.08425 497
7.10436 503
7.12448 546
7.14459 443
7.16471 499
7.18482 513
7.20493 474
7.22505 499
7.24516 508
7.26527 511
7.28539 482
7.3055 478
7.32562 508
7.34573 464
7.36584 491
7.38596 497
7.40607 474
7.42618 480
7.4463 474
7.46641 474
7.48653 450
7.50664 495
7.52675 478
7.54687 497
7.56698 468
7.58709 410
7.60721 519
7.62732 450
7.64743 423
7.66755 467
7.68766 479
7.70778 462
7.72789 466
7.748 482
7.76812 481
7.78823 446
7.80834 462
7.82846 474
7.84857 444
7.86869 455
7.8888 436
7.90891 388
7.92903 420
7.94914 477
7.96925 434
7.98937 491
8.00948 475
8.0296 507
8.04971 513
8.06982 486
8.08994 467
8.11005 493
8.13016 523
8.15028 488
8.17039 475
8.1905 517
8.21062 484
8.23073 474
8.25085 477
8.27096 547
8.29107 483
8.31119 483
8.3313 522
8.35141 519
8.37153 542
8.39164 548
8.41176 497
8.43187 478
8.45198 536
8.4721 462
8.49221 505
8.51232 518
8.53244 516
8.55255 530
8.57266 442
8.59278 493
8.61289 487
8.63301 433
8.65312 442
8.67323 454
8.69335 471
8.71346 439
8.73357 426
8.75369 479
8.7738 437
8.79392 437
8.81403 434
8.83414 423
8.85426 381
8.87437 429
8.89448 405
8.9146 407
8.93471 389
8.95483 375
8.97494 395
8.99505 352
9.01517 379
9.03528 337
9.05539 391
9.07551 361
9.09562 366
9.11573 365
9.13585 391
9.15596 363
9.17608 385
9.19619 402
9.2163 367
9.23642 337
9.25653 369
9.27664 379
9.29676 403
9.31687 318
9.33699 333
9.3571 361
9.37721 368
9.39733 373
9.41744 350
9.43755 364
9.45767 346
9.47778 335
9.4979 321
9.51801 344
9.53812 353
9.55824 342
9.57835 321
9.59846 333
9.61858 325
9.63869 332
9.6588 314
9.67892 345
9.69903 308
9.71915 346
9.73926 336
9.75937 353
9.77949 301
9.7996 346
9.81971 318
9.83983 279
9.85994 302
9.88006 298
9.90017 324
9.92028 322
9.9404 310
9.96051 328
9.98062 285
10.00074 326
10.02085 322
10.04097 321
10.06108 320
10.08119 282
10.10131 324
10.12142 306
10.14153 270
10.16165 282
10.18176 296
10.20187 278
10.22199 284
10.2421 291
10.26222 306
10.28233 305
10.30244 274
10.32256 303
10.34267 290
10.36278 298
10.3829 307
10.40301 303
10.42313 290
10.44324 318
10.46335 312
10.48347 296
10.50358 315
10.52369 295
10.54381 315
10.56392 291
10.58403 286
10.60415 292
10.62426 264
10.64438 307
10.66449 314
10.6846 295
10.70472 259
10.72483 293
10.74494 302
10.76506 282
10.78517 314
10.80529 317
10.8254 278
10.84551 266
10.86563 281
10.88574 283
10.90585 322
10.92597 298
10.94608 243
10.9662 300
10.98631 271
11.00642 315
11.02654 279
11.04665 318
11.06676 302
11.08688 287
11.10699 295
11.1271 299
11.14722 284
11.16733 300
11.18745 286
11.20756 322
11.22767 292
11.24779 300
11.2679 277
11.28801 290
11.30813 280
11.32824 285
11.34836 266
11.36847 271
11.38858 269
11.4087 280
11.42881 268
11.44892 267
11.46904 283
11.48915 292
11.50927 267
11.52938 310
11.54949 278
11.56961 225
11.58972 282
11.60983 295
11.62995 304
11.65006 291
11.67017 303
11.69029 265
11.7104 273
11.73052 266
11.75063 259
11.77074 262
11.79086 309
11.81097 284
11.83108 287
11.8512 304
11.87131 278
11.89143 331
11.91154 291
11.93165 289
11.95177 307
11.97188 252
11.99199 309
12.01211 291
12.03222 295
12.05234 267
12.07245 306
12.09256 285
12.11268 283
12.13279 278
12.1529 303
12.17302 302
12.19313 271
12.21324 252
12.23336 273
12.25347 274
12.27359 318
12.2937 253
12.31381 247
12.33393 260
12.35404 274
12.37415 300
12.39427 295
12.41438 273
12.4345 301
12.45461 290
12.47472 275
12.49484 273
12.51495 266
12.53506 300
12.55518 242
12.57529 276
12.5954 269
12.61552 262
12.63563 267
12.65575 249
12.67586 302
12.69597 278
12.71609 304
12.7362 288
12.75631 297
12.77643 249
12.79654 261
12.81666 268
12.83677 292
12.85688 259
12.877 264
12.89711 296
12.91722 263
12.93734 242
12.95745 267
12.97757 276
12.99768 267
13.01779 218
13.03791 317
13.05802 255
13.07813 254
13.09825 296
13.11836 266
13.13847 247
13.15859 282
13.1787 261
13.19882 269
13.21893 240
13.23904 278
13.25916 297
13.27927 243
13.29938 288
13.3195 292
13.33961 293
13.35973 266
13.37984 262
13.39995 237
13.42007 295
13.44018 293
13.46029 308
13.48041 283
13.50052 258
13.52064 305
13.54075 278
13.56086 272
13.58098 276
13.60109 285
13.6212 280
13.64132 299
13.66143 252
13.68154 294
13.70166 273
13.72177 318
13.74189 288
13.762 241
13.78211 257
13.80223 245
13.82234 264
13.84245 273
13.86257 269
13.88268 266
13.9028 257
13.92291 257
13.94302 270
13.96314 285
13.98325 262
14.00336 262
14.02348 244
14.04359 289
14.06371 253
14.08382 283
14.10393 266
14.12405 223
14.14416 252
14.16427 253
14.18439 271
14.2045 278
14.22461 273
14.24473 285
14.26484 250
14.28496 271
14.30507 255
14.32518 261
14.3453 274
14.36541 263
14.38552 247
14.40564 258
14.42575 266
14.44587 273
14.46598 229
14.48609 253
14.50621 248
14.52632 260
14.54643 255
14.56655 262
14.58666 253
14.60677 285
14.62689 245
14.647 237
14.66712 261
14.68723 286
14.70734 203
14.72746 268
14.74757 262
14.76768 261
14.7878 269
14.80791 281
14.82803 283
14.84814 287
14.86825 256
14.88837 262
14.90848 265
14.92859 242
14.94871 261
14.96882 242
14.98894 261
15.00905 262
15.02916 281
15.04928 293
15.06939 219
15.0895 270
15.10962 253
15.12973 253
15.14984 245
15.16996 272
15.19007 292
15.21019 269
15.2303 281
15.25041 261
15.27053 276
15.29064 235
15.31075 271
15.33087 225
15.35098 261
15.3711 236
15.39121 234
15.41132 262
15.43144 261
15.45155 238
15.47166 312
15.49178 244
15.51189 251
15.53201 228
15.55212 236
15.57223 228
15.59235 265
15.61246 265
15.63257 263
15.65269 266
15.6728 262
15.69291 233
15.71303 243
15.73314 237
15.75326 260
15.77337 246
15.79348 236
15.8136 264
15.83371 253
15.85382 276
15.87394 259
15.89405 234
15.91417 257
15.93428 225
15.95439 285
15.97451 258
15.99462 262
16.01473 247
16.03485 279
16.05496 270
16.07508 291
16.09519 256
16.1153 265
16.13542 258
16.15553 246
16.17564 263
16.19576 251
16.21587 235
16.23598 261
16.2561 238
16.27621 271
16.29633 267
16.31644 260
16.33655 267
16.35667 235
16.37678 266
16.39689 274
16.41701 272
16.43712 234
16.45724 239
16.47735 260
16.49746 275
16.51758 260
16.53769 273
16.5578 273
16.57792 271
16.59803 253
16.61814 259
16.63826 279
16.65837 268
16.67849 266
16.6986 289
16.71871 250
16.73883 271
16.75894 267
16.77905 251
16.79917 267
16.81928 291
16.8394 252
16.85951 266
16.87962 248
16.89974 261
16.91985 251
16.93996 280
16.96008 249
16.98019 277
17.00031 275
17.02042 281
17.04053 261
17.06065 232
17.08076 240
17.10087 236
17.12099 281
17.1411 302
17.16121 263
17.18133 259
17.20144 264
17.22156 233
17.24167 274
17.26178 261
17.2819 252
17.30201 274
17.32212 263
17.34224 250
17.36235 249
17.38247 255
17.40258 286
17.42269 256
17.44281 256
17.46292 254
17.48303 245
17.50315 261
17.52326 246
17.54338 288
17.56349 276
17.5836 278
17.60372 264
17.62383 260
17.64394 252
17.66406 290
17.68417 274
17.70428 247
17.7244 275
17.74451 271
17.76463 304
17.78474 236
17.80485 272
17.82497 292
17.84508 260
17.86519 245
17.88531 245
17.90542 265
17.92554 240
17.94565 270
17.96576 270
17.98588 278
18.00599 268
18.0261 272
18.04622 267
18.06633 266
18.08645 263
18.10656 281
18.12667 253
18.14679 243
18.1669 308
18.18701 262
18.20713 299
18.22724 305
18.24735 256
18.26747 264
18.28758 303
18.3077 282
18.32781 241
18.34792 275
18.36804 261
18.38815 251
18.40826 261
18.42838 313
18.44849 277
18.46861 265
18.48872 278
18.50883 285
18.52895 259
18.54906 243
18.56917 266
18.58929 268
18.6094 276
18.62951 255
18.64963 266
18.66974 262
18.68986 269
18.70997 295
18.73008 288
18.7502 316
18.77031 304
18.79042 287
18.81054 272
18.83065 286
18.85077 263
18.87088 276
18.89099 289
18.91111 266
18.93122 257
18.95133 263
18.97145 265
18.99156 260
19.01168 282
19.03179 292
19.0519 271
19.07202 283
19.09213 290
19.11224 300
19.13236 323
19.15247 321
19.17258 318
19.1927 346
19.21281 328
19.23293 350
19.25304 333
19.27315 349
19.29327 324
19.31338 351
19.33349 400
19.35361 362
19.37372 393
19.39384 396
19.41395 414
19.43406 443
19.45418 450
19.47429 446
19.4944 444
19.51452 489
19.53463 492
19.55475 490
19.57486 532
19.59497 552
19.61509 568
19.6352 572
19.65531 617
19.67543 564
19.69554 586
19.71565 611
19.73577 614
19.75588 637
19.776 646
19.79611 601
19.81622 634
19.83634 623
19.85645 614
19.87656 559
19.89668 555
19.91679 596
19.93691 543
19.95702 534
19.97713 558
19.99725 591
20.01736 552
20.03747 537
20.05759 536
20.0777 558
20.09782 525
20.11793 504
20.13804 486
20.15816 509
20.17827 533
20.19838 513
20.2185 524
20.23861 542
20.25872 521
20.27884 507
20.29895 526
20.31907 520
20.33918 513
20.35929 503
20.37941 500
20.39952 511
20.41963 507
20.43975 556
20.45986 546
20.47998 523
20.50009 563
20.5202 546
20.54032 537
20.56043 603
20.58054 569
20.60066 626
20.62077 744
20.64088 799
20.661 1020
20.68111 1196
20.70123 1562
20.72134 2087
20.74145 2750
20.76157 3731
20.78168 4797
20.80179 5537
20.82191 5973
20.84202 5997
20.86214 5123
20.88225 3942
20.90236 2855
20.92248 1955
20.94259 1342
20.9627 903
20.98282 771
21.00293 677
21.02305 658
21.04316 633
21.06327 540
21.08339 569
21.1035 508
21.12361 537
21.14373 447
21.16384 448
21.18395 422
21.20407 410
21.22418 451
21.2443 449
21.26441 402
21.28452 420
21.30464 417
21.32475 397
21.34486 438
21.36498 389
21.38509 398
21.40521 385
21.42532 383
21.44543 412
21.46555 435
21.48566 418
21.50577 358
21.52589 383
21.546 376
21.56612 367
21.58623 384
21.60634 360
21.62646 356
21.64657 385
21.66668 410
21.6868 392
21.70691 398
21.72702 379
21.74714 339
21.76725 371
21.78737 353
21.80748 365
21.82759 394
21.84771 382
21.86782 347
21.88793 394
21.90805 348
21.92816 405
21.94828 356
21.96839 378
21.9885 388
22.00862 377
22.02873 369
22.04884 376
22.06896 395
22.08907 387
22.10919 333
22.1293 373
22.14941 355
22.16953 331
22.18964 378
22.20975 374
22.22987 337
22.24998 378
22.27009 377
22.29021 359
22.31032 397
22.33044 396
22.35055 398
22.37066 366
22.39078 412
22.41089 335
22.431 337
22.45112 383
22.47123 369
22.49135 370
22.51146 375
22.53157 381
22.55169 360
22.5718 372
22.59191 353
22.61203 394
22.63214 333
22.65225 359
22.67237 376
22.69248 358
22.7126 422
22.73271 335
22.75282 372
22.77294 359
22.79305 339
22.81316 334
22.83328 355
22.85339 372
22.87351 363
22.89362 366
22.91373 309
22.93385 346
22.95396 396
22.97407 371
22.99419 366
23.0143 352
23.03442 368
23.05453 380
23.07464 370
23.09476 344
23.11487 349
23.13498 381
23.1551 358
23.17521 354
23.19532 378
23.21544 381
23.23555 333
23.25567 391
23.27578 354
23.29589 343
23.31601 363
23.33612 372
23.35623 346
23.37635 370
23.39646 366
23.41658 385
23.43669 359
23.4568 385
23.47692 374
23.49703 388
23.51714 419
23.53726 381
23.55737 430
23.57749 355
23.5976 378
23.61771 341
23.63783 365
23.65794 396
23.67805 365
23.69817 361
23.71828 388
23.73839 357
23.75851 374
23.77862 368
23.79874 380
23.81885 359
23.83896 342
23.85908 419
23.87919 404
23.8993 384
23.91942 408
23.93953 404
23.95965 416
23.97976 382
23.99987 411
24.01999 386
24.0401 364
24.06021 364
24.08033 350
24.10044 360
24.12056 352
24.14067 345
24.16078 378
24.1809 347
24.20101 363
24.22112 350
24.24124 355
24.26135 346
24.28146 333
24.30158 374
24.32169 373
24.34181 360
24.36192 337
24.38203 338
24.40215 352
24.42226 358
24.44237 341
24.46249 355
24.4826 365
24.50272 348
24.52283 363
24.54294 366
24.56306 379
24.58317 355
24.60328 376
24.6234 322
24.64351 359
24.66362 346
24.68374 346
24.70385 359
24.72397 370
24.74408 335
24.76419 372
24.78431 312
24.80442 358
24.82453 342
24.84465 332
24.86476 345
24.88488 347
24.90499 362
24.9251 352
24.94522 392
24.96533 316
24.98544 365
25.00556 358
25.02567 327
25.04579 305
25.0659 349
25.08601 359
25.10613 356
25.12624 338
25.14635 396
25.16647 392
25.18658 435
25.20669 404
25.22681 382
25.24692 395
25.26704 342
25.28715 388
25.30726 412
25.32738 387
25.34749 397
25.3676 385
25.38772 383
25.40783 396
25.42795 400
25.44806 385
25.46817 402
25.48829 424
25.5084 394
25.52851 423
25.54863 425
25.56874 422
25.58886 448
25.60897 456
25.62908 458
25.6492 498
25.66931 534
25.68942 536
25.70954 553
25.72965 530
25.74976 485
25.76988 531
25.78999 540
25.81011 521
25.83022 520
25.85033 509
25.87045 525
25.89056 521
25.91067 563
25.93079 541
25.9509 507
25.97102 541
25.99113 601
26.01124 521
26.03136 602
26.05147 584
26.07158 637
26.0917 598
26.11181 674
26.13193 656
26.15204 767
26.17215 811
26.19227 840
26.21238 866
26.23249 959
26.25261 1025
26.27272 1033
26.29283 1102
26.31295 1269
26.33306 1459
26.35318 1528
26.37329 1819
26.3934 2216
26.41352 2711
26.43363 3606
26.45374 4700
26.47386 6464
26.49397 8720
26.51409 11917
26.5342 16256
26.55431 20396
26.57443 24208
26.59454 26081
26.61465 25612
26.63477 22756
26.65488 18290
26.67499 13611
26.69511 9938
26.71522 6447
26.73534 3986
26.75545 2490
26.77556 1802
26.79568 1483
26.81579 1429
26.8359 1275
26.85602 1166
26.87613 1016
26.89625 973
26.91636 877
26.93647 872
26.95659 817
26.9767 786
26.99681 861
27.01693 773
27.03704 725
27.05716 685
27.07727 679
27.09738 623
27.1175 584
27.13761 651
27.15772 557
27.17784 594
27.19795 568
27.21806 523
27.23818 538
27.25829 548
27.27841 554
27.29852 609
27.31863 560
27.33875 580
27.35886 637
27.37897 595
27.39909 583
27.4192 612
27.43932 625
27.45943 598
27.47954 625
27.49966 551
27.51977 582
27.53988 545
27.56 507
27.58011 510
27.60023 479
27.62034 496
27.64045 520
27.66057 440
27.68068 454
27.70079 487
27.72091 486
27.74102 447
27.76113 477
27.78125 461
27.80136 471
27.82148 479
27.84159 463
27.8617 426
27.88182 420
27.90193 421
27.92204 446
27.94216 450
27.96227 452
27.98239 430
28.0025 412
28.02261 396
28.04273 390
28.06284 400
28.08295 386
28.10307 396
28.12318 358
28.1433 402
28.16341 401
28.18352 399
28.20364 392
28.22375 425
28.24386 393
28.26398 362
28.28409 379
28.3042 388
28.32432 393
28.34443 423
28.36455 386
28.38466 382
28.40477 397
28.42489 347
28.445 368
28.46511 378
28.48523 394
28.50534 351
28.52546 364
28.54557 367
28.56568 338
28.5858 363
28.60591 377
28.62602 352
28.64614 320
28.66625 366
28.68636 330
28.70648 351
28.72659 377
28.74671 345
28.76682 317
28.78693 367
28.80705 373
28.82716 379
28.84727 366
28.86739 365
28.8875 350
28.90762 398
28.92773 333
28.94784 343
28.96796 358
28.98807 355
29.00818 313
29.0283 328
29.04841 311
29.06853 364
29.08864 342
29.10875 344
29.12887 331
29.14898 348
29.16909 364
29.18921 344
29.20932 319
29.22943 330
29.24955 331
29.26966 327
29.28978 375
29.30989 327
29.33 355
29.35012 312
29.37023 388
29.39034 355
29.41046 349
29.43057 349
29.45069 350
29.4708 352
29.49091 330
29.51103 352
29.53114 353
29.55125 338
29.57137 341
29.59148 350
29.6116 345
29.63171 338
29.65182 384
29.67194 365
29.69205 320
29.71216 356
29.73228 362
29.75239 373
29.7725 361
29.79262 350
29.81273 371
29.83285 356
29.85296 368
29.87307 346
29.89319 325
29.9133 334
29.93341 347
29.95353 340
29.97364 330
29.99376 346
30.01387 334
30.03398 317
30.0541 344
30.07421 325
30.09432 332
30.11444 354
30.13455 343
30.15467 369
30.17478 329
30.19489 322
30.21501 335
30.23512 365
30.25523 288
30.27535 309
30.29546 331
30.31557 322
30.33569 344
30.3558 319
30.37592 338
30.39603 303
30.41614 341
30.43626 299
30.45637 358
30.47648 309
30.4966 317
30.51671 323
30.53683 319
30.55694 345
30.57705 330
30.59717 318
30.61728 327
30.63739 319
30.65751 328
30.67762 327
30.69773 316
30.71785 371
30.73796 391
30.75808 357
30.77819 356
30.7983 360
30.81842 317
30.83853 313
30.85864 301
30.87876 305
30.89887 302
30.91899 331
30.9391 271
30.95921 263
30.97933 306
30.99944 296
31.01955 294
31.03967 296
31.05978 299
31.0799 304
31.10001 293
31.12012 280
31.14024 301
31.16035 276
31.18046 284
31.20058 268
31.22069 295
31.2408 292
31.26092 305
31.28103 324
31.30115 312
31.32126 302
31.34137 255
31.36149 271
31.3816 292
31.40171 286
31.42183 310
31.44194 276
31.46206 294
31.48217 300
31.50228 244
31.5224 257
31.54251 278
31.56262 275
31.58274 331
31.60285 291
31.62297 286
31.64308 310
31.66319 321
31.68331 264
31.70342 286
31.72353 282
31.74365 276
31.76376 272
31.78387 294
31.80399 276
31.8241 276
31.84422 283
31.86433 276
31.88444 291
31.90456 291
31.92467 275
31.94478 306
31.9649 290
31.98501 311
32.00513 263
32.02524 280
32.04535 284
32.06547 260
32.08558 287
32.10569 265
32.12581 281
32.14592 280
32.16604 244
32.18615 273
32.20626 265
32.22638 280
32.24649 283
32.2666 293
32.28672 272
32.30683 260
32.32694 286
32.34706 265
32.36717 317
32.38729 295
32.4074 276
32.42751 301
32.44763 262
32.46774 265
32.48785 277
32.50797 262
32.52808 271
32.5482 282
32.56831 290
32.58842 286
32.60854 271
32.62865 269
32.64876 263
32.66888 263
32.68899 292
32.7091 265
32.72922 287
32.74933 267
32.76945 244
32.78956 272
32.80967 323
32.82979 276
32.8499 252
32.87001 272
32.89013 265
32.91024 289
32.93036 255
32.95047 253
32.97058 273
32.9907 263
33.01081 249
33.03092 245
33.05104 241
33.07115 284
33.09127 305
33.11138 263
33.13149 263
33.15161 298
33.17172 278
33.19183 270
33.21195 240
33.23206 285
33.25217 251
33.27229 264
33.2924 252
33.31252 232
33.33263 278
33.35274 257
33.37286 246
33.39297 272
33.41308 282
33.4332 261
33.45331 280
33.47343 230
33.49354 254
33.51365 269
33.53377 262
33.55388 252
33.57399 253
33.59411 259
33.61422 245
33.63434 277
33.65445 252
33.67456 269
33.69468 294
33.71479 244
33.7349 230
33.75502 297
33.77513 257
33.79524 276
33.81536 301
33.83547 276
33.85559 269
33.8757 270
33.89581 276
33.91593 254
33.93604 279
33.95615 257
33.97627 266
33.99638 278
34.0165 276
34.03661 314
34.05672 306
34.07684 277
34.09695 283
34.11706 325
34.13718 327
34.15729 300
34.17741 300
34.19752 336
34.21763 292
34.23775 330
34.25786 334
34.27797 366
34.29809 358
34.3182 329
34.33831 355
34.35843 346
34.37854 342
34.39866 370
34.41877 371
34.43888 377
34.459 412
34.47911 399
34.49922 378
34.51934 364
34.53945 375
34.55957 392
34.57968 395
34.59979 401
34.61991 410
34.64002 411
34.66013 414
34.68025 454
34.70036 426
34.72047 436
34.74059 404
34.7607 433
34.78082 410
34.80093 406
34.82104 382
34.84116 412
34.86127 422
34.88138 392
34.9015 424
34.92161 446
34.94173 423
34.96184 392
34.98195 395
35.00207 379
35.02218 427
35.04229 401
35.06241 355
35.08252 424
35.10264 390
35.12275 437
35.14286 395
35.16298 392
35.18309 394
35.2032 361
35.22332 372
35.24343 359
35.26354 400
35.28366 332
35.30377 384
35.32389 361
35.344 388
35.36411 355
35.38423 355
35.40434 409
35.42445 374
35.44457 357
35.46468 392
35.4848 392
35.50491 363
35.52502 392
35.54514 349
35.56525 340
35.58536 350
35.60548 365
35.62559 372
35.64571 353
35.66582 343
35.68593 329
35.70605 333
35.72616 341
35.74627 360
35.76639 323
35.7865 357
35.80661 310
35.82673 344
35.84684 371
35.86696 340
35.88707 309
35.90718 350
35.9273 305
35.94741 354
35.96752 350
35.98764 339
36.00775 354
36.02787 326
36.04798 340
36.06809 352
36.08821 341
36.10832 349
36.12843 358
36.14855 384
36.16866 360
36.18878 359
36.20889 390
36.229 429
36.24912 465
36.26923 442
36.28934 523
36.30946 581
36.32957 607
36.34968 694
36.3698 819
36.38991 1027
36.41003 1177
36.43014 1513
36.45025 1698
36.47037 1850
36.49048 1982
36.51059 1992
36.53071 1843
36.55082 1607
36.57094 1339
36.59105 1131
36.61116 1067
36.63128 882
36.65139 657
36.6715 527
36.69162 498
36.71173 400
36.73184 387
36.75196 377
36.77207 398
36.79219 386
36.8123 394
36.83241 353
36.85253 319
36.87264 350
36.89275 319
36.91287 362
36.93298 367
36.9531 331
36.97321 316
36.99332 354
37.01344 348
37.03355 324
37.05366 315
37.07378 325
37.09389 323
37.11401 355
37.13412 339
37.15423 312
37.17435 305
37.19446 304
37.21457 318
37.23469 311
37.2548 274
37.27491 302
37.29503 343
37.31514 310
37.33526 305
37.35537 318
37.37548 317
37.3956 301
37.41571 315
37.43582 303
37.45594 305
37.47605 275
37.49617 276
37.51628 296
37.53639 304
37.55651 334
37.57662 271
37.59673 315
37.61685 283
37.63696 326
37.65708 311
37.67719 322
37.6973 279
37.71742 279
37.73753 288
37.75764 284
37.77776 324
37.79787 301
37.81798 276
37.8381 317
37.85821 320
37.87833 297
37.89844 283
37.91855 277
37.93867 290
37.95878 301
37.97889 264
37.99901 283
38.01912 288
38.03924 324
38.05935 310
38.07946 295
38.09958 301
38.11969 324
38.1398 324
38.15992 286
38.18003 342
38.20015 266
38.22026 291
38.24037 283
38.26049 278
38.2806 254
38.30071 280
38.32083 286
38.34094 299
38.36105 341
38.38117 286
38.40128 285
38.4214 304
38.44151 290
38.46162 307
38.48174 281
38.50185 271
38.52196 284
38.54208 281
38.56219 279
38.58231 256
38.60242 280
38.62253 273
38.64265 263
38.66276 299
38.68287 263
38.70299 298
38.7231 271
38.74321 275
38.76333 305
38.78344 253
38.80356 281
38.82367 287
38.84378 319
38.8639 286
38.88401 306
38.90412 286
38.92424 296
38.94435 297
38.96447 263
38.98458 309
39.00469 316
39.02481 313
39.04492 325
39.06503 310
39.08515 302
39.10526 311
39.12538 323
39.14549 329
39.1656 340
39.18572 372
39.20583 432
39.22594 498
39.24606 553
39.26617 642
39.28628 722
39.3064 827
39.32651 1032
39.34663 1215
39.36674 1432
39.38685 1564
39.40697 1708
39.42708 1777
39.44719 1665
39.46731 1482
39.48742 1304
39.50754 1050
39.52765 1000
39.54776 890
39.56788 735
39.58799 558
39.6081 430
39.62822 396
39.64833 364
39.66845 303
39.68856 344
39.70867 310
39.72879 328
39.7489 331
39.76901 302
39.78913 298
39.80924 340
39.82935 320
39.84947 335
39.86958 314
39.8897 282
39.90981 303
39.92992 311
39.95004 316
39.97015 322
39.99026 351
40.01038 361
40.03049 369
40.05061 391
40.07072 447
40.09083 466
40.11095 517
40.13106 549
40.15117 661
40.17129 728
40.1914 801
40.21152 953
40.23163 964
40.25174 974
40.27186 946
40.29197 832
40.31208 689
40.3322 660
40.35231 622
40.37242 557
40.39254 454
40.41265 426
40.43277 311
40.45288 320
40.47299 329
40.49311 285
40.51322 280
40.53333 305
40.55345 307
40.57356 283
40.59368 292
40.61379 276
40.6339 302
40.65402 267
40.67413 264
40.69424 271
40.71436 298
40.73447 283
40.75458 281
40.7747 263
40.79481 304
40.81493 268
40.83504 301
40.85515 283
40.87527 276
40.89538 256
40.91549 272
40.93561 258
40.95572 270
40.97584 252
40.99595 304
41.01606 273
41.03618 254
41.05629 277
41.0764 271
41.09652 256
41.11663 279
41.13675 290
41.15686 290
41.17697 266
41.19709 271
41.2172 273
41.23731 316
41.25743 293
41.27754 260
41.29765 265
41.31777 292
41.33788 258
41.358 282
41.37811 260
41.39822 260
41.41834 271
41.43845 269
41.45856 244
41.47868 282
41.49879 284
41.51891 299
41.53902 267
41.55913 282
41.57925 272
41.59936 279
41.61947 320
41.63959 287
41.6597 283
41.67982 306
41.69993 329
41.72004 291
41.74016 283
41.76027 303
41.78038 285
41.8005 311
41.82061 288
41.84072 282
41.86084 270
41.88095 294
41.90107 281
41.92118 279
41.94129 283
41.96141 286
41.98152 289
42.00163 304
42.02175 320
42.04186 299
42.06198 339
42.08209 320
42.1022 313
42.12232 313
42.14243 364
42.16254 400
42.18266 380
42.20277 418
42.22289 439
42.243 510
42.26311 567
42.28323 669
42.30334 792
42.32345 947
42.34357 1096
42.36368 1155
42.38379 1310
42.40391 1336
42.42402 1248
42.44414 1131
42.46425 1004
42.48436 861
42.50448 814
42.52459 741
42.5447 585
42.56482 513
42.58493 444
42.60505 371
42.62516 348
42.64527 302
42.66539 312
42.6855 300
42.70561 287
42.72573 297
42.74584 289
42.76595 281
42.78607 259
42.80618 254
42.8263 276
42.84641 277
42.86652 271
42.88664 252
42.90675 266
42.92686 264
42.94698 263
42.96709 242
42.98721 263
43.00732 262
43.02743 240
43.04755 254
43.06766 274
43.08777 268
43.10789 251
43.128 249
43.14812 253
43.16823 246
43.18834 251
43.20846 251
43.22857 239
43.24868 241
43.2688 242
43.28891 249
43.30902 267
43.32914 280
43.34925 243
43.36937 255
43.38948 251
43.40959 285
43.42971 238
43.44982 235
43.46993 276
43.49005 256
43.51016 245
43.53028 262
43.55039 246
43.5705 251
43.59062 265
43.61073 254
43.63084 254
43.65096 248
43.67107 258
43.69119 274
43.7113 263
43.73141 252
43.75153 241
43.77164 238
43.79175 229
43.81187 256
43.83198 228
43.85209 257
43.87221 267
43.89232 246
43.91244 249
43.93255 245
43.95266 247
43.97278 244
43.99289 246
44.013 293
44.03312 240
44.05323 254
44.07335 293
44.09346 235
44.11357 277
44.13369 234
44.1538 243
44.17391 261
44.19403 249
44.21414 259
44.23426 238
44.25437 233
44.27448 254
44.2946 238
44.31471 240
44.33482 244
44.35494 251
44.37505 259
44.39516 237
44.41528 245
44.43539 228
44.45551 244
44.47562 237
44.49573 252
44.51585 258
44.53596 257
44.55607 249
44.57619 273
44.5963 218
44.61642 226
44.63653 218
44.65664 235
44.67676 266
44.69687 232
44.71698 244
44.7371 253
44.75721 249
44.77732 243
44.79744 238
44.81755 254
44.83767 244
44.85778 227
44.87789 230
44.89801 225
44.91812 240
44.93823 253
44.95835 206
44.97846 264
44.99858 247
45.01869 285
45.0388 243
45.05892 265
45.07903 251
45.09914 252
45.11926 246
45.13937 256
45.15949 252
45.1796 238
45.19971 242
45.21983 250
45.23994 217
45.26005 233
45.28017 236
45.30028 280
45.32039 260
45.34051 244
45.36062 285
45.38074 278
45.40085 285
45.42096 283
45.44108 282
45.46119 295
45.4813 290
45.50142 325
45.52153 326
45.54165 382
45.56176 382
45.58187 432
45.60199 466
45.6221 498
45.64221 583
45.66233 604
45.68244 744
45.70256 836
45.72267 926
45.74278 914
45.7629 919
45.78301 752
45.80312 690
45.82324 633
45.84335 618
45.86346 541
45.88358 546
45.90369 480
45.92381 381
45.94392 345
45.96403 314
45.98415 295
46.00426 268
46.02437 284
46.04449 263
46.0646 251
46.08472 257
46.10483 256
46.12494 229
46.14506 244
46.16517 230
46.18528 252
46.2054 216
46.22551 248
46.24563 239
46.26574 243
46.28585 224
46.30597 245
46.32608 206
46.34619 221
46.36631 216
46.38642 235
46.40653 217
46.42665 228
46.44676 195
46.46688 230
46.48699 228
46.5071 215
46.52722 207
46.54733 244
46.56744 245
46.58756 244
46.60767 207
46.62779 189
46.6479 228
46.66801 214
46.68813 222
46.70824 233
46.72835 249
46.74847 214
46.76858 232
46.78869 210
46.80881 199
46.82892 210
46.84904 206
46.86915 233
46.88926 207
46.90938 234
46.92949 208
46.9496 219
46.96972 261
46.98983 211
47.00995 233
47.03006 246
47.05017 211
47.07029 229
47.0904 232
47.11051 221
47.13063 218
47.15074 229
47.17086 232
47.19097 219
47.21108 227
47.2312 215
47.25131 227
47.27142 245
47.29154 229
47.31165 210
47.33176 239
47.35188 234
47.37199 240
47.39211 234
47.41222 223
47.43233 215
47.45245 235
47.47256 243
47.49267 226
47.51279 224
47.5329 189
47.55302 246
47.57313 213
47.59324 198
47.61336 229
47.63347 223
47.65358 214
47.6737 228
47.69381 193
47.71393 227
47.73404 231
47.75415 226
47.77427 223
47.79438 218
47.81449 233
47.83461 222
47.85472 199
47.87483 225
47.89495 204
47.91506 231
47.93518 236
47.95529 228
47.9754 235
47.99552 208
48.01563 223
48.03574 217
48.05586 223
48.07597 210
48.09609 231
48.1162 230
48.13631 224
48.15643 236
48.17654 187
48.19665 201
48.21677 221
48.23688 208
48.257 233
48.27711 219
48.29722 223
48.31734 250
48.33745 219
48.35756 253
48.37768 203
48.39779 246
48.4179 223
48.43802 207
48.45813 204
48.47825 212
48.49836 212
48.51847 225
48.53859 216
48.5587 245
48.57881 221
48.59893 227
48.61904 259
48.63916 242
48.65927 219
48.67938 219
48.6995 235
48.71961 192
48.73972 225
48.75984 241
48.77995 227
48.80006 236
48.82018 226
48.84029 226
48.86041 256
48.88052 220
48.90063 234
48.92075 248
48.94086 234
48.96097 227
48.98109 215
49.0012 248
49.02132 208
49.04143 218
49.06154 211
49.08166 219
49.10177 227
49.12188 199
49.142 235
49.16211 236
49.18223 229
49.20234 243
49.22245 214
49.24257 192
49.26268 250
49.28279 226
49.30291 252
49.32302 279
49.34313 241
49.36325 256
49.38336 254
49.40348 239
49.42359 249
49.4437 213
49.46382 237
49.48393 270
49.50404 266
49.52416 244
49.54427 248
49.56439 245
49.5845 292
49.60461 293
49.62473 270
49.64484 274
49.66495 314
49.68507 308
49.70518 336
49.7253 333
49.74541 378
49.76552 366
49.78564 401
49.80575 449
49.82586 483
49.84598 495
49.86609 545
49.8862 669
49.90632 793
49.92643 917
49.94655 1102
49.96666 1318
49.98677 1507
50.00689 1851
50.027 2218
50.04711 2376
50.06723 2661
50.08734 2776
50.10746 2589
50.12757 2265
50.14768 1931
50.1678 1658
50.18791 1582
50.20802 1476
50.22814 1346
50.24825 1232
50.26837 978
50.28848 703
50.30859 525
50.32871 430
50.34882 386
50.36893 370
50.38905 338
50.40916 331
50.42927 333
50.44939 348
50.4695 338
50.48962 358
50.50973 316
50.52984 335
50.54996 312
50.57007 334
50.59018 299
50.6103 302
50.63041 320
50.65053 296
50.67064 264
50.69075 296
50.71087 267
50.73098 279
50.75109 288
50.77121 294
50.79132 234
50.81143 278
50.83155 258
50.85166 243
50.87178 270
50.89189 251
50.912 250
50.93212 238
50.95223 238
50.97234 233
50.99246 229
51.01257 237
51.03269 215
51.0528 243
51.07291 230
51.09303 231
51.11314 216
51.13325 224
51.15337 216
51.17348 251
51.1936 236
51.21371 210
51.23382 220
51.25394 238
51.27405 214
51.29416 240
51.31428 210
51.33439 205
51.3545 221
51.37462 229
51.39473 206
51.41485 224
51.43496 233
51.45507 218
51.47519 200
51.4953 208
51.51541 230
51.53553 229
51.55564 232
51.57576 215
51.59587 205
51.61598 218
51.6361 187
51.65621 215
51.67632 215
51.69644 226
51.71655 238
51.73667 211
51.75678 227
51.77689 209
51.79701 220
51.81712 225
51.83723 218
51.85735 205
51.87746 195
51.89757 206
51.91769 215
51.9378 210
51.95792 193
51.97803 215
51.99814 205
52.01826 241
52.03837 228
52.05848 218
52.0786 228
52.09871 214
52.11883 198
52.13894 202
52.15905 209
52.17917 197
52.19928 215
52.21939 232
52.23951 197
52.25962 218
52.27974 218
52.29985 228
52.31996 224
52.34008 206
52.36019 190
52.3803 224
52.40042 208
52.42053 236
52.44064 217
52.46076 210
52.48087 222
52.50099 238
52.5211 252
52.54121 224
52.56133 224
52.58144 202
52.60155 200
52.62167 200
52.64178 220
52.6619 224
52.68201 227
52.70212 235
52.72224 225
52.74235 219
52.76246 215
52.78258 241
52.80269 241
52.8228 221
52.84292 197
52.86303 225
52.88315 208
52.90326 250
52.92337 236
52.94349 233
52.9636 207
52.98371 243
53.00383 217
53.02394 230
53.04406 233
53.06417 218
53.08428 258
53.1044 195
53.12451 248
53.14462 234
53.16474 237
53.18485 232
53.20497 264
53.22508 237
53.24519 229
53.26531 247
53.28542 224
53.30553 235
53.32565 263
53.34576 262
53.36587 287
53.38599 248
53.4061 242
53.42622 264
53.44633 235
53.46644 264
53.48656 261
53.50667 254
53.52678 253
53.5469 231
53.56701 263
53.58713 256
53.60724 239
53.62735 253
53.64747 252
53.66758 271
53.68769 266
53.70781 269
53.72792 236
53.74804 252
53.76815 261
53.78826 237
53.80838 284
53.82849 265
53.8486 245
53.86872 264
53.88883 236
53.90894 272
53.92906 248
53.94917 301
53.96929 239
53.9894 249
54.00951 273
54.02963 252
54.04974 255
54.06985 261
54.08997 250
54.11008 272
54.1302 259
54.15031 250
54.17042 266
54.19054 258
54.21065 260
54.23076 262
54.25088 255
54.27099 269
54.29111 256
54.31122 233
54.33133 238
54.35145 273
54.37156 271
54.39167 276
54.41179 281
54.4319 274
54.45201 283
54.47213 309
54.49224 311
54.51236 295
54.53247 303
54.55258 314
54.5727 365
54.59281 360
54.61292 385
54.63304 397
54.65315 494
54.67327 494
54.69338 576
54.71349 636
54.73361 658
54.75372 774
54.77383 893
54.79395 937
54.81406 989
54.83417 911
54.85429 861
54.8744 825
54.89452 625
54.91463 641
54.93474 640
54.95486 618
54.97497 647
54.99508 555
55.0152 466
55.03531 431
55.05543 380
55.07554 353
55.09565 389
55.11577 348
55.13588 382
55.15599 438
55.17611 437
55.19622 477
55.21634 534
55.23645 477
55.25656 591
55.27668 580
55.29679 529
55.3169 486
55.33702 442
55.35713 413
55.37724 406
55.39736 405
55.41747 429
55.43759 403
55.4577 362
55.47781 343
55.49793 291
55.51804 281
55.53815 291
55.55827 262
55.57838 242
55.5985 269
55.61861 291
55.63872 243
55.65884 272
55.67895 275
55.69906 241
55.71918 240
55.73929 233
55.75941 228
55.77952 267
55.79963 235
55.81975 232
55.83986 254
55.85997 266
55.88009 255
55.9002 272
55.92031 235
55.94043 238
55.96054 224
55.98066 249
56.00077 267
56.02088 248
56.041 228
56.06111 227
56.08122 247
56.10134 214
56.12145 249
56.14157 246
56.16168 216
56.18179 229
56.20191 218
56.22202 233
56.24213 233
56.26225 234
56.28236 244
56.30248 233
56.32259 239
56.3427 230
56.36282 219
56.38293 225
56.40304 234
56.42316 249
56.44327 227
56.46338 242
56.4835 240
56.50361 205
56.52373 246
56.54384 233
56.56395 215
56.58407 232
56.60418 251
56.62429 254
56.64441 253
56.66452 232
56.68464 240
56.70475 242
56.72486 233
56.74498 230
56.76509 226
56.7852 237
56.80532 235
56.82543 245
56.84554 242
56.86566 229
56.88577 236
56.90589 220
56.926 233
56.94611 244
56.96623 236
56.98634 229
57.00645 244
57.02657 239
57.04668 238
57.0668 229
57.08691 239
57.10702 264
57.12714 271
57.14725 262
57.16736 262
57.18748 267
57.20759 245
57.22771 249
57.24782 257
57.26793 242
57.28805 247
57.30816 243
57.32827 243
57.34839 243
57.3685 239
57.38861 235
57.40873 245
57.42884 251
57.44896 212
57.46907 222
57.48918 241
57.5093 247
57.52941 242
57.54952 219
57.56964 229
57.58975 234
57.60987 208
57.62998 239
57.65009 223
57.67021 247
57.69032 218
57.71043 239
57.73055 234
57.75066 207
57.77078 213
57.79089 213
57.811 233
57.83112 222
57.85123 202
57.87134 254
57.89146 213
57.91157 246
57.93168 242
57.9518 214
57.97191 226
57.99203 219
58.01214 219
58.03225 225
58.05237 236
58.07248 234
58.09259 221
58.11271 219
58.13282 222
58.15294 230
58.17305 228
58.19316 203
58.21328 202
58.23339 209
58.2535 200
58.27362 230
58.29373 218
58.31385 217
58.33396 204
58.35407 220
58.37419 221
58.3943 210
58.41441 218
58.43453 232
58.45464 192
58.47475 219
58.49487 227
58.51498 251
58.5351 229
58.55521 240
58.57532 250
58.59544 214
58.61555 221
58.63566 208
58.65578 221
58.67589 209
58.69601 237
58.71612 220
58.73623 217
58.75635 223
58.77646 235
58.79657 226
58.81669 229
58.8368 221
58.85691 245
58.87703 215
58.89714 238
58.91726 242
58.93737 218
58.95748 213
58.9776 227
58.99771 242
59.01782 229
59.03794 239
59.05805 251
59.07817 230
59.09828 234
59.11839 187
59.13851 245
59.15862 235
59.17873 224
59.19885 220
59.21896 252
59.23908 254
59.25919 221
59.2793 251
59.29942 228
59.31953 245
59.33964 263
59.35976 253
59.37987 261
59.39998 251
59.4201 266
59.44021 267
59.46033 259
59.48044 312
59.50055 316
59.52067 294
59.54078 320
59.56089 301
59.58101 316
59.60112 378
59.62124 382
59.64135 434
59.66146 447
59.68158 475
59.70169 619
59.7218 617
59.74192 718
59.76203 798
59.78215 942
59.80226 1167
59.82237 1291
59.84249 1526
59.8626 1658
59.88271 1812
59.90283 1739
59.92294 1640
59.94305 1472
59.96317 1227
59.98328 1083
60.0034 987
60.02351 1018
60.04362 1015
60.06374 998
60.08385 895
60.10396 778
60.12408 627
60.14419 510
60.16431 407
60.18442 345
60.20453 312
60.22465 285
60.24476 246
60.26487 278
60.28499 287
60.3051 275
60.32522 266
60.34533 256
60.36544 260
60.38556 281
60.40567 239
60.42578 234
60.4459 273
60.46601 239
60.48612 233
60.50624 238
60.52635 254
60.54647 241
60.56658 248
60.58669 253
60.60681 221
60.62692 234
60.64703 248
60.66715 268
60.68726 219
60.70738 227
60.72749 241
60.7476 220
60.76772 231
60.78783 225
60.80794 266
60.82806 246
60.84817 257
60.86828 245
60.8884 238
60.90851 266
60.92863 228
60.94874 264
60.96885 237
60.98897 266
61.00908 251
61.02919 265
61.04931 255
61.06942 253
61.08954 262
61.10965 288
61.12976 274
61.14988 282
61.16999 304
61.1901 277
61.21022 294
61.23033 285
61.25045 264
61.27056 289
61.29067 261
61.31079 280
61.3309 274
61.35101 292
61.37113 282
61.39124 318
61.41135 335
61.43147 318
61.45158 287
61.4717 304
61.49181 303
61.51192 314
61.53204 297
61.55215 332
61.57226 311
61.59238 336
61.61249 315
61.63261 302
61.65272 296
61.67283 284
61.69295 282
61.71306 310
61.73317 294
61.75329 258
61.7734 293
61.79352 272
61.81363 274
61.83374 283
61.85386 287
61.87397 290
61.89408 306
61.9142 267
61.93431 262
61.95442 252
61.97454 264
61.99465 245
62.01477 276
62.03488 248
62.05499 237
62.07511 274
62.09522 235
62.11533 240
62.13545 254
62.15556 257
62.17568 253
62.19579 295
62.2159 225
62.23602 274
62.25613 240
62.27624 211
62.29636 251
62.31647 241
62.33659 267
62.3567 242
62.37681 246
62.39693 237
62.41704 248
62.43715 232
62.45727 232
62.47738 246
62.49749 243
62.51761 220
62.53772 235
62.55784 235
62.57795 257
62.59806 250
62.61818 232
62.63829 242
62.6584 224
62.67852 223
62.69863 213
62.71875 227
62.73886 228
62.75897 236
62.77909 233
62.7992 207
62.81931 216
62.83943 213
62.85954 236
62.87965 221
62.89977 216
62.91988 231
62.94 225
62.96011 224
62.98022 224
63.00034 239
63.02045 211
63.04056 185
63.06068 216
63.08079 202
63.10091 216
63.12102 207
63.14113 199
63.16125 236
63.18136 241
63.20147 233
63.22159 214
63.2417 230
63.26182 203
63.28193 209
63.30204 234
63.32216 218
63.34227 224
63.36238 226
63.3825 214
63.40261 219
63.42272 202
63.44284 220
63.46295 247
63.48307 219
63.50318 217
63.52329 226
63.54341 216
63.56352 220
63.58363 248
63.60375 228
63.62386 209
63.64398 230
63.66409 224
63.6842 245
63.70432 232
63.72443 262
63.74454 264
63.76466 256
63.78477 288
63.80489 272
63.825 319
63.84511 336
63.86523 370
63.88534 384
63.90545 427
63.92557 442
63.94568 487
63.96579 529
63.98591 498
64.00602 473
64.02614 443
64.04625 398
64.06636 348
64.08648 354
64.10659 339
64.1267 343
64.14682 340
64.16693 372
64.18705 355
64.20716 309
64.22727 271
64.24739 221
64.2675 256
64.28761 204
64.30773 217
64.32784 205
64.34796 225
64.36807 198
64.38818 218
64.4083 201
64.42841 198
64.44852 207
64.46864 220
64.48875 220
64.50886 184
64.52898 208
64.54909 219
64.56921 215
64.58932 218
64.60943 220
64.62955 214
64.64966 221
64.66977 208
64.68989 212
64.71 200
64.73012 226
64.75023 230
64.77034 208
64.79046 216
64.81057 196
64.83068 220
64.8508 208
64.87091 208
64.89102 193
64.91114 206
64.93125 215
64.95137 200
64.97148 218
64.99159 236
65.01171 222
65.03182 206
65.05193 212
65.07205 202
65.09216 212
65.11228 207
65.13239 242
65.1525 229
65.17262 200
65.19273 201
65.21284 213
65.23296 202
65.25307 211
65.27319 227
65.2933 205
65.31341 212
65.33353 187
65.35364 215
65.37375 203
65.39387 201
65.41398 242
65.43409 250
65.45421 245
65.47432 204
65.49444 222
65.51455 215
65.53466 233
65.55478 252
65.57489 240
65.595 228
65.61512 247
65.63523 257
65.65535 289
65.67546 273
65.69557 271
65.71569 270
65.7358 300
65.75591 261
65.77603 279
65.79614 259
65.81626 233
65.83637 225
65.85648 259
65.8766 282
65.89671 257
65.91682 226
65.93694 254
65.95705 215
65.97716 233
65.99728 235
66.01739 211
66.03751 219
66.05762 224
66.07773 220
66.09785 201
66.11796 212
66.13807 210
66.15819 234
66.1783 234
66.19842 237
66.21853 204
66.23864 246
66.25876 238
66.27887 203
66.29898 208
66.3191 219
66.33921 187
66.35933 191
66.37944 199
66.39955 218
66.41967 221
66.43978 195
66.45989 180
66.48001 222
66.50012 209
66.52023 208
66.54035 208
66.56046 230
66.58058 236
66.60069 205
66.6208 205
66.64092 215
66.66103 237
66.68114 227
66.70126 207
66.72137 213
66.74149 219
66.7616 209
66.78171 236
66.80183 226
66.82194 213
66.84205 211
66.86217 218
66.88228 203
66.90239 218
66.92251 219
66.94262 219
66.96274 212
66.98285 236
67.00296 206
67.02308 245
67.04319 236
67.0633 222
67.08342 210
67.10353 203
67.12365 217
67.14376 226
67.16387 287
67.18399 239
67.2041 254
67.22421 250
67.24433 260
67.26444 270
67.28456 263
67.30467 279
67.32478 291
67.3449 292
67.36501 304
67.38512 336
67.40524 351
67.42535 350
67.44546 370
67.46558 375
67.48569 434
67.50581 496
67.52592 569
67.54603 565
67.56615 695
67.58626 758
67.60637 852
67.62649 1015
67.6466 1118
67.66672 1161
67.68683 1156
67.70694 1118
67.72706 1003
67.74717 882
67.76728 783
67.7874 770
67.80751 718
67.82763 747
67.84774 877
67.86785 911
67.88797 906
67.90808 882
67.92819 934
67.94831 878
67.96842 917
67.98853 1091
68.00865 1151
68.02876 1291
68.04888 1357
68.06899 1499
68.0891 1539
68.10922 1570
68.12933 1494
68.14944 1286
68.16956 1258
68.18967 1257
68.20979 1306
68.2299 1432
68.25001 1417
68.27013 1353
68.29024 1315
68.31035 1146
68.33047 879
68.35058 765
68.3707 631
68.39081 619
68.41092 639
68.43104 589
68.45115 589
68.47126 504
68.49138 477
68.51149 394
68.5316 326
68.55172 335
68.57183 310
68.59195 284
68.61206 280
68.63217 273
68.65229 238
68.6724 255
68.69251 275
68.71263 260
68.73274 238
68.75286 241
68.77297 228
68.79308 204
68.8132 246
68.83331 226
68.85342 250
68.87354 200
68.89365 232
68.91376 219
68.93388 235
68.95399 219
68.97411 252
68.99422 232
69.01433 201
69.03445 234
69.05456 203
69.07467 219
69.09479 207
69.1149 234
69.13502 218
69.15513 232
69.17524 245
69.19536 227
69.21547 217
69.23558 225
69.2557 213
69.27581 200
69.29593 209
69.31604 197
69.33615 223
69.35627 204
69.37638 215
69.39649 210
69.41661 203
69.43672 214
69.45683 209
69.47695 225
69.49706 214
69.51718 232
69.53729 240
69.5574 212
69.57752 196
69.59763 218
69.61774 198
69.63786 199
69.65797 188
69.67809 188
69.6982 207
69.71831 227
69.73843 197
69.75854 207
69.77865 203
69.79877 203
69.81888 221
69.839 231
69.85911 204
69.87922 200
69.89934 208
69.91945 204
69.93956 211
69.95968 209
69.97979 210
69.9999 199
70.02002 204
70.04013 228
70.06025 204
70.08036 187
70.10047 218
70.12059 217
70.1407 196
70.16081 214
70.18093 200
70.20104 225
70.22116 217
70.24127 212
70.26138 206
70.2815 200
70.30161 184
70.32172 200
70.34184 208
70.36195 190
70.38207 208
70.40218 220
70.42229 229
70.44241 205
70.46252 195
70.48263 218
70.50275 194
70.52286 193
70.54297 227
70.56309 207
70.5832 176
70.60332 210
70.62343 205
70.64354 188
70.66366 177
70.68377 207
70.70388 204
70.724 201
70.74411 223
70.76423 205
70.78434 206
70.80445 201
70.82457 187
70.84468 216
70.86479 200
70.88491 193
70.90502 205
70.92513 198
70.94525 216
70.96536 203
70.98548 191
71.00559 209
71.0257 211
71.04582 198
71.06593 210
71.08604 196
71.10616 175
71.12627 205
71.14639 186
71.1665 209
71.18661 222
71.20673 222
71.22684 203
71.24695 218
71.26707 197
71.28718 181
71.3073 239
71.32741 194
71.34752 198
71.36764 198
71.38775 194
71.40786 193
71.42798 211
71.44809 213
71.4682 212
71.48832 213
71.50843 209
71.52855 229
71.54866 210
71.56877 203
71.58889 175
71.609 201
71.62911 203
71.64923 198
71.66934 179
71.68946 215
71.70957 214
71.72968 211
71.7498 232
71.76991 232
71.79002 198
71.81014 179
71.83025 220
71.85037 205
71.87048 213
71.89059 214
71.91071 223
71.93082 179
71.95093 207
71.97105 208
71.99116 200
72.01127 219
72.03139 228
72.0515 226
72.07162 248
72.09173 242
72.11184 231
72.13196 210
72.15207 230
72.17218 212
72.1923 220
72.21241 222
72.23253 218
72.25264 212
72.27275 218
72.29287 205
72.31298 226
72.33309 195
72.35321 227
72.37332 234
72.39344 230
72.41355 233
72.43366 213
72.45378 234
72.47389 240
72.494 233
72.51412 230
72.53423 213
72.55434 223
72.57446 249
72.59457 237
72.61469 222
72.6348 243
72.65491 218
72.67503 220
72.69514 219
72.71525 237
72.73537 203
72.75548 238
72.7756 252
72.79571 212
72.81582 238
72.83594 255
72.85605 237
72.87616 231
72.89628 226
72.91639 216
72.9365 215
72.95662 225
72.97673 240
72.99685 232
73.01696 269
73.03707 228
73.05719 257
73.0773 256
73.09741 264
73.11753 257
73.13764 257
73.15776 275
73.17787 295
73.19798 308
73.2181 329
73.23821 318
73.25832 344
73.27844 359
73.29855 395
73.31867 428
73.33878 461
73.35889 505
73.37901 543
73.39912 532
73.41923 550
73.43935 486
73.45946 487
73.47957 444
73.49969 362
73.5198 390
73.53992 329
73.56003 375
73.58014 332
73.60026 378
73.62037 406
73.64048 354
73.6606 381
73.68071 278
73.70083 309
73.72094 257
73.74105 253
73.76117 250
73.78128 231
73.80139 264
73.82151 210
73.84162 232
73.86174 229
73.88185 210
73.90196 224
73.92208 234
73.94219 204
73.9623 197
73.98242 221
74.00253 211
74.02264 175
74.04276 204
74.06287 235
74.08299 205
74.1031 207
74.12321 225
74.14333 208
74.16344 201
74.18355 226
74.20367 215
74.22378 221
74.2439 211
74.26401 198
74.28412 214
74.30424 183
74.32435 238
74.34446 202
74.36458 208
74.38469 222
74.40481 208
74.42492 213
74.44503 230
74.46515 207
74.48526 202
74.50537 225
74.52549 215
74.5456 215
74.56571 205
74.58583 194
74.60594 198
74.62606 193
74.64617 234
74.66628 214
74.6864 193
74.70651 216
74.72662 208
74.74674 210
74.76685 225
74.78697 210
74.80708 207
74.82719 205
74.84731 240
74.86742 232
74.88753 213
74.90765 203
74.92776 198
74.94787 207
74.96799 204
74.9881 200
75.00822 238
