3.00117 21130.4988229193
3.02128 20289.5095197101
3.0414 19985
3.06151 19394.6793755032
3.08162 18843.5388850046
3.10174 18330.6246730029
3.12185 17638.9508271607
3.14197 17425.7361872961
3.16208 16684.5021672244
3.18219 16502.1286484374
3.20231 15901.5986094326
3.22242 15240.7049103773
3.24253 15092.3541274537
3.26265 14326.2235934881
3.28276 13968.1587490475
3.30288 13781.5982636165
3.32299 13059.1195384923
3.3431 13105
3.36322 12126.3166147009
3.38333 12068.160005159
3.40344 11820.6893037557
3.42356 11091.7883359483
3.44367 10953.5299115698
3.46379 10323.2414430669
3.4839 10177
3.50401 9886.65379501187
3.52413 9141.56815236364
3.54424 9217.70157410424
3.56435 8688.16957965406
3.58447 8505.15575257741
3.60458 8238.45734897054
3.62469 7755.15234097812
3.64481 7557.82274458203
3.66492 7116.81780877209
3.68504 7164.82261159624
3.70515 6777.81225183836
3.72526 6442.32991397512
3.74538 6299.29290613546
3.76549 5881.16864207772
3.7856 5722
3.80572 5530.61441094103
3.82583 5093.62171319607
3.84595 5007.58634752465
3.86606 4720.39940484529
3.88617 4655.12991801115
3.90629 4413.18486389991
3.9264 4121
3.94651 4197.91991653737
3.96663 3796.55156072819
3.98674 3759.09540521227
4.00686 3663.5791214533
4.02697 3311.33789820768
4.04708 3237.08221807687
4.0672 3082
4.08731 3021.97876362268
4.10742 2893.73768116621
4.12754 2635.87904812367
4.14765 2738.89579412753
4.16776 2595.45603979322
4.18788 2456.97104683761
4.20799 2504.08010653753
4.22811 2170.87948040497
4.24822 2116.96992039008
4.26833 2045.98211502332
4.28845 2096.03891367099
4.30856 2014.28999467995
4.32867 1859.21316151544
4.34879 1780.99114810488
4.3689 1809
4.38902 1695.03890427073
4.40913 1810.89394513389
4.42924 1557.66663307168
4.44936 1579.90358822174
4.46947 1540.11866411741
4.48958 1525.89292235231
4.5097 1648
4.52981 1478.93133750374
4.54992 1442.96519466334
4.57004 1375.93798676905
4.59015 1385.03503695532
4.61027 1308.17309837104
4.63038 1193.09725257547
4.65049 1144.99115434938
4.67061 1197.01910092234
4.69072 1204.00548681764
4.71083 1193.89623665848
4.73095 1105.94616441142
4.75106 1139.01698484864
4.77118 1086.00404710474
4.79129 1154.96390844343
4.8114 1134
4.83152 977.965393093836
4.85163 1046.02679780528
4.87174 974.907027129767
4.89186 1018.82610664984
4.91197 1054.09843816905
4.93209 913.070001374817
4.9522 856
4.97231 911.99912660395
4.99243 852.944870322759
5.01254 876.083571519745
5.03265 871.190655206906
5.05277 775.056886434792
5.07288 800.981482737335
5.09299 784.004596572805
5.11311 785.986711056417
5.13322 732.963162429336
5.15334 726.99591880338
5.17345 713.970477384553
5.19356 696.08577532512
5.21368 653.995406148597
5.23379 682.008749724607
5.2539 627
5.27402 675.056846369935
5.29413 684.940827867971
5.31425 625.886093547903
5.33436 607.021374605956
5.35447 602.969972575358
5.37459 623.010904562722
5.3947 576
5.41481 590.989688944233
5.43493 517.883741814827
5.45504 499.112803627335
5.47516 577.939191717225
5.49527 541.079997598689
5.51538 509.02301289936
5.5355 500
5.55561 526.992432974869
5.57572 490.007660982804
5.59584 516.9094222266
5.61595 426.042638025112
5.63606 498.879842248232
5.65618 485.046711860786
5.67629 455.002198127035
5.69641 455.988813920076
5.71652 427.010266392548
5.73663 453.963203995168
5.75675 390.950183596205
5.77686 432.917026526802
5.79697 432.035637086739
5.81709 406.013454677143
5.8372 384
5.85732 366.957980142925
5.87743 332.037089203999
5.89754 402.096077989686
5.91766 396.051745101599
5.93777 384.993171240781
5.95788 391.007359549425
5.978 369
5.99811 359.001511374301
6.01823 363.993650775563
6.03834 358.021758158299
6.05845 388.912529539029
6.07857 405.016220772412
6.09868 365.063122832655
6.11879 316.999649912064
6.13891 354.013657098077
6.15902 352.997380540453
6.17913 350.961313321335
6.19925 314.980632297408
6.21936 348.898844411928
6.23948 371.027645642555
6.25959 327.002708543101
6.2797 355
6.29982 319.978785706714
6.31993 334.031429533188
6.34004 335.970142203412
6.36016 320.005841255705
6.38027 324.013549347999
6.40039 304.004291075527
6.4205 317
6.44061 327.995199239072
6.46073 300.952222650183
6.48084 279.987579019776
6.50095 292.918410843009
6.52107 321.003178168035
6.54118 293.023914824072
6.56129 294.989945118959
6.58141 313.001554785486
6.60152 296.973360116674
6.62164 285.039883824646
6.64175 313.994572305737
6.66186 286.016481561852
6.68198 309.976727077872
6.70209 314.999142856948
6.7222 316
6.74232 300.002383434051
6.76243 308.972775396545
6.78255 271.966183234879
6.80266 292.951057786512
6.82277 300.996799188613
6.84289 287.025431574674
6.863 228
6.88311 265.025571591578
6.90323 308.076055957679
6.92334 341.951653605267
6.94346 277.091997994883
6.96357 275.982422265164
6.98368 273.012847235334
7.0038 258
7.02391 263.019536443522
7.04402 301.989062755449
7.06414 256.973175044018
7.08425 285.95812518882
7.10436 269.035477538645
7.12448 267.002584069387
7.14459 254.008349378624
7.16471 254.015303231335
7.18482 284.98680963369
7.20493 258.050952212653
7.22505 327.00749428648
7.24516 260.079722883138
7.26527 275.993188182127
7.28539 262.984587851041
7.3055 307
7.32562 218.9795367442
7.34573 291.105124062191
7.36584 287.891323121368
7.38596 251.938142407592
7.40607 312.991611804204
7.42618 268.005056644101
7.4463 309
7.46641 270.000705696513
7.48653 318.028380565128
7.50664 288.958383270023
7.52675 299.973662468502
7.54687 290.027340543916
7.56698 277.006233911643
7.58709 281.990382324058
7.60721 305.006410094985
7.62732 296.974189328548
7.64743 264.956448810554
7.66755 254.034302011674
7.68766 280.95653909976
7.70778 285.008351579738
7.72789 277.00009917343
7.748 281
7.76812 274.002532599786
7.78823 281.993580779182
7.80834 254.91539520459
7.82846 245.868279558654
7.84857 336.964531899756
7.86869 275.036594752793
7.8888 255
7.90891 286.004085204734
7.92903 267.972413972114
7.94914 269.029572271177
7.96925 287.95315286224
7.98937 294.022970951124
8.00948 271.008077445742
8.0296 276
8.04971 262.003021276491
8.06982 289.020909011682
8.08994 302.059400403778
8.11005 330.964370681431
8.13016 284.052429696351
8.15028 295.985068501924
8.17039 291.006317742638
8.1905 283
8.21062 284.004431142529
8.23073 291.014014101641
8.25085 290.94757173034
8.27096 264.011814616334
8.29107 278.986491593561
8.31119 270.006054955326
8.3313 269
8.35141 283.006235447805
8.37153 293.018217769845
8.39164 300.985329856212
8.41176 292.965710748419
8.43187 327.970988263825
8.45198 322.007774043361
8.4721 311
8.49221 260.990859420014
8.51232 284.031655405934
8.53244 290.962201833371
8.55255 264.038850692506
8.57266 270.95691874718
8.59278 296.972243246936
8.61289 306.014036905284
8.63301 266.997567948367
8.65312 302.035735997799
8.67323 302.953842834583
8.69335 273.001807686447
8.71346 303.93855866252
8.73357 304.04686109388
8.75369 272.000530439094
8.7738 297
8.79392 290.99972739404
8.81403 309.033767675781
8.83414 303.897762194381
8.85426 248.993538033465
8.87437 303.94202372243
8.89448 295.020282828667
8.9146 293
8.93471 291.986299989159
8.95483 257.993197444134
8.97494 292.09175524457
8.99505 309.066973700076
9.01517 258.060404854562
9.03528 254.973469833279
9.05539 280.998662622636
9.07551 258.987394645826
9.09562 258.029606410947
9.11573 296.025972910144
9.13585 281.931321500348
9.15596 263.011486424141
9.17608 265.997068910733
9.19619 259.008957552087
9.2163 247
9.23642 279.029415691672
9.25653 286.984361009686
9.27664 276.006550098268
9.29676 285.017266565016
9.31687 265.997934457967
9.33699 282.003011836225
9.3571 262
9.37721 297.003759571637
9.39733 276.001271242683
9.41744 296.978629325999
9.43755 264.977160579416
9.45767 315.953832549495
9.47778 294.045456292053
9.4979 263
9.51801 272.00400922383
9.53812 266.986889725421
9.55824 262.029222996572
9.57835 279.983960455894
9.59846 258.99581590788
9.61858 286.981010954056
9.63869 286.997213942967
9.6588 296
9.67892 267.995470205729
9.69903 290.022223103417
9.71915 283.982233056048
9.73926 279.038117378413
9.75937 256.995685259086
9.77949 276.999321542973
9.7996 269
9.81971 309.993466458862
9.83983 249.951875445261
9.85994 279.0987367577
9.88006 301.026600842882
9.90017 269.039449662103
9.92028 264.989062827268
9.9404 277
9.96051 271.992258315454
9.98062 260.004840421824
10.00074 275.010264953351
10.02085 268.996346536216
10.04097 277.007587021107
10.06108 261.005012577136
10.08119 275.988977704316
10.10131 292.004673399354
10.12142 292.99129236876
10.14153 282.997896969054
10.16165 283.968688407333
10.18176 263.016151451665
10.20187 271.986247235563
10.22199 275.994884660437
10.2421 302
10.26222 318.960226369734
10.28233 250.950784707775
10.30244 263.008443250328
10.32256 248.980007865418
10.34267 281.981254696501
10.36278 269.997102499956
10.3829 294
10.40301 276.985746330939
10.42313 262.010423323052
10.44324 274.989680116606
10.46335 252.039944913177
10.48347 261.954482939511
10.50358 288.995080021581
10.52369 282.993611746555
10.54381 310.003288693028
10.56392 276.942861748856
10.58403 244.037549805303
10.60415 296.03500882074
10.62426 251.119824042029
10.64438 229.971101914381
10.66449 285.975739819904
10.6846 298
10.70472 272.99262543437
10.72483 278.989281395023
10.74494 253.958192153224
10.76506 256.949954191752
10.78517 280.997868191918
10.80529 266.001819909429
10.8254 277
10.84551 265.999446481472
10.86563 282.027318545365
10.88574 283.963766237866
10.90585 267.96881009569
10.92597 294.002871429311
10.94608 268.004608347217
10.9662 282
10.98631 242.996248611094
11.00642 282.045784246088
11.02654 293.952890176956
11.04665 263.020237867154
11.06676 278.977300178469
11.08688 276.995406483155
11.10699 281.0118830075
11.1271 253
11.14722 307.025668394
11.16733 286.969419007175
11.18745 283.968271378984
11.20756 261.012639919737
11.22767 276.974161458848
11.24779 282.998441305774
11.2679 286
11.28801 287.01004132728
11.30813 309.991151555934
11.32824 278.958761272461
11.34836 288.948828524847
11.36847 305.006189428743
11.38858 291.002961492424
11.4087 313
11.42881 345.002506501626
11.44892 325.978910440814
11.46904 306.931805786444
11.48915 273.001173760836
11.50927 298.981573046003
11.52938 290.994828880079
11.54949 315.991155577557
11.56961 308.988911740522
11.58972 291.999408071851
11.60983 302.005580484986
11.62995 295.993956830362
11.65006 297.017793072205
11.67017 296.938537339055
11.69029 342.010499484784
11.7104 276
11.73052 330.063214250003
11.75063 356.007850041793
11.77074 352.968796734119
11.79086 334.016643872292
11.81097 344.962244934472
11.83108 370.981997532858
11.8512 368
11.87131 334.994230398876
11.89143 352.040421971052
11.91154 363.980462928754
11.93165 353.954978962972
11.95177 392.963714558191
11.97188 383.028041026636
11.99199 367.993295815576
12.01211 398.009540098468
12.03222 404.017672648521
12.05234 426.993617725001
12.07245 400.964581535707
12.09256 418.928357982658
12.11268 451.977024735573
12.13279 463.996667526812
12.1529 470
12.17302 487.045587569809
12.19313 531.99797958078
12.21324 496.978626751935
12.23336 544.835450016569
12.25347 605.990236534493
12.27359 573.012129884382
12.2937 586
12.31381 593.981750343025
12.33393 554.029518922948
12.35404 624.09568634607
12.37415 607.13167795878
12.39427 554.06905053502
12.41438 515.037878948929
12.4345 477
12.45461 447.983539386295
12.47472 429.020743175187
12.49484 455.947720650612
12.51495 379.161875306878
12.53506 360.995752541478
12.55518 358.00655901967
12.57529 340.01926903847
12.5954 311
12.61552 366.034192404832
12.63563 344.915890246243
12.65575 299.98269917889
12.67586 324.951909664012
12.69597 317.057872568288
12.71609 278.004902172329
12.7362 291
12.75631 275.000191868038
12.77643 294.011009764238
12.79654 282.987939125844
12.81666 286.014127379598
12.83677 271.002234349347
12.85688 278.010964160382
12.877 252
12.89711 262.004108727462
12.91722 256.993261801491
12.93734 253.989729929219
12.95745 249.984051989135
12.97757 264.981369235463
12.99768 271.99036804732
13.01779 279.004582631977
13.03791 259.995635670961
13.05802 261.993380396061
13.07813 244.985557970861
13.09825 258.083392091024
13.11836 286.003185814963
13.13847 256.049797571942
13.15859 240.001477116689
13.1787 245
13.19882 250.987234170948
13.21893 224.968712781442
13.23904 223.025487961382
13.25916 237.982877049784
13.27927 246.963326255736
13.29938 277.987066795861
13.3195 267
13.33961 253.990445809528
13.35973 227.964538652034
13.37984 221.030557215403
13.39995 249.930234550171
13.42007 264.993768838438
13.44018 260.014572823933
13.46029 246.999776794376
13.48041 258.003383847356
13.50052 250.984369595998
13.52064 241.010064280015
13.54075 250.989018613493
13.56086 242.963206094805
13.58098 274.000595742519
13.60109 240.012403298069
13.6212 236
13.64132 219.016715440646
13.66143 262.036862311789
13.68154 246.936553719382
13.70166 224.021759779895
13.72177 225.980724302379
13.74189 241.993434488464
13.762 244
13.78211 224.991344735187
13.80223 223.027379566945
13.82234 240.984225518401
13.84245 218.003866923323
13.86257 241.974393416614
13.88268 239.003978809822
13.9028 235
13.92291 203.993882903935
13.94302 212.002405320583
13.96314 205.011129404058
13.98325 220.002082665628
14.00336 205.998566425869
14.02348 220.002225202074
14.04359 204.997365373329
14.06371 240.020390282511
14.08382 260.99868687843
14.10393 242.959979501409
14.12405 228.023973408084
14.14416 243.023201345262
14.16427 215.003075530159
14.18439 240.99321583567
14.2045 224
14.22461 214.003643612824
14.24473 224.998781858992
14.26484 212.985730070689
14.28496 215.000958454384
14.30507 209.004278810326
14.32518 212.994119795852
14.3453 222
14.36541 240.001087732578
14.38552 225.985058118542
14.40564 218.989875360594
14.42575 217.971809611484
14.44587 232.001923067088
14.46598 211.026904261974
14.48609 200.991818313341
14.50621 230.009035846154
14.52632 229.997845261135
14.54643 227.976862007788
14.56655 205.980381645089
14.58666 220.948340278616
14.60677 232.026894774037
14.62689 205.000821512862
14.647 224
14.66712 201.990435557804
14.68723 220.038880045451
14.70734 230.984771952991
14.72746 222.97311722615
14.74757 238.037781350642
14.76768 185.025802106182
14.7878 200
14.80791 194.99826905555
14.82803 201.003136555535
14.84814 198.007999493211
14.86825 208.985745148245
14.88837 208.991055467496
14.90848 222.987813814047
14.92859 223.006445350667
14.94871 217.010764272167
14.96882 252.013390222071
14.98894 236.96893314965
15.00905 223.913015195662
15.02916 194.941257788755
15.04928 249.00793041217
15.06939 182.018073054973
15.0895 216
15.10962 240.996514047705
15.12973 223.975730893915
15.14984 216.993238056897
15.16996 214.994266398851
15.19007 216.016556023819
15.21019 202.997220711349
15.2303 226
15.25041 226.995812481779
15.27053 212.964091288182
15.29064 188.981339629553
15.31075 196.966348424625
15.33087 207.981749899763
15.35098 220.990492325995
15.3711 233
15.39121 246.985132040027
15.41132 193.97800460452
15.43144 213.032862822235
15.45155 208.004964066724
15.47166 215.999272899854
15.49178 205.008308192177
15.51189 204.999989176464
15.53201 207.007101430545
15.55212 223.999895556928
15.57223 200.952265545076
15.59235 189.057588630262
15.61246 223.983593390231
15.63257 197.048308541299
15.65269 195.98150078941
15.6728 236
15.69291 203.992437458557
15.71303 221.022947044844
15.73314 214.973208504601
15.75326 208.994998484348
15.77337 216.985839994087
15.79348 216.019342964761
15.8136 196
15.83371 217.000455906514
15.85382 193.984957790585
15.87394 204.04114564079
15.89405 211.041239753709
15.91417 189.994609025626
15.93428 212.992097229544
15.95439 201.001136228931
15.97451 216.005050016445
15.99462 218.012574863466
16.01473 238.007981209468
16.03485 227.989678012995
16.05496 232.01327629388
16.07508 213.014021864337
16.09519 200.016402880026
16.1153 163
16.13542 193.027690543144
16.15553 207.036646428919
16.17564 233.994039280549
16.19576 210.006908569445
16.21587 223.023818556985
16.23598 183.01338300427
16.2561 203
16.27621 196.007041630882
16.29633 220.981810979699
16.31644 178.966715548099
16.33655 196.982405174459
16.35667 180.012621660966
16.37678 195.97646086986
16.39689 208.999596585149
16.41701 199.992604552573
16.43712 187.995685494119
16.45724 193.022415835371
16.47735 194.950828392692
16.49746 176.960671378368
16.51758 218.987302890593
16.53769 198.00381098494
16.5578 210
16.57792 174.975439734809
16.59803 185.049394078928
16.61814 215.024591739942
16.63826 205.044673131966
16.65837 188.005229684442
16.67849 195.995350981348
16.6986 193
16.71871 179.00758324412
16.73883 215.035760412386
16.75894 212.981496772659
16.77905 204.048789482513
16.79917 181.011991828744
16.81928 187.996390086505
16.8394 188
16.85951 205.996083713791
16.87962 190.022789130208
16.89974 231.988749381403
16.91985 186.03016765797
16.93996 217.975617573109
16.96008 196.006515574126
16.98019 220.988624108171
17.00031 213.984618651383
17.02042 190.007799904584
17.04053 217.012976569265
17.06065 198.960659702946
17.08076 202.974961873039
17.10087 213.984309444908
17.12099 221.998819067959
17.1411 215
17.16121 196.995324957208
17.18133 201.018835967905
17.20144 208.989861716292
17.22156 191.04386516934
17.24167 177.999331679757
17.26178 196.962074150259
17.2819 231
17.30201 210.990018777449
17.32212 203.99333637249
17.34224 187.955835549016
17.36235 181.92686596174
17.38247 225.972383113461
17.40258 215.004178992634
17.42269 226.999382323896
17.44281 199.977244456727
17.46292 169.007737076723
17.48303 201.026570199755
17.50315 192.98217218343
17.52326 202.966604329116
17.54338 213.000015273832
17.56349 208.999337011031
17.5836 223
17.60372 229.96309871927
17.62383 183.005312735916
17.64394 229.040302608317
17.66406 196.090045861894
17.68417 180.974762215645
17.70428 207.986676456514
17.7244 206
17.74451 213.993089911268
17.76463 188.999889396785
17.78474 221.070597120998
17.80485 233.024722357985
17.82497 220.993881281834
17.84508 234.003554658078
17.86519 206.017263225291
17.88531 194.011150076089
17.90542 220.990110222088
17.92554 178.944629622494
17.94565 187.04876513582
17.96576 208.922237050139
17.98588 237.02613309177
18.00599 181.008830480432
18.0261 214
18.04622 216.010102008635
18.06633 227.960140303372
18.08645 178.963850442412
18.10656 208.944639369056
18.12667 210.005736567882
18.14679 210.004695841615
18.1669 200
18.18701 221.999477927896
18.20713 206.015774072103
18.22724 222.924220385508
18.24735 157.012156279082
18.26747 219.927196746031
18.28758 219.004046204227
18.3077 225
18.32781 185.987670144574
18.34792 189.008713740139
18.36804 194.027375171578
18.38815 212.979974849464
18.40826 206.020060977556
18.42838 210.973888923557
18.44849 232.008446566663
18.46861 187.986473795421
18.48872 200.029731851331
18.50883 211.969570566602
18.52895 189.046269787365
18.54906 239.940835146373
18.56917 222.057992096
18.58929 197.001598788457
18.6094 211
18.62951 217.995833424287
18.64963 212.026698142506
18.66974 230.952062286323
18.68986 182.022278604746
18.70997 210.986201092841
18.73008 190.001569883793
18.7502 221
18.77031 222.996454509739
18.79042 225.013555516366
18.81054 240.007253426406
18.83065 226.062290634391
18.85077 210.985607466471
18.87088 233.989767057119
18.89099 229.996866229218
18.91111 237.98828726379
18.93122 199.997821805824
18.95133 226.999228723305
18.97145 193.96521097265
18.99156 213.965251324076
19.01168 212.998894550652
19.03179 220.001942356906
19.0519 209
19.07202 221.999729869804
19.09213 205.984239518064
19.11224 211.019141782614
19.13236 214.007811033453
19.15247 213.977602018214
19.17258 235.990260748319
19.1927 221
19.21281 204.013217993663
19.23293 252.029589889463
19.25304 228.937822476038
19.27315 226.925229478126
19.29327 264.971655289339
19.31338 258.012783889132
19.33349 242.018193462633
19.35361 196.988164163974
19.37372 217.056595661577
19.39384 271.036385547409
19.41395 256.974056446447
19.43406 263.995140862405
19.45418 253.011221606486
19.47429 249.999666096068
19.4944 257
19.51452 280.006931708504
19.53463 265.967797266406
19.55475 268.10817003746
19.57486 316.005103269447
19.59497 279.996484961705
19.61509 327.985703018781
19.6352 320
19.65531 348.0101913495
19.67543 351.012422715754
19.69554 385.114252210615
19.71565 434.966287506634
19.73577 432.952425427179
19.75588 494.961504847427
19.776 487
19.79611 494.027960103618
19.81622 569.045474066192
19.83634 579.031471041348
19.85645 622.869456412108
19.87656 661.954621732089
19.89668 647.071080805263
19.91679 576.995919187811
19.93691 638.005630496243
19.95702 579.955466823654
19.97713 591.040262123356
19.99725 586.894760188194
20.01736 543.003040377276
20.03747 567.016648599369
20.05759 524.005224274761
20.0777 562
20.09782 573.005009682495
20.11793 561.912979444395
20.13804 503.035890323979
20.15816 568.986358522349
20.17827 500.081777872591
20.19838 516.944268049675
20.2185 552
20.23861 516.998883241234
20.25872 553.025398297348
20.27884 560.057862266206
20.29895 596.032280364633
20.31907 531.095732931355
20.33918 507.994562313729
20.35929 532.976057226443
20.37941 580.008924293088
20.39952 559.961191143699
20.41963 536.009123284356
20.43975 564.066569606362
20.45986 568.034289892575
20.47998 558.973097850754
20.50009 603.991589298991
20.5202 590
20.54032 617.028263448572
20.56043 636.038638607818
20.58054 656.976189528525
20.60066 640.926676835641
20.62077 723.902243210609
20.64088 758.944912920909
20.661 862
20.68111 1004.08558542436
20.70123 1241.48096863078
20.72134 1668.05239672136
20.74145 2293.22050829462
20.76157 3083.7251925629
20.78168 4009.98953178449
20.80179 5064.49087650151
20.82191 5969.3806663459
20.84202 6408.94744595522
20.86214 5869.30676497835
20.88225 4910.42872211857
20.90236 3794.45784812704
20.92248 2573.02728540996
20.94259 1793.3151166558
20.9627 1244
20.98282 951.785364236549
21.00293 787.870997419012
21.02305 763.995101834902
21.04316 719.222449939963
21.06327 593.09436058907
21.08339 608.983067282997
21.1035 602
21.12361 549.986655552376
21.14373 535.933331042982
21.16384 487.03253671306
21.18395 554.910855961544
21.20407 518.099826045898
21.22418 463.043882611023
21.2443 435
21.26441 464.034917504269
21.28452 519.98008769022
21.30464 452.953444050228
21.32475 481.008165706183
21.34486 435.034348726354
21.36498 457.000107722854
21.38509 423.009058084163
21.40521 452.02880262223
21.42532 482.966687435005
21.44543 408.920515599378
21.46555 417.121729193225
21.48566 454.015243719442
21.50577 417.027856644183
21.52589 430.993486729369
21.546 420
21.56612 396.983948700546
21.58623 384.976551475382
21.60634 380.055773989408
21.62646 417.995328030922
21.64657 385.033902907975
21.66668 397.971796942959
21.6868 407
21.70691 376.002288370961
21.72702 406.003385574677
21.74714 376.969422898804
21.76725 390.967596599148
21.78737 389.001046147915
21.80748 386.025082576204
21.82759 359.992719607404
21.84771 400.004233015489
21.86782 379.008163095078
21.88793 410.987800425827
21.90805 356.895851108057
21.92816 375.859758009596
21.94828 428.026978760667
21.96839 345.027164246853
21.9885 354
22.00862 353.987886659314
22.02873 356.046759498444
22.04884 388.983992043787
22.06896 346.057355938795
22.08907 355.963239505086
22.10919 369.998884967034
22.1293 362
22.14941 356.008956617277
22.16953 383.009769556183
22.18964 367.983295354853
22.20975 370.029540261307
22.22987 341.037185436831
22.24998 340.975669338263
22.27009 366.99751584429
22.29021 358.003313593614
22.31032 369.97751566985
22.33044 323.963401214079
22.35055 355.128580796821
22.37066 379.046717640465
22.39078 339.00601854582
22.41089 367.992786597659
22.431 350
22.45112 349.004119663111
22.47123 337.949652745355
22.49135 309.026834991601
22.51146 337.024508911753
22.53157 299.983054722183
22.55169 357.985361828509
22.5718 340
22.59191 344.983911170612
22.61203 294.000563666917
22.63214 336.008505428525
22.65225 291.065141563096
22.67237 317.930593792315
22.69248 339.015825751355
22.7126 305
22.73271 313.012254372345
22.75282 324.983190324679
22.77294 295.983826622116
22.79305 316.937174133369
22.81316 332.96423346344
22.83328 351.992216683234
22.85339 341.012532327127
22.87351 317.995518834225
22.89362 321.001252935192
22.91373 317.001409205659
22.93385 324.009972898703
22.95396 322.003979745689
22.97407 326.980658389414
22.99419 331.011382478753
23.0143 303
23.03442 338.017223359682
23.05453 313.935644173347
23.07464 297.064205080904
23.09476 353.933174903334
23.11487 335.079180020542
23.13498 302.974364799981
23.1551 364
23.17521 347.981378658817
23.19532 323.993145888557
23.21544 331.028000579547
23.23555 342.981424792635
23.25567 348.985219369751
23.27578 358.002086124144
23.29589 330.029068866448
23.31601 283.005449260041
23.33612 336.032596448982
23.35623 323.971311172814
23.37635 316.968075400492
23.39646 299.008583952814
23.41658 312.981881293486
23.43669 318.005740755629
23.4568 299
23.47692 310.043388728582
23.49703 349.988963397352
23.51714 311.983379243851
23.53726 331.032149499064
23.55737 275.056649020428
23.57749 295.968804506801
23.5976 343
23.61771 299.992739525759
23.63783 329.038057444243
23.65794 325.980843416296
23.67805 324.997505469704
23.69817 322.009422137868
23.71828 321.984824110312
23.73839 342.995906047107
23.75851 336.998448225526
23.77862 336.986340631249
23.79874 315.990041932929
23.81885 331.039749850189
23.83896 331.027666178243
23.85908 325.975552385794
23.87919 360.997273302651
23.8993 339
23.91942 360.021037983579
23.93953 359.978670110323
23.95965 366.134668789272
23.97976 430.979345501626
23.99987 395.013767599532
24.01999 418.006362911841
24.0401 360
24.06021 358.005510021323
24.08033 356.986898808677
24.10044 344.97015277639
24.12056 334.994298400346
24.14067 343.999024067614
24.16078 334.008357121283
24.1809 326
24.20101 299.995383667481
24.22112 317.031117447338
24.24124 340.008271447423
24.26135 332.007263824623
24.28146 337.002953897605
24.30158 324.014964136097
24.32169 319.994704885649
24.34181 338.007171790635
24.36192 347.012607299022
24.38203 351.965484377092
24.40215 316.97439557633
24.42226 346.902315611577
24.44237 376.013816238871
24.46249 353.995400499653
24.4826 388
24.50272 354.961094223491
24.52283 355.073721611715
24.54294 411.01932992979
24.56306 376.049870705586
24.58317 387.967633575524
24.60328 400.986779927069
24.6234 411
24.64351 407.013979408598
24.66362 456.028366931406
24.68374 440.919676234123
24.70385 406.041535123219
24.72397 427.897876014259
24.74408 520.912797109407
24.76419 565.003925149851
24.78431 532.99009862428
24.80442 540.012544223809
24.82453 550.030553212346
24.84465 581.071136536124
24.86476 583.071307198727
24.88488 542.002262214852
24.90499 567.001623837861
24.9251 510
24.94522 469.031598059231
24.96533 533.034047789748
24.98544 502.957328174699
25.00556 504.047514088891
25.02567 460.017673652025
25.04579 486.990096106063
25.0659 470
25.08601 440.996698587245
25.10613 438.957216823382
25.12624 403.014235809603
25.14635 452.896402173489
25.16647 460.004515077364
25.18658 463.996495376021
25.20669 468.992071393905
25.22681 490.005316628782
25.24692 483.986326187816
25.26704 473.992620684614
25.28715 478.026516734996
25.30726 492.964401340118
25.32738 487.055076946453
25.34749 423.00310736284
25.3676 454
25.38772 381.958851427312
25.40783 393.002392139511
25.42795 373.019463690328
25.44806 406.982047746936
25.46817 395.96288644978
25.48829 437.009360837112
25.5084 362
25.52851 392.044671218445
25.54863 462.992826042004
25.56874 402.924103889725
25.58886 413.979321894442
25.60897 401.013863778334
25.62908 417.961528904606
25.6492 465
25.66931 491.99861500993
25.68942 464.964718551157
25.70954 452.049212638783
25.72965 483.023730632217
25.74976 449.985475809567
25.76988 498.9723215215
25.78999 481.012663811754
25.81011 468.992045629997
25.83022 443.978472787583
25.85033 455.090565413785
25.87045 530.092310227106
25.89056 507.105707753389
25.91067 465.029204364703
25.93079 478.976533269907
25.9509 527
25.97102 519.005724620647
25.99113 535.981061133117
26.01124 509.029509929303
26.03136 554.979940359382
26.05147 534.966425021884
26.07158 598.968595732213
26.0917 596
26.11181 658.003697652212
26.13193 615.993543127346
26.15204 672.104304237188
26.17215 711.796454352062
26.19227 813.932422372573
26.21238 794.016365899975
26.23249 836.955517832362
26.25261 935.040622916352
26.27272 981.015780604136
26.29283 1022.17310065275
26.31295 1181.30012988708
26.33306 1228.95770334563
26.35318 1310.81778940882
26.37329 1543.90511343219
26.3934 1746
26.41352 2249.48527856882
26.43363 2742.00732699965
26.45374 3660.07293759599
26.47386 4815.26930162188
26.49397 6605.56185006788
26.51409 9438.37058387536
26.5342 13065
26.55431 17370.3182383414
26.57443 22264.4264398682
26.59454 26587.1147475322
26.61465 28151.0253865135
26.63477 27224.0929276859
26.65488 23035.7464682946
26.67499 18402.3057412085
26.69511 13751.7499999442
26.71522 9548.20056724392
26.73534 6136.96178256226
26.75545 3604.35183997888
26.77556 2367.59163078895
26.79568 1790.36781765407
26.81579 1529.11631120932
26.8359 1305
26.85602 1237.96210616599
26.87613 1165.82901257739
26.89625 1049.83144835659
26.91636 1008.17342117293
26.93647 870.182946403964
26.95659 811.006879618969
26.9767 811
26.99681 775.953199210399
27.01693 671.938216031027
27.03704 698.052300332602
27.05716 674.114103295988
27.07727 626.019031787684
27.09738 623.044674107417
27.1175 534
27.13761 498.001749905155
27.15772 517.01826344002
27.17784 520.984066944555
27.19795 512.995780112705
27.21806 505.092816662158
27.23818 449.006717287306
27.25829 488.987369608156
27.27841 469.984206780853
27.29852 463.023584110821
27.31863 494.013454983197
27.33875 496.097440712665
27.35886 552.978117173367
27.37897 517.030734930857
27.39909 544.97655158108
27.4192 583
27.43932 599.99797331061
27.45943 569.908993541383
27.47954 498.886133097471
27.49966 480.954048048853
27.51977 508.01167245578
27.53988 459.057191885252
27.56 429
27.58011 427.980813065613
27.60023 370.969413972219
27.62034 392.025730521645
27.64045 384.97336902446
27.66057 407.016301305782
27.68068 368.01767671255
27.70079 388.98615462756
27.72091 395.995234746335
27.74102 384.998499140138
27.76113 389.996499922115
27.78125 372.937259414143
27.80136 354.009095303122
27.82148 358.001260110052
27.84159 351.998181292383
27.8617 364
27.88182 354.986942486591
27.90193 352.017801081248
27.92204 367.002942930418
27.94216 356.011510359734
27.96227 350.043638686487
27.98239 318.994068006881
28.0025 355
28.02261 305.981746250054
28.04273 306.005097723275
28.06284 302.021809323682
28.08295 321.005827534682
28.10307 295.033718617821
28.12318 314.925784928762
28.1433 386
28.16341 325.98540436543
28.18352 337.976653344319
28.20364 273.934342173235
28.22375 291.037321793224
28.24386 283.994156824497
28.26398 306.97898401783
28.28409 309.006171248175
28.3042 287
28.32432 272.027185696883
28.34443 310.991484981298
28.36455 261.91328862679
28.38466 267.967577822481
28.40477 277.973425090217
28.42489 311.977913250319
28.445 335
28.46511 277.97578412567
28.48523 264.009293493165
28.50534 284.083354183563
28.52546 329.952754303516
28.54557 313.075062017325
28.56568 272.993439409627
28.5858 309
28.60591 280.985490764249
28.62602 274.000093457072
28.64614 267.979641871902
28.66625 270.921251326934
28.68636 311.96924551056
28.70648 299.009092073397
28.72659 301.005924331046
28.74671 277.996931823677
28.76682 289.000643506417
28.78693 273.987305295109
28.80705 272.963736934351
28.82716 253.986350047145
28.84727 282.974269300197
28.86739 272.010775836149
28.8875 265
28.90762 288.007768992126
28.92773 278.992840241314
28.94784 279.974980117556
28.96796 254.039081290983
28.98807 259.953235120755
29.00818 286.009778025512
29.0283 255
29.04841 285.016950865831
29.06853 295.990206419504
29.08864 282.972336143843
29.10875 268.053693437751
29.12887 254.975435933097
29.14898 284.993489769754
29.16909 266.00471930654
29.18921 270.994701113872
29.20932 257.024931943432
29.22943 296.98290999638
29.24955 237.908837651432
29.26966 260.90051713892
29.28978 287.016268370012
29.30989 249.01013263742
29.33 261
29.35012 273.013228758577
29.37023 284.998599232146
29.39034 271.974822881748
29.41046 267.99879724844
29.43057 267.006976355245
29.45069 267.99098932639
29.4708 292
29.49091 274.987142881632
29.51103 262.009316673435
29.53114 277.013891806096
29.55125 271.017755197567
29.57137 277.963394711132
29.59148 286.045796237224
29.6116 226
29.63171 291.022602842252
29.65182 281.982290368447
29.67194 279.985683039754
29.69205 264.988745015798
29.71216 278.955863043219
29.73228 283.030120756749
29.75239 245.001456380265
29.7725 278
29.79262 273.982476332143
29.81273 264.002398460296
29.83285 261.938248456494
29.85296 239.948957115981
29.87307 296.959236087484
29.89319 274.016195715227
29.9133 268
29.93341 281.996326623016
29.95353 262.997831454189
29.97364 280.014682627117
29.99376 261.067288944873
30.01387 238.992496398641
30.03398 262.980611920419
30.0541 263
30.07421 259.006086032683
30.09432 281.015937140961
30.11444 271.925498806246
30.13455 249.898832450409
30.15467 319.972125476656
30.17478 274.04271434987
30.19489 267.003000872564
30.21501 250.999040327461
30.23512 269.019725316094
30.25523 282.023291441744
30.27535 283.907088164779
30.29546 230.043509949608
30.31557 246.978695482714
30.33569 241.999573693804
30.3558 258
30.37592 258.98896147691
30.39603 241.971695033915
30.41614 228.993991598565
30.43626 230.009746848691
30.45637 221.997556928525
30.47648 234.986807094204
30.4966 246
30.51671 258.994717078675
30.53683 238.001691625824
30.55694 257.000555685008
30.57705 236.020242603008
30.59717 246.996573782639
30.61728 226.030792415088
30.63739 215.985819302985
30.65751 262.012332748582
30.67762 251.980308133372
30.69773 248.01855017626
30.71785 275.097553739417
30.73796 290.08609271543
30.75808 234.986311722249
30.77819 296.99557197127
30.7983 238
30.81842 250.010865618971
30.83853 238.999055615552
30.85864 254.007433540672
30.87876 243.004495299222
30.89887 253.992046074166
30.91899 244.007948417923
30.9391 235
30.95921 237.995789947371
30.97933 221.989899984033
30.99944 231.029182139165
31.01955 233.04681990309
31.03967 210.999022197224
31.05978 237.969152702848
31.0799 253
31.10001 243.990873716015
31.12012 226.994069885151
31.14024 230.000462441552
31.16035 231.950513518888
31.18046 252.027659352711
31.20058 219.002905776552
31.22069 243.000776682207
31.2408 227
31.26092 284.994511760458
31.28103 217.942380597637
31.30115 243.085517666085
31.32126 247.023901023222
31.34137 236.011212110502
31.36149 227.008938206724
31.3816 210
31.40171 224.001671999003
31.42183 218.013656253614
31.44194 247.058151429374
31.46206 255.030054596642
31.48217 226.047622025417
31.50228 207.001285225346
31.5224 223
31.54251 244.000182049016
31.56262 225.979611845778
31.58274 217.001285737787
31.60285 223.970572656458
31.62297 236.982187726145
31.64308 236.023406393933
31.66319 206.005338280271
31.68331 216.003170015307
31.70342 208.994209625309
31.72353 211.002899090834
31.74365 215.039981859374
31.76376 228.030295666532
31.78387 200.995917886923
31.80399 236.984584515227
31.8241 232
31.84422 204.004855397917
31.86433 226.998982412888
31.88444 210.031202440759
31.90456 250.980747122961
31.92467 220.036782071355
31.94478 221.001207147927
31.9649 205
31.98501 211.016473973225
32.00513 242.995485349025
32.02524 215.987507545349
32.04535 236.975034362362
32.06547 222.023643598476
32.08558 221.991730695523
32.10569 227.001210767695
32.12581 218.9962434463
32.14592 217.002645433026
32.16604 216.981897408868
32.18615 213.054037223861
32.20626 241.011675340262
32.22638 202.031229518153
32.24649 206.985394222629
32.2666 236
32.28672 228.973223239373
32.30683 207.00711219392
32.32694 229.015985706695
32.34706 218.007683275251
32.36717 244.917392721145
32.38729 281.014275110161
32.4074 218
32.42751 244.001632023092
32.44763 204.953994024511
32.46774 217.078292366911
32.48785 247.99443023359
32.50797 231.0097806962
32.52808 231.026949784491
32.5482 196
32.56831 244.012841518457
32.58842 232.99758311454
32.60854 242.962065842973
32.62865 203.027560742171
32.64876 221.004806903711
32.66888 191.01487977752
32.68899 209.985498136253
32.7091 223
32.72922 209.993594614663
32.74933 223.047056830172
32.76945 240.933488043699
32.78956 196.010844760479
32.80967 229.976356134666
32.82979 210.007800253609
32.8499 217
32.87001 218.004018733812
32.89013 226.98473936003
32.91024 208.005374299257
32.93036 230.977585280772
32.95047 221.013280554856
32.97058 221.005676313624
32.9907 213
33.01081 232.003809789637
33.03092 224.997575023469
33.05104 228.986293358227
33.07115 203.08876885692
33.09127 195.924132641654
33.11138 259.997038669091
33.13149 206.016108063459
33.15161 220.003202721714
33.17172 210.018436150456
33.19183 245.99637336658
33.21195 208.969929226196
33.23206 232.976469969323
33.25217 216.021233673941
33.27229 218.998504571197
33.2924 222
33.31252 249.006178663481
33.33263 226.954926838737
33.35274 207.983341192824
33.37286 205.004412181101
33.39297 203.992091897632
33.41308 214.98908581574
33.4332 218
33.45331 210.001352385279
33.47343 220.003440173
33.49354 210.982010896386
33.51365 205.027426118004
33.53377 193.00107099484
33.55388 208.974343462864
33.57399 225.003209419357
33.59411 207.998559807052
33.61422 221.006064734021
33.63434 204.939108075083
33.65445 181.998268345523
33.67456 196.981329506787
33.69468 196.991948910566
33.71479 210.001381907254
33.7349 195
33.75502 209.01145141403
33.77513 210.002731490625
33.79524 220.028302846184
33.81536 225.027300344318
33.83547 206.002088021106
33.85559 218.00092100367
33.8757 194
33.89581 185.005762519818
33.91593 209.038622396015
33.93604 216.961784571848
33.95615 189.022102424076
33.97627 198.99864000444
33.99638 185.006650704037
34.0165 197
34.03661 210.00129259983
34.05672 204.99385316978
34.07684 207.026177024245
34.09695 218.01857854357
34.11706 204.978802762324
34.13718 232.990466670434
34.15729 216.007900326579
34.17741 219.005937182985
34.19752 227.001113073915
34.21763 218.975433731699
34.23775 204.996815364757
34.25786 217.963193044539
34.27797 225.019084597384
34.29809 206.001588685552
34.3182 226
34.33831 237.992562149657
34.35843 206.961550823894
34.37854 208.056095300951
34.39866 240.970703052748
34.41877 241.978282842323
34.43888 260.015935283611
34.459 232
34.47911 289.011991330037
34.49922 263.979810863844
34.51934 274.024254007072
34.53945 266.055570471676
34.55957 245.014555021846
34.57968 249.986825989304
34.59979 271.981222704095
34.61991 315.015287974413
34.64002 312.962421188731
34.66013 271.986970301016
34.68025 306.12943875649
34.70036 332.039001365019
34.72047 288.04169576093
34.74059 298.98401372042
34.7607 323
34.78082 329.04046940669
34.80093 382.015104909925
34.82104 360.022939616683
34.84116 403.981160898544
34.86127 367.042752800735
34.88138 389.937406225633
34.9015 441
34.92161 397.983011288731
34.94173 397.008758415588
34.96184 392.991257171171
34.98195 391.015522758557
35.00207 385.987436529947
35.02218 403.988590337253
35.04229 385.028462494634
35.06241 335.005244983545
35.08252 383.009129175657
35.10264 352.007113039134
35.12275 381.935167124256
35.14286 315.020103299782
35.16298 366.97832196464
35.18309 328.018852719703
35.2032 332
35.22332 352.010651638321
35.24343 347.970619125041
35.26354 325.980050171875
35.28366 329.988460042657
35.30377 331.99277780424
35.32389 348.984178557837
35.344 365
35.36411 305.985871741546
35.38423 336.089340848742
35.40434 369.961901999681
35.42445 326.032533462389
35.44457 348.987132204303
35.46468 333.997307016943
35.4848 364
35.50491 367.998796504431
35.52502 364.987323248404
35.54514 354.022674767207
35.56525 378.977577401551
35.58536 369.999172778469
35.60548 382.998827091006
35.62559 367.007000211865
35.64571 353.984118311288
35.66582 316.991774659708
35.68593 337.021130791406
35.70605 337.028737048841
35.72616 356.006807917921
35.74627 340.97911545318
35.76639 367.009855808814
35.7865 315
35.80661 360.024595104357
35.82673 373.987753383344
35.84684 362.984728473085
35.86696 362.988243593919
35.88707 365.014806271082
35.90718 351.999150648306
35.9273 360
35.94741 348.010695841434
35.96752 388.00661466195
35.98764 352.933724180315
36.00775 358.901845022797
36.02787 386.038102062076
36.04798 324.041727326872
36.06809 326.991982474113
36.08821 319.982796038187
36.10832 296.029099910497
36.12843 358.047499432545
36.14855 350.012837831742
36.16866 375.997069055515
36.18878 354.996158299482
36.20889 378.005483537142
36.229 338
36.24912 371.032544986452
36.26923 386.03539904368
36.28934 420.03882651766
36.30946 425.964152849809
36.32957 484.846138521786
36.34968 605.891222630194
36.3698 681
36.38991 761.082041405332
36.41003 1002.38189579322
36.43014 1228.42271405195
36.45025 1477.2078473489
36.47037 1811.60921701658
36.49048 1976.86873122825
36.51059 2059.02403109643
36.53071 1898.91428726196
36.55082 1746.80258552061
36.57094 1472.37807048809
36.59105 1216.64872043257
36.61116 1136.26118616667
36.63128 920.221650802982
36.65139 734.091374124411
36.6715 550
36.69162 448.939408763185
36.71173 399.919788690005
36.73184 345.934019552854
36.75196 339.986968080393
36.77207 337.029588409265
36.79219 315.999564828058
36.8123 327
36.83241 300.003011894656
36.85253 338.033696367139
36.87264 322.944935215771
36.89275 311.974758573988
36.91287 321.028023114796
36.93298 286.012779537357
36.9531 310
36.97321 333.002892937891
36.99332 322.978809938535
37.01344 303.98482144911
37.03355 306.99045645617
37.05366 303.021228895701
37.07378 285.026954485533
37.09389 267.993008465633
37.11401 295.000374161557
37.13412 271.994867539739
37.15423 298.043353190255
37.17435 298.924866271962
37.19446 263.025881606012
37.21457 278.966348304907
37.23469 286.004070208471
37.2548 275
37.27491 286.007593195541
37.29503 295.001038589896
37.31514 284.95794572177
37.33526 266.005956107201
37.35537 274.995059519256
37.37548 269.99819776429
37.3956 275
37.41571 255.999312778827
37.43582 282.037029401243
37.45594 302.986961274735
37.47605 286.990078494192
37.49617 297.040843193287
37.51628 258.978406121694
37.53639 318.996899085409
37.55651 271.996315051404
37.57662 322.032475840177
37.59673 309.986011807947
37.61685 319.997396049539
37.63696 301.026561296671
37.65708 303.993495203032
37.67719 311.989967480168
37.6973 334
37.71742 311.968925416681
37.73753 291.99434558645
37.75764 307.062774781944
37.77776 328.028870885966
37.79787 297.005558992182
37.81798 319.994862649353
37.8381 300
37.85821 312.001005516173
37.87833 293.972613260775
37.89844 291.016886993137
37.91855 291.060801511553
37.93867 263.98747877013
37.95878 307.958619190861
37.97889 320.003325899439
37.99901 306.991147588113
38.01912 288.984937046138
38.03924 282.006752991891
38.05935 285.981624208041
38.07946 282.94230671698
38.09958 326.985764132326
38.11969 306.008488992867
38.1398 312
38.15992 311.999321783548
38.18003 310.986268553481
38.20015 304.033556490694
38.22026 335.940342911585
38.24037 351.984653272086
38.26049 366.989095691318
38.2806 377
38.30071 342.999012162223
38.32083 374.032821348029
38.34094 359.929841275247
38.36105 335.987128894692
38.38117 353.00931843505
38.40128 330.995062822779
38.4214 375
38.44151 400.998074552723
38.46162 376.969368074415
38.48174 367.049985728026
38.50185 395.03911844536
38.52196 351.020452238298
38.54208 382.979740159347
38.56219 359.023431071094
38.58231 332.007525104382
38.60242 359.989685665419
38.62253 314.962874177781
38.64265 336.095003261127
38.66276 340.104954176525
38.68287 278.997441186404
38.70299 331.989404349596
38.7231 300
38.74321 313.008580286948
38.76333 307.968385456029
38.78344 291.002928161091
38.80356 311.946108252973
38.82367 317.047674948135
38.84378 280.992118393088
38.8639 328
38.88401 309.973681272817
38.90412 270.004648099682
38.92424 305.038581885046
38.94435 296.010666507082
38.96447 311.972222223777
38.98458 324.983257737768
39.00469 330.015877876739
39.02481 287.999994600181
39.04492 324.014026300862
39.06503 301.978254753803
39.08515 319.07310490018
39.10526 339.978567254474
39.12538 343.997776209367
39.14549 351.991892762852
39.1656 373
39.18572 384.001448857905
39.20583 402.092061196193
39.22594 472.031840935896
39.24606 456.922336701261
39.26617 550.903514524525
39.28628 587.904824806622
39.3064 746
39.32651 844.061132810116
39.34663 1045.40061270523
39.36674 1316.43712132462
39.38685 1505.42131101876
39.40697 1767.69787905445
39.42708 1883.90822062476
39.44719 1930.04238746283
39.46731 1691.83728170889
39.48742 1378.74189397269
39.50754 1201.79130269049
39.52765 1109.6822158815
39.54776 944.310593271074
39.56788 816.127204070119
39.58799 663.087341932509
39.6081 487
39.62822 372.93340485181
39.64833 342.989242297664
39.66845 328.90986981801
39.68856 285.042758851658
39.70867 299.946902205342
39.72879 313.018363050616
39.7489 255
39.76901 274.005512093342
39.78913 264.008112590281
39.80924 283.994707686733
39.82935 242.149951094127
39.84947 219.922223251617
39.86958 301.968850023073
39.8897 270
39.90981 287.015780484793
39.92992 293.972165562075
39.95004 255.974344952115
39.97015 274.944145319144
39.99026 281.003907575909
40.01038 279.002527686911
40.03049 286.985019228358
40.05061 332.020406730535
40.07072 352.000735342474
40.09083 361.064230761163
40.11095 429.145152792125
40.13106 477.853563499124
40.15117 581.842778006713
40.17129 666.96412402516
40.1914 744
40.21152 859.134155488534
40.23163 992.167810288637
40.25174 1048.97024806378
40.27186 988.12760959193
40.29197 925.148996430731
40.31208 786.141521143646
40.3322 673
40.35231 619.996680298968
40.37242 608.922341407244
40.39254 482.816123699614
40.41265 442.130233435045
40.43277 353.129908502796
40.45288 302.019476224735
40.47299 292.008866617087
40.49311 267.994477838664
40.51322 272.002266397494
40.53333 262.980500777744
40.55345 249.960113028657
40.57356 235.013195587487
40.59368 238.990329971254
40.61379 238.01157215829
40.6339 216
40.65402 250.001631994452
40.67413 221.995275228208
40.69424 252.034416896893
40.71436 242.011920101719
40.73447 248.007993616386
40.75458 234.993528901655
40.7747 255
40.79481 229.988872334449
40.81493 231.02586989048
40.83504 242.984153396389
40.85515 226.001049084792
40.87527 244.976620437816
40.89538 244.008145926206
40.91549 245.990000361238
40.93561 270.002843486
40.95572 249.969103831622
40.97584 236.032972814224
40.99595 267.039845553979
41.01606 246.100333468753
41.03618 208.988222848374
41.05629 254.985166861044
41.0764 238
41.09652 209.008420106631
41.11663 247.055804676587
41.13675 262.002096403688
41.15686 255.03324976843
41.17697 238.008836008843
41.19709 248.988918075447
41.2172 272
41.23731 267.979896111456
41.25743 218.975925039266
41.27754 243.060283192474
41.29765 241.096711359452
41.31777 197.018956220523
41.33788 229.943902543138
41.358 257
41.37811 196.988227989031
41.39822 231.049488701522
41.41834 248.961347682836
41.43845 218.027030088526
41.45856 229.98790847772
41.47868 220.007274676244
41.49879 219.004893573262
41.51891 206.002338780674
41.53902 220.997089577489
41.55913 210.02826259599
41.57925 249.028241681034
41.59936 223.050369023463
41.61947 229.950829217507
41.63959 253.008272126299
41.6597 208
41.67982 213.025848762364
41.69993 235.014033992517
41.72004 242.046485328826
41.74016 267.013944925054
41.76027 233.033599223222
41.78038 246.963307820734
41.8005 267
41.82061 219.987343075686
41.84072 228.007924761861
41.86084 223.00505195735
41.88095 240.948536521296
41.90107 253.988731271827
41.92118 253.014751828108
41.94129 235.002577617212
41.96141 239.998257627696
41.98152 226.995171115556
42.00163 245.056759355704
42.02175 267.939474351126
42.04186 216.054627081144
42.06198 235.961700476585
42.08209 260.995828052198
42.1022 264
42.12232 277.994546420491
42.14243 273.055027765698
42.16254 326.004433486958
42.18266 284.025045284717
42.20277 332.896671688123
42.22289 372.998701905531
42.243 369
42.26311 457.06746753913
42.28323 581.09704236222
42.30334 623.202956252162
42.32345 808.481010963589
42.34357 963.874161701891
42.36368 1028.88595281754
42.38379 1221.88513463553
42.40391 1399.03565875575
42.42402 1344.85179120505
42.44414 1182.75317221772
42.46425 1092.72519756736
42.48436 940.320512627708
42.50448 822.056084180265
42.52459 802.013843975882
42.5447 730
42.56482 592.83487457252
42.58493 429.80909668947
42.60505 341.813204426373
42.62516 283.02382868679
42.64527 300.003432675547
42.66539 267.013232852606
42.6855 262
42.70561 246.993909598617
42.72573 245.004912176445
42.74584 249.010128335672
42.76595 243.073298562073
42.78607 202.041807349748
42.80618 202.978742869157
42.8263 224
42.84641 224.003890332754
42.86652 241.011238650704
42.88664 235.966001317795
42.90675 217.036677271705
42.92686 209.009397141588
42.94698 204.005364147357
42.96709 202.995879998477
42.98721 216.004095200578
43.00732 212.988808742407
43.02743 198.978705794572
43.04755 196.043275410902
43.06766 218.99090277437
43.08777 205.013236321178
43.10789 208.999590363861
43.128 201
43.14812 199.997908810869
43.16823 193.990763381082
43.18834 192.005731842089
43.20846 199.975000321645
43.22857 210.994373689278
43.24868 204.015488088889
43.2688 196
43.28891 217.000198407161
43.30902 193.978903158221
43.32914 190.006943619501
43.34925 196.959888035561
43.36937 206.029992529693
43.38948 171.013466786165
43.40959 190.985529738524
43.42971 204.999581530147
43.44982 197.995292028473
43.46993 202.016133819233
43.49005 208.986268647769
43.51016 199.989565702717
43.53028 218.98551645884
43.55039 209.018122539105
43.5705 179
43.59062 218.018367577967
43.61073 200.971204211558
43.63084 199.003601566645
43.65096 201.970186263032
43.67107 219.002698339421
43.69119 205.997801603742
43.7113 223
43.73141 192.986155051146
43.75153 193.037772073616
43.77164 216.997317018761
43.79175 196.026900765654
43.81187 205.982615859724
43.83198 203.014687773262
43.85209 190.000274872685
43.87221 200.003943637941
43.89232 198.99582834012
43.91244 211.083447967223
43.93255 245.944136873326
43.95266 184.065321207386
43.97278 201.977950695488
43.99289 197.008378359159
44.013 185
44.03312 189.015822553717
44.05323 209.021175964299
44.07335 211.990700217952
44.09346 212.974766535522
44.11357 228.994053423045
44.13369 220.003730442411
44.1538 215
44.17391 181.978815212334
44.19403 168.067817935672
44.21414 233.028108797618
44.23426 190.070976400194
44.25437 197.964564034484
44.27448 210.99638268993
44.2946 203
44.31471 184.004145677785
44.33482 214.022853007768
44.35494 206.937600308466
44.37505 181.983591391304
44.39516 207.983812244818
44.41528 190.014793319308
44.43539 192.996855004876
44.45551 190.996303672079
44.47562 195.029290243282
44.49573 222.978678287606
44.51585 179.956336149531
44.53596 200.963102029329
44.55607 202.981572734495
44.57619 221.003996895928
44.5963 190
44.61642 199.018568593348
44.63653 203.979755563952
44.65664 182.975112135938
44.67676 187.969065351629
44.69687 195.020388267283
44.71698 177.990816667272
44.7371 208
44.75721 200.998731846784
44.77732 214.012609402237
44.79744 218.005617813092
44.81755 218.029625519979
44.83767 200.01358797116
44.85778 202.996769760276
44.87789 206.99148449109
44.89801 228.001607037019
44.91812 211.984968279489
44.93823 211.009346115993
44.95835 211.975227228559
44.97846 200.992846185421
44.99858 214.995381954726
45.01869 206.003538288382
45.0388 213
45.05892 233.016806755441
45.07903 233.966501922383
45.09914 207.995607576234
45.11926 222.009400050052
45.13937 196.022255203598
45.15949 206.990438214288
45.1796 217
45.19971 209.992950153331
45.21983 200.007041188327
45.23994 220.050623153655
45.26005 234.01141877056
45.28017 222.001805895605
45.30028 234.987725388835
45.32039 242.992599259435
45.34051 263.006035394676
45.36062 255.975655539519
45.38074 228.967578207514
45.40085 235.066806204123
45.42096 254.032135931182
45.44108 227.983489319768
45.46119 284.978828324137
45.4813 284
45.50142 279.014513186802
45.52153 314.075438755622
45.54165 359.057793192186
45.56176 360.011303524572
45.58187 369.951778325328
45.60199 407.989912797379
45.6221 438
45.64221 565.043867161861
45.66233 601.067997944716
45.68244 693.22677635283
45.70256 810.747391354966
45.72267 923.896109858226
45.74278 946.996978230839
45.7629 939
45.78301 877.968482880867
45.80312 801.879632828746
45.82324 663.811210257447
45.84335 637.977485487797
45.86346 638.037200110001
45.88358 593.068688942534
45.90369 516.035345126804
45.92381 446.957797351174
45.94392 354.927683248255
45.96403 311.956272337476
45.98415 277.89770310948
46.00426 247.001786056249
46.02437 264.990945833161
46.04449 248.010059366049
46.0646 241
46.08472 239.984894925248
46.10483 219.992290394845
46.12494 232.023858939424
46.14506 225.055010100589
46.16517 200.991590312034
46.18528 227.986205119753
46.2054 214
46.22551 211.0115095709
46.24563 229.966261412283
46.26574 178.942238626797
46.28585 197.894222737904
46.30597 222.018088695268
46.32608 195.002770456025
46.34619 222.987013829307
46.36631 224.994218731329
46.38642 208.978490855243
46.40653 190.994171502791
46.42665 194.9883430666
46.44676 187.972977240948
46.46688 211.001650672237
46.48699 192.995935262007
46.5071 233
46.52722 234.978288770077
46.54733 211.984117851647
46.56744 212.996995752214
46.58756 202.026224842131
46.60767 201.968219354565
46.62779 223.004552385246
46.6479 196
46.66801 209.990350514297
46.68813 168.99878243293
46.70824 207.027963808384
46.72835 188.988610413996
46.74847 220.985888144138
46.76858 199.012147267936
46.78869 211.993882836235
46.80881 202.987573564623
46.82892 183.000637911606
46.84904 199.020894106092
46.86915 190.953186694623
46.88926 180.978521536578
46.90938 203.985353556324
46.92949 204.998821014396
46.9496 211
46.96972 202.001452667099
46.98983 214.009607320424
47.00995 201.931989448187
47.03006 180.991925810411
47.05017 202.97863705834
47.07029 202.997616653598
47.0904 210
47.11051 195.010510958735
47.13063 227.973050825358
47.15074 168.945597361338
47.17086 195.937840623106
47.19097 198.015921559282
47.21108 193.994536963288
47.2312 214
47.25131 236.988484219055
47.27142 190.986932627806
47.29154 212.001677114959
47.31165 184.027637351566
47.33176 206.943079328113
47.35188 213.016171059086
47.37199 194.001233791401
47.39211 203.999554842553
47.41222 199.020924242158
47.43233 235.014754175484
47.45245 217.990591289488
47.47256 227.036997662669
47.49267 186.026499819269
47.51279 197.998826465263
47.5329 185
47.55302 209.009314340135
47.57313 204.021089506316
47.59324 221.946665686316
47.61336 166.04078183951
47.63347 196.948970566354
47.65358 199.017103408192
47.6737 186
47.69381 192.996291403138
47.71393 177.001723423798
47.73404 200.047829284755
47.75415 216.944239209202
47.77427 234.017911557964
47.79438 206.007165034801
47.81449 224.993198078777
47.83461 211.985336445202
47.85472 196.017195656971
47.87483 233.035052590911
47.89495 225.94665627489
47.91506 209.018980404358
47.93518 211.982284649666
47.95529 229.000869780046
47.9754 209
47.99552 203.002776000072
48.01563 207.003887462668
48.03574 208.003538283818
48.05586 215.96588269446
48.07597 231.997703055412
48.09609 216.011522122097
48.1162 209
48.13631 243.007759839091
48.15643 223.94085104178
48.17654 193.991924512034
48.19665 210.958264966415
48.21677 213.009123738545
48.23688 205.010210195874
48.257 193
48.27711 189.0067633263
48.29722 215.024367403779
48.31734 222.980822579603
48.33745 203.952527904068
48.35756 192.013626904207
48.37768 194.980455210295
48.39779 215.00139260953
48.4179 195
48.43802 206.009264397347
48.45813 200.983654061827
48.47825 201.048651347639
48.49836 215.050151006158
48.51847 175.990794028476
48.53859 220.990996439434
48.5587 196
48.57881 206.005496409364
48.59893 200.984016791129
48.61904 196.003616673447
48.63916 193.040649093395
48.65927 176.965780160849
48.67938 221.984658120038
48.6995 198
48.71961 200.002092101818
48.73972 192.989586182162
48.75984 189.009328516748
48.77995 192.027925525711
48.80006 179.973682976889
48.82018 215.970127998513
48.84029 222.003618201274
48.86041 213.996572162929
48.88052 213.007812185149
48.90063 217.981321559302
48.92075 197.992862166305
48.94086 209.99990209286
48.96097 194.013927115296
48.98109 200.994934364346
49.0012 206
49.02132 214.010454782014
49.04143 228.028969532678
49.06154 235.955826183384
49.08166 205.992948998424
49.10177 237.978735512679
49.12188 214.036131080242
49.142 191
49.16211 187.999069990535
49.18223 186.003641835482
49.20234 193.014232872062
49.22245 196.995284369107
49.24257 194.017580180829
49.26268 188.978853814937
49.28279 216.003659276265
49.30291 179.990697870588
49.32302 199.031138221517
49.34313 218.011171470595
49.36325 212.951864828634
49.38336 194.997978774928
49.40348 212.984648209769
49.42359 212.005826809677
49.4437 206
49.46382 234.035730118753
49.48393 249.966900145049
49.50404 210.967332183621
49.52416 229.944890145373
49.54427 235.033452906165
49.56439 211.995941390186
49.5845 246
49.60461 241.995521600544
49.62473 245.015430305016
49.64484 258.031199654556
49.66495 265.032497175773
49.68507 250.976798536066
49.70518 284.989385120255
49.7253 275
49.74541 319.017692892972
49.76552 324.993739439351
49.78564 320.991234223256
49.80575 332.11199464424
49.82586 402.861547828184
49.84598 446.979235352602
49.86609 460.989511658167
49.8862 506
49.90632 610.138118068244
49.92643 758.192626353375
49.94655 861.24315533775
49.96666 1001.58274740142
49.98677 1287.48928646082
50.00689 1666.79293956417
50.027 2054
50.04711 2297.15431493461
50.06723 2666.4544234737
50.08734 2843.21677052169
50.10746 2858.32671901017
50.12757 2532.57423972934
50.14768 2159.39158729108
50.1678 1776
50.18791 1604.98378156241
50.20802 1641.0343628593
50.22814 1595.73543128103
50.24825 1402.54043891161
50.26837 1168.41684422922
50.28848 862.283837283621
50.30859 641.080038483749
50.32871 504.929138127558
50.34882 374.932951181734
50.36893 362.979567554479
50.38905 327.952828383255
50.40916 326.042074210439
50.42927 296.98398773589
50.44939 333.000563595658
50.4695 296
50.48962 326.0165517345
50.50973 309.976686080718
50.52984 304.965992910788
50.54996 281.005611330958
50.57007 299.979764292218
50.59018 291.021206122357
50.6103 276
50.63041 277.99169299193
50.65053 244.961204083792
50.67064 230.959766086655
50.69075 215.950500064765
50.71087 262.945450944236
50.73098 261.030790990654
50.75109 227.010265624296
50.77121 226.004199144196
50.79132 230.998853423543
50.81143 219.967336833244
50.83155 198.981779896464
50.85166 211.946096398598
50.87178 232.002125519847
50.89189 216.003197060856
50.912 217
50.93212 187.991257642416
50.95223 196.988752374553
50.97234 183.047446079741
50.99246 229.978452299416
51.01257 199.029107718311
51.03269 219.981598423591
51.0528 236
51.07291 199.986637201467
51.09303 190.985084787582
51.11314 180.013541796158
51.13325 204.938983102737
51.15337 210.022528921977
51.17348 195.991069865446
51.1936 219
51.21371 190.976013503534
51.23382 157.000842064071
51.25394 178.011831370736
51.27405 173.934916656354
51.29416 208.041302327581
51.31428 151.011454307544
51.33439 197.981806998657
51.3545 188
51.37462 176.995410036408
51.39473 174.000280330342
51.41485 185.069520016954
51.43496 211.996336082697
51.45507 187.044083764298
51.47519 169.006320606557
51.4953 162
51.51541 170.998693845238
51.53553 163.012201289292
51.55564 182.006074137831
51.57576 170.992789975417
51.59587 194.967994285959
51.61598 196.014250782832
51.6361 185
51.65621 193.992345223139
51.67632 157.974686238405
51.69644 165.060329330105
51.71655 194.962961701414
51.73667 187.036015114478
51.75678 169.993312611536
51.77689 191.993971262565
51.79701 180.988974155922
51.81712 155.968695519379
51.83723 136.019474062995
51.85735 174.08333666445
51.87746 182.018390685934
51.89757 174.990670169675
51.91769 190.994467918521
51.9378 192
51.95792 192.993811741921
51.97803 176.96946914522
51.99814 166.014099631725
52.01826 183.97418943424
52.03837 176.043410865904
52.05848 149.998519364152
52.0786 172
52.09871 169.005795500455
52.11883 195.017115442122
52.13894 183.974691768564
52.15905 185.969279285887
52.17917 194.009949050771
52.19928 176.015490394324
52.21939 172.997060903767
52.23951 180.0019439354
52.25962 181.002439665296
52.27974 183.996586931238
52.29985 178.995920070597
52.31996 177.025121396525
52.34008 163.992825606132
52.36019 182.000653651164
52.3803 163
52.40042 181.01781519832
52.42053 183.994313967871
52.44064 179.98868221419
52.46076 167.048210310925
52.48087 154.958624223724
52.50099 200.992533885964
52.5211 179
52.54121 183.998395715634
52.56133 170.002354035462
52.58144 186.006103286267
52.60155 172.019321237502
52.62167 183.967188763382
52.64178 197.005188404448
52.6619 179
52.68201 186.018073652368
52.70212 225.008669671942
52.72224 200.947546253591
52.74235 193.990452619253
52.76246 197.995697387191
52.78258 194.01238847041
52.80269 179.004635242607
52.8228 181
52.84292 191.002480162798
52.86303 177.955590118677
52.88315 162.073622427983
52.90326 210.979723421211
52.92337 180.024933866119
52.94349 195.994313447501
52.9636 184
52.98371 178.001360449923
53.00383 186.018081044016
53.02394 200.029509638441
53.04406 202.046526496456
53.06417 176.985572757628
53.08428 215.973711497474
53.1044 203
53.12451 178.00428001747
53.14462 204.005846760387
53.16474 190.007565217042
53.18485 217.948495003727
53.20497 216.013060231104
53.22508 213.000658112858
53.24519 210.00328904857
53.26531 206.003047212852
53.28542 216.000124801738
53.30553 210.007956978933
53.32565 219.976592400769
53.34576 199.001303840008
53.36587 218.986353274203
53.38599 208.004368582508
53.4061 218
53.42622 227.97685334872
53.44633 193.996945756555
53.46644 223.033290694793
53.48656 208.045236564592
53.50667 205.965347637921
53.52678 238.977429579254
53.5469 235
53.56701 212.001923528268
53.58713 235.017081633857
53.60724 220.954514841675
53.62735 208.002241924484
53.64747 212.00056723347
53.66758 205.006507147177
53.68769 203.998742073004
53.70781 209.004187855938
53.72792 227.032665704977
53.74804 251.978550967582
53.76815 214.935118792353
53.78826 220.955961020249
53.80838 235.999388224007
53.82849 230.997271757005
53.8486 245
53.86872 234.988895480904
53.88883 235.015348373284
53.90894 242.988146197381
53.92906 227.020544858766
53.94917 227.996435424602
53.96929 225.002597511224
53.9894 230
54.00951 254.998590206666
54.02963 228.975791224963
54.04974 236.02170940228
54.06985 235.023312208177
54.08997 237.951469355792
54.11008 275.000873527862
54.1302 240
54.15031 242.997987433508
54.17042 230.008864112938
54.19054 261.044823632548
54.21065 261.015157535965
54.23076 262.984648992963
54.25088 265.01272747374
54.27099 256.98730945488
54.29111 295.0003063132
54.31122 259.980986913417
54.33133 273.014902264125
54.35145 261.962791567561
54.37156 254.013962853808
54.39167 256.958015770974
54.41179 292.994379846598
54.4319 266
54.45201 247.017820778573
54.47213 307.038819806193
54.49224 288.971617710077
54.51236 298.986135979622
54.53247 288.024732987273
54.55258 291.961900919484
54.5727 333
54.59281 297.993460579635
54.61292 331.048262209293
54.63304 373.087819734414
54.65315 407.986074912581
54.67327 417.898421257488
54.69338 525.924647271316
54.71349 541.99937409366
54.73361 606.079276483717
54.75372 800.134773742908
54.77383 854.063300695121
54.79395 920.136791827647
54.81406 954.920580444891
54.83417 974.079346565984
54.85429 875.033152586656
54.8744 857
54.89452 769.877482932191
54.91463 668.940190222179
54.93474 674.997765002647
54.95486 643.06576570272
54.97497 638.961883113636
54.99508 646.059927423627
55.0152 530
55.03531 452.963274389579
55.05543 388.975460620974
55.07554 403.985925584385
55.09565 363.081793884062
55.11577 354.016639353678
55.13588 344.976660225049
55.15599 390.985998326951
55.17611 403.018934008901
55.19622 477.077376659918
55.21634 532.075196671163
55.23645 559.04215835671
55.25656 567.995559933618
55.27668 585.945343798963
55.29679 622.0298923218
55.3169 497
55.33702 490.992362680884
55.35713 434.889127670056
55.37724 391.00983019328
55.39736 425.945645044414
55.41747 425.018587029363
55.43759 419.997735429092
55.4577 421
55.47781 376.968943811835
55.49793 306.88873644371
55.51804 258.007469664954
55.53815 284.023354348849
55.55827 239.034456385015
55.57838 254.985542302968
55.5985 249
55.61861 251.998230773655
55.63872 237.986247783086
55.65884 227.973835769241
55.67895 217.983913598317
55.69906 233.98940627356
55.71918 233.979735037063
55.73929 262.999938960425
55.75941 227.980717884434
55.77952 218.019924791439
55.79963 251.041436316098
55.81975 258.979567883861
55.83986 237.072929016294
55.85997 203.019276822588
55.88009 218.983034745662
55.9002 247
55.92031 227.979663503182
55.94043 202.030070191087
55.96054 247.034990069781
55.98066 221.06620831436
56.00077 215.96627083217
56.02088 236.012220413226
56.041 205
56.06111 220.9962053967
56.08122 190.994734099952
56.10134 217.033728785669
56.12145 210.013782892064
56.14157 219.978958143111
56.16168 225.00583287527
56.18179 221.992341050862
56.20191 251.011052559169
56.22202 240.952865552852
56.24213 192.989859952835
56.26225 221.036930353737
56.28236 200.06265948606
56.30248 189.981908676377
56.32259 221.987758624829
56.3427 223
56.36282 204.994782221552
56.38293 208.994959775163
56.40304 206.043247466655
56.42316 240.97580942688
56.44327 226.015905820365
56.46338 232.99363864576
56.4835 228
56.50361 225.002590818979
56.52373 227.98215481016
56.54384 213.013033776533
56.56395 231.013108826441
56.58407 210.987263864315
56.60418 236.013984116674
56.62429 195.998558852365
56.64441 238.004122439058
56.66452 200.978873615045
56.68464 219.039450057832
56.70475 219.996932537714
56.72486 223.999848907956
56.74498 217.008020336119
56.76509 212.001904243645
56.7852 202
56.80532 187.01533673886
56.82543 226.047968350454
56.84554 219.91001627371
56.86566 175.00783939478
56.88577 206.966562600068
56.90589 199.006724016341
56.926 197
56.94611 197.000348220848
56.96623 200.00672491029
56.98634 198.974621733327
57.00645 186.981254203179
57.02657 211.967763257299
57.04668 211.021752705743
57.0668 201
57.08691 252.006464960403
57.10702 225.989995399204
57.12714 249.036566933012
57.14725 245.016129406385
57.16736 241.032825462562
57.18748 216.014319018554
57.20759 216.999004776316
57.22771 220.009154655046
57.24782 245.008380658753
57.26793 231.975803227086
57.28805 222.976254243672
57.30816 213.999057282606
57.32827 226.970584712318
57.34839 240.000665508897
57.3685 221
57.38861 200.005291160247
57.40873 221.989214453825
57.42884 186.958191259405
57.44896 196.967737314648
57.46907 200.007191609773
57.48918 196.996912707206
57.5093 198
57.52941 180.000213105651
57.54952 197.008921778384
57.56964 191.999289594314
57.58975 197.01865884069
57.60987 181.999365025561
57.62998 199.985403421552
57.65009 201.999537220348
57.67021 203.996817904543
57.69032 197.009598798702
57.71043 213.996815903609
57.73055 185.914630899929
57.75066 172.967117340152
57.77078 196.001598036372
57.79089 174.003471329265
57.811 193
57.83112 201.006048199786
57.85123 197.955497932972
57.87134 165.010125412974
57.89146 204.94000593712
57.91157 195.053633242913
57.93168 167.000277368591
57.9518 188
57.97191 190.002851319822
57.99203 201.000298665708
58.01214 185.962855405966
58.03225 182.949225274338
58.05237 203.017880468237
58.07248 173.002251189145
58.09259 197.997082245356
58.11271 172.989492584431
58.13282 186.042536706534
58.15294 217.970303682996
58.17305 182.011344001457
58.19316 226.953197239421
58.21328 201.041612218496
58.23339 186.988142720607
58.2535 213
58.27362 173.004731249219
58.29373 215.007289284586
58.31385 177.976110926752
58.33396 205.98689479855
58.35407 180.016074879725
58.37419 202.98642239222
58.3943 207
58.41441 191.003231154699
58.43453 204.978283384951
58.45464 172.995014481503
58.47475 195.013503411483
58.49487 160.021893392078
58.51498 186.960302411332
58.5351 201
58.55521 173.002978675149
58.57532 208.019000835078
58.59544 197.985059222806
58.61555 204.002598842943
58.63566 194.000507014577
58.65578 203.001059670966
58.67589 190.00369977741
58.69601 202.01383113505
58.71612 214.971322015058
58.73623 171.996058041493
58.75635 206.031557142974
58.77646 184.02414852075
58.79657 200.968875115508
58.81669 207.001124141556
58.8368 197
58.85691 171.996218696972
58.87703 184.022737386859
58.89714 196.037087739589
58.91726 205.053258019598
58.93737 165.006911275871
58.95748 198.973176309308
58.9776 198
58.99771 203.000772558566
59.01782 196.9949080795
59.03794 198.007851295106
59.05805 199.011565512907
59.07817 189.018392331952
59.09828 181.997071716905
59.11839 196.98781660235
59.13851 210.993060530968
59.15862 184.995288771753
59.17873 212.0538229255
59.19885 222.936176609984
59.21896 195.963130932576
59.23908 236.009276005885
59.25919 183.009948571463
59.2793 205
59.29942 174.008165180088
59.31953 225.046660542535
59.33964 213.97299974844
59.35976 221.972345418381
59.37987 224.017925657126
59.39998 210.001757291572
59.4201 221
59.44021 227.006355842011
59.46033 243.00731761201
59.48044 244.036912186009
59.50055 272.973465194609
59.52067 264.002074337939
59.54078 274.999171173916
59.56089 267.994967554588
59.58101 291.00329968329
59.60112 287.020201593042
59.62124 333.076195613104
59.64135 351.045594123764
59.66146 378.948200834468
59.68158 416.925205791591
59.70169 496.986501987264
59.7218 484
59.74192 583.160301846448
59.76203 745.180846796604
59.78215 833.258555979695
59.80226 983.645744588058
59.82237 1188.62715711687
59.84249 1453.8843707972
59.8626 1658
59.88271 1869.05080343248
59.90283 1864.9771076161
59.92294 1855.84147377793
59.94305 1678.55895874908
59.96317 1442.38975731356
59.98328 1183.21453350948
60.0034 1050
60.02351 1051.01512014687
60.04362 1058.95829254218
60.06374 1010.02832256322
60.08385 1047.12624705633
60.10396 879.405214397409
60.12408 710.144925916167
60.14419 571.068614205732
60.16431 433.934980762287
60.18442 331.944036912388
60.20453 314.998364737555
60.22465 300.919363207193
60.24476 263.04948738438
60.26487 254.012954643573
60.28499 244.997214132189
60.3051 251
60.32522 220.010443413107
60.34533 254.989511841187
60.36544 204.944737250286
60.38556 215.997699471936
60.40567 199.98771467645
60.42578 230.989346736865
60.4459 212
60.46601 216.001969972467
60.48612 201.969165130153
60.50624 182.035925463507
60.52635 221.953925536214
60.54647 206.030334791809
60.56658 202.994247414768
60.58669 204.0043946438
60.60681 191.998304009192
60.62692 204.02241036797
60.64703 217.987010167549
60.66715 192.948103082189
60.68726 192.965783834079
60.70738 208.002843609293
60.72749 196.996854160936
60.7476 216
60.76772 194.981720479248
60.78783 196.018036642837
60.80794 206.006076271773
60.82806 199.030272729133
60.84817 187.994243961747
60.86828 199.000322572845
60.8884 189
60.90851 201.002118323485
60.92863 185.960281472887
60.94874 172.030332068554
60.96885 201.966551049812
60.98897 191.01817871288
61.00908 190.997744574491
61.02919 191.996962833353
61.04931 201.001637866062
61.06942 196.995720755126
61.08954 198.009820918186
61.10965 201.998925086473
61.12976 196.018208941484
61.14988 185.013822962806
61.16999 182.987207003468
61.1901 213
61.21022 183.997538708056
61.23033 216.036077376648
61.25045 212.981616084779
61.27056 214.995236967771
61.29067 209.021089622047
61.31079 191.008861211168
61.3309 179
61.35101 192.019560251858
61.37113 228.99598955831
61.39124 199.990326099662
61.41135 231.923234955015
61.43147 232.033866117391
61.45158 204.02380877072
61.4717 198
61.49181 224.009165377726
61.51192 224.990933739078
61.53204 221.017994236224
61.55215 233.007695820387
61.57226 219.005386714836
61.59238 229.995261324581
61.61249 218.009605125536
61.63261 207.001738763427
61.65272 219.008309452167
61.67283 214.980657185713
61.69295 201.981259188055
61.71306 200.997691081437
61.73317 208.964322103854
61.75329 227.009397092972
61.7734 195
61.79352 244.030708686749
61.81363 240.002348555474
61.83374 249.96201128889
61.85386 209.035563683856
61.87397 221.989683198595
61.89408 220.973848994524
61.9142 272
61.93431 266.980367497593
61.95442 229.994106000978
61.97454 256.060364386756
61.99465 276.937253020212
62.01477 296.017307513131
62.03488 270.996643130939
62.05499 303.989089528312
62.07511 296.993506280883
62.09522 292.997345516357
62.11533 300.048908405035
62.13545 334.994143017615
62.15556 303.028500793788
62.17568 324.970393649899
62.19579 329.013295618213
62.2159 301
62.23602 341.041566654386
62.25613 351.97089407825
62.27624 319.946395397429
62.29636 303.038704397499
62.31647 293.959727680698
62.33659 329.00535783722
62.3567 277
62.37681 284.007464352192
62.39693 281.984679728643
62.41704 274.998134552388
62.43715 274.024626703428
62.45727 254.033358667778
62.47738 245.984794826764
62.49749 260.010386503675
62.51761 212.984756070389
62.53772 220.023467228309
62.55784 236.010519351253
62.57795 235.000444950172
62.59806 235.017812741911
62.61818 221.00628992051
62.63829 220.005371726562
62.6584 200
62.67852 211.037493433507
62.69863 238.969735072891
62.71875 178.868344654305
62.73886 176.908343250699
62.75897 222.998717544423
62.77909 197.993082708492
62.7992 243
62.81931 194.981723340213
62.83943 200.021796182777
62.85954 198.980539377704
62.87965 193.983824941328
62.89977 201.015221024105
62.91988 182.001582136247
62.94 199
62.96011 190.993434643014
62.98022 180.988416205126
63.00034 180.053394317533
63.02045 216.970038243419
63.04056 197.048200079884
63.06068 184.014117305281
63.08079 171.997033557284
63.10091 195.011580020387
63.12102 202.993902166805
63.14113 188.974897191548
63.16125 184.040998378925
63.18136 205.002318361123
63.20147 186.00892138669
63.22159 202.990587847507
63.2417 209
63.26182 204.99002773858
63.28193 201.025120265955
63.30204 223.999599736304
63.32216 205.007847912487
63.34227 219.993926100689
63.36238 202.021097782164
63.3825 201
63.40261 222.994620299531
63.42272 191.992487704699
63.44284 211.010228391621
63.46295 196.995080393988
63.48307 216.992732778244
63.50318 198.018226329579
63.52329 203.985392336452
63.54341 224.99092899327
63.56352 190.001500656985
63.58363 224.014030169962
63.60375 197.961776585091
63.62386 218.926529783964
63.64398 244.991486751253
63.66409 231.017426934674
63.6842 197
63.70432 215.036384489573
63.72443 239.992641462176
63.74454 227.037844588377
63.76466 275.927591133603
63.78477 271.049193081395
63.80489 251.988252358317
63.825 305
63.84511 305.988454608714
63.86523 305.078425148307
63.88534 385.100209195937
63.90545 392.975944440836
63.92557 427.941090551406
63.94568 464.951830521242
63.96579 511.990626713574
63.98591 500.992200370738
64.00602 499.004912312342
64.02614 486.908136993638
64.04625 413.811827168703
64.06636 365.033030735926
64.08648 364.007228688101
64.10659 341.013089427139
64.1267 332
64.14682 362.023108097194
64.16693 351.925994162315
64.18705 292.92032063573
64.20716 284.051343803203
64.22727 245.012566243059
64.24739 264.998916204511
64.2675 235
64.28761 224.999484770051
64.30773 217.975218107981
64.32784 199.984905917039
64.34796 197.03165322677
64.36807 176.996545988643
64.38818 200.981640830526
64.4083 200
64.42841 192.992943494244
64.44852 182.009755491447
64.46864 200.998038760267
64.48875 183.999606849167
64.50886 196.029076235545
64.52898 162.007356470628
64.54909 183.995993504817
64.56921 168.998132023534
64.58932 184.007014924031
64.60943 171.976802147032
64.62955 174.062757925701
64.64966 204.973316751672
64.66977 190.046454510092
64.68989 166.002895847116
64.71 177
64.73012 186.004362164618
64.75023 190.009111465824
64.77034 191.978465860279
64.79046 178.99155709183
64.81057 192.00901125953
64.83068 169.009878634526
64.8508 184
64.87091 191.996161189655
64.89102 179.997217061331
64.91114 193.04375910832
64.93125 204.032838271136
64.95137 177.025684945583
64.97148 177.996077284192
64.99159 173.005253832038
65.01171 174.013101740063
65.03182 202.9952550496
65.05193 170.975474260674
65.07205 182.019132242141
65.09216 176.992834006667
65.11228 193.986242928129
65.13239 194.003922525506
65.1525 185
65.17262 177.996966916339
65.19273 179.005196968542
65.21284 185.020184663043
65.23296 191.01607236634
65.25307 178.993877329148
65.27319 197.993774565945
65.2933 192
65.31341 183.001553598498
65.33353 187.98604898725
65.35364 172.002337217231
65.37375 197.914530156973
65.39387 208.045956305966
65.41398 165.00986275559
65.43409 194.984462100811
65.45421 197.992029285469
65.47432 181.993902505561
65.49444 186.009131825986
65.51455 185.999332300801
65.53466 185.012890762117
65.55478 180.988849342298
65.57489 207.984793361996
65.595 223
65.61512 198.972499291498
65.63523 193.041996046295
65.65535 238.080274738812
65.67546 243.014803210932
65.69557 237.008509360878
65.71569 237.992421489625
65.7358 264
65.75591 269.98896833527
65.77603 232.955129198615
65.79614 220.991192418578
65.81626 216.00623587989
65.83637 212.014877199925
65.85648 204.990018684572
65.8766 222
65.89671 205.997021685665
65.91682 218.012202867088
65.93694 217.985821620744
65.95705 211.011680199393
65.97716 208.007975948765
65.99728 201.00920671521
66.01739 187.010926404935
66.03751 162.991608421512
66.05762 165.023375378289
66.07773 190.005875987951
66.09785 171.954170819655
66.11796 168.986403236852
66.13807 179.97735521202
66.15819 190.002259612976
66.1783 174
66.19842 169.001403041367
66.21853 176.022911943962
66.23864 186.982457510777
66.25876 168.007912312241
66.27887 183.976354590166
66.29898 184.011289070215
66.3191 175
66.33921 182.998980350883
66.35933 168.981451456588
66.37944 172.037550444007
66.39955 196.94854129169
66.41967 198.0355780949
66.43978 173.994210060085
66.45989 202.992341507795
66.48001 192.994855614691
66.50012 198.010983252462
66.52023 209.0211885874
66.54035 216.972968623471
66.56046 194.031019818856
66.58058 200.974739736093
66.60069 219.005494209296
66.6208 192
66.64092 195.974630385587
66.66103 161.025371361704
66.68114 218.047552975404
66.70126 189.056523571303
66.72137 191.98239148283
66.74149 192.004880035755
66.7616 183
66.78171 184.993483368938
66.80183 167.005864670389
66.82194 190.025027332333
66.84205 183.01549432427
66.86217 185.004051799786
66.88228 177.997892449166
66.90239 187.998413077639
66.92251 186.004555758339
66.94262 198.993238009238
66.96274 176.981987691719
66.98285 195.077815819227
67.00296 215.998508798728
67.02308 201.01643402944
67.04319 195.997353276695
67.0633 205
67.08342 205.995869180237
67.10353 208.027497909666
67.12365 227.991272471459
67.14376 207.014660003164
67.16387 224.964098470865
67.18399 233.005397237312
67.2041 221
67.22421 233.992148014984
67.24433 204.007054175248
67.26444 243.048193051787
67.28456 226.070478832201
67.30467 206.985823671414
67.32478 241.955047969568
67.3449 272
67.36501 255.988963020637
67.38512 251.020929771014
67.40524 286.055988809357
67.42535 300.95990335162
67.44546 326.940221832132
67.46558 345.004244185722
67.48569 344.979543606635
67.50581 424.038135342092
67.52592 477.047925422102
67.54603 541.122017081759
67.56615 615.096530207106
67.58626 662.745799789035
67.60637 853.752083768186
67.62649 955.956613931609
67.6466 1050
67.66672 1129.13850855826
67.68683 1244.93288585613
67.70694 1096.88769895105
67.72706 1141.08163201022
67.74717 958.292453376889
67.76728 826.119720016107
67.7874 712
67.80751 719.021161491596
67.82763 758.042740432385
67.84774 785.081350657463
67.86785 838.875227447485
67.88797 867.989735330124
67.90808 875.966695681498
67.92819 905.014859767269
67.94831 835.983199991821
67.96842 861.033007131008
67.98853 913.197277274684
68.00865 1105.42455394695
68.02876 1227.74547265248
68.04888 1382.85123400019
68.06899 1492.96561450751
68.0891 1544
68.10922 1596.01116299813
68.12933 1538.82476158543
68.14944 1388.67571204202
68.16956 1260.13152615536
68.18967 1256.95079060503
68.20979 1286.99254169366
68.2299 1324
68.25001 1464.04155698676
68.27013 1477.0247825987
68.29024 1473.76123128318
68.31035 1247.55746514039
68.33047 1068.29714185466
68.35058 841.196427606488
68.3707 705
68.39081 636.993703428605
68.41092 657.007181595149
68.43104 636.967486808185
68.45115 626.920961530863
68.47126 563.154833076056
68.49138 503.028101186488
68.51149 479.030537336921
68.5316 383
68.55172 326.950156193919
68.57183 274.943987716881
68.59195 251.93862476385
68.61206 231.985322560192
68.63217 259.971145691035
68.65229 256.006258965026
68.6724 248
68.69251 242.996736014977
68.71263 228.961459843073
68.73274 208.009638343769
68.75286 231.969593163802
68.77297 230.000220832454
68.79308 234.0086677533
68.8132 215
68.83331 220.003193693341
68.85342 216.990264455041
68.87354 206.987483119994
68.89365 208.972864840902
68.91376 217.014627228283
68.93388 200.008294958156
68.95399 203.000669646184
68.97411 200.006841221078
68.99422 218.994396271355
69.01433 191.977080016899
69.03445 202.040390813306
69.05456 208.003320967703
69.07467 203.009952520921
69.09479 193.008280341302
69.1149 183
69.13502 206.002537549931
69.15513 186.982671847449
69.17524 196.027929099062
69.19536 201.005109084209
69.21547 185.054925769651
69.23558 156.982222496375
69.2557 201
69.27581 174.991987287579
69.29593 186.009610123932
69.31604 173.974522238864
69.33615 167.030070588032
69.35627 155.989074238901
69.37638 174.993362170144
69.39649 167.998969487614
69.41661 187.010452798864
69.43672 191.985895069764
69.45683 166.963603904533
69.47695 169.106725497831
69.49706 215.006806015121
69.51718 171.023432191612
69.53729 183.997750504039
69.5574 168
69.57752 192.03337461478
69.59763 202.961546160944
69.61774 163.970797979684
69.63786 174.004939351341
69.65797 159.981153872799
69.67809 192.995661574902
69.6982 171
69.71831 182.008048011862
69.73843 185.992122327825
69.75854 177.985869123434
69.77865 176.983390488312
69.79877 187.984509083268
69.81888 195.99123031785
69.839 192
69.85911 149.993919879865
69.87922 171.019526465464
69.89934 171.999297565398
69.91945 178.007082176162
69.93956 175.998125009985
69.95968 180.997651769548
69.97979 177.003664705094
69.9999 175
70.02002 185.997891668875
70.04013 171.985492509857
70.06025 174.012634342385
70.08036 181.961693541885
70.10047 201.001800315004
70.12059 186.001115798298
70.1407 192
70.16081 158.994336493795
70.18093 177.026042024548
70.20104 175.984974506046
70.22116 175.980696039707
70.24127 187.992910643034
70.26138 185.998643059917
70.2815 182
70.30161 143.992828009123
70.32172 167.040803811985
70.34184 194.000654872873
70.36195 178.023079701168
70.38207 185.980884467463
70.40218 190.005938972181
70.42229 178.0064075118
70.44241 167.99576504202
70.46252 167.013879054504
70.48263 180.987673232089
70.50275 163.017393351221
70.52286 188.991529117735
70.54297 165.027062064914
70.56309 169.99444764279
70.5832 172
70.60332 168.005026717956
70.62343 179.009527305341
70.64354 177.998720571125
70.66366 181.989780978377
70.68377 179.025230309603
70.70388 162.99446514857
70.724 181
70.74411 160.993208980043
70.76423 173.045024172158
70.78434 199.013926364879
70.80445 190.017805341355
70.82457 187.02142897203
70.84468 168.001333920134
70.86479 178.003669801055
70.88491 161.004939926024
70.90502 190.003720634751
70.92513 161.967065499878
70.94525 172.076465240292
70.96536 195.004054306904
70.98548 174.016726912306
71.00559 168.005838107028
71.0257 154
71.04582 173.011593652702
71.06593 165.978379270419
71.08604 158.002603671765
71.10616 166.975795356993
71.12627 171.016466971068
71.14639 156.998962805744
71.1665 175
71.18661 173.995159243599
71.20673 163.986960565062
71.22684 164.029318243304
71.24695 179.013058989743
71.26707 158.017559618157
71.28718 167.980886060431
71.3073 178
71.32741 173.008089018121
71.34752 193.988148798127
71.36764 157.972656252669
71.38775 173.982870299198
71.40786 159.021351717678
71.42798 162.997089966439
71.44809 161.996006700953
71.4682 177
71.48832 165.976304158321
71.50843 158.046832990189
71.52855 205.038492159918
71.54866 181.048336958875
71.56877 175.012292290756
71.58889 155.010305307247
71.609 151
71.62911 175.002124816741
71.64923 161.995192858492
71.66934 178.035379667352
71.68946 185.992053306431
71.70957 189.996867177343
71.72968 183.021244427791
71.7498 153
71.76991 147.011860297964
71.79002 181.01620508057
71.81014 170.965926678379
71.83025 163.99681552441
71.85037 170.981953772605
71.87048 177.010606415651
71.89059 159.002670441904
71.91071 167.001034594776
71.93082 158.997018016308
71.95093 166.010388549004
71.97105 179.087588028775
71.99116 215.002019182423
72.01127 175.064803412846
72.03139 163.989239888131
72.0515 193
72.07162 177.977304774059
72.09173 170.017190427826
72.11184 184.99565658542
72.13196 170.005402470938
72.15207 184.98043183139
72.17218 182.013600551275
72.1923 170
72.21241 167.99263391257
72.23253 153.017362151935
72.25264 184.032803693638
72.27275 178.006507007061
72.29287 185.004668412269
72.31298 169.011729723816
72.33309 161.010817527498
72.35321 141.007381149091
72.37332 189.04628200153
72.39344 195.928175213387
72.41355 160.026567590265
72.43366 199.989371742883
72.45378 164.020086331833
72.47389 170.007291017129
72.494 144
72.51412 197.020016046978
72.53423 171.976665159797
72.55434 184.007192654823
72.57446 171.003470819687
72.59457 182.999393736436
72.61469 170.001370426092
72.6348 188
72.65491 194.987719630747
72.67503 167.015169999949
72.69514 208.046464167674
72.71525 191.078136232133
72.73537 171.012920848753
72.75548 170.994090039839
72.7756 181
72.79571 189.995804244622
72.81582 168.982912694402
72.83594 175.064175905445
72.85605 207.987721171973
72.87616 181.068018880019
72.89628 170.979357306312
72.91639 200.994509614728
72.9365 187
72.95662 189.020232113255
72.97673 207.99777710077
72.99685 195.008746600458
73.01696 208.024850514346
73.03707 176.015765832571
73.05719 202.980351526936
73.0773 226
73.09741 212.990263456486
73.11753 205.01911953915
73.13764 215.954985700058
73.15776 189.93499202637
73.17787 266.932815480055
73.19798 254.020255507456
73.2181 267
73.23821 297.001829714262
73.25832 282.996848746873
73.27844 303.053942006808
73.29855 331.897343251561
73.31867 390.893658550864
73.33878 449.972448934884
73.35889 463.981514104974
73.37901 525.024174736629
73.39912 538.993378422327
73.41923 535.01195305165
73.43935 538.936829004649
73.45946 474.176490180641
73.47957 398.062816154727
73.49969 386.003616368285
73.5198 363
73.53992 327.968959613382
73.56003 318.035470304958
73.58014 359.058385873064
73.60026 368.976848009873
73.62037 386.98825577166
73.64048 374.027846334492
73.6606 347
73.68071 341.997706559796
73.70083 312.898791396475
73.72094 230.885877263194
73.74105 213.998576544348
73.76117 213.993359383821
73.78128 209.03319882366
73.80139 174.993961143655
73.82151 219.007278397764
73.84162 187.968319438403
73.86174 188.03954535145
73.88185 206.015935050276
73.90196 197.036704968623
73.92208 183.001549901429
73.94219 189.998204911347
73.9623 186
73.98242 182.990890851953
74.00253 179.029094680275
74.02264 209.018534959718
74.04276 188.05881486256
74.06287 168.020789950522
74.08299 162.994915723334
74.1031 186
74.12321 197.993399294419
74.14333 173.985152132071
74.16344 186.034329100349
74.18355 192.012666742873
74.20367 179.026772130585
74.22378 167.995168618891
74.2439 186
74.26401 189.99175588754
74.28412 167.99288259614
74.30424 181.036398648555
74.32435 190.992875633121
74.34446 182.053407602511
74.36458 156.000358356819
74.38469 176.99346117096
74.40481 171.997921039365
74.42492 176.00061161606
74.44503 176.02046592624
74.46515 196.011434769887
74.48526 180.039856661926
74.50537 167.016970439522
74.52549 158.998757328266
74.5456 169
74.56571 174.006519512218
74.58583 187.995849442345
74.60594 164.941968638382
74.62606 149.98892331368
74.64617 167.976000294485
74.66628 169.012764971982
74.6864 163
74.70651 190.998789904836
74.72662 168.00433608323
74.74674 193.988252392925
74.76685 156.041155951519
74.78697 177.963943315497
74.80708 181.005048654497
74.82719 184.991462597866
74.84731 201.999689781551
74.86742 180.973397542044
74.88753 168.008385638267
74.90765 182.018300689217
74.92776 179.004174567842
74.94787 185.980620223189
74.96799 194.002423514523
74.9881 180
75.00822 178.002717612258
