3.00117 20436
3.02128 19861
3.0414 19310
3.06151 18803
3.08162 18340
3.10174 17646
3.12185 17521
3.14197 16503
3.16208 16280
3.18219 16203
3.20231 15150
3.22242 15155
3.24253 14531
3.26265 14156
3.28276 13698
3.30288 13029
3.32299 12717
3.3431 11932
3.36322 12114
3.38333 11708
3.40344 11003
3.42356 10829
3.44367 10332
3.46379 10066
3.4839 9695
3.50401 9316
3.52413 9240
3.54424 8616
3.56435 8334
3.58447 8152
3.60458 7623
3.62469 7674
3.64481 7180
3.66492 6847
3.68504 7019
3.70515 6385
3.72526 6128
3.74538 5760
3.76549 5580
3.7856 5393
3.80572 4964
3.82583 5015
3.84595 4738
3.86606 4574
3.88617 4512
3.90629 4085
3.9264 4048
3.94651 3674
3.96663 3493
3.98674 3600
4.00686 3197
4.02697 3168
4.04708 2903
4.0672 2802
4.08731 2802
4.10742 2564
4.12754 2538
4.14765 2397
4.16776 2352
4.18788 2187
4.20799 1954
4.22811 1956
4.24822 1900
4.26833 1819
4.28845 1889
4.30856 1663
4.32867 1619
4.34879 1582
4.3689 1530
4.38902 1577
4.40913 1371
4.42924 1390
4.44936 1343
4.46947 1306
4.48958 1435
4.5097 1222
4.52981 1308
4.54992 1167
4.57004 1206
4.59015 1213
4.61027 1084
4.63038 1030
4.65049 1026
4.67061 1019
4.69072 1101
4.71083 929
4.73095 926
4.75106 940
4.77118 880
4.79129 901
4.8114 828
4.83152 884
4.85163 853
4.87174 865
4.89186 850
4.91197 730
4.93209 706
4.9522 771
4.97231 675
4.99243 687
5.01254 695
5.03265 643
5.05277 669
5.07288 654
5.09299 667
5.11311 591
5.13322 522
5.15334 597
5.17345 549
5.19356 517
5.21368 513
5.23379 483
5.2539 511
5.27402 498
5.29413 455
5.31425 407
5.33436 440
5.35447 414
5.37459 469
5.3947 400
5.41481 430
5.43493 420
5.45504 380
5.47516 400
5.49527 367
5.51538 348
5.5355 332
5.55561 343
5.57572 317
5.59584 317
5.61595 288
5.63606 302
5.65618 314
5.67629 312
5.69641 251
5.71652 298
5.73663 257
5.75675 269
5.77686 247
5.79697 251
5.81709 282
5.8372 260
5.85732 202
5.87743 261
5.89754 234
5.91766 235
5.93777 252
5.95788 214
5.978 226
5.99811 230
6.01823 204
6.03834 211
6.05845 207
6.07857 209
6.09868 221
6.11879 199
6.13891 209
6.15902 221
6.17913 214
6.19925 191
6.21936 205
6.23948 188
6.25959 197
6.2797 222
6.29982 191
6.31993 203
6.34004 192
6.36016 205
6.38027 177
6.40039 224
6.4205 194
6.44061 203
6.46073 175
6.48084 181
6.50095 142
6.52107 180
6.54118 202
6.56129 173
6.58141 182
6.60152 177
6.62164 193
6.64175 161
6.66186 196
6.68198 175
6.70209 170
6.7222 203
6.74232 199
6.76243 176
6.78255 204
6.80266 181
6.82277 170
6.84289 200
6.863 165
6.88311 176
6.90323 186
6.92334 173
6.94346 163
6.96357 155
6.98368 151
7.0038 182
7.02391 166
7.04402 181
7.06414 196
7.08425 172
7.10436 152
7.12448 168
7.14459 188
7.16471 185
7.18482 170
7.20493 211
7.22505 152
7.24516 170
7.26527 153
7.28539 169
7.3055 194
7.32562 173
7.34573 180
7.36584 238
7.38596 164
7.40607 182
7.42618 182
7.4463 187
7.46641 176
7.48653 198
7.50664 224
7.52675 188
7.54687 195
7.56698 171
7.58709 208
7.60721 182
7.62732 198
7.64743 190
7.66755 187
7.68766 194
7.70778 186
7.72789 198
7.748 183
7.76812 205
7.78823 207
7.80834 188
7.82846 168
7.84857 201
7.86869 195
7.8888 188
7.90891 201
7.92903 177
7.94914 201
7.96925 189
7.98937 177
8.00948 203
8.0296 210
8.04971 227
8.06982 179
8.08994 193
8.11005 191
8.13016 210
8.15028 183
8.17039 190
8.1905 184
8.21062 186
8.23073 201
8.25085 213
8.27096 224
8.29107 231
8.31119 199
8.3313 230
8.35141 189
8.37153 191
8.39164 202
8.41176 193
8.43187 197
8.45198 218
8.4721 223
8.49221 204
8.51232 192
8.53244 209
8.55255 199
8.57266 223
8.59278 218
8.61289 221
8.63301 196
8.65312 201
8.67323 226
8.69335 223
8.71346 228
8.73357 232
8.75369 200
8.7738 218
8.79392 210
8.81403 210
8.83414 222
8.85426 212
8.87437 236
8.89448 200
8.9146 213
8.93471 187
8.95483 217
8.97494 212
8.99505 212
9.01517 196
9.03528 217
9.05539 201
9.07551 231
9.09562 215
9.11573 216
9.13585 210
9.15596 187
9.17608 219
9.19619 213
9.2163 211
9.23642 213
9.25653 210
9.27664 226
9.29676 191
9.31687 220
9.33699 207
9.3571 243
9.37721 226
9.39733 194
9.41744 206
9.43755 206
9.45767 236
9.47778 232
9.4979 243
9.51801 197
9.53812 216
9.55824 207
9.57835 250
9.59846 206
9.61858 217
9.63869 209
9.6588 231
9.67892 206
9.69903 206
9.71915 187
9.73926 256
9.75937 212
9.77949 226
9.7996 227
9.81971 207
9.83983 203
9.85994 213
9.88006 204
9.90017 234
9.92028 240
9.9404 215
9.96051 175
9.98062 226
10.00074 226
10.02085 219
10.04097 223
10.06108 208
10.08119 220
10.10131 210
10.12142 234
10.14153 204
10.16165 196
10.18176 208
10.20187 231
10.22199 226
10.2421 205
10.26222 219
10.28233 199
10.30244 210
10.32256 220
10.34267 210
10.36278 202
10.3829 236
10.40301 220
10.42313 200
10.44324 212
10.46335 213
10.48347 217
10.50358 216
10.52369 226
10.54381 198
10.56392 208
10.58403 234
10.60415 202
10.62426 209
10.64438 219
10.66449 224
10.6846 194
10.70472 234
10.72483 219
10.74494 199
10.76506 217
10.78517 193
10.80529 229
10.8254 205
10.84551 220
10.86563 215
10.88574 203
10.90585 200
10.92597 192
10.94608 218
10.9662 219
10.98631 207
11.00642 185
11.02654 204
11.04665 217
11.06676 201
11.08688 262
11.10699 260
11.1271 232
11.14722 176
11.16733 219
11.18745 195
11.20756 224
11.22767 200
11.24779 252
11.2679 209
11.28801 234
11.30813 208
11.32824 215
11.34836 226
11.36847 241
11.38858 208
11.4087 228
11.42881 225
11.44892 230
11.46904 194
11.48915 221
11.50927 200
11.52938 202
11.54949 240
11.56961 217
11.58972 247
11.60983 197
11.62995 211
11.65006 256
11.67017 201
11.69029 237
11.7104 212
11.73052 214
11.75063 208
11.77074 183
11.79086 174
11.81097 225
11.83108 207
11.8512 215
11.87131 226
11.89143 246
11.91154 205
11.93165 230
11.95177 208
11.97188 220
11.99199 225
12.01211 219
12.03222 198
12.05234 215
12.07245 227
12.09256 238
12.11268 200
12.13279 224
12.1529 225
12.17302 233
12.19313 238
12.21324 234
12.23336 232
12.25347 223
12.27359 205
12.2937 213
12.31381 202
12.33393 243
12.35404 196
12.37415 218
12.39427 216
12.41438 206
12.4345 214
12.45461 213
12.47472 228
12.49484 222
12.51495 233
12.53506 221
12.55518 224
12.57529 185
12.5954 202
12.61552 183
12.63563 217
12.65575 200
12.67586 207
12.69597 197
12.71609 206
12.7362 196
12.75631 198
12.77643 196
12.79654 232
12.81666 211
12.83677 201
12.85688 198
12.877 216
12.89711 212
12.91722 187
12.93734 228
12.95745 231
12.97757 181
12.99768 212
13.01779 187
13.03791 207
13.05802 219
13.07813 210
13.09825 241
13.11836 196
13.13847 218
13.15859 210
13.1787 209
13.19882 205
13.21893 192
13.23904 193
13.25916 191
13.27927 219
13.29938 200
13.3195 200
13.33961 197
13.35973 200
13.37984 192
13.39995 212
13.42007 202
13.44018 204
13.46029 197
13.48041 194
13.50052 179
13.52064 195
13.54075 191
13.56086 215
13.58098 219
13.60109 197
13.6212 240
13.64132 228
13.66143 228
13.68154 226
13.70166 215
13.72177 217
13.74189 196
13.762 177
13.78211 186
13.80223 193
13.82234 193
13.84245 208
13.86257 214
13.88268 194
13.9028 193
13.92291 195
13.94302 200
13.96314 193
13.98325 211
14.00336 167
14.02348 181
14.04359 170
14.06371 196
14.08382 196
14.10393 179
14.12405 174
14.14416 189
14.16427 166
14.18439 176
14.2045 185
14.22461 176
14.24473 199
14.26484 150
14.28496 169
14.30507 178
14.32518 180
14.3453 155
14.36541 183
14.38552 181
14.40564 159
14.42575 181
14.44587 161
14.46598 166
14.48609 186
14.50621 181
14.52632 161
14.54643 180
14.56655 194
14.58666 192
14.60677 203
14.62689 155
14.647 182
14.66712 173
14.68723 180
14.70734 177
14.72746 187
14.74757 195
14.76768 173
14.7878 166
14.80791 197
14.82803 167
14.84814 192
14.86825 195
14.88837 167
14.90848 202
14.92859 218
14.94871 212
14.96882 193
14.98894 186
15.00905 175
15.02916 187
15.04928 163
15.06939 195
15.0895 156
15.10962 171
15.12973 175
15.14984 167
15.16996 192
15.19007 212
15.21019 166
15.2303 186
15.25041 188
15.27053 176
15.29064 190
15.31075 191
15.33087 193
15.35098 184
15.3711 180
15.39121 201
15.41132 162
15.43144 159
15.45155 163
15.47166 141
15.49178 182
15.51189 167
15.53201 148
15.55212 166
15.57223 162
15.59235 164
15.61246 167
15.63257 191
15.65269 169
15.6728 169
15.69291 167
15.71303 155
15.73314 181
15.75326 162
15.77337 175
15.79348 191
15.8136 158
15.83371 176
15.85382 153
15.87394 192
15.89405 142
15.91417 145
15.93428 167
15.95439 161
15.97451 150
15.99462 188
16.01473 151
16.03485 153
16.05496 129
16.07508 155
16.09519 150
16.1153 146
16.13542 150
16.15553 143
16.17564 156
16.19576 178
16.21587 163
16.23598 157
16.2561 137
16.27621 162
16.29633 179
16.31644 175
16.33655 165
16.35667 182
16.37678 151
16.39689 158
16.41701 170
16.43712 157
16.45724 169
16.47735 158
16.49746 183
16.51758 146
16.53769 158
16.5578 183
16.57792 164
16.59803 162
16.61814 152
16.63826 160
16.65837 158
16.67849 137
16.6986 165
16.71871 123
16.73883 154
16.75894 145
16.77905 165
16.79917 146
16.81928 183
16.8394 167
16.85951 181
16.87962 144
16.89974 169
16.91985 136
16.93996 164
16.96008 169
16.98019 162
17.00031 146
17.02042 165
17.04053 164
17.06065 141
17.08076 171
17.10087 164
17.12099 158
17.1411 122
17.16121 161
17.18133 157
17.20144 161
17.22156 159
17.24167 155
17.26178 166
17.2819 152
17.30201 160
17.32212 148
17.34224 148
17.36235 172
17.38247 179
17.40258 154
17.42269 153
17.44281 143
17.46292 145
17.48303 174
17.50315 143
17.52326 168
17.54338 158
17.56349 151
17.5836 167
17.60372 164
17.62383 151
17.64394 175
17.66406 179
17.68417 146
17.70428 152
17.7244 171
17.74451 134
17.76463 165
17.78474 165
17.80485 151
17.82497 182
17.84508 162
17.86519 167
17.88531 156
17.90542 162
17.92554 163
17.94565 158
17.96576 156
17.98588 145
18.00599 153
18.0261 168
18.04622 151
18.06633 143
18.08645 157
18.10656 152
18.12667 164
18.14679 186
18.1669 138
18.18701 154
18.20713 156
18.22724 159
18.24735 164
18.26747 173
18.28758 165
18.3077 187
18.32781 129
18.34792 154
18.36804 152
18.38815 156
18.40826 169
18.42838 143
18.44849 160
18.46861 178
18.48872 162
18.50883 144
18.52895 153
18.54906 163
18.56917 159
18.58929 160
18.6094 167
18.62951 155
18.64963 151
18.66974 159
18.68986 183
18.70997 149
18.73008 140
18.7502 180
18.77031 161
18.79042 165
18.81054 191
18.83065 173
18.85077 159
18.87088 168
18.89099 146
18.91111 163
18.93122 163
18.95133 159
18.97145 169
18.99156 163
19.01168 151
19.03179 170
19.0519 155
19.07202 170
19.09213 174
19.11224 169
19.13236 180
19.15247 142
19.17258 160
19.1927 166
19.21281 163
19.23293 163
19.25304 147
19.27315 181
19.29327 160
19.31338 152
19.33349 192
19.35361 181
19.37372 148
19.39384 158
19.41395 175
19.43406 147
19.45418 187
19.47429 172
19.4944 199
19.51452 187
19.53463 136
19.55475 161
19.57486 181
19.59497 168
19.61509 175
19.6352 158
19.65531 180
19.67543 180
19.69554 179
19.71565 208
19.73577 163
19.75588 180
19.776 192
19.79611 204
19.81622 215
19.83634 208
19.85645 225
19.87656 230
19.89668 199
19.91679 269
19.93691 231
19.95702 235
19.97713 274
19.99725 246
20.01736 229
20.03747 220
20.05759 220
20.0777 219
20.09782 242
20.11793 263
20.13804 243
20.15816 252
20.17827 224
20.19838 221
20.2185 260
20.23861 268
20.25872 235
20.27884 264
20.29895 261
20.31907 284
20.33918 269
20.35929 294
20.37941 281
20.39952 309
20.41963 306
20.43975 300
20.45986 323
20.47998 328
20.50009 349
20.5202 388
20.54032 406
20.56043 424
20.58054 425
20.60066 457
20.62077 468
20.64088 509
20.661 625
20.68111 834
20.70123 1108
20.72134 1497
20.74145 2236
20.76157 3229
20.78168 4406
20.80179 5926
20.82191 7395
20.84202 8636
20.86214 8621
20.88225 7358
20.90236 5656
20.92248 3763
20.94259 2492
20.9627 1438
20.98282 966
21.00293 844
21.02305 723
21.04316 662
21.06327 613
21.08339 587
21.1035 468
21.12361 415
21.14373 396
21.16384 356
21.18395 313
21.20407 311
21.22418 255
21.2443 299
21.26441 266
21.28452 279
21.30464 255
21.32475 270
21.34486 234
21.36498 254
21.38509 229
21.40521 237
21.42532 227
21.44543 232
21.46555 240
21.48566 238
21.50577 249
21.52589 239
21.546 205
21.56612 216
21.58623 230
21.60634 226
21.62646 216
21.64657 204
21.66668 214
21.6868 239
21.70691 173
21.72702 190
21.74714 205
21.76725 235
21.78737 202
21.80748 220
21.82759 210
21.84771 231
21.86782 219
21.88793 251
21.90805 210
21.92816 238
21.94828 256
21.96839 259
21.9885 261
22.00862 248
22.02873 231
22.04884 259
22.06896 230
22.08907 203
22.10919 235
22.1293 225
22.14941 197
22.16953 226
22.18964 228
22.20975 210
22.22987 208
22.24998 240
22.27009 216
22.29021 251
22.31032 237
22.33044 237
22.35055 258
22.37066 212
22.39078 233
22.41089 236
22.431 210
22.45112 212
22.47123 200
22.49135 201
22.51146 227
22.53157 215
22.55169 202
22.5718 230
22.59191 215
22.61203 268
22.63214 218
22.65225 188
22.67237 226
22.69248 210
22.7126 196
22.73271 179
22.75282 188
22.77294 198
22.79305 188
22.81316 211
22.83328 214
22.85339 205
22.87351 227
22.89362 193
22.91373 209
22.93385 228
22.95396 191
22.97407 212
22.99419 250
23.0143 230
23.03442 259
23.05453 238
23.07464 248
23.09476 233
23.11487 260
23.13498 248
23.1551 286
23.17521 264
23.19532 284
23.21544 253
23.23555 272
23.25567 288
23.27578 268
23.29589 247
23.31601 240
23.33612 233
23.35623 219
23.37635 239
23.39646 233
23.41658 215
23.43669 258
23.4568 238
23.47692 227
23.49703 223
23.51714 243
23.53726 263
23.55737 253
23.57749 242
23.5976 227
23.61771 248
23.63783 265
23.65794 218
23.67805 242
23.69817 225
23.71828 263
23.73839 241
23.75851 252
23.77862 236
23.79874 246
23.81885 262
23.83896 286
23.85908 270
23.87919 256
23.8993 283
23.91942 310
23.93953 329
23.95965 362
23.97976 354
23.99987 355
24.01999 334
24.0401 303
24.06021 261
24.08033 247
24.10044 223
24.12056 198
24.14067 195
24.16078 203
24.1809 236
24.20101 234
24.22112 224
24.24124 230
24.26135 221
24.28146 259
24.30158 238
24.32169 235
24.34181 222
24.36192 220
24.38203 238
24.40215 236
24.42226 222
24.44237 208
24.46249 202
24.4826 242
24.50272 223
24.52283 240
24.54294 213
24.56306 217
24.58317 192
24.60328 199
24.6234 226
24.64351 251
24.66362 214
24.68374 204
24.70385 233
24.72397 245
24.74408 237
24.76419 256
24.78431 208
24.80442 229
24.82453 223
24.84465 266
24.86476 225
24.88488 187
24.90499 221
24.9251 237
24.94522 243
24.96533 231
24.98544 195
25.00556 238
25.02567 211
25.04579 243
25.0659 194
25.08601 194
25.10613 197
25.12624 227
25.14635 215
25.16647 193
25.18658 214
25.20669 228
25.22681 220
25.24692 231
25.26704 216
25.28715 218
25.30726 256
25.32738 218
25.34749 243
25.3676 278
25.38772 245
25.40783 233
25.42795 271
25.44806 299
25.46817 320
25.48829 343
25.5084 358
25.52851 378
25.54863 397
25.56874 412
25.58886 385
25.60897 407
25.62908 423
25.6492 429
25.66931 456
25.68942 396
25.70954 425
25.72965 432
25.74976 411
25.76988 425
25.78999 458
25.81011 442
25.83022 453
25.85033 434
25.87045 472
25.89056 448
25.91067 446
25.93079 466
25.9509 467
25.97102 487
25.99113 480
26.01124 523
26.03136 494
26.05147 537
26.07158 561
26.0917 562
26.11181 604
26.13193 547
26.15204 637
26.17215 721
26.19227 758
26.21238 812
26.23249 915
26.25261 952
26.27272 1064
26.29283 1103
26.31295 1220
26.33306 1350
26.35318 1559
26.37329 1741
26.3934 2070
26.41352 2572
26.43363 3113
26.45374 4131
26.47386 5713
26.49397 7823
26.51409 10651
26.5342 14917
26.55431 20096
26.57443 26993
26.59454 33201
26.61465 37780
26.63477 38168
26.65488 33800
26.67499 26256
26.69511 20004
26.71522 14691
26.73534 9264
26.75545 5007
26.77556 2892
26.79568 2103
26.81579 1850
26.8359 1611
26.85602 1419
26.87613 1366
26.89625 1193
26.91636 1145
26.93647 1101
26.95659 1022
26.9767 1025
26.99681 978
27.01693 836
27.03704 831
27.05716 875
27.07727 754
27.09738 711
27.1175 685
27.13761 649
27.15772 514
27.17784 546
27.19795 532
27.21806 470
27.23818 478
27.25829 505
27.27841 504
27.29852 547
27.31863 538
27.33875 603
27.35886 704
27.37897 721
27.39909 742
27.4192 876
27.43932 815
27.45943 887
27.47954 872
27.49966 784
27.51977 649
27.53988 589
27.56 505
27.58011 447
27.60023 431
27.62034 368
27.64045 378
27.66057 399
27.68068 352
27.70079 323
27.72091 342
27.74102 368
27.76113 309
27.78125 341
27.80136 346
27.82148 316
27.84159 332
27.8617 331
27.88182 326
27.90193 373
27.92204 324
27.94216 323
27.96227 317
27.98239 288
28.0025 317
28.02261 296
28.04273 287
28.06284 300
28.08295 277
28.10307 281
28.12318 292
28.1433 286
28.16341 269
28.18352 245
28.20364 266
28.22375 247
28.24386 282
28.26398 237
28.28409 248
28.3042 240
28.32432 263
28.34443 238
28.36455 244
28.38466 286
28.40477 240
28.42489 242
28.445 247
28.46511 215
28.48523 235
28.50534 255
28.52546 261
28.54557 218
28.56568 223
28.5858 220
28.60591 227
28.62602 245
28.64614 233
28.66625 226
28.68636 255
28.70648 210
28.72659 231
28.74671 232
28.76682 231
28.78693 226
28.80705 231
28.82716 232
28.84727 209
28.86739 239
28.8875 220
28.90762 229
28.92773 213
28.94784 236
28.96796 215
28.98807 193
29.00818 213
29.0283 209
29.04841 258
29.06853 248
29.08864 215
29.10875 205
29.12887 227
29.14898 220
29.16909 233
29.18921 205
29.20932 218
29.22943 200
29.24955 209
29.26966 236
29.28978 209
29.30989 220
29.33 235
29.35012 213
29.37023 260
29.39034 258
29.41046 237
29.43057 255
29.45069 242
29.4708 292
29.49091 246
29.51103 284
29.53114 236
29.55125 258
29.57137 239
29.59148 234
29.6116 214
29.63171 224
29.65182 217
29.67194 213
29.69205 249
29.71216 222
29.73228 231
29.75239 216
29.7725 235
29.79262 254
29.81273 241
29.83285 276
29.85296 243
29.87307 244
29.89319 247
29.9133 233
29.93341 268
29.95353 240
29.97364 228
29.99376 220
30.01387 217
30.03398 242
30.0541 227
30.07421 264
30.09432 249
30.11444 238
30.13455 243
30.15467 289
30.17478 243
30.19489 286
30.21501 300
30.23512 235
30.25523 257
30.27535 243
30.29546 219
30.31557 225
30.33569 228
30.3558 214
30.37592 237
30.39603 212
30.41614 197
30.43626 223
30.45637 210
30.47648 217
30.4966 208
30.51671 200
30.53683 186
30.55694 227
30.57705 199
30.59717 223
30.61728 239
30.63739 239
30.65751 243
30.67762 267
30.69773 260
30.71785 307
30.73796 275
30.75808 294
30.77819 279
30.7983 288
30.81842 283
30.83853 272
30.85864 275
30.87876 245
30.89887 241
30.91899 237
30.9391 216
30.95921 202
30.97933 193
30.99944 196
31.01955 210
31.03967 198
31.05978 195
31.0799 174
31.10001 161
31.12012 187
31.14024 185
31.16035 176
31.18046 214
31.20058 172
31.22069 189
31.2408 188
31.26092 180
31.28103 144
31.30115 173
31.32126 176
31.34137 172
31.36149 153
31.3816 176
31.40171 182
31.42183 187
31.44194 182
31.46206 163
31.48217 151
31.50228 169
31.5224 180
31.54251 155
31.56262 159
31.58274 138
31.60285 152
31.62297 153
31.64308 165
31.66319 158
31.68331 193
31.70342 153
31.72353 188
31.74365 157
31.76376 193
31.78387 177
31.80399 129
31.8241 171
31.84422 167
31.86433 163
31.88444 168
31.90456 140
31.92467 161
31.94478 164
31.9649 169
31.98501 161
32.00513 162
32.02524 156
32.04535 179
32.06547 181
32.08558 172
32.10569 179
32.12581 167
32.14592 190
32.16604 161
32.18615 187
32.20626 210
32.22638 204
32.24649 165
32.2666 163
32.28672 179
32.30683 184
32.32694 193
32.34706 178
32.36717 192
32.38729 193
32.4074 200
32.42751 214
32.44763 194
32.46774 179
32.48785 194
32.50797 180
32.52808 172
32.5482 187
32.56831 163
32.58842 167
32.60854 157
32.62865 157
32.64876 154
32.66888 153
32.68899 148
32.7091 171
32.72922 145
32.74933 154
32.76945 150
32.78956 152
32.80967 172
32.82979 161
32.8499 146
32.87001 148
32.89013 156
32.91024 158
32.93036 124
32.95047 162
32.97058 165
32.9907 128
33.01081 128
33.03092 143
33.05104 138
33.07115 128
33.09127 173
33.11138 168
33.13149 168
33.15161 178
33.17172 163
33.19183 160
33.21195 139
33.23206 153
33.25217 161
33.27229 165
33.2924 157
33.31252 156
33.33263 167
33.35274 136
33.37286 158
33.39297 161
33.41308 154
33.4332 122
33.45331 141
33.47343 157
33.49354 133
33.51365 142
33.53377 138
33.55388 139
33.57399 139
33.59411 138
33.61422 145
33.63434 141
33.65445 143
33.67456 153
33.69468 157
33.71479 167
33.7349 142
33.75502 155
33.77513 135
33.79524 142
33.81536 159
33.83547 154
33.85559 175
33.8757 151
33.89581 123
33.91593 159
33.93604 159
33.95615 158
33.97627 133
33.99638 163
34.0165 168
34.03661 131
34.05672 164
34.07684 161
34.09695 172
34.11706 154
34.13718 187
34.15729 191
34.17741 184
34.19752 203
34.21763 205
34.23775 204
34.25786 190
34.27797 168
34.29809 167
34.3182 174
34.33831 185
34.35843 171
34.37854 164
34.39866 178
34.41877 171
34.43888 188
34.459 166
34.47911 181
34.49922 182
34.51934 184
34.53945 191
34.55957 225
34.57968 183
34.59979 186
34.61991 207
34.64002 185
34.66013 181
34.68025 180
34.70036 167
34.72047 173
34.74059 179
34.7607 186
34.78082 201
34.80093 200
34.82104 174
34.84116 180
34.86127 209
34.88138 215
34.9015 194
34.92161 224
34.94173 203
34.96184 174
34.98195 188
35.00207 185
35.02218 203
35.04229 208
35.06241 188
35.08252 198
35.10264 206
35.12275 199
35.14286 214
35.16298 227
35.18309 194
35.2032 173
35.22332 195
35.24343 198
35.26354 222
35.28366 212
35.30377 193
35.32389 209
35.344 202
35.36411 187
35.38423 211
35.40434 212
35.42445 216
35.44457 219
35.46468 261
35.4848 237
35.50491 254
35.52502 209
35.54514 225
35.56525 221
35.58536 251
35.60548 232
35.62559 220
35.64571 212
35.66582 195
35.68593 201
35.70605 207
35.72616 188
35.74627 203
35.76639 176
35.7865 172
35.80661 188
35.82673 191
35.84684 182
35.86696 202
35.88707 207
35.90718 205
35.9273 150
35.94741 175
35.96752 176
35.98764 187
36.00775 191
36.02787 212
36.04798 212
36.06809 210
36.08821 216
36.10832 201
36.12843 211
36.14855 247
36.16866 255
36.18878 243
36.20889 233
36.229 282
36.24912 267
36.26923 306
36.28934 286
36.30946 371
36.32957 450
36.34968 516
36.3698 611
36.38991 786
36.41003 946
36.43014 1210
36.45025 1592
36.47037 1951
36.49048 2287
36.51059 2502
36.53071 2534
36.55082 2321
36.57094 1872
36.59105 1513
36.61116 1322
36.63128 1152
36.65139 935
36.6715 637
36.69162 395
36.71173 311
36.73184 285
36.75196 242
36.77207 253
36.79219 248
36.8123 240
36.83241 201
36.85253 217
36.87264 211
36.89275 188
36.91287 204
36.93298 174
36.9531 194
36.97321 199
36.99332 191
37.01344 159
37.03355 194
37.05366 203
37.07378 158
37.09389 197
37.11401 180
37.13412 166
37.15423 186
37.17435 174
37.19446 173
37.21457 182
37.23469 156
37.2548 161
37.27491 169
37.29503 177
37.31514 167
37.33526 170
37.35537 182
37.37548 165
37.3956 185
37.41571 162
37.43582 177
37.45594 167
37.47605 150
37.49617 159
37.51628 159
37.53639 163
37.55651 168
37.57662 163
37.59673 166
37.61685 159
37.63696 179
37.65708 200
37.67719 159
37.6973 168
37.71742 165
37.73753 164
37.75764 171
37.77776 180
37.79787 145
37.81798 179
37.8381 145
37.85821 185
37.87833 154
37.89844 145
37.91855 147
37.93867 150
37.95878 159
37.97889 174
37.99901 139
38.01912 157
38.03924 173
38.05935 178
38.07946 169
38.09958 182
38.11969 142
38.1398 161
38.15992 163
38.18003 160
38.20015 154
38.22026 149
38.24037 187
38.26049 147
38.2806 175
38.30071 160
38.32083 174
38.34094 184
38.36105 205
38.38117 202
38.40128 191
38.4214 175
38.44151 191
38.46162 184
38.48174 162
38.50185 205
38.52196 187
38.54208 189
38.56219 213
38.58231 187
38.60242 203
38.62253 167
38.64265 182
38.66276 186
38.68287 165
38.70299 174
38.7231 193
38.74321 160
38.76333 168
38.78344 177
38.80356 153
38.82367 180
38.84378 155
38.8639 171
38.88401 158
38.90412 161
38.92424 188
38.94435 166
38.96447 178
38.98458 189
39.00469 199
39.02481 188
39.04492 184
39.06503 218
39.08515 204
39.10526 195
39.12538 223
39.14549 248
39.1656 261
39.18572 305
39.20583 314
39.22594 366
39.24606 374
39.26617 497
39.28628 558
39.3064 662
39.32651 930
39.34663 1092
39.36674 1307
39.38685 1660
39.40697 1941
39.42708 2392
39.44719 2362
39.46731 2116
39.48742 1831
39.50754 1408
39.52765 1201
39.54776 1190
39.56788 972
39.58799 766
39.6081 464
39.62822 330
39.64833 274
39.66845 269
39.68856 261
39.70867 251
39.72879 213
39.7489 190
39.76901 228
39.78913 201
39.80924 183
39.82935 200
39.84947 198
39.86958 173
39.8897 169
39.90981 175
39.92992 209
39.95004 203
39.97015 222
39.99026 245
40.01038 240
40.03049 243
40.05061 303
40.07072 263
40.09083 321
40.11095 420
40.13106 455
40.15117 548
40.17129 653
40.1914 780
40.21152 915
40.23163 1059
40.25174 1174
40.27186 1209
40.29197 1121
40.31208 943
40.3322 769
40.35231 668
40.37242 628
40.39254 567
40.41265 412
40.43277 297
40.45288 227
40.47299 220
40.49311 207
40.51322 179
40.53333 199
40.55345 192
40.57356 198
40.59368 199
40.61379 207
40.6339 168
40.65402 151
40.67413 157
40.69424 165
40.71436 170
40.73447 151
40.75458 189
40.7747 176
40.79481 158
40.81493 144
40.83504 159
40.85515 173
40.87527 184
40.89538 146
40.91549 189
40.93561 161
40.95572 167
40.97584 172
40.99595 166
41.01606 159
41.03618 145
41.05629 171
41.0764 166
41.09652 178
41.11663 155
41.13675 158
41.15686 159
41.17697 181
41.19709 166
41.2172 173
41.23731 167
41.25743 148
41.27754 171
41.29765 177
41.31777 149
41.33788 143
41.358 174
41.37811 148
41.39822 159
41.41834 144
41.43845 155
41.45856 169
41.47868 146
41.49879 170
41.51891 163
41.53902 163
41.55913 152
41.57925 188
41.59936 171
41.61947 187
41.63959 205
41.6597 212
41.67982 224
41.69993 226
41.72004 226
41.74016 252
41.76027 226
41.78038 264
41.8005 257
41.82061 208
41.84072 226
41.86084 223
41.88095 212
41.90107 217
41.92118 223
41.94129 207
41.96141 179
41.98152 170
42.00163 188
42.02175 207
42.04186 177
42.06198 195
42.08209 198
42.1022 177
42.12232 236
42.14243 241
42.16254 269
42.18266 279
42.20277 285
42.22289 322
42.243 376
42.26311 445
42.28323 528
42.30334 637
42.32345 815
42.34357 961
42.36368 1299
42.38379 1434
42.40391 1643
42.42402 1772
42.44414 1656
42.46425 1412
42.48436 1116
42.50448 972
42.52459 909
42.5447 853
42.56482 719
42.58493 500
42.60505 361
42.62516 262
42.64527 230
42.66539 259
42.6855 219
42.70561 231
42.72573 220
42.74584 203
42.76595 195
42.78607 187
42.80618 193
42.8263 176
42.84641 187
42.86652 163
42.88664 182
42.90675 173
42.92686 173
42.94698 149
42.96709 158
42.98721 154
43.00732 154
43.02743 151
43.04755 167
43.06766 165
43.08777 160
43.10789 171
43.128 157
43.14812 180
43.16823 147
43.18834 166
43.20846 143
43.22857 160
43.24868 153
43.2688 145
43.28891 122
43.30902 146
43.32914 159
43.34925 139
43.36937 135
43.38948 127
43.40959 149
43.42971 157
43.44982 130
43.46993 168
43.49005 148
43.51016 164
43.53028 173
43.55039 164
43.5705 175
43.59062 161
43.61073 141
43.63084 164
43.65096 164
43.67107 152
43.69119 143
43.7113 164
43.73141 174
43.75153 158
43.77164 141
43.79175 148
43.81187 158
43.83198 152
43.85209 132
43.87221 134
43.89232 145
43.91244 144
43.93255 119
43.95266 122
43.97278 148
43.99289 148
44.013 151
44.03312 150
44.05323 186
44.07335 143
44.09346 156
44.11357 138
44.13369 143
44.1538 143
44.17391 158
44.19403 153
44.21414 148
44.23426 140
44.25437 153
44.27448 151
44.2946 164
44.31471 130
44.33482 130
44.35494 154
44.37505 136
44.39516 139
44.41528 150
44.43539 142
44.45551 130
44.47562 161
44.49573 129
44.51585 127
44.53596 137
44.55607 161
44.57619 155
44.5963 151
44.61642 144
44.63653 177
44.65664 146
44.67676 137
44.69687 159
44.71698 143
44.7371 123
44.75721 151
44.77732 153
44.79744 147
44.81755 150
44.83767 174
44.85778 158
44.87789 160
44.89801 129
44.91812 137
44.93823 144
44.95835 145
44.97846 142
44.99858 142
45.01869 166
45.0388 177
45.05892 145
45.07903 162
45.09914 168
45.11926 157
45.13937 155
45.15949 124
45.1796 165
45.19971 153
45.21983 168
45.23994 153
45.26005 140
45.28017 143
45.30028 141
45.32039 160
45.34051 169
45.36062 177
45.38074 189
45.40085 183
45.42096 188
45.44108 207
45.46119 192
45.4813 206
45.50142 223
45.52153 237
45.54165 275
45.56176 271
45.58187 318
45.60199 382
45.6221 414
45.64221 498
45.66233 582
45.68244 697
45.70256 826
45.72267 1002
45.74278 1094
45.7629 1058
45.78301 1087
45.80312 951
45.82324 818
45.84335 666
45.86346 660
45.88358 651
45.90369 585
45.92381 423
45.94392 346
45.96403 234
45.98415 225
46.00426 212
46.02437 173
46.04449 179
46.0646 148
46.08472 157
46.10483 128
46.12494 162
46.14506 175
46.16517 145
46.18528 150
46.2054 160
46.22551 146
46.24563 150
46.26574 162
46.28585 139
46.30597 127
46.32608 137
46.34619 142
46.36631 148
46.38642 134
46.40653 149
46.42665 125
46.44676 151
46.46688 134
46.48699 142
46.5071 150
46.52722 139
46.54733 134
46.56744 145
46.58756 139
46.60767 126
46.62779 128
46.6479 131
46.66801 154
46.68813 155
46.70824 116
46.72835 133
46.74847 141
46.76858 115
46.78869 129
46.80881 128
46.82892 145
46.84904 141
46.86915 136
46.88926 124
46.90938 113
46.92949 138
46.9496 135
46.96972 138
46.98983 167
47.00995 142
47.03006 149
47.05017 155
47.07029 139
47.0904 144
47.11051 166
47.13063 171
47.15074 150
47.17086 155
47.19097 160
47.21108 137
47.2312 139
47.25131 153
47.27142 148
47.29154 147
47.31165 151
47.33176 150
47.35188 145
47.37199 137
47.39211 167
47.41222 139
47.43233 153
47.45245 148
47.47256 147
47.49267 148
47.51279 153
47.5329 145
47.55302 115
47.57313 151
47.59324 153
47.61336 137
47.63347 151
47.65358 114
47.6737 145
47.69381 152
47.71393 142
47.73404 126
47.75415 132
47.77427 145
47.79438 137
47.81449 125
47.83461 127
47.85472 124
47.87483 143
47.89495 159
47.91506 150
47.93518 135
47.95529 149
47.9754 119
47.99552 115
48.01563 150
48.03574 135
48.05586 115
48.07597 129
48.09609 122
48.1162 121
48.13631 133
48.15643 155
48.17654 129
48.19665 114
48.21677 126
48.23688 135
48.257 132
48.27711 130
48.29722 148
48.31734 122
48.33745 134
48.35756 133
48.37768 155
48.39779 132
48.4179 155
48.43802 147
48.45813 142
48.47825 141
48.49836 144
48.51847 133
48.53859 140
48.5587 136
48.57881 134
48.59893 161
48.61904 129
48.63916 155
48.65927 137
48.67938 136
48.6995 152
48.71961 169
48.73972 147
48.75984 150
48.77995 124
48.80006 164
48.82018 148
48.84029 161
48.86041 157
48.88052 152
48.90063 172
48.92075 146
48.94086 170
48.96097 172
48.98109 163
49.0012 175
49.02132 144
49.04143 159
49.06154 156
49.08166 145
49.10177 177
49.12188 153
49.142 152
49.16211 151
49.18223 147
49.20234 165
49.22245 159
49.24257 160
49.26268 137
49.28279 144
49.30291 145
49.32302 143
49.34313 149
49.36325 165
49.38336 148
49.40348 151
49.42359 164
49.4437 161
49.46382 164
49.48393 173
49.50404 188
49.52416 169
49.54427 184
49.56439 189
49.5845 183
49.60461 205
49.62473 203
49.64484 212
49.66495 195
49.68507 217
49.70518 233
49.7253 275
49.74541 279
49.76552 306
49.78564 341
49.80575 339
49.82586 363
49.84598 427
49.86609 506
49.8862 527
49.90632 691
49.92643 737
49.94655 855
49.96666 1122
49.98677 1427
50.00689 1777
50.027 2268
50.04711 2657
50.06723 3077
50.08734 3551
50.10746 3615
50.12757 3464
50.14768 2948
50.1678 2379
50.18791 2047
50.20802 1873
50.22814 1868
50.24825 1731
50.26837 1509
50.28848 1136
50.30859 727
50.32871 507
50.34882 463
50.36893 351
50.38905 328
50.40916 294
50.42927 360
50.44939 335
50.4695 331
50.48962 338
50.50973 326
50.52984 339
50.54996 338
50.57007 324
50.59018 327
50.6103 338
50.63041 289
50.65053 269
50.67064 253
50.69075 248
50.71087 227
50.73098 224
50.75109 190
50.77121 218
50.79132 225
50.81143 212
50.83155 196
50.85166 182
50.87178 160
50.89189 148
50.912 157
50.93212 168
50.95223 158
50.97234 174
50.99246 128
51.01257 133
51.03269 160
51.0528 163
51.07291 123
51.09303 161
51.11314 146
51.13325 156
51.15337 144
51.17348 133
51.1936 136
51.21371 136
51.23382 143
51.25394 116
51.27405 150
51.29416 154
51.31428 135
51.33439 130
51.3545 121
51.37462 130
51.39473 122
51.41485 117
51.43496 134
51.45507 140
51.47519 131
51.4953 123
51.51541 140
51.53553 143
51.55564 144
51.57576 137
51.59587 117
51.61598 123
51.6361 128
51.65621 125
51.67632 104
51.69644 127
51.71655 125
51.73667 118
51.75678 142
51.77689 124
51.79701 129
51.81712 129
51.83723 120
51.85735 122
51.87746 135
51.89757 137
51.91769 121
51.9378 118
51.95792 105
51.97803 112
51.99814 136
52.01826 110
52.03837 120
52.05848 131
52.0786 129
52.09871 125
52.11883 145
52.13894 128
52.15905 120
52.17917 125
52.19928 118
52.21939 151
52.23951 129
52.25962 129
52.27974 117
52.29985 123
52.31996 137
52.34008 138
52.36019 132
52.3803 119
52.40042 136
52.42053 122
52.44064 129
52.46076 126
52.48087 115
52.50099 122
52.5211 131
52.54121 103
52.56133 144
52.58144 111
52.60155 130
52.62167 127
52.64178 124
52.6619 134
52.68201 129
52.70212 115
52.72224 148
52.74235 145
52.76246 143
52.78258 110
52.80269 130
52.8228 131
52.84292 132
52.86303 126
52.88315 138
52.90326 102
52.92337 111
52.94349 141
52.9636 128
52.98371 128
53.00383 133
53.02394 136
53.04406 134
53.06417 125
53.08428 124
53.1044 116
53.12451 132
53.14462 120
53.16474 134
53.18485 145
53.20497 118
53.22508 124
53.24519 152
53.26531 153
53.28542 159
53.30553 133
53.32565 139
53.34576 150
53.36587 146
53.38599 144
53.4061 138
53.42622 136
53.44633 116
53.46644 129
53.48656 148
53.50667 141
53.52678 125
53.5469 137
53.56701 141
53.58713 147
53.60724 119
53.62735 171
53.64747 132
53.66758 147
53.68769 157
53.70781 113
53.72792 118
53.74804 140
53.76815 128
53.78826 117
53.80838 138
53.82849 121
53.8486 139
53.86872 127
53.88883 137
53.90894 122
53.92906 157
53.94917 145
53.96929 136
53.9894 143
54.00951 147
54.02963 113
54.04974 135
54.06985 127
54.08997 131
54.11008 161
54.1302 137
54.15031 116
54.17042 144
54.19054 115
54.21065 127
54.23076 151
54.25088 130
54.27099 152
54.29111 159
54.31122 121
54.33133 147
54.35145 176
54.37156 161
54.39167 172
54.41179 151
54.4319 164
54.45201 167
54.47213 166
54.49224 178
54.51236 193
54.53247 191
54.55258 219
54.5727 231
54.59281 232
54.61292 282
54.63304 301
54.65315 297
54.67327 404
54.69338 447
54.71349 504
54.73361 608
54.75372 731
54.77383 804
54.79395 972
54.81406 1022
54.83417 1052
54.85429 1068
54.8744 950
54.89452 778
54.91463 673
54.93474 667
54.95486 664
54.97497 641
54.99508 597
55.0152 515
55.03531 438
55.05543 359
55.07554 309
55.09565 252
55.11577 288
55.13588 274
55.15599 283
55.17611 354
55.19622 351
55.21634 435
55.23645 471
55.25656 532
55.27668 547
55.29679 596
55.3169 471
55.33702 440
55.35713 394
55.37724 353
55.39736 356
55.41747 326
55.43759 349
55.4577 348
55.47781 311
55.49793 258
55.51804 210
55.53815 184
55.55827 163
55.57838 161
55.5985 137
55.61861 151
55.63872 140
55.65884 157
55.67895 140
55.69906 133
55.71918 127
55.73929 157
55.75941 146
55.77952 141
55.79963 147
55.81975 127
55.83986 120
55.85997 133
55.88009 118
55.9002 137
55.92031 127
55.94043 129
55.96054 129
55.98066 120
56.00077 119
56.02088 136
56.041 113
56.06111 137
56.08122 123
56.10134 115
56.12145 102
56.14157 114
56.16168 140
56.18179 134
56.20191 116
56.22202 132
56.24213 119
56.26225 109
56.28236 149
56.30248 114
56.32259 124
56.3427 108
56.36282 114
56.38293 134
56.40304 119
56.42316 120
56.44327 122
56.46338 126
56.4835 108
56.50361 136
56.52373 109
56.54384 138
56.56395 117
56.58407 139
56.60418 133
56.62429 128
56.64441 118
56.66452 134
56.68464 121
56.70475 119
56.72486 130
56.74498 127
56.76509 131
56.7852 132
56.80532 129
56.82543 117
56.84554 126
56.86566 136
56.88577 133
56.90589 114
56.926 125
56.94611 121
56.96623 124
56.98634 127
57.00645 134
57.02657 139
57.04668 120
57.0668 134
57.08691 119
57.10702 187
57.12714 162
57.14725 164
57.16736 184
57.18748 190
57.20759 185
57.22771 186
57.24782 153
57.26793 152
57.28805 146
57.30816 159
57.32827 166
57.34839 168
57.3685 144
57.38861 148
57.40873 119
57.42884 124
57.44896 123
57.46907 125
57.48918 138
57.5093 118
57.52941 143
57.54952 129
57.56964 113
57.58975 127
57.60987 119
57.62998 118
57.65009 128
57.67021 117
57.69032 110
57.71043 115
57.73055 127
57.75066 132
57.77078 108
57.79089 134
57.811 152
57.83112 121
57.85123 131
57.87134 128
57.89146 116
57.91157 127
57.93168 119
57.9518 128
57.97191 139
57.99203 139
58.01214 131
58.03225 127
58.05237 111
58.07248 149
58.09259 139
58.11271 132
58.13282 127
58.15294 96
58.17305 115
58.19316 135
58.21328 112
58.23339 142
58.2535 113
58.27362 133
58.29373 122
58.31385 116
58.33396 114
58.35407 123
58.37419 125
58.3943 126
58.41441 110
58.43453 119
58.45464 122
58.47475 110
58.49487 117
58.51498 112
58.5351 117
58.55521 120
58.57532 143
58.59544 158
58.61555 151
58.63566 155
58.65578 129
58.67589 149
58.69601 140
58.71612 129
58.73623 136
58.75635 128
58.77646 115
58.79657 122
58.81669 139
58.8368 112
58.85691 134
58.87703 125
58.89714 116
58.91726 127
58.93737 134
58.95748 118
58.9776 99
58.99771 117
59.01782 118
59.03794 144
59.05805 134
59.07817 116
59.09828 130
59.11839 102
59.13851 132
59.15862 136
59.17873 134
59.19885 143
59.21896 131
59.23908 145
59.25919 154
59.2793 125
59.29942 151
59.31953 129
59.33964 150
59.35976 163
59.37987 168
59.39998 158
59.4201 171
59.44021 154
59.46033 169
59.48044 183
59.50055 209
59.52067 196
59.54078 223
59.56089 211
59.58101 260
59.60112 272
59.62124 301
59.64135 332
59.66146 334
59.68158 412
59.70169 483
59.7218 526
59.74192 613
59.76203 760
59.78215 893
59.80226 1041
59.82237 1291
59.84249 1601
59.8626 1708
59.88271 2012
59.90283 2150
59.92294 2110
59.94305 2102
59.96317 1637
59.98328 1360
60.0034 1205
60.02351 1171
60.04362 1155
60.06374 1114
60.08385 1087
60.10396 994
60.12408 863
60.14419 582
60.16431 439
60.18442 322
60.20453 301
60.22465 204
60.24476 235
60.26487 191
60.28499 217
60.3051 180
60.32522 174
60.34533 168
60.36544 168
60.38556 161
60.40567 145
60.42578 158
60.4459 145
60.46601 139
60.48612 152
60.50624 123
60.52635 138
60.54647 131
60.56658 124
60.58669 125
60.60681 132
60.62692 144
60.64703 140
60.66715 148
60.68726 115
60.70738 142
60.72749 133
60.7476 136
60.76772 159
60.78783 148
60.80794 145
60.82806 135
60.84817 122
60.86828 131
60.8884 146
60.90851 116
60.92863 113
60.94874 138
60.96885 119
60.98897 117
61.00908 132
61.02919 121
61.04931 128
61.06942 133
61.08954 136
61.10965 130
61.12976 138
61.14988 122
61.16999 143
61.1901 136
61.21022 143
61.23033 138
61.25045 141
61.27056 131
61.29067 139
61.31079 124
61.3309 114
61.35101 122
61.37113 118
61.39124 143
61.41135 109
61.43147 128
61.45158 117
61.4717 132
61.49181 114
61.51192 124
61.53204 104
61.55215 143
61.57226 108
61.59238 125
61.61249 116
61.63261 129
61.65272 115
61.67283 136
61.69295 143
61.71306 123
61.73317 134
61.75329 125
61.7734 123
61.79352 115
61.81363 130
61.83374 128
61.85386 131
61.87397 124
61.89408 112
61.9142 122
61.93431 111
61.95442 128
61.97454 118
61.99465 118
62.01477 127
62.03488 133
62.05499 124
62.07511 137
62.09522 143
62.11533 118
62.13545 142
62.15556 135
62.17568 121
62.19579 139
62.2159 138
62.23602 131
62.25613 139
62.27624 132
62.29636 138
62.31647 127
62.33659 113
62.3567 124
62.37681 132
62.39693 124
62.41704 119
62.43715 136
62.45727 150
62.47738 119
62.49749 142
62.51761 149
62.53772 140
62.55784 138
62.57795 139
62.59806 132
62.61818 145
62.63829 121
62.6584 117
62.67852 115
62.69863 132
62.71875 142
62.73886 135
62.75897 141
62.77909 141
62.7992 122
62.81931 139
62.83943 124
62.85954 146
62.87965 114
62.89977 144
62.91988 122
62.94 133
62.96011 125
62.98022 140
63.00034 150
63.02045 148
63.04056 137
63.06068 121
63.08079 134
63.10091 129
63.12102 144
63.14113 115
63.16125 129
63.18136 143
63.20147 125
63.22159 141
63.2417 125
63.26182 102
63.28193 126
63.30204 126
63.32216 112
63.34227 108
63.36238 131
63.3825 125
63.40261 133
63.42272 151
63.44284 124
63.46295 119
63.48307 112
63.50318 114
63.52329 129
63.54341 139
63.56352 152
63.58363 102
63.60375 132
63.62386 142
63.64398 141
63.66409 151
63.6842 146
63.70432 159
63.72443 173
63.74454 175
63.76466 178
63.78477 190
63.80489 210
63.825 220
63.84511 288
63.86523 297
63.88534 304
63.90545 316
63.92557 385
63.94568 404
63.96579 465
63.98591 462
64.00602 434
64.02614 465
64.04625 386
64.06636 308
64.08648 296
64.10659 320
64.1267 273
64.14682 294
64.16693 278
64.18705 295
64.20716 235
64.22727 234
64.24739 190
64.2675 141
64.28761 151
64.30773 139
64.32784 139
64.34796 138
64.36807 124
64.38818 134
64.4083 131
64.42841 125
64.44852 116
64.46864 113
64.48875 120
64.50886 130
64.52898 135
64.54909 120
64.56921 103
64.58932 123
64.60943 112
64.62955 106
64.64966 118
64.66977 120
64.68989 101
64.71 111
64.73012 107
64.75023 131
64.77034 103
64.79046 110
64.81057 130
64.83068 123
64.8508 108
64.87091 120
64.89102 110
64.91114 97
64.93125 129
64.95137 125
64.97148 103
64.99159 109
65.01171 125
65.03182 116
65.05193 135
65.07205 114
65.09216 119
65.11228 122
65.13239 126
65.1525 133
65.17262 134
65.19273 135
65.21284 137
65.23296 117
65.25307 112
65.27319 130
65.2933 122
65.31341 141
65.33353 148
65.35364 139
65.37375 148
65.39387 135
65.41398 137
65.43409 149
65.45421 145
65.47432 119
65.49444 150
65.51455 127
65.53466 144
65.55478 144
65.57489 156
65.595 162
65.61512 172
65.63523 174
65.65535 170
65.67546 215
65.69557 204
65.71569 206
65.7358 213
65.75591 192
65.77603 191
65.79614 168
65.81626 162
65.83637 172
65.85648 161
65.8766 160
65.89671 142
65.91682 172
65.93694 154
65.95705 159
65.97716 137
65.99728 116
66.01739 144
66.03751 154
66.05762 131
66.07773 115
66.09785 125
66.11796 136
66.13807 121
66.15819 123
66.1783 127
66.19842 131
66.21853 131
66.23864 128
66.25876 146
66.27887 142
66.29898 131
66.3191 116
66.33921 127
66.35933 149
66.37944 141
66.39955 148
66.41967 123
66.43978 118
66.45989 142
66.48001 126
66.50012 127
66.52023 125
66.54035 130
66.56046 122
66.58058 130
66.60069 104
66.6208 123
66.64092 119
66.66103 109
66.68114 128
66.70126 119
66.72137 131
66.74149 124
66.7616 136
66.78171 124
66.80183 113
66.82194 143
66.84205 126
66.86217 133
66.88228 118
66.90239 132
66.92251 139
66.94262 155
66.96274 139
66.98285 148
67.00296 130
67.02308 120
67.04319 135
67.0633 130
67.08342 154
67.10353 141
67.12365 125
67.14376 152
67.16387 158
67.18399 149
67.2041 158
67.22421 168
67.24433 162
67.26444 187
67.28456 162
67.30467 206
67.32478 203
67.3449 192
67.36501 193
67.38512 230
67.40524 222
67.42535 261
67.44546 308
67.46558 309
67.48569 363
67.50581 389
67.52592 440
67.54603 540
67.56615 597
67.58626 689
67.60637 799
67.62649 971
67.6466 1078
67.66672 1175
67.68683 1175
67.70694 1211
67.72706 1178
67.74717 1031
67.76728 869
67.7874 767
67.80751 761
67.82763 808
67.84774 820
67.86785 911
67.88797 861
67.90808 954
67.92819 987
67.94831 949
67.96842 988
67.98853 1019
68.00865 1148
68.02876 1315
68.04888 1414
68.06899 1629
68.0891 1771
68.10922 1796
68.12933 1697
68.14944 1596
68.16956 1395
68.18967 1275
68.20979 1282
68.2299 1470
68.25001 1556
68.27013 1656
68.29024 1570
68.31035 1407
68.33047 1158
68.35058 967
68.3707 705
68.39081 638
68.41092 613
68.43104 606
68.45115 559
68.47126 558
68.49138 460
68.51149 426
68.5316 353
68.55172 244
68.57183 218
68.59195 218
68.61206 223
68.63217 176
68.65229 179
68.6724 177
68.69251 143
68.71263 159
68.73274 155
68.75286 153
68.77297 165
68.79308 159
68.8132 133
68.83331 139
68.85342 156
68.87354 137
68.89365 126
68.91376 132
68.93388 132
68.95399 133
68.97411 134
68.99422 135
69.01433 129
69.03445 132
69.05456 148
69.07467 118
69.09479 124
69.1149 120
69.13502 129
69.15513 120
69.17524 98
69.19536 131
69.21547 107
69.23558 115
69.2557 107
69.27581 119
69.29593 121
69.31604 108
69.33615 114
69.35627 112
69.37638 115
69.39649 146
69.41661 105
69.43672 125
69.45683 97
69.47695 105
69.49706 105
69.51718 117
69.53729 115
69.5574 123
69.57752 114
69.59763 106
69.61774 117
69.63786 118
69.65797 119
69.67809 110
69.6982 116
69.71831 113
69.73843 108
69.75854 98
69.77865 113
69.79877 101
69.81888 112
69.839 89
69.85911 107
69.87922 115
69.89934 147
69.91945 100
69.93956 121
69.95968 107
69.97979 100
69.9999 93
70.02002 104
70.04013 108
70.06025 115
70.08036 101
70.10047 117
70.12059 114
70.1407 107
70.16081 137
70.18093 115
70.20104 93
70.22116 106
70.24127 104
70.26138 109
70.2815 112
70.30161 114
70.32172 113
70.34184 88
70.36195 105
70.38207 111
70.40218 98
70.42229 94
70.44241 102
70.46252 123
70.48263 101
70.50275 126
70.52286 114
70.54297 104
70.56309 98
70.5832 101
70.60332 119
70.62343 101
70.64354 108
70.66366 119
70.68377 108
70.70388 115
70.724 103
70.74411 118
70.76423 104
70.78434 112
70.80445 105
70.82457 115
70.84468 115
70.86479 107
70.88491 115
70.90502 124
70.92513 105
70.94525 99
70.96536 108
70.98548 111
71.00559 109
71.0257 95
71.04582 108
71.06593 103
71.08604 110
71.10616 96
71.12627 84
71.14639 81
71.1665 111
71.18661 108
71.20673 92
71.22684 110
71.24695 118
71.26707 102
71.28718 109
71.3073 112
71.32741 98
71.34752 121
71.36764 129
71.38775 97
71.40786 112
71.42798 114
71.44809 97
71.4682 92
71.48832 90
71.50843 101
71.52855 123
71.54866 107
71.56877 123
71.58889 118
71.609 96
71.62911 130
71.64923 130
71.66934 118
71.68946 102
71.70957 105
71.72968 122
71.7498 100
71.76991 109
71.79002 127
71.81014 112
71.83025 107
71.85037 107
71.87048 101
71.89059 118
71.91071 92
71.93082 116
71.95093 111
71.97105 106
71.99116 117
72.01127 111
72.03139 102
72.0515 105
72.07162 87
72.09173 110
72.11184 123
72.13196 99
72.15207 110
72.17218 120
72.1923 113
72.21241 107
72.23253 112
72.25264 106
72.27275 124
72.29287 114
72.31298 106
72.33309 97
72.35321 97
72.37332 119
72.39344 92
72.41355 129
72.43366 109
72.45378 116
72.47389 108
72.494 115
72.51412 102
72.53423 131
72.55434 96
72.57446 108
72.59457 99
72.61469 115
72.6348 125
72.65491 100
72.67503 124
72.69514 97
72.71525 113
72.73537 101
72.75548 103
72.7756 86
72.79571 104
72.81582 115
72.83594 111
72.85605 108
72.87616 111
72.89628 102
72.91639 105
72.9365 116
72.95662 117
72.97673 136
72.99685 131
73.01696 143
73.03707 120
73.05719 137
73.0773 130
73.09741 156
73.11753 144
73.13764 161
73.15776 168
73.17787 164
73.19798 157
73.2181 185
73.23821 195
73.25832 208
73.27844 271
73.29855 293
73.31867 302
73.33878 386
73.35889 393
73.37901 435
73.39912 437
73.41923 429
73.43935 471
73.45946 439
73.47957 393
73.49969 335
73.5198 282
73.53992 262
73.56003 250
73.58014 261
73.60026 302
73.62037 285
73.64048 285
73.6606 277
73.68071 243
73.70083 213
73.72094 174
73.74105 164
73.76117 139
73.78128 125
73.80139 139
73.82151 113
73.84162 131
73.86174 108
73.88185 123
73.90196 114
73.92208 103
73.94219 129
73.9623 120
73.98242 128
74.00253 107
74.02264 98
74.04276 107
74.06287 119
74.08299 125
74.1031 125
74.12321 83
74.14333 101
74.16344 123
74.18355 115
74.20367 89
74.22378 113
74.2439 113
74.26401 88
74.28412 96
74.30424 107
74.32435 109
74.34446 102
74.36458 99
74.38469 111
74.40481 104
74.42492 104
74.44503 101
74.46515 102
74.48526 105
74.50537 89
74.52549 107
74.5456 107
74.56571 104
74.58583 109
74.60594 115
74.62606 108
74.64617 120
74.66628 105
74.6864 123
74.70651 101
74.72662 128
74.74674 109
74.76685 115
74.78697 118
74.80708 130
74.82719 109
74.84731 121
74.86742 122
74.88753 107
74.90765 121
74.92776 122
74.94787 114
74.96799 93
74.9881 131
75.00822 117
