3.00117 15286
3.02128 14781
3.0414 14355
3.06151 14272
3.08162 13665
3.10174 13227
3.12185 12929
3.14197 12250
3.16208 12029
3.18219 11711
3.20231 10956
3.22242 11010
3.24253 10333
3.26265 10273
3.28276 9867
3.30288 9387
3.32299 9323
3.3431 8711
3.36322 8695
3.38333 8341
3.40344 7930
3.42356 7683
3.44367 7321
3.46379 7091
3.4839 6683
3.50401 6449
3.52413 6355
3.54424 5897
3.56435 6080
3.58447 5681
3.60458 5291
3.62469 5124
3.64481 4986
3.66492 4643
3.68504 4546
3.70515 4232
3.72526 4266
3.74538 3836
3.76549 3722
3.7856 3680
3.80572 3501
3.82583 3341
3.84595 3037
3.86606 3092
3.88617 2929
3.90629 2610
3.9264 2695
3.94651 2451
3.96663 2292
3.98674 2310
4.00686 2089
4.02697 2146
4.04708 1959
4.0672 1902
4.08731 1774
4.10742 1765
4.12754 1726
4.14765 1602
4.16776 1632
4.18788 1606
4.20799 1487
4.22811 1553
4.24822 1413
4.26833 1372
4.28845 1351
4.30856 1283
4.32867 1281
4.34879 1240
4.3689 1184
4.38902 1220
4.40913 1177
4.42924 1193
4.44936 1035
4.46947 1025
4.48958 1096
4.5097 928
4.52981 946
4.54992 934
4.57004 933
4.59015 902
4.61027 900
4.63038 817
4.65049 835
4.67061 782
4.69072 806
4.71083 755
4.73095 731
4.75106 734
4.77118 705
4.79129 733
4.8114 663
4.83152 625
4.85163 593
4.87174 658
4.89186 595
4.91197 601
4.93209 583
4.9522 529
4.97231 551
4.99243 551
5.01254 535
5.03265 521
5.05277 498
5.07288 472
5.09299 485
5.11311 408
5.13322 446
5.15334 474
5.17345 420
5.19356 409
5.21368 423
5.23379 370
5.2539 391
5.27402 393
5.29413 352
5.31425 338
5.33436 339
5.35447 317
5.37459 319
5.3947 329
5.41481 328
5.43493 298
5.45504 283
5.47516 285
5.49527 257
5.51538 257
5.5355 259
5.55561 230
5.57572 275
5.59584 233
5.61595 254
5.63606 242
5.65618 239
5.67629 251
5.69641 210
5.71652 234
5.73663 216
5.75675 206
5.77686 235
5.79697 251
5.81709 224
5.8372 178
5.85732 208
5.87743 208
5.89754 222
5.91766 186
5.93777 212
5.95788 231
5.978 198
5.99811 206
6.01823 202
6.03834 190
6.05845 190
6.07857 186
6.09868 186
6.11879 190
6.13891 189
6.15902 186
6.17913 219
6.19925 167
6.21936 167
6.23948 147
6.25959 166
6.2797 183
6.29982 176
6.31993 189
6.34004 152
6.36016 206
6.38027 177
6.40039 201
6.4205 159
6.44061 180
6.46073 196
6.48084 172
6.50095 157
6.52107 165
6.54118 154
6.56129 162
6.58141 184
6.60152 162
6.62164 146
6.64175 174
6.66186 182
6.68198 173
6.70209 173
6.7222 173
6.74232 171
6.76243 140
6.78255 143
6.80266 191
6.82277 175
6.84289 165
6.863 136
6.88311 173
6.90323 166
6.92334 147
6.94346 154
6.96357 202
6.98368 165
7.0038 175
7.02391 188
7.04402 171
7.06414 164
7.08425 168
7.10436 147
7.12448 171
7.14459 171
7.16471 160
7.18482 182
7.20493 196
7.22505 213
7.24516 184
7.26527 162
7.28539 175
7.3055 149
7.32562 181
7.34573 152
7.36584 180
7.38596 197
7.40607 147
7.42618 177
7.4463 190
7.46641 169
7.48653 197
7.50664 177
7.52675 192
7.54687 181
7.56698 191
7.58709 178
7.60721 213
7.62732 185
7.64743 162
7.66755 191
7.68766 177
7.70778 176
7.72789 197
7.748 164
7.76812 201
7.78823 176
7.80834 190
7.82846 198
7.84857 187
7.86869 184
7.8888 185
7.90891 194
7.92903 162
7.94914 159
7.96925 201
7.98937 174
8.00948 177
8.0296 175
8.04971 184
8.06982 180
8.08994 191
8.11005 178
8.13016 209
8.15028 214
8.17039 163
8.1905 189
8.21062 208
8.23073 211
8.25085 210
8.27096 189
8.29107 190
8.31119 172
8.3313 219
8.35141 193
8.37153 202
8.39164 166
8.41176 213
8.43187 201
8.45198 199
8.4721 194
8.49221 204
8.51232 182
8.53244 208
8.55255 195
8.57266 197
8.59278 192
8.61289 210
8.63301 204
8.65312 195
8.67323 200
8.69335 209
8.71346 194
8.73357 201
8.75369 213
8.7738 211
8.79392 238
8.81403 196
8.83414 217
8.85426 199
8.87437 197
8.89448 202
8.9146 207
8.93471 216
8.95483 178
8.97494 209
8.99505 219
9.01517 194
9.03528 200
9.05539 181
9.07551 214
9.09562 213
9.11573 229
9.13585 183
9.15596 218
9.17608 201
9.19619 190
9.2163 209
9.23642 239
9.25653 191
9.27664 220
9.29676 221
9.31687 210
9.33699 211
9.3571 190
9.37721 202
9.39733 231
9.41744 196
9.43755 200
9.45767 187
9.47778 226
9.4979 230
9.51801 208
9.53812 189
9.55824 222
9.57835 198
9.59846 213
9.61858 241
9.63869 212
9.6588 225
9.67892 198
9.69903 199
9.71915 222
9.73926 194
9.75937 195
9.77949 193
9.7996 210
9.81971 177
9.83983 198
9.85994 200
9.88006 204
9.90017 217
9.92028 219
9.9404 233
9.96051 172
9.98062 217
10.00074 213
10.02085 222
10.04097 196
10.06108 205
10.08119 173
10.10131 236
10.12142 203
10.14153 179
10.16165 184
10.18176 207
10.20187 227
10.22199 210
10.2421 216
10.26222 225
10.28233 197
10.30244 204
10.32256 200
10.34267 214
10.36278 209
10.3829 230
10.40301 234
10.42313 238
10.44324 214
10.46335 231
10.48347 244
10.50358 242
10.52369 215
10.54381 191
10.56392 212
10.58403 212
10.60415 208
10.62426 218
10.64438 196
10.66449 219
10.6846 203
10.70472 206
10.72483 240
10.74494 235
10.76506 195
10.78517 204
10.80529 187
10.8254 185
10.84551 221
10.86563 225
10.88574 188
10.90585 222
10.92597 215
10.94608 204
10.9662 220
10.98631 232
11.00642 230
11.02654 211
11.04665 211
11.06676 177
11.08688 201
11.10699 202
11.1271 198
11.14722 203
11.16733 221
11.18745 229
11.20756 205
11.22767 209
11.24779 222
11.2679 178
11.28801 218
11.30813 212
11.32824 213
11.34836 244
11.36847 209
11.38858 223
11.4087 211
11.42881 225
11.44892 201
11.46904 221
11.48915 221
11.50927 220
11.52938 229
11.54949 213
11.56961 213
11.58972 202
11.60983 232
11.62995 200
11.65006 203
11.67017 233
11.69029 215
11.7104 223
11.73052 222
11.75063 208
11.77074 192
11.79086 222
11.81097 239
11.83108 242
11.8512 243
11.87131 219
11.89143 218
11.91154 227
11.93165 233
11.95177 213
11.97188 232
11.99199 214
12.01211 203
12.03222 230
12.05234 232
12.07245 238
12.09256 261
12.11268 209
12.13279 227
12.1529 245
12.17302 218
12.19313 221
12.21324 172
12.23336 217
12.25347 224
12.27359 221
12.2937 202
12.31381 220
12.33393 191
12.35404 218
12.37415 195
12.39427 205
12.41438 207
12.4345 210
12.45461 217
12.47472 197
12.49484 207
12.51495 208
12.53506 203
12.55518 209
12.57529 201
12.5954 213
12.61552 213
12.63563 194
12.65575 186
12.67586 188
12.69597 204
12.71609 190
12.7362 197
12.75631 197
12.77643 193
12.79654 204
12.81666 202
12.83677 199
12.85688 192
12.877 209
12.89711 202
12.91722 210
12.93734 189
12.95745 182
12.97757 199
12.99768 174
13.01779 181
13.03791 171
13.05802 186
13.07813 195
13.09825 203
13.11836 198
13.13847 191
13.15859 190
13.1787 200
13.19882 193
13.21893 194
13.23904 180
13.25916 197
13.27927 201
13.29938 161
13.3195 170
13.33961 201
13.35973 199
13.37984 216
13.39995 173
13.42007 176
13.44018 206
13.46029 170
13.48041 200
13.50052 206
13.52064 237
13.54075 185
13.56086 210
13.58098 204
13.60109 229
13.6212 196
13.64132 212
13.66143 185
13.68154 215
13.70166 170
13.72177 198
13.74189 226
13.762 219
13.78211 197
13.80223 206
13.82234 200
13.84245 209
13.86257 186
13.88268 186
13.9028 183
13.92291 203
13.94302 196
13.96314 197
13.98325 187
14.00336 172
14.02348 181
14.04359 187
14.06371 184
14.08382 161
14.10393 193
14.12405 158
14.14416 193
14.16427 200
14.18439 176
14.2045 182
14.22461 195
14.24473 186
14.26484 173
14.28496 185
14.30507 190
14.32518 181
14.3453 163
14.36541 180
14.38552 167
14.40564 159
14.42575 179
14.44587 190
14.46598 183
14.48609 170
14.50621 172
14.52632 185
14.54643 184
14.56655 172
14.58666 189
14.60677 166
14.62689 183
14.647 156
14.66712 141
14.68723 160
14.70734 191
14.72746 161
14.74757 140
14.76768 182
14.7878 184
14.80791 175
14.82803 165
14.84814 178
14.86825 190
14.88837 198
14.90848 204
14.92859 163
14.94871 171
14.96882 185
14.98894 192
15.00905 195
15.02916 181
15.04928 196
15.06939 196
15.0895 188
15.10962 152
15.12973 171
15.14984 170
15.16996 177
15.19007 141
15.21019 161
15.2303 180
15.25041 181
15.27053 177
15.29064 137
15.31075 165
15.33087 163
15.35098 176
15.3711 148
15.39121 151
15.41132 175
15.43144 172
15.45155 172
15.47166 180
15.49178 167
15.51189 180
15.53201 166
15.55212 160
15.57223 167
15.59235 152
15.61246 163
15.63257 168
15.65269 154
15.6728 161
15.69291 164
15.71303 169
15.73314 150
15.75326 174
15.77337 155
15.79348 137
15.8136 173
15.83371 156
15.85382 156
15.87394 144
15.89405 160
15.91417 173
15.93428 155
15.95439 177
15.97451 171
15.99462 182
16.01473 155
16.03485 200
16.05496 188
16.07508 173
16.09519 171
16.1153 183
16.13542 175
16.15553 170
16.17564 163
16.19576 151
16.21587 158
16.23598 145
16.2561 156
16.27621 191
16.29633 176
16.31644 135
16.33655 144
16.35667 137
16.37678 167
16.39689 130
16.41701 162
16.43712 157
16.45724 142
16.47735 146
16.49746 143
16.51758 167
16.53769 144
16.5578 143
16.57792 162
16.59803 157
16.61814 148
16.63826 178
16.65837 152
16.67849 131
16.6986 158
16.71871 176
16.73883 151
16.75894 155
16.77905 161
16.79917 158
16.81928 181
16.8394 152
16.85951 147
16.87962 162
16.89974 139
16.91985 178
16.93996 154
16.96008 134
16.98019 169
17.00031 154
17.02042 143
17.04053 169
17.06065 159
17.08076 143
17.10087 152
17.12099 144
17.1411 166
17.16121 180
17.18133 164
17.20144 152
17.22156 154
17.24167 163
17.26178 187
17.2819 154
17.30201 133
17.32212 173
17.34224 129
17.36235 162
17.38247 135
17.40258 152
17.42269 131
17.44281 152
17.46292 147
17.48303 151
17.50315 143
17.52326 142
17.54338 152
17.56349 163
17.5836 141
17.60372 160
17.62383 175
17.64394 165
17.66406 167
17.68417 150
17.70428 170
17.7244 154
17.74451 161
17.76463 151
17.78474 153
17.80485 160
17.82497 153
17.84508 162
17.86519 151
17.88531 166
17.90542 170
17.92554 142
17.94565 156
17.96576 124
17.98588 155
18.00599 151
18.0261 147
18.04622 170
18.06633 143
18.08645 150
18.10656 191
18.12667 141
18.14679 162
18.1669 151
18.18701 151
18.20713 160
18.22724 174
18.24735 152
18.26747 159
18.28758 143
18.3077 168
18.32781 152
18.34792 139
18.36804 148
18.38815 138
18.40826 187
18.42838 114
18.44849 154
18.46861 127
18.48872 179
18.50883 160
18.52895 142
18.54906 163
18.56917 145
18.58929 147
18.6094 146
18.62951 150
18.64963 141
18.66974 153
18.68986 179
18.70997 166
18.73008 178
18.7502 175
18.77031 172
18.79042 172
18.81054 167
18.83065 167
18.85077 160
18.87088 160
18.89099 149
18.91111 137
18.93122 179
18.95133 149
18.97145 159
18.99156 139
19.01168 151
19.03179 166
19.0519 140
19.07202 161
19.09213 165
19.11224 173
19.13236 186
19.15247 172
19.17258 162
19.1927 184
19.21281 156
19.23293 188
19.25304 184
19.27315 167
19.29327 166
19.31338 172
19.33349 169
19.35361 174
19.37372 161
19.39384 175
19.41395 152
19.43406 150
19.45418 150
19.47429 170
19.4944 161
19.51452 174
19.53463 180
19.55475 192
19.57486 174
19.59497 180
19.61509 184
19.6352 162
19.65531 169
19.67543 189
19.69554 199
19.71565 196
19.73577 198
19.75588 215
19.776 199
19.79611 216
19.81622 231
19.83634 209
19.85645 219
19.87656 236
19.89668 221
19.91679 254
19.93691 220
19.95702 209
19.97713 224
19.99725 239
20.01736 252
20.03747 225
20.05759 247
20.0777 249
20.09782 219
20.11793 256
20.13804 242
20.15816 252
20.17827 276
20.19838 250
20.2185 275
20.23861 248
20.25872 248
20.27884 286
20.29895 282
20.31907 274
20.33918 301
20.35929 301
20.37941 284
20.39952 308
20.41963 328
20.43975 338
20.45986 332
20.47998 387
20.50009 335
20.5202 378
20.54032 394
20.56043 451
20.58054 519
20.60066 611
20.62077 829
20.64088 957
20.661 1227
20.68111 1642
20.70123 2254
20.72134 3064
20.74145 4270
20.76157 5133
20.78168 6056
20.80179 6569
20.82191 6580
20.84202 5829
20.86214 4700
20.88225 3490
20.90236 2418
20.92248 1533
20.94259 976
20.9627 736
20.98282 613
21.00293 551
21.02305 500
21.04316 466
21.06327 469
21.08339 397
21.1035 361
21.12361 322
21.14373 326
21.16384 307
21.18395 325
21.20407 290
21.22418 251
21.2443 249
21.26441 249
21.28452 248
21.30464 249
21.32475 245
21.34486 261
21.36498 260
21.38509 207
21.40521 209
21.42532 230
21.44543 246
21.46555 219
21.48566 240
21.50577 217
21.52589 216
21.546 249
21.56612 228
21.58623 194
21.60634 225
21.62646 204
21.64657 209
21.66668 190
21.6868 218
21.70691 211
21.72702 206
21.74714 212
21.76725 236
21.78737 208
21.80748 278
21.82759 277
21.84771 283
21.86782 358
21.88793 344
21.90805 382
21.92816 403
21.94828 351
21.96839 382
21.9885 336
22.00862 305
22.02873 268
22.04884 278
22.06896 232
22.08907 225
22.10919 211
22.1293 205
22.14941 232
22.16953 207
22.18964 224
22.20975 216
22.22987 196
22.24998 246
22.27009 224
22.29021 228
22.31032 205
22.33044 234
22.35055 202
22.37066 211
22.39078 203
22.41089 233
22.431 196
22.45112 172
22.47123 228
22.49135 208
22.51146 209
22.53157 210
22.55169 208
22.5718 206
22.59191 200
22.61203 190
22.63214 189
22.65225 192
22.67237 215
22.69248 216
22.7126 161
22.73271 202
22.75282 208
22.77294 191
22.79305 194
22.81316 212
22.83328 195
22.85339 214
22.87351 222
22.89362 209
22.91373 206
22.93385 230
22.95396 241
22.97407 216
22.99419 226
23.0143 256
23.03442 213
23.05453 230
23.07464 227
23.09476 230
23.11487 219
23.13498 221
23.1551 247
23.17521 241
23.19532 244
23.21544 241
23.23555 221
23.25567 213
23.27578 221
23.29589 227
23.31601 244
23.33612 217
23.35623 237
23.37635 234
23.39646 249
23.41658 249
23.43669 258
23.4568 256
23.47692 248
23.49703 287
23.51714 267
23.53726 277
23.55737 277
23.57749 298
23.5976 289
23.61771 290
23.63783 229
23.65794 243
23.67805 247
23.69817 231
23.71828 274
23.73839 252
23.75851 221
23.77862 250
23.79874 240
23.81885 254
23.83896 280
23.85908 344
23.87919 327
23.8993 339
23.91942 337
23.93953 355
23.95965 356
23.97976 319
23.99987 289
24.01999 255
24.0401 268
24.06021 242
24.08033 230
24.10044 202
24.12056 227
24.14067 255
24.16078 248
24.1809 229
24.20101 247
24.22112 274
24.24124 272
24.26135 246
24.28146 258
24.30158 289
24.32169 254
24.34181 231
24.36192 272
24.38203 241
24.40215 246
24.42226 202
24.44237 234
24.46249 198
24.4826 223
24.50272 205
24.52283 216
24.54294 206
24.56306 197
24.58317 200
24.60328 214
24.6234 198
24.64351 206
24.66362 201
24.68374 236
24.70385 209
24.72397 225
24.74408 221
24.76419 220
24.78431 217
24.80442 211
24.82453 229
24.84465 213
24.86476 224
24.88488 225
24.90499 229
24.9251 265
24.94522 203
24.96533 214
24.98544 196
25.00556 186
25.02567 251
25.04579 184
25.0659 239
25.08601 195
25.10613 227
25.12624 201
25.14635 203
25.16647 197
25.18658 239
25.20669 231
25.22681 232
25.24692 222
25.26704 216
25.28715 221
25.30726 220
25.32738 229
25.34749 248
25.3676 225
25.38772 281
25.40783 247
25.42795 290
25.44806 307
25.46817 346
25.48829 367
25.5084 339
25.52851 427
25.54863 367
25.56874 396
25.58886 416
25.60897 407
25.62908 389
25.6492 404
25.66931 420
25.68942 414
25.70954 353
25.72965 413
25.74976 424
25.76988 379
25.78999 406
25.81011 409
25.83022 414
25.85033 401
25.87045 419
25.89056 394
25.91067 447
25.93079 439
25.9509 429
25.97102 425
25.99113 482
26.01124 449
26.03136 506
26.05147 511
26.07158 521
26.0917 582
26.11181 581
26.13193 657
26.15204 705
26.17215 785
26.19227 749
26.21238 875
26.23249 971
26.25261 1082
26.27272 1166
26.29283 1264
26.31295 1488
26.33306 1661
26.35318 2102
26.37329 2711
26.3934 3414
26.41352 4629
26.43363 6092
26.45374 8251
26.47386 11163
26.49397 15195
26.51409 19448
26.5342 23774
26.55431 27518
26.57443 29576
26.59454 30032
26.61465 27293
26.63477 23053
26.65488 17849
26.67499 12667
26.69511 8665
26.71522 5670
26.73534 3432
26.75545 2187
26.77556 1683
26.79568 1422
26.81579 1251
26.8359 1196
26.85602 1018
26.87613 979
26.89625 925
26.91636 847
26.93647 761
26.95659 773
26.9767 694
26.99681 684
27.01693 633
27.03704 626
27.05716 612
27.07727 601
27.09738 539
27.1175 494
27.13761 502
27.15772 484
27.17784 439
27.19795 478
27.21806 417
27.23818 454
27.25829 469
27.27841 473
27.29852 519
27.31863 513
27.33875 561
27.35886 547
27.37897 597
27.39909 618
27.4192 559
27.43932 626
27.45943 657
27.47954 567
27.49966 544
27.51977 446
27.53988 429
27.56 432
27.58011 396
27.60023 408
27.62034 442
27.64045 461
27.66057 499
27.68068 511
27.70079 536
27.72091 615
27.74102 582
27.76113 624
27.78125 559
27.80136 603
27.82148 593
27.84159 565
27.8617 560
27.88182 570
27.90193 557
27.92204 588
27.94216 545
27.96227 499
27.98239 484
28.0025 410
28.02261 385
28.04273 348
28.06284 348
28.08295 299
28.10307 313
28.12318 297
28.1433 301
28.16341 298
28.18352 329
28.20364 304
28.22375 317
28.24386 288
28.26398 325
28.28409 283
28.3042 292
28.32432 242
28.34443 285
28.36455 248
28.38466 265
28.40477 249
28.42489 235
28.445 247
28.46511 238
28.48523 230
28.50534 274
28.52546 234
28.54557 201
28.56568 249
28.5858 225
28.60591 220
28.62602 205
28.64614 230
28.66625 219
28.68636 193
28.70648 201
28.72659 199
28.74671 223
28.76682 220
28.78693 210
28.80705 237
28.82716 216
28.84727 211
28.86739 224
28.8875 203
28.90762 218
28.92773 174
28.94784 206
28.96796 219
28.98807 204
29.00818 196
29.0283 205
29.04841 217
29.06853 201
29.08864 195
29.10875 188
29.12887 208
29.14898 213
29.16909 198
29.18921 218
29.20932 176
29.22943 213
29.24955 201
29.26966 217
29.28978 239
29.30989 236
29.33 271
29.35012 256
29.37023 238
29.39034 225
29.41046 227
29.43057 260
29.45069 229
29.4708 234
29.49091 237
29.51103 225
29.53114 239
29.55125 245
29.57137 249
29.59148 242
29.6116 239
29.63171 248
29.65182 242
29.67194 285
29.69205 245
29.71216 275
29.73228 252
29.75239 286
29.7725 267
29.79262 253
29.81273 245
29.83285 240
29.85296 262
29.87307 230
29.89319 228
29.9133 233
29.93341 244
29.95353 236
29.97364 216
29.99376 224
30.01387 227
30.03398 256
30.0541 236
30.07421 259
30.09432 241
30.11444 242
30.13455 252
30.15467 235
30.17478 261
30.19489 221
30.21501 228
30.23512 246
30.25523 266
30.27535 261
30.29546 293
30.31557 319
30.33569 281
30.3558 296
30.37592 277
30.39603 283
30.41614 279
30.43626 235
30.45637 253
30.47648 231
30.4966 249
30.51671 216
30.53683 210
30.55694 235
30.57705 213
30.59717 205
30.61728 211
30.63739 241
30.65751 250
30.67762 262
30.69773 250
30.71785 241
30.73796 267
30.75808 287
30.77819 253
30.7983 254
30.81842 228
30.83853 226
30.85864 220
30.87876 221
30.89887 188
30.91899 208
30.9391 175
30.95921 179
30.97933 180
30.99944 177
31.01955 158
31.03967 164
31.05978 188
31.0799 180
31.10001 169
31.12012 173
31.14024 147
31.16035 171
31.18046 199
31.20058 182
31.22069 206
31.2408 187
31.26092 184
31.28103 207
31.30115 193
31.32126 208
31.34137 221
31.36149 195
31.3816 180
31.40171 198
31.42183 181
31.44194 193
31.46206 197
31.48217 154
31.50228 178
31.5224 186
31.54251 173
31.56262 168
31.58274 182
31.60285 175
31.62297 164
31.64308 194
31.66319 180
31.68331 166
31.70342 159
31.72353 155
31.74365 182
31.76376 196
31.78387 175
31.80399 148
31.8241 154
31.84422 157
31.86433 168
31.88444 154
31.90456 181
31.92467 161
31.94478 162
31.9649 202
31.98501 164
32.00513 154
32.02524 155
32.04535 173
32.06547 181
32.08558 154
32.10569 184
32.12581 188
32.14592 172
32.16604 171
32.18615 177
32.20626 201
32.22638 181
32.24649 189
32.2666 178
32.28672 193
32.30683 174
32.32694 188
32.34706 186
32.36717 176
32.38729 176
32.4074 162
32.42751 171
32.44763 161
32.46774 173
32.48785 161
32.50797 162
32.52808 147
32.5482 159
32.56831 158
32.58842 147
32.60854 174
32.62865 149
32.64876 149
32.66888 136
32.68899 170
32.7091 152
32.72922 158
32.74933 178
32.76945 150
32.78956 150
32.80967 165
32.82979 176
32.8499 162
32.87001 172
32.89013 194
32.91024 177
32.93036 166
32.95047 170
32.97058 156
32.9907 170
33.01081 160
33.03092 155
33.05104 167
33.07115 182
33.09127 157
33.11138 169
33.13149 185
33.15161 144
33.17172 146
33.19183 167
33.21195 145
33.23206 165
33.25217 160
33.27229 165
33.2924 160
33.31252 157
33.33263 164
33.35274 144
33.37286 135
33.39297 162
33.41308 161
33.4332 142
33.45331 178
33.47343 172
33.49354 188
33.51365 147
33.53377 144
33.55388 157
33.57399 167
33.59411 158
33.61422 146
33.63434 150
33.65445 169
33.67456 151
33.69468 175
33.71479 160
33.7349 157
33.75502 155
33.77513 175
33.79524 169
33.81536 180
33.83547 185
33.85559 142
33.8757 141
33.89581 147
33.91593 157
33.93604 169
33.95615 134
33.97627 160
33.99638 148
34.0165 165
34.03661 150
34.05672 159
34.07684 165
34.09695 188
34.11706 196
34.13718 198
34.15729 176
34.17741 191
34.19752 183
34.21763 174
34.23775 204
34.25786 172
34.27797 172
34.29809 193
34.3182 166
34.33831 186
34.35843 196
34.37854 169
34.39866 186
34.41877 174
34.43888 211
34.459 179
34.47911 181
34.49922 192
34.51934 189
34.53945 195
34.55957 199
34.57968 178
34.59979 190
34.61991 190
34.64002 183
34.66013 186
34.68025 159
34.70036 166
34.72047 185
34.74059 205
34.7607 180
34.78082 193
34.80093 213
34.82104 185
34.84116 192
34.86127 190
34.88138 203
34.9015 200
34.92161 195
34.94173 199
34.96184 202
34.98195 172
35.00207 205
35.02218 195
35.04229 168
35.06241 174
35.08252 206
35.10264 224
35.12275 209
35.14286 230
35.16298 213
35.18309 210
35.2032 242
35.22332 212
35.24343 232
35.26354 240
35.28366 231
35.30377 215
35.32389 234
35.344 239
35.36411 207
35.38423 246
35.40434 220
35.42445 210
35.44457 202
35.46468 212
35.4848 209
35.50491 226
35.52502 202
35.54514 217
35.56525 219
35.58536 217
35.60548 202
35.62559 206
35.64571 197
35.66582 186
35.68593 195
35.70605 189
35.72616 195
35.74627 201
35.76639 187
35.7865 179
35.80661 205
35.82673 173
35.84684 200
35.86696 165
35.88707 203
35.90718 205
35.9273 160
35.94741 211
35.96752 197
35.98764 209
36.00775 213
36.02787 229
36.04798 219
36.06809 227
36.08821 240
36.10832 251
36.12843 252
36.14855 237
36.16866 293
36.18878 303
36.20889 271
36.229 326
36.24912 348
36.26923 367
36.28934 505
36.30946 568
36.32957 658
36.34968 783
36.3698 926
36.38991 1229
36.41003 1436
36.43014 1726
36.45025 1999
36.47037 2154
36.49048 2088
36.51059 1888
36.53071 1815
36.55082 1431
36.57094 1197
36.59105 977
36.61116 845
36.63128 641
36.65139 449
36.6715 348
36.69162 310
36.71173 282
36.73184 243
36.75196 246
36.77207 279
36.79219 226
36.8123 199
36.83241 220
36.85253 212
36.87264 218
36.89275 206
36.91287 210
36.93298 204
36.9531 216
36.97321 213
36.99332 219
37.01344 232
37.03355 214
37.05366 213
37.07378 209
37.09389 203
37.11401 192
37.13412 193
37.15423 172
37.17435 174
37.19446 183
37.21457 196
37.23469 178
37.2548 155
37.27491 181
37.29503 203
37.31514 198
37.33526 175
37.35537 180
37.37548 190
37.3956 177
37.41571 169
37.43582 182
37.45594 176
37.47605 177
37.49617 195
37.51628 187
37.53639 200
37.55651 170
37.57662 184
37.59673 191
37.61685 173
37.63696 176
37.65708 190
37.67719 175
37.6973 139
37.71742 163
37.73753 139
37.75764 199
37.77776 177
37.79787 175
37.81798 156
37.8381 161
37.85821 159
37.87833 152
37.89844 169
37.91855 144
37.93867 172
37.95878 169
37.97889 165
37.99901 171
38.01912 172
38.03924 162
38.05935 163
38.07946 161
38.09958 184
38.11969 195
38.1398 166
38.15992 174
38.18003 176
38.20015 162
38.22026 144
38.24037 187
38.26049 164
38.2806 186
38.30071 176
38.32083 187
38.34094 192
38.36105 188
38.38117 184
38.40128 176
38.4214 187
38.44151 214
38.46162 198
38.48174 196
38.50185 205
38.52196 194
38.54208 200
38.56219 198
38.58231 191
38.60242 206
38.62253 171
38.64265 159
38.66276 173
38.68287 169
38.70299 154
38.7231 179
38.74321 174
38.76333 157
38.78344 173
38.80356 163
38.82367 166
38.84378 167
38.8639 224
38.88401 159
38.90412 202
38.92424 214
38.94435 195
38.96447 181
38.98458 195
39.00469 209
39.02481 231
39.04492 239
39.06503 212
39.08515 262
39.10526 250
39.12538 277
39.14549 292
39.1656 328
39.18572 362
39.20583 411
39.22594 500
39.24606 538
39.26617 738
39.28628 923
39.3064 1053
39.32651 1300
39.34663 1536
39.36674 1693
39.38685 1867
39.40697 1913
39.42708 1860
39.44719 1689
39.46731 1513
39.48742 1155
39.50754 1051
39.52765 938
39.54776 781
39.56788 604
39.58799 402
39.6081 310
39.62822 272
39.64833 265
39.66845 217
39.68856 200
39.70867 232
39.72879 210
39.7489 197
39.76901 184
39.78913 215
39.80924 190
39.82935 193
39.84947 206
39.86958 175
39.8897 212
39.90981 199
39.92992 204
39.95004 227
39.97015 244
39.99026 254
40.01038 273
40.03049 300
40.05061 328
40.07072 394
40.09083 452
40.11095 539
40.13106 615
40.15117 729
40.17129 805
40.1914 979
40.21152 1058
40.23163 1074
40.25174 907
40.27186 871
40.29197 793
40.31208 674
40.3322 581
40.35231 512
40.37242 413
40.39254 369
40.41265 272
40.43277 249
40.45288 211
40.47299 205
40.49311 179
40.51322 186
40.53333 188
40.55345 180
40.57356 171
40.59368 170
40.61379 166
40.6339 187
40.65402 161
40.67413 181
40.69424 179
40.71436 185
40.73447 164
40.75458 183
40.7747 192
40.79481 173
40.81493 158
40.83504 171
40.85515 150
40.87527 166
40.89538 163
40.91549 159
40.93561 159
40.95572 162
40.97584 168
40.99595 157
41.01606 157
41.03618 154
41.05629 145
41.0764 134
41.09652 172
41.11663 151
41.13675 158
41.15686 178
41.17697 171
41.19709 182
41.2172 162
41.23731 185
41.25743 135
41.27754 156
41.29765 149
41.31777 164
41.33788 165
41.358 172
41.37811 155
41.39822 164
41.41834 167
41.43845 148
41.45856 172
41.47868 158
41.49879 173
41.51891 183
41.53902 203
41.55913 185
41.57925 180
41.59936 201
41.61947 206
41.63959 180
41.6597 217
41.67982 211
41.69993 228
41.72004 229
41.74016 214
41.76027 197
41.78038 227
41.8005 219
41.82061 229
41.84072 207
41.86084 219
41.88095 191
41.90107 209
41.92118 199
41.94129 193
41.96141 207
41.98152 186
42.00163 189
42.02175 212
42.04186 231
42.06198 232
42.08209 205
42.1022 236
42.12232 283
42.14243 301
42.16254 325
42.18266 366
42.20277 403
42.22289 489
42.243 576
42.26311 706
42.28323 800
42.30334 987
42.32345 1154
42.34357 1319
42.36368 1455
42.38379 1429
42.40391 1300
42.42402 1338
42.44414 1132
42.46425 829
42.48436 787
42.50448 769
42.52459 648
42.5447 519
42.56482 453
42.58493 299
42.60505 269
42.62516 211
42.64527 225
42.66539 211
42.6855 227
42.70561 222
42.72573 210
42.74584 213
42.76595 214
42.78607 166
42.80618 188
42.8263 215
42.84641 199
42.86652 169
42.88664 158
42.90675 173
42.92686 185
42.94698 160
42.96709 153
42.98721 165
43.00732 159
43.02743 162
43.04755 147
43.06766 171
43.08777 158
43.10789 190
43.128 156
43.14812 162
43.16823 148
43.18834 156
43.20846 167
43.22857 146
43.24868 150
43.2688 142
43.28891 163
43.30902 172
43.32914 147
43.34925 141
43.36937 151
43.38948 142
43.40959 153
43.42971 140
43.44982 146
43.46993 152
43.49005 153
43.51016 145
43.53028 133
43.55039 150
43.5705 129
43.59062 147
43.61073 158
43.63084 158
43.65096 172
43.67107 135
43.69119 148
43.7113 139
43.73141 151
43.75153 132
43.77164 142
43.79175 138
43.81187 139
43.83198 152
43.85209 148
43.87221 138
43.89232 152
43.91244 124
43.93255 138
43.95266 159
43.97278 157
43.99289 146
44.013 157
44.03312 142
44.05323 147
44.07335 156
44.09346 143
44.11357 143
44.13369 156
44.1538 169
44.17391 146
44.19403 171
44.21414 170
44.23426 163
44.25437 147
44.27448 156
44.2946 173
44.31471 150
44.33482 142
44.35494 153
44.37505 163
44.39516 157
44.41528 126
44.43539 151
44.45551 134
44.47562 135
44.49573 180
44.51585 170
44.53596 161
44.55607 152
44.57619 150
44.5963 146
44.61642 165
44.63653 157
44.65664 173
44.67676 161
44.69687 134
44.71698 160
44.7371 150
44.75721 137
44.77732 157
44.79744 142
44.81755 161
44.83767 168
44.85778 179
44.87789 163
44.89801 174
44.91812 146
44.93823 151
44.95835 154
44.97846 155
44.99858 165
45.01869 177
45.0388 145
45.05892 149
45.07903 145
45.09914 158
45.11926 152
45.13937 159
45.15949 168
45.1796 151
45.19971 187
45.21983 180
45.23994 165
45.26005 174
45.28017 161
45.30028 172
45.32039 158
45.34051 185
45.36062 166
45.38074 176
45.40085 205
45.42096 190
45.44108 214
45.46119 213
45.4813 239
45.50142 259
45.52153 299
45.54165 304
45.56176 365
45.58187 462
45.60199 527
45.6221 612
45.64221 683
45.66233 809
45.68244 878
45.70256 996
45.72267 942
45.74278 917
45.7629 916
45.78301 722
45.80312 689
45.82324 640
45.84335 525
45.86346 497
45.88358 432
45.90369 328
45.92381 238
45.94392 213
45.96403 185
45.98415 183
46.00426 186
46.02437 182
46.04449 163
46.0646 175
46.08472 178
46.10483 138
46.12494 152
46.14506 174
46.16517 146
46.18528 138
46.2054 163
46.22551 139
46.24563 162
46.26574 153
46.28585 158
46.30597 159
46.32608 160
46.34619 158
46.36631 143
46.38642 133
46.40653 131
46.42665 153
46.44676 151
46.46688 149
46.48699 147
46.5071 159
46.52722 134
46.54733 148
46.56744 128
46.58756 126
46.60767 153
46.62779 147
46.6479 163
46.66801 146
46.68813 140
46.70824 140
46.72835 122
46.74847 159
46.76858 137
46.78869 156
46.80881 133
46.82892 142
46.84904 156
46.86915 147
46.88926 137
46.90938 154
46.92949 144
46.9496 148
46.96972 170
46.98983 154
47.00995 137
47.03006 163
47.05017 168
47.07029 144
47.0904 160
47.11051 145
47.13063 147
47.15074 150
47.17086 168
47.19097 153
47.21108 147
47.2312 129
47.25131 163
47.27142 148
47.29154 153
47.31165 138
47.33176 168
47.35188 146
47.37199 165
47.39211 159
47.41222 148
47.43233 149
47.45245 161
47.47256 146
47.49267 146
47.51279 155
47.5329 160
47.55302 158
47.57313 139
47.59324 137
47.61336 144
47.63347 143
47.65358 141
47.6737 147
47.69381 158
47.71393 140
47.73404 150
47.75415 141
47.77427 143
47.79438 138
47.81449 143
47.83461 145
47.85472 146
47.87483 148
47.89495 135
47.91506 146
47.93518 131
47.95529 142
47.9754 134
47.99552 153
48.01563 120
48.03574 142
48.05586 144
48.07597 139
48.09609 141
48.1162 132
48.13631 142
48.15643 157
48.17654 155
48.19665 152
48.21677 143
48.23688 157
48.257 141
48.27711 143
48.29722 138
48.31734 153
48.33745 148
48.35756 160
48.37768 149
48.39779 144
48.4179 143
48.43802 138
48.45813 160
48.47825 133
48.49836 187
48.51847 150
48.53859 125
48.5587 146
48.57881 158
48.59893 144
48.61904 159
48.63916 151
48.65927 154
48.67938 143
48.6995 149
48.71961 151
48.73972 161
48.75984 145
48.77995 168
48.80006 152
48.82018 158
48.84029 176
48.86041 174
48.88052 168
48.90063 161
48.92075 177
48.94086 164
48.96097 170
48.98109 160
49.0012 165
49.02132 157
49.04143 155
49.06154 166
49.08166 183
49.10177 180
49.12188 178
49.142 183
49.16211 183
49.18223 175
49.20234 149
49.22245 172
49.24257 172
49.26268 152
49.28279 154
49.30291 152
49.32302 167
49.34313 163
49.36325 151
49.38336 162
49.40348 167
49.42359 192
49.4437 182
49.46382 172
49.48393 195
49.50404 169
49.52416 187
49.54427 207
49.56439 219
49.5845 210
49.60461 238
49.62473 249
49.64484 250
49.66495 265
49.68507 303
49.70518 326
49.7253 364
49.74541 362
49.76552 405
49.78564 425
49.80575 484
49.82586 543
49.84598 588
49.86609 704
49.8862 806
49.90632 950
49.92643 1176
49.94655 1437
49.96666 1723
49.98677 2101
50.00689 2496
50.027 2837
50.04711 3109
50.06723 3109
50.08734 3003
50.10746 2650
50.12757 2248
50.14768 1960
50.1678 1854
50.18791 1677
50.20802 1524
50.22814 1375
50.24825 1089
50.26837 787
50.28848 560
50.30859 411
50.32871 340
50.34882 313
50.36893 289
50.38905 286
50.40916 291
50.42927 294
50.44939 301
50.4695 300
50.48962 317
50.50973 315
50.52984 277
50.54996 306
50.57007 294
50.59018 289
50.6103 258
50.63041 265
50.65053 278
50.67064 262
50.69075 258
50.71087 243
50.73098 204
50.75109 199
50.77121 223
50.79132 195
50.81143 191
50.83155 181
50.85166 177
50.87178 197
50.89189 167
50.912 158
50.93212 147
50.95223 154
50.97234 180
50.99246 153
51.01257 166
51.03269 169
51.0528 140
51.07291 140
51.09303 155
51.11314 166
51.13325 156
51.15337 148
51.17348 152
51.1936 165
51.21371 178
51.23382 180
51.25394 185
51.27405 181
51.29416 168
51.31428 170
51.33439 182
51.3545 157
51.37462 147
51.39473 175
51.41485 145
51.43496 150
51.45507 158
51.47519 168
51.4953 144
51.51541 143
51.53553 166
51.55564 140
51.57576 155
51.59587 129
51.61598 147
51.6361 130
51.65621 121
51.67632 118
51.69644 160
51.71655 116
51.73667 135
51.75678 136
51.77689 121
51.79701 147
51.81712 134
51.83723 139
51.85735 148
51.87746 148
51.89757 146
51.91769 129
51.9378 126
51.95792 140
51.97803 137
51.99814 153
52.01826 128
52.03837 151
52.05848 134
52.0786 134
52.09871 131
52.11883 143
52.13894 130
52.15905 137
52.17917 139
52.19928 136
52.21939 157
52.23951 131
52.25962 118
52.27974 139
52.29985 153
52.31996 145
52.34008 134
52.36019 149
52.3803 125
52.40042 133
52.42053 149
52.44064 123
52.46076 138
52.48087 167
52.50099 139
52.5211 160
52.54121 136
52.56133 168
52.58144 134
52.60155 146
52.62167 148
52.64178 140
52.6619 129
52.68201 143
52.70212 144
52.72224 153
52.74235 136
52.76246 164
52.78258 139
52.80269 139
52.8228 145
52.84292 134
52.86303 163
52.88315 148
52.90326 127
52.92337 122
52.94349 149
52.9636 167
52.98371 157
53.00383 139
53.02394 154
53.04406 128
53.06417 151
53.08428 133
53.1044 164
53.12451 135
53.14462 140
53.16474 135
53.18485 152
53.20497 167
53.22508 131
53.24519 153
53.26531 122
53.28542 142
53.30553 162
53.32565 157
53.34576 144
53.36587 159
53.38599 160
53.4061 137
53.42622 156
53.44633 118
53.46644 123
53.48656 147
53.50667 126
53.52678 153
53.5469 134
53.56701 157
53.58713 158
53.60724 148
53.62735 130
53.64747 155
53.66758 148
53.68769 152
53.70781 129
53.72792 155
53.74804 148
53.76815 163
53.78826 133
53.80838 146
53.82849 122
53.8486 153
53.86872 150
53.88883 116
53.90894 147
53.92906 147
53.94917 142
53.96929 143
53.9894 166
54.00951 146
54.02963 156
54.04974 143
54.06985 161
54.08997 174
54.11008 178
54.1302 159
54.15031 159
54.17042 167
54.19054 148
54.21065 174
54.23076 141
54.25088 155
54.27099 159
54.29111 153
54.31122 156
54.33133 194
54.35145 185
54.37156 166
54.39167 167
54.41179 174
54.4319 176
54.45201 196
54.47213 186
54.49224 204
54.51236 200
54.53247 256
54.55258 238
54.5727 257
54.59281 302
54.61292 333
54.63304 366
54.65315 432
54.67327 463
54.69338 562
54.71349 651
54.73361 743
54.75372 878
54.77383 932
54.79395 1009
54.81406 969
54.83417 808
54.85429 791
54.8744 638
54.89452 641
54.91463 557
54.93474 552
54.95486 514
54.97497 505
54.99508 415
55.0152 391
55.03531 306
55.05543 274
55.07554 308
55.09565 272
55.11577 315
55.13588 313
55.15599 349
55.17611 378
55.19622 439
55.21634 509
55.23645 512
55.25656 508
55.27668 507
55.29679 423
55.3169 391
55.33702 374
55.35713 326
55.37724 359
55.39736 341
55.41747 318
55.43759 281
55.4577 238
55.47781 228
55.49793 222
55.51804 192
55.53815 148
55.55827 147
55.57838 155
55.5985 166
55.61861 152
55.63872 144
55.65884 142
55.67895 141
55.69906 141
55.71918 149
55.73929 142
55.75941 116
55.77952 139
55.79963 170
55.81975 134
55.83986 143
55.85997 159
55.88009 136
55.9002 139
55.92031 152
55.94043 126
55.96054 140
55.98066 134
56.00077 143
56.02088 135
56.041 132
56.06111 154
56.08122 125
56.10134 146
56.12145 134
56.14157 138
56.16168 133
56.18179 128
56.20191 117
56.22202 142
56.24213 110
56.26225 131
56.28236 139
56.30248 133
56.32259 130
56.3427 110
56.36282 147
56.38293 143
56.40304 124
56.42316 135
56.44327 119
56.46338 125
56.4835 114
56.50361 155
56.52373 122
56.54384 118
56.56395 140
56.58407 138
56.60418 161
56.62429 132
56.64441 139
56.66452 129
56.68464 121
56.70475 163
56.72486 140
56.74498 118
56.76509 134
56.7852 125
56.80532 149
56.82543 144
56.84554 114
56.86566 144
56.88577 119
56.90589 156
56.926 141
56.94611 134
56.96623 156
56.98634 105
57.00645 143
57.02657 168
57.04668 121
57.0668 167
57.08691 184
57.10702 158
57.12714 153
57.14725 168
57.16736 196
57.18748 153
57.20759 156
57.22771 180
57.24782 172
57.26793 157
57.28805 178
57.30816 161
57.32827 162
57.34839 171
57.3685 155
57.38861 139
57.40873 151
57.42884 136
57.44896 132
57.46907 164
57.48918 157
57.5093 154
57.52941 156
57.54952 125
57.56964 124
57.58975 149
57.60987 132
57.62998 140
57.65009 134
57.67021 119
57.69032 142
57.71043 122
57.73055 127
57.75066 139
57.77078 143
57.79089 146
57.811 139
57.83112 146
57.85123 135
57.87134 157
57.89146 156
57.91157 130
57.93168 128
57.9518 131
57.97191 141
57.99203 119
58.01214 134
58.03225 135
58.05237 144
58.07248 115
58.09259 147
58.11271 134
58.13282 141
58.15294 151
58.17305 127
58.19316 124
58.21328 161
58.23339 123
58.2535 140
58.27362 138
58.29373 129
58.31385 134
58.33396 126
58.35407 141
58.37419 144
58.3943 137
58.41441 152
58.43453 122
58.45464 160
58.47475 141
58.49487 155
58.51498 124
58.5351 128
58.55521 157
58.57532 157
58.59544 150
58.61555 148
58.63566 160
58.65578 165
58.67589 170
58.69601 153
58.71612 153
58.73623 153
58.75635 123
58.77646 138
58.79657 140
58.81669 151
58.8368 139
58.85691 147
58.87703 142
58.89714 159
58.91726 135
58.93737 139
58.95748 137
58.9776 118
58.99771 128
59.01782 133
59.03794 144
59.05805 136
59.07817 170
59.09828 135
59.11839 162
59.13851 150
59.15862 148
59.17873 142
59.19885 123
59.21896 153
59.23908 160
59.25919 166
59.2793 179
59.29942 161
59.31953 161
59.33964 168
59.35976 192
59.37987 184
59.39998 201
59.4201 183
59.44021 196
59.46033 207
59.48044 217
59.50055 230
59.52067 266
59.54078 276
59.56089 275
59.58101 294
59.60112 317
59.62124 406
59.64135 392
59.66146 440
59.68158 530
59.70169 636
59.7218 742
59.74192 858
59.76203 1069
59.78215 1221
59.80226 1428
59.82237 1643
59.84249 1888
59.8626 1890
59.88271 1974
59.90283 1847
59.92294 1717
59.94305 1420
59.96317 1286
59.98328 1135
60.0034 1155
60.02351 1128
60.04362 1021
60.06374 944
60.08385 776
60.10396 631
60.12408 508
60.14419 349
60.16431 284
60.18442 257
60.20453 238
60.22465 228
60.24476 194
60.26487 180
60.28499 210
60.3051 188
60.32522 182
60.34533 170
60.36544 176
60.38556 169
60.40567 168
60.42578 162
60.4459 146
60.46601 151
60.48612 147
60.50624 144
60.52635 154
60.54647 161
60.56658 147
60.58669 142
60.60681 153
60.62692 149
60.64703 166
60.66715 157
60.68726 157
60.70738 150
60.72749 153
60.7476 146
60.76772 125
60.78783 136
60.80794 145
60.82806 133
60.84817 150
60.86828 147
60.8884 156
60.90851 141
60.92863 149
60.94874 134
60.96885 138
60.98897 165
61.00908 154
61.02919 151
61.04931 153
61.06942 127
61.08954 138
61.10965 143
61.12976 160
61.14988 139
61.16999 171
61.1901 142
61.21022 161
61.23033 130
61.25045 138
61.27056 143
61.29067 128
61.31079 132
61.3309 144
61.35101 117
61.37113 130
61.39124 136
61.41135 131
61.43147 131
61.45158 137
61.4717 133
61.49181 133
61.51192 137
61.53204 119
61.55215 130
61.57226 128
61.59238 136
61.61249 162
61.63261 144
61.65272 142
61.67283 139
61.69295 155
61.71306 133
61.73317 155
61.75329 147
61.7734 158
61.79352 142
61.81363 137
61.83374 126
61.85386 150
61.87397 135
61.89408 150
61.9142 141
61.93431 146
61.95442 153
61.97454 169
61.99465 154
62.01477 143
62.03488 146
62.05499 146
62.07511 154
62.09522 154
62.11533 137
62.13545 155
62.15556 146
62.17568 157
62.19579 149
62.2159 147
62.23602 141
62.25613 153
62.27624 166
62.29636 161
62.31647 150
62.33659 139
62.3567 139
62.37681 148
62.39693 151
62.41704 141
62.43715 135
62.45727 127
62.47738 153
62.49749 117
62.51761 136
62.53772 125
62.55784 131
62.57795 143
62.59806 133
62.61818 143
62.63829 130
62.6584 135
62.67852 123
62.69863 152
62.71875 116
62.73886 138
62.75897 129
62.77909 141
62.7992 127
62.81931 145
62.83943 126
62.85954 122
62.87965 155
62.89977 149
62.91988 137
62.94 151
62.96011 133
62.98022 150
63.00034 154
63.02045 137
63.04056 130
63.06068 150
63.08079 156
63.10091 159
63.12102 133
63.14113 122
63.16125 141
63.18136 155
63.20147 125
63.22159 139
63.2417 128
63.26182 158
63.28193 135
63.30204 137
63.32216 145
63.34227 113
63.36238 144
63.3825 126
63.40261 137
63.42272 135
63.44284 152
63.46295 153
63.48307 154
63.50318 154
63.52329 144
63.54341 151
63.56352 152
63.58363 158
63.60375 142
63.62386 186
63.64398 178
63.66409 181
63.6842 166
63.70432 172
63.72443 197
63.74454 188
63.76466 212
63.78477 242
63.80489 274
63.825 306
63.84511 312
63.86523 350
63.88534 383
63.90545 394
63.92557 414
63.94568 467
63.96579 469
63.98591 403
64.00602 377
64.02614 347
64.04625 343
64.06636 300
64.08648 303
64.10659 306
64.1267 297
64.14682 277
64.16693 263
64.18705 239
64.20716 194
64.22727 191
64.24739 159
64.2675 169
64.28761 137
64.30773 154
64.32784 157
64.34796 143
64.36807 144
64.38818 151
64.4083 147
64.42841 152
64.44852 109
64.46864 127
64.48875 138
64.50886 141
64.52898 113
64.54909 126
64.56921 125
64.58932 133
64.60943 147
64.62955 145
64.64966 125
64.66977 155
64.68989 123
64.71 135
64.73012 136
64.75023 133
64.77034 141
64.79046 136
64.81057 168
64.83068 139
64.8508 150
64.87091 131
64.89102 138
64.91114 130
64.93125 145
64.95137 142
64.97148 138
64.99159 145
65.01171 122
65.03182 137
65.05193 140
65.07205 145
65.09216 139
65.11228 131
65.13239 139
65.1525 122
65.17262 131
65.19273 139
65.21284 135
65.23296 149
65.25307 151
65.27319 145
65.2933 144
65.31341 145
65.33353 146
65.35364 143
65.37375 164
65.39387 145
65.41398 155
65.43409 158
65.45421 147
65.47432 151
65.49444 167
65.51455 171
65.53466 163
65.55478 152
65.57489 181
65.595 188
65.61512 177
65.63523 180
65.65535 212
65.67546 229
65.69557 223
65.71569 229
65.7358 201
65.75591 200
65.77603 191
65.79614 182
65.81626 159
65.83637 180
65.85648 169
65.8766 194
65.89671 164
65.91682 154
65.93694 135
65.95705 162
65.97716 160
65.99728 123
66.01739 140
66.03751 132
66.05762 150
66.07773 140
66.09785 135
66.11796 143
66.13807 143
66.15819 125
66.1783 141
66.19842 114
66.21853 152
66.23864 135
66.25876 135
66.27887 146
66.29898 135
66.3191 167
66.33921 152
66.35933 143
66.37944 136
66.39955 137
66.41967 138
66.43978 135
66.45989 137
66.48001 154
66.50012 128
66.52023 130
66.54035 130
66.56046 134
66.58058 144
66.60069 138
66.6208 155
66.64092 145
66.66103 126
66.68114 151
66.70126 132
66.72137 147
66.74149 144
66.7616 141
66.78171 141
66.80183 160
66.82194 114
66.84205 152
66.86217 153
66.88228 164
66.90239 150
66.92251 137
66.94262 169
66.96274 148
66.98285 143
67.00296 165
67.02308 165
67.04319 174
67.0633 170
67.08342 161
67.10353 174
67.12365 172
67.14376 183
67.16387 185
67.18399 206
67.2041 193
67.22421 178
67.24433 178
67.26444 222
67.28456 221
67.30467 231
67.32478 249
67.3449 235
67.36501 234
67.38512 264
67.40524 311
67.42535 340
67.44546 376
67.46558 385
67.48569 457
67.50581 535
67.52592 618
67.54603 697
67.56615 837
67.58626 964
67.60637 1033
67.62649 1138
67.6466 1274
67.66672 1198
67.68683 1137
67.70694 1159
67.72706 1007
67.74717 892
67.76728 814
67.7874 801
67.80751 818
67.82763 890
67.84774 879
67.86785 908
67.88797 916
67.90808 928
67.92819 934
67.94831 1068
67.96842 1127
67.98853 1218
68.00865 1409
68.02876 1483
68.04888 1516
68.06899 1587
68.0891 1622
68.10922 1477
68.12933 1382
68.14944 1369
68.16956 1391
68.18967 1504
68.20979 1468
68.2299 1528
68.25001 1416
68.27013 1310
68.29024 1147
68.31035 986
68.33047 821
68.35058 718
68.3707 592
68.39081 603
68.41092 610
68.43104 547
68.45115 480
68.47126 440
68.49138 338
68.51149 303
68.5316 255
68.55172 204
68.57183 219
68.59195 174
68.61206 208
68.63217 169
68.65229 164
68.6724 191
68.69251 185
68.71263 190
68.73274 169
68.75286 155
68.77297 166
68.79308 165
68.8132 143
68.83331 141
68.85342 127
68.87354 164
68.89365 132
68.91376 150
68.93388 135
68.95399 145
68.97411 165
68.99422 149
69.01433 129
69.03445 138
69.05456 129
69.07467 141
69.09479 145
69.1149 161
69.13502 146
69.15513 151
69.17524 157
69.19536 128
69.21547 136
69.23558 144
69.2557 131
69.27581 135
69.29593 130
69.31604 145
69.33615 147
69.35627 131
69.37638 160
69.39649 119
69.41661 136
69.43672 127
69.45683 153
69.47695 134
69.49706 130
69.51718 128
69.53729 146
69.5574 128
69.57752 168
69.59763 119
69.61774 124
69.63786 131
69.65797 118
69.67809 134
69.6982 122
69.71831 155
69.73843 119
69.75854 137
69.77865 108
69.79877 131
69.81888 136
69.839 134
69.85911 121
69.87922 138
69.89934 123
69.91945 122
69.93956 120
69.95968 135
69.97979 143
69.9999 114
70.02002 115
70.04013 120
70.06025 126
70.08036 121
70.10047 122
70.12059 139
70.1407 122
70.16081 149
70.18093 119
70.20104 116
70.22116 118
70.24127 117
70.26138 114
70.2815 115
70.30161 137
70.32172 109
70.34184 128
70.36195 115
70.38207 109
70.40218 131
70.42229 120
70.44241 120
70.46252 120
70.48263 133
70.50275 106
70.52286 132
70.54297 96
70.56309 115
70.5832 125
70.60332 112
70.62343 125
70.64354 118
70.66366 145
70.68377 116
70.70388 104
70.724 130
70.74411 126
70.76423 136
70.78434 121
70.80445 118
70.82457 128
70.84468 144
70.86479 125
70.88491 125
70.90502 127
70.92513 138
70.94525 118
70.96536 137
70.98548 116
71.00559 132
71.0257 114
71.04582 127
71.06593 121
71.08604 125
71.10616 132
71.12627 122
71.14639 120
71.1665 103
71.18661 108
71.20673 153
71.22684 118
71.24695 134
71.26707 119
71.28718 134
71.3073 114
71.32741 130
71.34752 134
71.36764 141
71.38775 125
71.40786 119
71.42798 122
71.44809 126
71.4682 116
71.48832 125
71.50843 122
71.52855 129
71.54866 137
71.56877 123
71.58889 143
71.609 129
71.62911 119
71.64923 135
71.66934 129
71.68946 124
71.70957 127
71.72968 137
71.7498 122
71.76991 130
71.79002 110
71.81014 121
71.83025 126
71.85037 127
71.87048 118
71.89059 100
71.91071 122
71.93082 134
71.95093 147
71.97105 113
71.99116 121
72.01127 126
72.03139 107
72.0515 107
72.07162 115
72.09173 133
72.11184 133
72.13196 116
72.15207 113
72.17218 129
72.1923 140
72.21241 134
72.23253 116
72.25264 146
72.27275 117
72.29287 106
72.31298 132
72.33309 122
72.35321 120
72.37332 136
72.39344 106
72.41355 122
72.43366 124
72.45378 124
72.47389 112
72.494 117
72.51412 128
72.53423 130
72.55434 129
72.57446 134
72.59457 137
72.61469 125
72.6348 128
72.65491 123
72.67503 110
72.69514 126
72.71525 130
72.73537 122
72.75548 132
72.7756 139
72.79571 152
72.81582 152
72.83594 121
72.85605 141
72.87616 130
72.89628 156
72.91639 141
72.9365 163
72.95662 126
72.97673 146
72.99685 145
73.01696 149
73.03707 164
73.05719 161
73.0773 154
73.09741 178
73.11753 166
73.13764 194
73.15776 218
73.17787 185
73.19798 226
73.2181 255
73.23821 274
73.25832 307
73.27844 363
73.29855 366
73.31867 392
73.33878 435
73.35889 527
73.37901 492
73.39912 495
73.41923 440
73.43935 410
73.45946 342
73.47957 322
73.49969 315
73.5198 272
73.53992 285
73.56003 278
73.58014 307
73.60026 301
73.62037 293
73.64048 263
73.6606 253
73.68071 202
73.70083 185
73.72094 179
73.74105 168
73.76117 159
73.78128 133
73.80139 167
73.82151 140
73.84162 141
73.86174 124
73.88185 139
73.90196 126
73.92208 141
73.94219 126
73.9623 151
73.98242 109
74.00253 154
74.02264 124
74.04276 127
74.06287 113
74.08299 127
74.1031 135
74.12321 133
74.14333 131
74.16344 144
74.18355 124
74.20367 126
74.22378 130
74.2439 126
74.26401 109
74.28412 123
74.30424 112
74.32435 133
74.34446 134
74.36458 119
74.38469 129
74.40481 127
74.42492 138
74.44503 118
74.46515 100
74.48526 134
74.50537 114
74.52549 121
74.5456 128
74.56571 140
74.58583 122
74.60594 126
74.62606 152
74.64617 128
74.66628 138
74.6864 117
74.70651 128
74.72662 131
74.74674 127
74.76685 124
74.78697 126
74.80708 111
74.82719 145
74.84731 144
74.86742 117
74.88753 139
74.90765 158
74.92776 137
74.94787 127
74.96799 143
74.9881 122
75.00822 139
