3.00117 20202
3.02128 19925
3.0414 19209
3.06151 18770
3.08162 18173
3.10174 17713
3.12185 17341
3.14197 16697
3.16208 16195
3.18219 16073
3.20231 15085
3.22242 14847
3.24253 14547
3.26265 14089
3.28276 13519
3.30288 12931
3.32299 12755
3.3431 12559
3.36322 11846
3.38333 11515
3.40344 11121
3.42356 10709
3.44367 10583
3.46379 9860
3.4839 9740
3.50401 9317
3.52413 9118
3.54424 8920
3.56435 8379
3.58447 8197
3.60458 7619
3.62469 7539
3.64481 7176
3.66492 6921
3.68504 6645
3.70515 6446
3.72526 6357
3.74538 6070
3.76549 5574
3.7856 5489
3.80572 5177
3.82583 4989
3.84595 4819
3.86606 4510
3.88617 4478
3.90629 4286
3.9264 4005
3.94651 3948
3.96663 3628
3.98674 3672
4.00686 3245
4.02697 3243
4.04708 3189
4.0672 2900
4.08731 2823
4.10742 2706
4.12754 2557
4.14765 2583
4.16776 2228
4.18788 2210
4.20799 2008
4.22811 2034
4.24822 2018
4.26833 1766
4.28845 1793
4.30856 1735
4.32867 1734
4.34879 1707
4.3689 1429
4.38902 1421
4.40913 1435
4.42924 1374
4.44936 1457
4.46947 1254
4.48958 1217
4.5097 1184
4.52981 1178
4.54992 1253
4.57004 1181
4.59015 1056
4.61027 1092
4.63038 1061
4.65049 1068
4.67061 949
4.69072 942
4.71083 979
4.73095 882
4.75106 905
4.77118 801
4.79129 819
4.8114 807
4.83152 777
4.85163 825
4.87174 722
4.89186 681
4.91197 724
4.93209 702
4.9522 778
4.97231 644
4.99243 682
5.01254 636
5.03265 622
5.05277 619
5.07288 555
5.09299 536
5.11311 588
5.13322 533
5.15334 515
5.17345 523
5.19356 529
5.21368 461
5.23379 462
5.2539 439
5.27402 424
5.29413 417
5.31425 486
5.33436 423
5.35447 422
5.37459 398
5.3947 375
5.41481 409
5.43493 372
5.45504 353
5.47516 326
5.49527 330
5.51538 364
5.5355 332
5.55561 320
5.57572 322
5.59584 288
5.61595 301
5.63606 323
5.65618 306
5.67629 306
5.69641 264
5.71652 283
5.73663 248
5.75675 243
5.77686 240
5.79697 240
5.81709 223
5.8372 251
5.85732 264
5.87743 248
5.89754 212
5.91766 215
5.93777 207
5.95788 222
5.978 229
5.99811 194
6.01823 198
6.03834 180
6.05845 190
6.07857 180
6.09868 172
6.11879 185
6.13891 210
6.15902 176
6.17913 193
6.19925 180
6.21936 172
6.23948 199
6.25959 182
6.2797 196
6.29982 190
6.31993 183
6.34004 163
6.36016 186
6.38027 166
6.40039 170
6.4205 162
6.44061 168
6.46073 177
6.48084 156
6.50095 168
6.52107 156
6.54118 163
6.56129 162
6.58141 144
6.60152 140
6.62164 198
6.64175 163
6.66186 180
6.68198 155
6.70209 173
6.7222 150
6.74232 177
6.76243 163
6.78255 148
6.80266 177
6.82277 176
6.84289 151
6.863 173
6.88311 150
6.90323 152
6.92334 152
6.94346 146
6.96357 153
6.98368 171
7.0038 160
7.02391 173
7.04402 169
7.06414 194
7.08425 187
7.10436 153
7.12448 174
7.14459 176
7.16471 165
7.18482 195
7.20493 187
7.22505 181
7.24516 183
7.26527 170
7.28539 149
7.3055 162
7.32562 170
7.34573 173
7.36584 176
7.38596 169
7.40607 170
7.42618 181
7.4463 198
7.46641 173
7.48653 172
7.50664 193
7.52675 169
7.54687 160
7.56698 172
7.58709 173
7.60721 176
7.62732 172
7.64743 162
7.66755 191
7.68766 173
7.70778 160
7.72789 197
7.748 172
7.76812 195
7.78823 176
7.80834 194
7.82846 200
7.84857 160
7.86869 172
7.8888 174
7.90891 177
7.92903 179
7.94914 162
7.96925 189
7.98937 174
8.00948 203
8.0296 190
8.04971 187
8.06982 177
8.08994 194
8.11005 191
8.13016 215
8.15028 187
8.17039 201
8.1905 203
8.21062 200
8.23073 205
8.25085 201
8.27096 213
8.29107 186
8.31119 200
8.3313 208
8.35141 198
8.37153 191
8.39164 206
8.41176 232
8.43187 182
8.45198 185
8.4721 187
8.49221 199
8.51232 206
8.53244 169
8.55255 204
8.57266 197
8.59278 190
8.61289 191
8.63301 231
8.65312 196
8.67323 223
8.69335 220
8.71346 196
8.73357 199
8.75369 205
8.7738 221
8.79392 210
8.81403 210
8.83414 193
8.85426 221
8.87437 216
8.89448 199
8.9146 211
8.93471 214
8.95483 213
8.97494 217
8.99505 234
9.01517 227
9.03528 205
9.05539 209
9.07551 232
9.09562 213
9.11573 175
9.13585 217
9.15596 237
9.17608 216
9.19619 189
9.2163 205
9.23642 207
9.25653 194
9.27664 199
9.29676 214
9.31687 189
9.33699 220
9.3571 198
9.37721 204
9.39733 206
9.41744 209
9.43755 234
9.45767 196
9.47778 202
9.4979 227
9.51801 216
9.53812 213
9.55824 241
9.57835 223
9.59846 208
9.61858 189
9.63869 185
9.6588 189
9.67892 231
9.69903 229
9.71915 216
9.73926 221
9.75937 216
9.77949 226
9.7996 221
9.81971 209
9.83983 206
9.85994 202
9.88006 221
9.90017 219
9.92028 203
9.9404 223
9.96051 204
9.98062 189
10.00074 224
10.02085 212
10.04097 238
10.06108 183
10.08119 212
10.10131 215
10.12142 205
10.14153 213
10.16165 206
10.18176 209
10.20187 219
10.22199 210
10.2421 207
10.26222 177
10.28233 213
10.30244 205
10.32256 195
10.34267 227
10.36278 209
10.3829 208
10.40301 217
10.42313 202
10.44324 228
10.46335 242
10.48347 197
10.50358 232
10.52369 220
10.54381 226
10.56392 224
10.58403 187
10.60415 180
10.62426 205
10.64438 200
10.66449 223
10.6846 211
10.70472 221
10.72483 224
10.74494 197
10.76506 215
10.78517 219
10.80529 224
10.8254 208
10.84551 201
10.86563 221
10.88574 219
10.90585 212
10.92597 236
10.94608 193
10.9662 210
10.98631 206
11.00642 221
11.02654 224
11.04665 222
11.06676 199
11.08688 213
11.10699 201
11.1271 200
11.14722 224
11.16733 223
11.18745 212
11.20756 203
11.22767 209
11.24779 183
11.2679 203
11.28801 178
11.30813 211
11.32824 239
11.34836 230
11.36847 221
11.38858 223
11.4087 216
11.42881 210
11.44892 200
11.46904 199
11.48915 223
11.50927 178
11.52938 186
11.54949 221
11.56961 228
11.58972 206
11.60983 216
11.62995 209
11.65006 196
11.67017 203
11.69029 209
11.7104 200
11.73052 202
11.75063 182
11.77074 212
11.79086 207
11.81097 196
11.83108 227
11.8512 193
11.87131 197
11.89143 215
11.91154 220
11.93165 207
11.95177 213
11.97188 194
11.99199 204
12.01211 197
12.03222 207
12.05234 213
12.07245 203
12.09256 216
12.11268 203
12.13279 154
12.1529 190
12.17302 178
12.19313 205
12.21324 210
12.23336 195
12.25347 208
12.27359 220
12.2937 205
12.31381 209
12.33393 177
12.35404 196
12.37415 200
12.39427 207
12.41438 220
12.4345 182
12.45461 201
12.47472 213
12.49484 214
12.51495 179
12.53506 193
12.55518 197
12.57529 208
12.5954 202
12.61552 222
12.63563 210
12.65575 222
12.67586 200
12.69597 196
12.71609 176
12.7362 196
12.75631 182
12.77643 188
12.79654 196
12.81666 167
12.83677 201
12.85688 195
12.877 197
12.89711 185
12.91722 196
12.93734 199
12.95745 201
12.97757 208
12.99768 184
13.01779 198
13.03791 173
13.05802 167
13.07813 160
13.09825 187
13.11836 191
13.13847 185
13.15859 218
13.1787 201
13.19882 180
13.21893 185
13.23904 188
13.25916 182
13.27927 174
13.29938 193
13.3195 159
13.33961 205
13.35973 198
13.37984 186
13.39995 175
13.42007 170
13.44018 178
13.46029 187
13.48041 174
13.50052 185
13.52064 193
13.54075 167
13.56086 219
13.58098 194
13.60109 208
13.6212 199
13.64132 175
13.66143 201
13.68154 197
13.70166 174
13.72177 149
13.74189 209
13.762 194
13.78211 176
13.80223 154
13.82234 176
13.84245 195
13.86257 198
13.88268 188
13.9028 184
13.92291 150
13.94302 211
13.96314 171
13.98325 174
14.00336 191
14.02348 172
14.04359 184
14.06371 178
14.08382 156
14.10393 163
14.12405 198
14.14416 204
14.16427 178
14.18439 180
14.2045 166
14.22461 188
14.24473 182
14.26484 193
14.28496 191
14.30507 174
14.32518 179
14.3453 173
14.36541 160
14.38552 157
14.40564 182
14.42575 171
14.44587 164
14.46598 174
14.48609 163
14.50621 174
14.52632 172
14.54643 185
14.56655 186
14.58666 172
14.60677 150
14.62689 189
14.647 174
14.66712 167
14.68723 168
14.70734 193
14.72746 164
14.74757 171
14.76768 137
14.7878 192
14.80791 169
14.82803 168
14.84814 164
14.86825 175
14.88837 192
14.90848 160
14.92859 182
14.94871 177
14.96882 159
14.98894 160
15.00905 161
15.02916 185
15.04928 153
15.06939 163
15.0895 165
15.10962 168
15.12973 180
15.14984 162
15.16996 166
15.19007 158
15.21019 150
15.2303 165
15.25041 159
15.27053 189
15.29064 160
15.31075 188
15.33087 181
15.35098 150
15.3711 171
15.39121 149
15.41132 163
15.43144 163
15.45155 146
15.47166 155
15.49178 172
15.51189 165
15.53201 155
15.55212 142
15.57223 159
15.59235 160
15.61246 149
15.63257 140
15.65269 173
15.6728 155
15.69291 152
15.71303 138
15.73314 141
15.75326 155
15.77337 137
15.79348 168
15.8136 165
15.83371 141
15.85382 176
15.87394 157
15.89405 167
15.91417 149
15.93428 163
15.95439 185
15.97451 169
15.99462 159
16.01473 155
16.03485 164
16.05496 181
16.07508 152
16.09519 138
16.1153 153
16.13542 174
16.15553 165
16.17564 170
16.19576 174
16.21587 154
16.23598 181
16.2561 152
16.27621 148
16.29633 155
16.31644 148
16.33655 155
16.35667 146
16.37678 163
16.39689 157
16.41701 132
16.43712 151
16.45724 168
16.47735 104
16.49746 158
16.51758 153
16.53769 156
16.5578 140
16.57792 160
16.59803 153
16.61814 158
16.63826 147
16.65837 172
16.67849 142
16.6986 186
16.71871 151
16.73883 157
16.75894 157
16.77905 160
16.79917 173
16.81928 143
16.8394 151
16.85951 151
16.87962 148
16.89974 167
16.91985 156
16.93996 149
16.96008 139
16.98019 166
17.00031 152
17.02042 148
17.04053 151
17.06065 124
17.08076 152
17.10087 162
17.12099 153
17.1411 151
17.16121 134
17.18133 172
17.20144 184
17.22156 175
17.24167 171
17.26178 150
17.2819 149
17.30201 150
17.32212 144
17.34224 182
17.36235 137
17.38247 151
17.40258 158
17.42269 140
17.44281 145
17.46292 164
17.48303 153
17.50315 134
17.52326 170
17.54338 143
17.56349 159
17.5836 162
17.60372 130
17.62383 151
17.64394 150
17.66406 156
17.68417 142
17.70428 132
17.7244 157
17.74451 167
17.76463 177
17.78474 121
17.80485 173
17.82497 157
17.84508 158
17.86519 127
17.88531 161
17.90542 134
17.92554 128
17.94565 168
17.96576 140
17.98588 163
18.00599 158
18.0261 122
18.04622 142
18.06633 134
18.08645 151
18.10656 139
18.12667 163
18.14679 140
18.1669 133
18.18701 142
18.20713 145
18.22724 131
18.24735 142
18.26747 138
18.28758 145
18.3077 161
18.32781 137
18.34792 126
18.36804 153
18.38815 150
18.40826 139
18.42838 152
18.44849 131
18.46861 160
18.48872 145
18.50883 135
18.52895 161
18.54906 157
18.56917 157
18.58929 145
18.6094 158
18.62951 136
18.64963 159
18.66974 142
18.68986 122
18.70997 142
18.73008 157
18.7502 157
18.77031 186
18.79042 171
18.81054 150
18.83065 137
18.85077 159
18.87088 126
18.89099 152
18.91111 163
18.93122 134
18.95133 148
18.97145 148
18.99156 162
19.01168 160
19.03179 138
19.0519 117
19.07202 157
19.09213 144
19.11224 142
19.13236 157
19.15247 135
19.17258 138
19.1927 176
19.21281 149
19.23293 171
19.25304 168
19.27315 177
19.29327 144
19.31338 152
19.33349 143
19.35361 136
19.37372 151
19.39384 153
19.41395 145
19.43406 142
19.45418 168
19.47429 125
19.4944 175
19.51452 166
19.53463 183
19.55475 168
19.57486 164
19.59497 165
19.61509 154
19.6352 167
19.65531 169
19.67543 158
19.69554 155
19.71565 181
19.73577 181
19.75588 190
19.776 188
19.79611 150
19.81622 191
19.83634 171
19.85645 207
19.87656 207
19.89668 188
19.91679 217
19.93691 191
19.95702 163
19.97713 152
19.99725 175
20.01736 175
20.03747 160
20.05759 191
20.0777 176
20.09782 180
20.11793 170
20.13804 204
20.15816 221
20.17827 219
20.19838 221
20.2185 223
20.23861 231
20.25872 243
20.27884 254
20.29895 234
20.31907 257
20.33918 219
20.35929 237
20.37941 237
20.39952 284
20.41963 305
20.43975 267
20.45986 321
20.47998 339
20.50009 316
20.5202 315
20.54032 342
20.56043 378
20.58054 387
20.60066 450
20.62077 483
20.64088 562
20.661 717
20.68111 926
20.70123 1307
20.72134 1758
20.74145 2403
20.76157 3354
20.78168 4451
20.80179 5832
20.82191 7256
20.84202 8346
20.86214 8732
20.88225 8008
20.90236 6167
20.92248 4406
20.94259 2881
20.9627 1774
20.98282 1027
21.00293 690
21.02305 606
21.04316 548
21.06327 465
21.08339 457
21.1035 388
21.12361 313
21.14373 342
21.16384 297
21.18395 282
21.20407 288
21.22418 279
21.2443 254
21.26441 252
21.28452 218
21.30464 221
21.32475 218
21.34486 224
21.36498 221
21.38509 218
21.40521 236
21.42532 215
21.44543 196
21.46555 202
21.48566 189
21.50577 195
21.52589 230
21.546 198
21.56612 183
21.58623 197
21.60634 191
21.62646 170
21.64657 200
21.66668 188
21.6868 209
21.70691 184
21.72702 191
21.74714 175
21.76725 209
21.78737 166
21.80748 189
21.82759 191
21.84771 179
21.86782 173
21.88793 191
21.90805 187
21.92816 189
21.94828 215
21.96839 207
21.9885 194
22.00862 180
22.02873 207
22.04884 217
22.06896 194
22.08907 178
22.10919 195
22.1293 190
22.14941 215
22.16953 195
22.18964 193
22.20975 176
22.22987 210
22.24998 203
22.27009 194
22.29021 212
22.31032 192
22.33044 210
22.35055 231
22.37066 198
22.39078 176
22.41089 179
22.431 188
22.45112 169
22.47123 185
22.49135 177
22.51146 180
22.53157 196
22.55169 180
22.5718 173
22.59191 201
22.61203 189
22.63214 198
22.65225 167
22.67237 165
22.69248 180
22.7126 185
22.73271 174
22.75282 193
22.77294 194
22.79305 170
22.81316 191
22.83328 174
22.85339 161
22.87351 161
22.89362 168
22.91373 185
22.93385 163
22.95396 186
22.97407 162
22.99419 177
23.0143 201
23.03442 191
23.05453 196
23.07464 207
23.09476 200
23.11487 196
23.13498 185
23.1551 200
23.17521 184
23.19532 235
23.21544 193
23.23555 221
23.25567 202
23.27578 197
23.29589 164
23.31601 168
23.33612 167
23.35623 183
23.37635 195
23.39646 148
23.41658 180
23.43669 171
23.4568 156
23.47692 184
23.49703 167
23.51714 191
23.53726 177
23.55737 172
23.57749 175
23.5976 166
23.61771 207
23.63783 188
23.65794 180
23.67805 168
23.69817 157
23.71828 195
23.73839 166
23.75851 150
23.77862 196
23.79874 186
23.81885 213
23.83896 191
23.85908 205
23.87919 229
23.8993 247
23.91942 217
23.93953 222
23.95965 313
23.97976 270
23.99987 295
24.01999 293
24.0401 274
24.06021 266
24.08033 221
24.10044 181
24.12056 174
24.14067 180
24.16078 200
24.1809 170
24.20101 182
24.22112 208
24.24124 188
24.26135 168
24.28146 185
24.30158 167
24.32169 199
24.34181 203
24.36192 185
24.38203 207
24.40215 198
24.42226 182
24.44237 169
24.46249 187
24.4826 166
24.50272 178
24.52283 176
24.54294 168
24.56306 184
24.58317 158
24.60328 157
24.6234 175
24.64351 199
24.66362 206
24.68374 160
24.70385 196
24.72397 202
24.74408 191
24.76419 162
24.78431 148
24.80442 182
24.82453 170
24.84465 164
24.86476 173
24.88488 159
24.90499 186
24.9251 183
24.94522 187
24.96533 197
24.98544 181
25.00556 194
25.02567 167
25.04579 169
25.0659 164
25.08601 183
25.10613 162
25.12624 191
25.14635 176
25.16647 190
25.18658 174
25.20669 195
25.22681 167
25.24692 175
25.26704 173
25.28715 181
25.30726 178
25.32738 191
25.34749 190
25.3676 195
25.38772 195
25.40783 205
25.42795 241
25.44806 240
25.46817 235
25.48829 214
25.5084 216
25.52851 234
25.54863 276
25.56874 260
25.58886 272
25.60897 262
25.62908 283
25.6492 284
25.66931 327
25.68942 345
25.70954 379
25.72965 340
25.74976 376
25.76988 387
25.78999 366
25.81011 414
25.83022 350
25.85033 422
25.87045 425
25.89056 371
25.91067 411
25.93079 425
25.9509 408
25.97102 447
25.99113 456
26.01124 410
26.03136 448
26.05147 489
26.07158 505
26.0917 542
26.11181 537
26.13193 560
26.15204 616
26.17215 675
26.19227 711
26.21238 794
26.23249 801
26.25261 907
26.27272 997
26.29283 1059
26.31295 1249
26.33306 1339
26.35318 1531
26.37329 1808
26.3934 2265
26.41352 2857
26.43363 3738
26.45374 4874
26.47386 6705
26.49397 8974
26.51409 12658
26.5342 16706
26.55431 22248
26.57443 28028
26.59454 33692
26.61465 37986
26.63477 39961
26.65488 36742
26.67499 29279
26.69511 21928
26.71522 16088
26.73534 10979
26.75545 6086
26.77556 3268
26.79568 2174
26.81579 1712
26.8359 1518
26.85602 1372
26.87613 1213
26.89625 1126
26.91636 1023
26.93647 1025
26.95659 824
26.9767 772
26.99681 705
27.01693 671
27.03704 636
27.05716 583
27.07727 541
27.09738 540
27.1175 452
27.13761 494
27.15772 470
27.17784 480
27.19795 435
27.21806 416
27.23818 433
27.25829 390
27.27841 398
27.29852 458
27.31863 416
27.33875 459
27.35886 503
27.37897 492
27.39909 522
27.4192 494
27.43932 481
27.45943 536
27.47954 461
27.49966 453
27.51977 384
27.53988 393
27.56 351
27.58011 341
27.60023 318
27.62034 303
27.64045 301
27.66057 290
27.68068 322
27.70079 271
27.72091 353
27.74102 328
27.76113 299
27.78125 293
27.80136 315
27.82148 294
27.84159 283
27.8617 302
27.88182 301
27.90193 302
27.92204 342
27.94216 268
27.96227 327
27.98239 299
28.0025 303
28.02261 302
28.04273 247
28.06284 237
28.08295 257
28.10307 250
28.12318 232
28.1433 224
28.16341 238
28.18352 248
28.20364 257
28.22375 247
28.24386 230
28.26398 272
28.28409 234
28.3042 249
28.32432 251
28.34443 243
28.36455 242
28.38466 225
28.40477 262
28.42489 238
28.445 219
28.46511 229
28.48523 240
28.50534 220
28.52546 224
28.54557 218
28.56568 201
28.5858 229
28.60591 228
28.62602 241
28.64614 230
28.66625 230
28.68636 238
28.70648 218
28.72659 222
28.74671 193
28.76682 233
28.78693 201
28.80705 193
28.82716 222
28.84727 223
28.86739 213
28.8875 208
28.90762 219
28.92773 213
28.94784 209
28.96796 213
28.98807 180
29.00818 194
29.0283 217
29.04841 205
29.06853 203
29.08864 205
29.10875 243
29.12887 219
29.14898 216
29.16909 211
29.18921 213
29.20932 211
29.22943 192
29.24955 204
29.26966 214
29.28978 214
29.30989 242
29.33 241
29.35012 220
29.37023 231
29.39034 217
29.41046 226
29.43057 247
29.45069 227
29.4708 238
29.49091 215
29.51103 214
29.53114 210
29.55125 204
29.57137 187
29.59148 207
29.6116 197
29.63171 203
29.65182 201
29.67194 194
29.69205 199
29.71216 207
29.73228 204
29.75239 188
29.7725 209
29.79262 217
29.81273 198
29.83285 175
29.85296 202
29.87307 234
29.89319 196
29.9133 205
29.93341 193
29.95353 205
29.97364 199
29.99376 205
30.01387 226
30.03398 188
30.0541 199
30.07421 215
30.09432 205
30.11444 257
30.13455 225
30.15467 230
30.17478 253
30.19489 233
30.21501 210
30.23512 219
30.25523 196
30.27535 194
30.29546 207
30.31557 211
30.33569 177
30.3558 208
30.37592 188
30.39603 200
30.41614 203
30.43626 193
30.45637 191
30.47648 157
30.4966 195
30.51671 195
30.53683 195
30.55694 196
30.57705 197
30.59717 193
30.61728 199
30.63739 173
30.65751 221
30.67762 192
30.69773 204
30.71785 201
30.73796 245
30.75808 214
30.77819 212
30.7983 211
30.81842 215
30.83853 206
30.85864 212
30.87876 196
30.89887 203
30.91899 213
30.9391 192
30.95921 163
30.97933 181
30.99944 175
31.01955 169
31.03967 179
31.05978 174
31.0799 197
31.10001 164
31.12012 181
31.14024 169
31.16035 170
31.18046 180
31.20058 148
31.22069 169
31.2408 186
31.26092 185
31.28103 182
31.30115 168
31.32126 195
31.34137 153
31.36149 154
31.3816 149
31.40171 153
31.42183 180
31.44194 158
31.46206 152
31.48217 153
31.50228 161
31.5224 151
31.54251 145
31.56262 157
31.58274 155
31.60285 153
31.62297 182
31.64308 155
31.66319 169
31.68331 145
31.70342 163
31.72353 165
31.74365 161
31.76376 156
31.78387 151
31.80399 151
31.8241 161
31.84422 187
31.86433 153
31.88444 184
31.90456 147
31.92467 151
31.94478 135
31.9649 156
31.98501 138
32.00513 124
32.02524 148
32.04535 154
32.06547 173
32.08558 163
32.10569 148
32.12581 159
32.14592 142
32.16604 150
32.18615 147
32.20626 149
32.22638 169
32.24649 153
32.2666 168
32.28672 147
32.30683 165
32.32694 142
32.34706 161
32.36717 154
32.38729 153
32.4074 173
32.42751 157
32.44763 154
32.46774 165
32.48785 145
32.50797 163
32.52808 147
32.5482 159
32.56831 163
32.58842 142
32.60854 146
32.62865 135
32.64876 137
32.66888 139
32.68899 147
32.7091 148
32.72922 142
32.74933 141
32.76945 163
32.78956 129
32.80967 131
32.82979 136
32.8499 181
32.87001 146
32.89013 161
32.91024 153
32.93036 154
32.95047 141
32.97058 148
32.9907 125
33.01081 130
33.03092 156
33.05104 126
33.07115 140
33.09127 136
33.11138 164
33.13149 146
33.15161 125
33.17172 151
33.19183 158
33.21195 125
33.23206 132
33.25217 145
33.27229 142
33.2924 151
33.31252 141
33.33263 152
33.35274 125
33.37286 138
33.39297 149
33.41308 151
33.4332 148
33.45331 132
33.47343 136
33.49354 148
33.51365 143
33.53377 116
33.55388 146
33.57399 130
33.59411 157
33.61422 172
33.63434 149
33.65445 139
33.67456 156
33.69468 145
33.71479 138
33.7349 122
33.75502 151
33.77513 132
33.79524 146
33.81536 136
33.83547 136
33.85559 146
33.8757 144
33.89581 134
33.91593 135
33.93604 129
33.95615 127
33.97627 138
33.99638 132
34.0165 137
34.03661 133
34.05672 149
34.07684 162
34.09695 164
34.11706 162
34.13718 196
34.15729 173
34.17741 178
34.19752 160
34.21763 178
34.23775 145
34.25786 144
34.27797 134
34.29809 140
34.3182 133
34.33831 146
34.35843 143
34.37854 133
34.39866 132
34.41877 121
34.43888 137
34.459 148
34.47911 125
34.49922 143
34.51934 143
34.53945 157
34.55957 152
34.57968 144
34.59979 147
34.61991 157
34.64002 152
34.66013 139
34.68025 140
34.70036 130
34.72047 139
34.74059 138
34.7607 143
34.78082 144
34.80093 140
34.82104 164
34.84116 150
34.86127 156
34.88138 173
34.9015 169
34.92161 185
34.94173 162
34.96184 154
34.98195 164
35.00207 137
35.02218 152
35.04229 170
35.06241 163
35.08252 158
35.10264 170
35.12275 151
35.14286 163
35.16298 160
35.18309 157
35.2032 167
35.22332 151
35.24343 167
35.26354 149
35.28366 168
35.30377 153
35.32389 160
35.344 188
35.36411 148
35.38423 182
35.40434 169
35.42445 184
35.44457 164
35.46468 183
35.4848 159
35.50491 194
35.52502 186
35.54514 172
35.56525 155
35.58536 177
35.60548 178
35.62559 154
35.64571 168
35.66582 160
35.68593 149
35.70605 169
35.72616 160
35.74627 156
35.76639 160
35.7865 151
35.80661 159
35.82673 163
35.84684 135
35.86696 168
35.88707 155
35.90718 175
35.9273 156
35.94741 158
35.96752 132
35.98764 146
36.00775 140
36.02787 188
36.04798 181
36.06809 173
36.08821 171
36.10832 180
36.12843 168
36.14855 184
36.16866 208
36.18878 213
36.20889 218
36.229 241
36.24912 284
36.26923 321
36.28934 361
36.30946 391
36.32957 508
36.34968 618
36.3698 720
36.38991 900
36.41003 1131
36.43014 1391
36.45025 1689
36.47037 2046
36.49048 2353
36.51059 2562
36.53071 2643
36.55082 2424
36.57094 2101
36.59105 1620
36.61116 1353
36.63128 1194
36.65139 967
36.6715 718
36.69162 444
36.71173 335
36.73184 274
36.75196 245
36.77207 238
36.79219 251
36.8123 228
36.83241 237
36.85253 222
36.87264 191
36.89275 199
36.91287 214
36.93298 179
36.9531 170
36.97321 190
36.99332 178
37.01344 186
37.03355 176
37.05366 168
37.07378 150
37.09389 177
37.11401 152
37.13412 164
37.15423 165
37.17435 129
37.19446 119
37.21457 157
37.23469 176
37.2548 159
37.27491 154
37.29503 160
37.31514 173
37.33526 149
37.35537 147
37.37548 135
37.3956 134
37.41571 149
37.43582 147
37.45594 142
37.47605 156
37.49617 142
37.51628 154
37.53639 138
37.55651 152
37.57662 139
37.59673 144
37.61685 133
37.63696 154
37.65708 125
37.67719 136
37.6973 119
37.71742 124
37.73753 149
37.75764 161
37.77776 127
37.79787 141
37.81798 142
37.8381 161
37.85821 137
37.87833 129
37.89844 140
37.91855 120
37.93867 138
37.95878 163
37.97889 130
37.99901 145
38.01912 136
38.03924 132
38.05935 145
38.07946 132
38.09958 132
38.11969 144
38.1398 152
38.15992 146
38.18003 138
38.20015 137
38.22026 145
38.24037 170
38.26049 138
38.2806 134
38.30071 148
38.32083 147
38.34094 135
38.36105 139
38.38117 124
38.40128 147
38.4214 161
38.44151 161
38.46162 139
38.48174 190
38.50185 162
38.52196 153
38.54208 158
38.56219 154
38.58231 143
38.60242 128
38.62253 161
38.64265 153
38.66276 166
38.68287 157
38.70299 160
38.7231 154
38.74321 131
38.76333 150
38.78344 149
38.80356 132
38.82367 144
38.84378 165
38.8639 129
38.88401 143
38.90412 177
38.92424 160
38.94435 175
38.96447 171
38.98458 169
39.00469 179
39.02481 181
39.04492 171
39.06503 188
39.08515 197
39.10526 220
39.12538 232
39.14549 267
39.1656 284
39.18572 262
39.20583 328
39.22594 416
39.24606 439
39.26617 514
39.28628 663
39.3064 798
39.32651 1001
39.34663 1272
39.36674 1478
39.38685 1859
39.40697 2077
39.42708 2267
39.44719 2392
39.46731 2319
39.48742 1976
39.50754 1599
39.52765 1315
39.54776 1195
39.56788 1047
39.58799 829
39.6081 542
39.62822 358
39.64833 272
39.66845 270
39.68856 254
39.70867 228
39.72879 201
39.7489 215
39.76901 204
39.78913 200
39.80924 183
39.82935 169
39.84947 170
39.86958 182
39.8897 209
39.90981 166
39.92992 187
39.95004 182
39.97015 228
39.99026 219
40.01038 242
40.03049 237
40.05061 283
40.07072 311
40.09083 360
40.11095 415
40.13106 503
40.15117 591
40.17129 697
40.1914 830
40.21152 993
40.23163 1132
40.25174 1160
40.27186 1255
40.29197 1177
40.31208 1001
40.3322 795
40.35231 721
40.37242 647
40.39254 615
40.41265 493
40.43277 337
40.45288 276
40.47299 212
40.49311 193
40.51322 183
40.53333 204
40.55345 185
40.57356 201
40.59368 149
40.61379 153
40.6339 143
40.65402 149
40.67413 176
40.69424 157
40.71436 146
40.73447 153
40.75458 149
40.7747 151
40.79481 154
40.81493 171
40.83504 150
40.85515 144
40.87527 137
40.89538 144
40.91549 134
40.93561 151
40.95572 143
40.97584 141
40.99595 130
41.01606 147
41.03618 145
41.05629 152
41.0764 156
41.09652 134
41.11663 156
41.13675 139
41.15686 145
41.17697 141
41.19709 159
41.2172 162
41.23731 151
41.25743 144
41.27754 148
41.29765 157
41.31777 153
41.33788 140
41.358 139
41.37811 137
41.39822 135
41.41834 163
41.43845 160
41.45856 162
41.47868 137
41.49879 156
41.51891 157
41.53902 148
41.55913 158
41.57925 186
41.59936 167
41.61947 140
41.63959 149
41.6597 156
41.67982 152
41.69993 150
41.72004 190
41.74016 167
41.76027 180
41.78038 184
41.8005 195
41.82061 154
41.84072 161
41.86084 181
41.88095 166
41.90107 172
41.92118 175
41.94129 156
41.96141 164
41.98152 188
42.00163 160
42.02175 187
42.04186 181
42.06198 185
42.08209 188
42.1022 199
42.12232 212
42.14243 272
42.16254 258
42.18266 307
42.20277 330
42.22289 396
42.243 448
42.26311 484
42.28323 626
42.30334 778
42.32345 952
42.34357 1083
42.36368 1264
42.38379 1459
42.40391 1712
42.42402 1764
42.44414 1718
42.46425 1579
42.48436 1249
42.50448 1021
42.52459 923
42.5447 807
42.56482 788
42.58493 616
42.60505 363
42.62516 294
42.64527 246
42.66539 221
42.6855 198
42.70561 208
42.72573 178
42.74584 197
42.76595 162
42.78607 158
42.80618 170
42.8263 142
42.84641 151
42.86652 143
42.88664 144
42.90675 158
42.92686 151
42.94698 135
42.96709 145
42.98721 163
43.00732 137
43.02743 127
43.04755 129
43.06766 149
43.08777 125
43.10789 157
43.128 128
43.14812 140
43.16823 139
43.18834 143
43.20846 117
43.22857 130
43.24868 130
43.2688 123
43.28891 125
43.30902 133
43.32914 149
43.34925 148
43.36937 147
43.38948 149
43.40959 123
43.42971 145
43.44982 137
43.46993 115
43.49005 139
43.51016 123
43.53028 140
43.55039 116
43.5705 161
43.59062 120
43.61073 140
43.63084 138
43.65096 109
43.67107 133
43.69119 139
43.7113 135
43.73141 141
43.75153 126
43.77164 122
43.79175 153
43.81187 126
43.83198 123
43.85209 138
43.87221 142
43.89232 114
43.91244 130
43.93255 136
43.95266 138
43.97278 108
43.99289 143
44.013 142
44.03312 111
44.05323 125
44.07335 135
44.09346 147
44.11357 141
44.13369 132
44.1538 120
44.17391 115
44.19403 131
44.21414 153
44.23426 155
44.25437 131
44.27448 133
44.2946 163
44.31471 124
44.33482 130
44.35494 150
44.37505 106
44.39516 126
44.41528 126
44.43539 142
44.45551 124
44.47562 139
44.49573 139
44.51585 133
44.53596 151
44.55607 132
44.57619 137
44.5963 145
44.61642 143
44.63653 143
44.65664 122
44.67676 142
44.69687 144
44.71698 135
44.7371 131
44.75721 145
44.77732 122
44.79744 117
44.81755 136
44.83767 155
44.85778 134
44.87789 155
44.89801 119
44.91812 153
44.93823 150
44.95835 161
44.97846 145
44.99858 136
45.01869 141
45.0388 128
45.05892 134
45.07903 133
45.09914 120
45.11926 138
45.13937 130
45.15949 143
45.1796 134
45.19971 151
45.21983 136
45.23994 142
45.26005 151
45.28017 131
45.30028 142
45.32039 141
45.34051 168
45.36062 169
45.38074 165
45.40085 161
45.42096 177
45.44108 183
45.46119 183
45.4813 228
45.50142 215
45.52153 234
45.54165 254
45.56176 236
45.58187 306
45.60199 394
45.6221 404
45.64221 479
45.66233 584
45.68244 760
45.70256 887
45.72267 980
45.74278 1030
45.7629 1120
45.78301 1148
45.80312 977
45.82324 873
45.84335 699
45.86346 646
45.88358 596
45.90369 582
45.92381 500
45.94392 347
45.96403 253
45.98415 195
46.00426 155
46.02437 159
46.04449 170
46.0646 160
46.08472 150
46.10483 151
46.12494 159
46.14506 144
46.16517 141
46.18528 153
46.2054 139
46.22551 138
46.24563 138
46.26574 155
46.28585 137
46.30597 151
46.32608 138
46.34619 126
46.36631 144
46.38642 140
46.40653 133
46.42665 128
46.44676 121
46.46688 124
46.48699 147
46.5071 121
46.52722 112
46.54733 148
46.56744 122
46.58756 131
46.60767 122
46.62779 106
46.6479 117
46.66801 125
46.68813 111
46.70824 139
46.72835 124
46.74847 128
46.76858 119
46.78869 135
46.80881 126
46.82892 133
46.84904 124
46.86915 136
46.88926 145
46.90938 126
46.92949 126
46.9496 152
46.96972 129
46.98983 114
47.00995 155
47.03006 134
47.05017 122
47.07029 139
47.0904 164
47.11051 134
47.13063 130
47.15074 127
47.17086 116
47.19097 123
47.21108 131
47.2312 131
47.25131 115
47.27142 113
47.29154 142
47.31165 132
47.33176 115
47.35188 130
47.37199 108
47.39211 129
47.41222 124
47.43233 135
47.45245 120
47.47256 151
47.49267 123
47.51279 125
47.5329 136
47.55302 123
47.57313 130
47.59324 123
47.61336 127
47.63347 117
47.65358 125
47.6737 116
47.69381 124
47.71393 124
47.73404 105
47.75415 126
47.77427 115
47.79438 103
47.81449 96
47.83461 128
47.85472 111
47.87483 128
47.89495 112
47.91506 123
47.93518 126
47.95529 131
47.9754 128
47.99552 129
48.01563 107
48.03574 130
48.05586 124
48.07597 133
48.09609 127
48.1162 113
48.13631 128
48.15643 125
48.17654 136
48.19665 113
48.21677 130
48.23688 126
48.257 123
48.27711 131
48.29722 133
48.31734 150
48.33745 132
48.35756 115
48.37768 126
48.39779 131
48.4179 123
48.43802 132
48.45813 116
48.47825 134
48.49836 133
48.51847 150
48.53859 119
48.5587 119
48.57881 123
48.59893 142
48.61904 129
48.63916 136
48.65927 125
48.67938 143
48.6995 143
48.71961 133
48.73972 135
48.75984 152
48.77995 139
48.80006 136
48.82018 147
48.84029 152
48.86041 149
48.88052 133
48.90063 109
48.92075 165
48.94086 154
48.96097 149
48.98109 143
49.0012 139
49.02132 142
49.04143 149
49.06154 143
49.08166 122
49.10177 139
49.12188 138
49.142 160
49.16211 167
49.18223 144
49.20234 158
49.22245 136
49.24257 128
49.26268 125
49.28279 132
49.30291 160
49.32302 149
49.34313 136
49.36325 153
49.38336 144
49.40348 160
49.42359 164
49.4437 162
49.46382 144
49.48393 156
49.50404 149
49.52416 176
49.54427 154
49.56439 181
49.5845 177
49.60461 204
49.62473 176
49.64484 201
49.66495 203
49.68507 231
49.70518 234
49.7253 288
49.74541 280
49.76552 338
49.78564 330
49.80575 363
49.82586 406
49.84598 462
49.86609 551
49.8862 653
49.90632 773
49.92643 927
49.94655 1099
49.96666 1396
49.98677 1647
50.00689 2030
50.027 2437
50.04711 2944
50.06723 3299
50.08734 3645
50.10746 3729
50.12757 3601
50.14768 3279
50.1678 2620
50.18791 2191
50.20802 1935
50.22814 2011
50.24825 1750
50.26837 1609
50.28848 1277
50.30859 863
50.32871 577
50.34882 447
50.36893 322
50.38905 341
50.40916 288
50.42927 289
50.44939 282
50.4695 282
50.48962 265
50.50973 266
50.52984 253
50.54996 277
50.57007 242
50.59018 273
50.6103 278
50.63041 255
50.65053 225
50.67064 220
50.69075 198
50.71087 207
50.73098 186
50.75109 162
50.77121 165
50.79132 175
50.81143 172
50.83155 159
50.85166 170
50.87178 136
50.89189 134
50.912 152
50.93212 163
50.95223 142
50.97234 152
50.99246 160
51.01257 143
51.03269 144
51.0528 137
51.07291 152
51.09303 143
51.11314 120
51.13325 132
51.15337 117
51.17348 133
51.1936 113
51.21371 141
51.23382 119
51.25394 122
51.27405 141
51.29416 130
51.31428 136
51.33439 108
51.3545 126
51.37462 116
51.39473 121
51.41485 120
51.43496 127
51.45507 115
51.47519 135
51.4953 144
51.51541 140
51.53553 128
51.55564 116
51.57576 141
51.59587 109
51.61598 120
51.6361 117
51.65621 145
51.67632 120
51.69644 129
51.71655 123
51.73667 116
51.75678 123
51.77689 116
51.79701 111
51.81712 109
51.83723 98
51.85735 120
51.87746 107
51.89757 106
51.91769 114
51.9378 122
51.95792 124
51.97803 105
51.99814 127
52.01826 116
52.03837 128
52.05848 132
52.0786 133
52.09871 124
52.11883 112
52.13894 120
52.15905 134
52.17917 110
52.19928 134
52.21939 117
52.23951 112
52.25962 119
52.27974 109
52.29985 107
52.31996 94
52.34008 117
52.36019 129
52.3803 111
52.40042 138
52.42053 126
52.44064 119
52.46076 127
52.48087 140
52.50099 123
52.5211 134
52.54121 126
52.56133 126
52.58144 125
52.60155 117
52.62167 135
52.64178 123
52.6619 145
52.68201 132
52.70212 122
52.72224 122
52.74235 130
52.76246 106
52.78258 111
52.80269 116
52.8228 147
52.84292 132
52.86303 140
52.88315 128
52.90326 105
52.92337 117
52.94349 129
52.9636 121
52.98371 112
53.00383 132
53.02394 123
53.04406 113
53.06417 113
53.08428 135
53.1044 102
53.12451 106
53.14462 112
53.16474 124
53.18485 121
53.20497 132
53.22508 125
53.24519 126
53.26531 128
53.28542 121
53.30553 124
53.32565 90
53.34576 143
53.36587 121
53.38599 113
53.4061 128
53.42622 127
53.44633 109
53.46644 120
53.48656 123
53.50667 148
53.52678 125
53.5469 119
53.56701 138
53.58713 126
53.60724 119
53.62735 113
53.64747 143
53.66758 134
53.68769 134
53.70781 103
53.72792 125
53.74804 113
53.76815 120
53.78826 102
53.80838 112
53.82849 143
53.8486 105
53.86872 129
53.88883 127
53.90894 132
53.92906 141
53.94917 124
53.96929 129
53.9894 133
54.00951 114
54.02963 137
54.04974 116
54.06985 134
54.08997 133
54.11008 131
54.1302 134
54.15031 121
54.17042 136
54.19054 139
54.21065 133
54.23076 138
54.25088 127
54.27099 144
54.29111 110
54.31122 122
54.33133 128
54.35145 143
54.37156 152
54.39167 132
54.41179 137
54.4319 155
54.45201 174
54.47213 163
54.49224 188
54.51236 193
54.53247 206
54.55258 236
54.5727 244
54.59281 265
54.61292 291
54.63304 280
54.65315 360
54.67327 407
54.69338 514
54.71349 612
54.73361 612
54.75372 733
54.77383 874
54.79395 1043
54.81406 1054
54.83417 1148
54.85429 1116
54.8744 1010
54.89452 851
54.91463 703
54.93474 655
54.95486 654
54.97497 622
54.99508 617
55.0152 557
55.03531 491
55.05543 380
55.07554 324
55.09565 286
55.11577 299
55.13588 281
55.15599 302
55.17611 341
55.19622 378
55.21634 412
55.23645 521
55.25656 529
55.27668 503
55.29679 544
55.3169 555
55.33702 502
55.35713 422
55.37724 383
55.39736 344
55.41747 303
55.43759 331
55.4577 337
55.47781 298
55.49793 237
55.51804 200
55.53815 191
55.55827 157
55.57838 142
55.5985 157
55.61861 137
55.63872 107
55.65884 130
55.67895 143
55.69906 128
55.71918 128
55.73929 148
55.75941 129
55.77952 130
55.79963 145
55.81975 138
55.83986 130
55.85997 117
55.88009 113
55.9002 114
55.92031 111
55.94043 125
55.96054 128
55.98066 130
56.00077 107
56.02088 100
56.041 132
56.06111 124
56.08122 123
56.10134 104
56.12145 132
56.14157 110
56.16168 110
56.18179 113
56.20191 130
56.22202 95
56.24213 128
56.26225 115
56.28236 105
56.30248 116
56.32259 117
56.3427 116
56.36282 114
56.38293 111
56.40304 134
56.42316 111
56.44327 109
56.46338 108
56.4835 111
56.50361 111
56.52373 103
56.54384 99
56.56395 98
56.58407 121
56.60418 142
56.62429 110
56.64441 109
56.66452 128
56.68464 110
56.70475 126
56.72486 100
56.74498 107
56.76509 124
56.7852 125
56.80532 125
56.82543 105
56.84554 114
56.86566 132
56.88577 131
56.90589 119
56.926 135
56.94611 127
56.96623 112
56.98634 117
57.00645 143
57.02657 119
57.04668 127
57.0668 153
57.08691 140
57.10702 170
57.12714 161
57.14725 157
57.16736 180
57.18748 148
57.20759 154
57.22771 173
57.24782 163
57.26793 154
57.28805 145
57.30816 132
57.32827 130
57.34839 131
57.3685 124
57.38861 153
57.40873 116
57.42884 126
57.44896 116
57.46907 128
57.48918 131
57.5093 122
57.52941 96
57.54952 114
57.56964 118
57.58975 105
57.60987 115
57.62998 113
57.65009 105
57.67021 126
57.69032 96
57.71043 119
57.73055 119
57.75066 114
57.77078 107
57.79089 120
57.811 119
57.83112 107
57.85123 104
57.87134 110
57.89146 121
57.91157 117
57.93168 117
57.9518 113
57.97191 104
57.99203 116
58.01214 122
58.03225 130
58.05237 147
58.07248 130
58.09259 117
58.11271 116
58.13282 140
58.15294 109
58.17305 114
58.19316 124
58.21328 126
58.23339 134
58.2535 117
58.27362 128
58.29373 111
58.31385 112
58.33396 149
58.35407 129
58.37419 134
58.3943 135
58.41441 100
58.43453 116
58.45464 126
58.47475 122
58.49487 114
58.51498 116
58.5351 109
58.55521 111
58.57532 100
58.59544 107
58.61555 112
58.63566 127
58.65578 121
58.67589 130
58.69601 121
58.71612 121
58.73623 106
58.75635 118
58.77646 105
58.79657 119
58.81669 122
58.8368 113
58.85691 135
58.87703 119
58.89714 116
58.91726 130
58.93737 95
58.95748 121
58.9776 107
58.99771 120
59.01782 120
59.03794 101
59.05805 123
59.07817 124
59.09828 112
59.11839 129
59.13851 111
59.15862 122
59.17873 118
59.19885 133
59.21896 149
59.23908 121
59.25919 139
59.2793 142
59.29942 129
59.31953 142
59.33964 148
59.35976 135
59.37987 174
59.39998 154
59.4201 180
59.44021 172
59.46033 158
59.48044 202
59.50055 189
59.52067 196
59.54078 211
59.56089 259
59.58101 251
59.60112 299
59.62124 281
59.64135 369
59.66146 469
59.68158 434
59.70169 523
59.7218 632
59.74192 712
59.76203 875
59.78215 1004
59.80226 1167
59.82237 1468
59.84249 1797
59.8626 2078
59.88271 2186
59.90283 2248
59.92294 2322
59.94305 2184
59.96317 1882
59.98328 1601
60.0034 1342
60.02351 1219
60.04362 1276
60.06374 1214
60.08385 1100
60.10396 1062
60.12408 961
60.14419 696
60.16431 470
60.18442 366
60.20453 294
60.22465 237
60.24476 223
60.26487 216
60.28499 192
60.3051 176
60.32522 171
60.34533 161
60.36544 168
60.38556 154
60.40567 159
60.42578 135
60.4459 157
60.46601 126
60.48612 154
60.50624 121
60.52635 130
60.54647 139
60.56658 112
60.58669 132
60.60681 130
60.62692 127
60.64703 118
60.66715 115
60.68726 111
60.70738 142
60.72749 147
60.7476 111
60.76772 123
60.78783 131
60.80794 117
60.82806 106
60.84817 126
60.86828 125
60.8884 107
60.90851 120
60.92863 105
60.94874 127
60.96885 123
60.98897 129
61.00908 128
61.02919 131
61.04931 121
61.06942 124
61.08954 156
61.10965 121
61.12976 135
61.14988 118
61.16999 144
61.1901 127
61.21022 107
61.23033 120
61.25045 120
61.27056 122
61.29067 140
61.31079 134
61.3309 113
61.35101 116
61.37113 119
61.39124 108
61.41135 123
61.43147 137
61.45158 113
61.4717 125
61.49181 109
61.51192 112
61.53204 107
61.55215 97
61.57226 112
61.59238 145
61.61249 114
61.63261 129
61.65272 119
61.67283 131
61.69295 105
61.71306 109
61.73317 123
61.75329 111
61.7734 116
61.79352 127
61.81363 104
61.83374 114
61.85386 109
61.87397 128
61.89408 108
61.9142 86
61.93431 128
61.95442 113
61.97454 121
61.99465 117
62.01477 129
62.03488 105
62.05499 105
62.07511 92
62.09522 125
62.11533 122
62.13545 123
62.15556 117
62.17568 120
62.19579 103
62.2159 100
62.23602 101
62.25613 117
62.27624 115
62.29636 114
62.31647 107
62.33659 124
62.3567 120
62.37681 100
62.39693 100
62.41704 105
62.43715 114
62.45727 131
62.47738 94
62.49749 110
62.51761 117
62.53772 112
62.55784 135
62.57795 134
62.59806 100
62.61818 109
62.63829 107
62.6584 132
62.67852 129
62.69863 123
62.71875 115
62.73886 114
62.75897 105
62.77909 111
62.7992 109
62.81931 103
62.83943 98
62.85954 131
62.87965 95
62.89977 126
62.91988 126
62.94 120
62.96011 101
62.98022 108
63.00034 112
63.02045 115
63.04056 120
63.06068 115
63.08079 113
63.10091 109
63.12102 114
63.14113 127
63.16125 105
63.18136 123
63.20147 117
63.22159 141
63.2417 123
63.26182 117
63.28193 99
63.30204 120
63.32216 101
63.34227 112
63.36238 116
63.3825 113
63.40261 137
63.42272 103
63.44284 126
63.46295 115
63.48307 136
63.50318 120
63.52329 125
63.54341 124
63.56352 139
63.58363 135
63.60375 128
63.62386 120
63.64398 138
63.66409 120
63.6842 132
63.70432 139
63.72443 151
63.74454 158
63.76466 180
63.78477 184
63.80489 192
63.825 225
63.84511 244
63.86523 337
63.88534 336
63.90545 374
63.92557 395
63.94568 470
63.96579 482
63.98591 483
64.00602 457
64.02614 424
64.04625 434
64.06636 356
64.08648 312
64.10659 262
64.1267 295
64.14682 289
64.16693 282
64.18705 267
64.20716 243
64.22727 246
64.24739 192
64.2675 156
64.28761 115
64.30773 140
64.32784 113
64.34796 129
64.36807 110
64.38818 116
64.4083 102
64.42841 108
64.44852 103
64.46864 96
64.48875 134
64.50886 117
64.52898 88
64.54909 115
64.56921 120
64.58932 97
64.60943 111
64.62955 104
64.64966 97
64.66977 102
64.68989 85
64.71 109
64.73012 98
64.75023 117
64.77034 104
64.79046 97
64.81057 91
64.83068 107
64.8508 111
64.87091 102
64.89102 114
64.91114 122
64.93125 102
64.95137 127
64.97148 99
64.99159 110
65.01171 107
65.03182 121
65.05193 122
65.07205 121
65.09216 107
65.11228 111
65.13239 125
65.1525 110
65.17262 98
65.19273 138
65.21284 139
65.23296 102
65.25307 119
65.27319 111
65.2933 99
65.31341 124
65.33353 121
65.35364 104
65.37375 116
65.39387 96
65.41398 125
65.43409 117
65.45421 133
65.47432 131
65.49444 135
65.51455 134
65.53466 150
65.55478 161
65.57489 162
65.595 140
65.61512 161
65.63523 179
65.65535 179
65.67546 207
65.69557 183
65.71569 189
65.7358 201
65.75591 187
65.77603 195
65.79614 186
65.81626 180
65.83637 166
65.85648 160
65.8766 178
65.89671 165
65.91682 180
65.93694 167
65.95705 153
65.97716 142
65.99728 157
66.01739 135
66.03751 129
66.05762 126
66.07773 131
66.09785 127
66.11796 111
66.13807 124
66.15819 115
66.1783 140
66.19842 126
66.21853 123
66.23864 152
66.25876 118
66.27887 130
66.29898 150
66.3191 117
66.33921 136
66.35933 131
66.37944 127
66.39955 123
66.41967 118
66.43978 115
66.45989 123
66.48001 131
66.50012 112
66.52023 130
66.54035 131
66.56046 120
66.58058 124
66.60069 112
66.6208 115
66.64092 116
66.66103 133
66.68114 116
66.70126 126
66.72137 138
66.74149 117
66.7616 141
66.78171 124
66.80183 115
66.82194 127
66.84205 135
66.86217 131
66.88228 124
66.90239 118
66.92251 129
66.94262 117
66.96274 121
66.98285 130
67.00296 128
67.02308 129
67.04319 140
67.0633 150
67.08342 142
67.10353 148
67.12365 139
67.14376 138
67.16387 150
67.18399 163
67.2041 158
67.22421 170
67.24433 171
67.26444 184
67.28456 176
67.30467 202
67.32478 177
67.3449 194
67.36501 230
67.38512 225
67.40524 276
67.42535 285
67.44546 325
67.46558 329
67.48569 403
67.50581 475
67.52592 527
67.54603 579
67.56615 718
67.58626 822
67.60637 943
67.62649 1070
67.6466 1166
67.66672 1310
67.68683 1357
67.70694 1337
67.72706 1359
67.74717 1169
67.76728 1016
67.7874 862
67.80751 907
67.82763 900
67.84774 925
67.86785 931
67.88797 990
67.90808 1107
67.92819 1071
67.94831 1104
67.96842 1099
67.98853 1111
68.00865 1365
68.02876 1374
68.04888 1615
68.06899 1737
68.0891 1797
68.10922 1881
68.12933 1925
68.14944 1794
68.16956 1634
68.18967 1521
68.20979 1546
68.2299 1616
68.25001 1691
68.27013 1731
68.29024 1585
68.31035 1555
68.33047 1343
68.35058 1090
68.3707 864
68.39081 735
68.41092 668
68.43104 641
68.45115 580
68.47126 551
68.49138 537
68.51149 471
68.5316 372
68.55172 307
68.57183 249
68.59195 221
68.61206 205
68.63217 168
68.65229 186
68.6724 180
68.69251 179
68.71263 162
68.73274 165
68.75286 166
68.77297 160
68.79308 149
68.8132 132
68.83331 126
68.85342 128
68.87354 132
68.89365 127
68.91376 134
68.93388 136
68.95399 130
68.97411 125
68.99422 125
69.01433 115
69.03445 139
69.05456 125
69.07467 111
69.09479 119
69.1149 118
69.13502 116
69.15513 115
69.17524 119
69.19536 109
69.21547 138
69.23558 100
69.2557 129
69.27581 105
69.29593 127
69.31604 126
69.33615 126
69.35627 106
69.37638 106
69.39649 109
69.41661 108
69.43672 139
69.45683 106
69.47695 105
69.49706 107
69.51718 132
69.53729 106
69.5574 97
69.57752 114
69.59763 102
69.61774 108
69.63786 106
69.65797 106
69.67809 86
69.6982 116
69.71831 107
69.73843 116
69.75854 95
69.77865 129
69.79877 124
69.81888 100
69.839 119
69.85911 90
69.87922 103
69.89934 115
69.91945 97
69.93956 113
69.95968 113
69.97979 97
69.9999 101
70.02002 119
70.04013 104
70.06025 103
70.08036 106
70.10047 122
70.12059 88
70.1407 109
70.16081 101
70.18093 110
70.20104 116
70.22116 105
70.24127 93
70.26138 102
70.2815 118
70.30161 109
70.32172 103
70.34184 98
70.36195 112
70.38207 112
70.40218 94
70.42229 122
70.44241 102
70.46252 103
70.48263 85
70.50275 97
70.52286 106
70.54297 98
70.56309 109
70.5832 101
70.60332 101
70.62343 97
70.64354 103
70.66366 102
70.68377 109
70.70388 111
70.724 105
70.74411 102
70.76423 95
70.78434 105
70.80445 92
70.82457 96
70.84468 101
70.86479 113
70.88491 80
70.90502 110
70.92513 98
70.94525 111
70.96536 122
70.98548 106
71.00559 97
71.0257 101
71.04582 86
71.06593 109
71.08604 100
71.10616 103
71.12627 102
71.14639 99
71.1665 106
71.18661 97
71.20673 105
71.22684 88
71.24695 103
71.26707 102
71.28718 100
71.3073 103
71.32741 113
71.34752 120
71.36764 104
71.38775 76
71.40786 102
71.42798 102
71.44809 120
71.4682 99
71.48832 102
71.50843 110
71.52855 123
71.54866 125
71.56877 108
71.58889 103
71.609 111
71.62911 97
71.64923 106
71.66934 121
71.68946 110
71.70957 114
71.72968 113
71.7498 118
71.76991 109
71.79002 89
71.81014 113
71.83025 107
71.85037 89
71.87048 102
71.89059 118
71.91071 86
71.93082 100
71.95093 95
71.97105 97
71.99116 99
72.01127 97
72.03139 114
72.0515 105
72.07162 104
72.09173 92
72.11184 96
72.13196 109
72.15207 105
72.17218 113
72.1923 101
72.21241 111
72.23253 94
72.25264 99
72.27275 117
72.29287 90
72.31298 115
72.33309 105
72.35321 93
72.37332 98
72.39344 111
72.41355 117
72.43366 103
72.45378 105
72.47389 94
72.494 104
72.51412 118
72.53423 119
72.55434 107
72.57446 114
72.59457 110
72.61469 123
72.6348 101
72.65491 110
72.67503 107
72.69514 110
72.71525 125
72.73537 109
72.75548 114
72.7756 108
72.79571 113
72.81582 120
72.83594 100
72.85605 117
72.87616 141
72.89628 104
72.91639 118
72.9365 114
72.95662 122
72.97673 120
72.99685 131
73.01696 156
73.03707 131
73.05719 128
73.0773 162
73.09741 123
73.11753 157
73.13764 153
73.15776 158
73.17787 188
73.19798 184
73.2181 191
73.23821 216
73.25832 267
73.27844 261
73.29855 313
73.31867 371
73.33878 385
73.35889 432
73.37901 480
73.39912 506
73.41923 506
73.43935 499
73.45946 497
73.47957 430
73.49969 418
73.5198 308
73.53992 294
73.56003 273
73.58014 299
73.60026 300
73.62037 320
73.64048 303
73.6606 301
73.68071 261
73.70083 226
73.72094 210
73.74105 145
73.76117 137
73.78128 131
73.80139 127
73.82151 123
73.84162 116
73.86174 127
73.88185 99
73.90196 123
73.92208 115
73.94219 99
73.9623 99
73.98242 98
74.00253 105
74.02264 113
74.04276 120
74.06287 112
74.08299 91
74.1031 109
74.12321 92
74.14333 106
74.16344 102
74.18355 123
74.20367 101
74.22378 103
74.2439 109
74.26401 114
74.28412 120
74.30424 109
74.32435 101
74.34446 111
74.36458 96
74.38469 105
74.40481 94
74.42492 115
74.44503 105
74.46515 100
74.48526 92
74.50537 101
74.52549 114
74.5456 111
74.56571 112
74.58583 82
74.60594 110
74.62606 97
74.64617 115
74.66628 112
74.6864 111
74.70651 91
74.72662 89
74.74674 95
74.76685 95
74.78697 101
74.80708 104
74.82719 105
74.84731 105
74.86742 108
74.88753 107
74.90765 91
74.92776 107
74.94787 109
74.96799 98
74.9881 114
75.00822 108
