3.00117 16448
3.02128 15992
3.0414 15611
3.06151 15349
3.08162 14823
3.10174 14259
3.12185 13864
3.14197 13196
3.16208 12791
3.18219 12431
3.20231 12000
3.22242 11447
3.24253 11350
3.26265 10786
3.28276 10211
3.30288 10133
3.32299 9556
3.3431 9272
3.36322 8972
3.38333 8619
3.40344 8292
3.42356 7989
3.44367 7713
3.46379 7291
3.4839 6887
3.50401 6819
3.52413 6484
3.54424 6166
3.56435 5769
3.58447 5594
3.60458 5171
3.62469 5131
3.64481 4813
3.66492 4435
3.68504 4496
3.70515 4245
3.72526 3939
3.74538 3813
3.76549 3425
3.7856 3299
3.80572 3183
3.82583 3049
3.84595 2872
3.86606 2622
3.88617 2451
3.90629 2304
3.9264 2274
3.94651 2045
3.96663 1963
3.98674 1880
4.00686 1741
4.02697 1586
4.04708 1439
4.0672 1394
4.08731 1257
4.10742 1233
4.12754 1083
4.14765 1144
4.16776 928
4.18788 873
4.20799 876
4.22811 823
4.24822 803
4.26833 737
4.28845 672
4.30856 628
4.32867 688
4.34879 664
4.3689 580
4.38902 607
4.40913 628
4.42924 581
4.44936 591
4.46947 578
4.48958 577
4.5097 545
4.52981 528
4.54992 502
4.57004 531
4.59015 520
4.61027 565
4.63038 503
4.65049 520
4.67061 482
4.69072 431
4.71083 490
4.73095 459
4.75106 465
4.77118 428
4.79129 415
4.8114 448
4.83152 446
4.85163 420
4.87174 418
4.89186 385
4.91197 395
4.93209 349
4.9522 357
4.97231 389
4.99243 366
5.01254 372
5.03265 396
5.05277 344
5.07288 340
5.09299 368
5.11311 323
5.13322 340
5.15334 352
5.17345 312
5.19356 327
5.21368 277
5.23379 329
5.2539 313
5.27402 318
5.29413 307
5.31425 293
5.33436 275
5.35447 292
5.37459 315
5.3947 296
5.41481 252
5.43493 263
5.45504 275
5.47516 303
5.49527 268
5.51538 254
5.5355 278
5.55561 269
5.57572 235
5.59584 244
5.61595 238
5.63606 251
5.65618 240
5.67629 238
5.69641 269
5.71652 245
5.73663 209
5.75675 224
5.77686 212
5.79697 253
5.81709 211
5.8372 209
5.85732 214
5.87743 228
5.89754 232
5.91766 201
5.93777 208
5.95788 222
5.978 204
5.99811 213
6.01823 228
6.03834 219
6.05845 206
6.07857 222
6.09868 193
6.11879 237
6.13891 215
6.15902 181
6.17913 210
6.19925 190
6.21936 226
6.23948 184
6.25959 188
6.2797 199
6.29982 186
6.31993 206
6.34004 221
6.36016 195
6.38027 212
6.40039 197
6.4205 218
6.44061 191
6.46073 217
6.48084 160
6.50095 191
6.52107 204
6.54118 178
6.56129 192
6.58141 179
6.60152 184
6.62164 199
6.64175 218
6.66186 194
6.68198 180
6.70209 211
6.7222 202
6.74232 168
6.76243 176
6.78255 198
6.80266 136
6.82277 191
6.84289 193
6.863 213
6.88311 217
6.90323 183
6.92334 179
6.94346 165
6.96357 213
6.98368 192
7.0038 175
7.02391 196
7.04402 187
7.06414 206
7.08425 202
7.10436 232
7.12448 191
7.14459 213
7.16471 191
7.18482 203
7.20493 194
7.22505 209
7.24516 211
7.26527 191
7.28539 196
7.3055 212
7.32562 209
7.34573 214
7.36584 194
7.38596 212
7.40607 207
7.42618 211
7.4463 204
7.46641 182
7.48653 184
7.50664 229
7.52675 184
7.54687 204
7.56698 191
7.58709 224
7.60721 209
7.62732 217
7.64743 210
7.66755 244
7.68766 227
7.70778 232
7.72789 190
7.748 203
7.76812 206
7.78823 181
7.80834 201
7.82846 222
7.84857 214
7.86869 208
7.8888 204
7.90891 222
7.92903 187
7.94914 222
7.96925 210
7.98937 201
8.00948 192
8.0296 220
8.04971 218
8.06982 228
8.08994 231
8.11005 199
8.13016 203
8.15028 229
8.17039 227
8.1905 210
8.21062 225
8.23073 216
8.25085 221
8.27096 212
8.29107 213
8.31119 228
8.3313 239
8.35141 225
8.37153 245
8.39164 219
8.41176 255
8.43187 243
8.45198 223
8.4721 191
8.49221 211
8.51232 259
8.53244 237
8.55255 208
8.57266 250
8.59278 249
8.61289 236
8.63301 230
8.65312 211
8.67323 233
8.69335 217
8.71346 218
8.73357 244
8.75369 215
8.7738 235
8.79392 267
8.81403 253
8.83414 248
8.85426 248
8.87437 279
8.89448 224
8.9146 248
8.93471 219
8.95483 267
8.97494 218
8.99505 239
9.01517 193
9.03528 230
9.05539 264
9.07551 245
9.09562 195
9.11573 241
9.13585 232
9.15596 225
9.17608 239
9.19619 256
9.2163 222
9.23642 238
9.25653 210
9.27664 217
9.29676 218
9.31687 207
9.33699 236
9.3571 240
9.37721 236
9.39733 245
9.41744 218
9.43755 241
9.45767 248
9.47778 238
9.4979 230
9.51801 207
9.53812 227
9.55824 238
9.57835 230
9.59846 243
9.61858 203
9.63869 225
9.6588 222
9.67892 248
9.69903 206
9.71915 222
9.73926 245
9.75937 232
9.77949 250
9.7996 253
9.81971 213
9.83983 252
9.85994 228
9.88006 250
9.90017 233
9.92028 225
9.9404 217
9.96051 235
9.98062 207
10.00074 244
10.02085 256
10.04097 233
10.06108 227
10.08119 277
10.10131 209
10.12142 237
10.14153 243
10.16165 237
10.18176 200
10.20187 225
10.22199 245
10.2421 234
10.26222 236
10.28233 219
10.30244 244
10.32256 195
10.34267 223
10.36278 219
10.3829 233
10.40301 248
10.42313 227
10.44324 245
10.46335 244
10.48347 260
10.50358 247
10.52369 215
10.54381 250
10.56392 220
10.58403 212
10.60415 224
10.62426 228
10.64438 217
10.66449 249
10.6846 230
10.70472 236
10.72483 245
10.74494 242
10.76506 227
10.78517 216
10.80529 230
10.8254 217
10.84551 233
10.86563 253
10.88574 236
10.90585 247
10.92597 232
10.94608 260
10.9662 208
10.98631 232
11.00642 223
11.02654 239
11.04665 233
11.06676 209
11.08688 230
11.10699 220
11.1271 266
11.14722 243
11.16733 231
11.18745 215
11.20756 235
11.22767 238
11.24779 224
11.2679 233
11.28801 235
11.30813 260
11.32824 240
11.34836 253
11.36847 184
11.38858 219
11.4087 211
11.42881 240
11.44892 197
11.46904 211
11.48915 226
11.50927 227
11.52938 241
11.54949 244
11.56961 232
11.58972 244
11.60983 246
11.62995 268
11.65006 243
11.67017 237
11.69029 254
11.7104 247
11.73052 264
11.75063 248
11.77074 239
11.79086 266
11.81097 244
11.83108 267
11.8512 246
11.87131 223
11.89143 240
11.91154 240
11.93165 230
11.95177 268
11.97188 262
11.99199 261
12.01211 250
12.03222 247
12.05234 283
12.07245 311
12.09256 275
12.11268 286
12.13279 318
12.1529 334
12.17302 305
12.19313 323
12.21324 346
12.23336 326
12.25347 352
12.27359 396
12.2937 413
12.31381 442
12.33393 460
12.35404 476
12.37415 453
12.39427 420
12.41438 434
12.4345 406
12.45461 374
12.47472 351
12.49484 266
12.51495 312
12.53506 278
12.55518 257
12.57529 247
12.5954 283
12.61552 264
12.63563 253
12.65575 258
12.67586 227
12.69597 234
12.71609 275
12.7362 226
12.75631 227
12.77643 238
12.79654 209
12.81666 257
12.83677 243
12.85688 244
12.877 222
12.89711 209
12.91722 252
12.93734 202
12.95745 232
12.97757 220
12.99768 242
13.01779 209
13.03791 229
13.05802 238
13.07813 181
13.09825 242
13.11836 208
13.13847 225
13.15859 206
13.1787 214
13.19882 234
13.21893 220
13.23904 235
13.25916 215
13.27927 206
13.29938 221
13.3195 203
13.33961 201
13.35973 231
13.37984 218
13.39995 216
13.42007 202
13.44018 216
13.46029 214
13.48041 207
13.50052 187
13.52064 206
13.54075 172
13.56086 232
13.58098 222
13.60109 206
13.6212 200
13.64132 212
13.66143 234
13.68154 208
13.70166 227
13.72177 208
13.74189 194
13.762 220
13.78211 210
13.80223 201
13.82234 199
13.84245 209
13.86257 209
13.88268 199
13.9028 234
13.92291 212
13.94302 217
13.96314 239
13.98325 212
14.00336 216
14.02348 220
14.04359 190
14.06371 183
14.08382 209
14.10393 199
14.12405 205
14.14416 190
14.16427 164
14.18439 183
14.2045 218
14.22461 219
14.24473 220
14.26484 228
14.28496 172
14.30507 226
14.32518 191
14.3453 208
14.36541 192
14.38552 203
14.40564 212
14.42575 197
14.44587 209
14.46598 216
14.48609 221
14.50621 196
14.52632 215
14.54643 173
14.56655 213
14.58666 221
14.60677 198
14.62689 177
14.647 213
14.66712 197
14.68723 192
14.70734 181
14.72746 184
14.74757 182
14.76768 189
14.7878 194
14.80791 197
14.82803 198
14.84814 193
14.86825 223
14.88837 160
14.90848 177
14.92859 206
14.94871 203
14.96882 177
14.98894 194
15.00905 190
15.02916 182
15.04928 189
15.06939 205
15.0895 184
15.10962 190
15.12973 201
15.14984 211
15.16996 191
15.19007 188
15.21019 191
15.2303 187
15.25041 190
15.27053 206
15.29064 190
15.31075 189
15.33087 193
15.35098 195
15.3711 208
15.39121 195
15.41132 179
15.43144 176
15.45155 210
15.47166 221
15.49178 194
15.51189 185
15.53201 166
15.55212 181
15.57223 187
15.59235 195
15.61246 160
15.63257 201
15.65269 183
15.6728 183
15.69291 158
15.71303 171
15.73314 206
15.75326 202
15.77337 214
15.79348 178
15.8136 187
15.83371 210
15.85382 193
15.87394 196
15.89405 196
15.91417 198
15.93428 190
15.95439 175
15.97451 187
15.99462 185
16.01473 214
16.03485 216
16.05496 201
16.07508 168
16.09519 179
16.1153 173
16.13542 173
16.15553 201
16.17564 198
16.19576 189
16.21587 192
16.23598 196
16.2561 210
16.27621 218
16.29633 192
16.31644 182
16.33655 179
16.35667 183
16.37678 182
16.39689 189
16.41701 158
16.43712 198
16.45724 193
16.47735 181
16.49746 196
16.51758 171
16.53769 189
16.5578 203
16.57792 193
16.59803 178
16.61814 184
16.63826 190
16.65837 181
16.67849 198
16.6986 162
16.71871 194
16.73883 179
16.75894 208
16.77905 185
16.79917 158
16.81928 201
16.8394 163
16.85951 196
16.87962 194
16.89974 214
16.91985 172
16.93996 159
16.96008 178
16.98019 171
17.00031 179
17.02042 163
17.04053 175
17.06065 207
17.08076 172
17.10087 193
17.12099 186
17.1411 210
17.16121 199
17.18133 182
17.20144 180
17.22156 176
17.24167 233
17.26178 182
17.2819 182
17.30201 153
17.32212 205
17.34224 202
17.36235 185
17.38247 178
17.40258 184
17.42269 195
17.44281 186
17.46292 188
17.48303 184
17.50315 189
17.52326 170
17.54338 168
17.56349 182
17.5836 190
17.60372 183
17.62383 190
17.64394 200
17.66406 184
17.68417 164
17.70428 180
17.7244 204
17.74451 183
17.76463 178
17.78474 187
17.80485 167
17.82497 213
17.84508 186
17.86519 169
17.88531 192
17.90542 170
17.92554 201
17.94565 184
17.96576 177
17.98588 186
18.00599 201
18.0261 183
18.04622 169
18.06633 179
18.08645 189
18.10656 188
18.12667 178
18.14679 205
18.1669 183
18.18701 192
18.20713 202
18.22724 163
18.24735 182
18.26747 186
18.28758 167
18.3077 193
18.32781 178
18.34792 189
18.36804 205
18.38815 200
18.40826 198
18.42838 164
18.44849 195
18.46861 196
18.48872 189
18.50883 203
18.52895 144
18.54906 181
18.56917 204
18.58929 182
18.6094 166
18.62951 188
18.64963 159
18.66974 200
18.68986 185
18.70997 168
18.73008 188
18.7502 188
18.77031 206
18.79042 218
18.81054 191
18.83065 203
18.85077 193
18.87088 192
18.89099 196
18.91111 170
18.93122 189
18.95133 184
18.97145 187
18.99156 192
19.01168 165
19.03179 178
19.0519 166
19.07202 152
19.09213 182
19.11224 199
19.13236 205
19.15247 184
19.17258 171
19.1927 163
19.21281 201
19.23293 179
19.25304 176
19.27315 200
19.29327 167
19.31338 168
19.33349 192
19.35361 176
19.37372 214
19.39384 193
19.41395 168
19.43406 215
19.45418 221
19.47429 179
19.4944 197
19.51452 183
19.53463 168
19.55475 196
19.57486 236
19.59497 211
19.61509 235
19.6352 195
19.65531 194
19.67543 217
19.69554 239
19.71565 252
19.73577 249
19.75588 255
19.776 256
19.79611 258
19.81622 291
19.83634 289
19.85645 304
19.87656 298
19.89668 302
19.91679 314
19.93691 327
19.95702 307
19.97713 323
19.99725 309
20.01736 325
20.03747 307
20.05759 296
20.0777 276
20.09782 303
20.11793 309
20.13804 302
20.15816 319
20.17827 302
20.19838 323
20.2185 361
20.23861 310
20.25872 340
20.27884 319
20.29895 358
20.31907 379
20.33918 351
20.35929 353
20.37941 351
20.39952 396
20.41963 329
20.43975 376
20.45986 416
20.47998 450
20.50009 395
20.5202 407
20.54032 395
20.56043 403
20.58054 468
20.60066 476
20.62077 542
20.64088 536
20.661 684
20.68111 712
20.70123 940
20.72134 1319
20.74145 1898
20.76157 2729
20.78168 4023
20.80179 5649
20.82191 7398
20.84202 8656
20.86214 8661
20.88225 7707
20.90236 5636
20.92248 3697
20.94259 2324
20.9627 1328
20.98282 819
21.00293 661
21.02305 582
21.04316 517
21.06327 510
21.08339 473
21.1035 496
21.12361 445
21.14373 417
21.16384 386
21.18395 381
21.20407 357
21.22418 377
21.2443 379
21.26441 355
21.28452 328
21.30464 333
21.32475 308
21.34486 316
21.36498 301
21.38509 311
21.40521 311
21.42532 325
21.44543 279
21.46555 326
21.48566 308
21.50577 309
21.52589 279
21.546 273
21.56612 303
21.58623 277
21.60634 301
21.62646 263
21.64657 275
21.66668 279
21.6868 285
21.70691 265
21.72702 252
21.74714 258
21.76725 240
21.78737 273
21.80748 269
21.82759 245
21.84771 255
21.86782 260
21.88793 261
21.90805 243
21.92816 283
21.94828 241
21.96839 241
21.9885 250
22.00862 267
22.02873 250
22.04884 255
22.06896 245
22.08907 280
22.10919 249
22.1293 243
22.14941 239
22.16953 221
22.18964 260
22.20975 251
22.22987 227
22.24998 262
22.27009 268
22.29021 260
22.31032 246
22.33044 254
22.35055 218
22.37066 233
22.39078 243
22.41089 230
22.431 241
22.45112 232
22.47123 237
22.49135 232
22.51146 262
22.53157 226
22.55169 252
22.5718 229
22.59191 259
22.61203 237
22.63214 238
22.65225 259
22.67237 250
22.69248 213
22.7126 275
22.73271 230
22.75282 232
22.77294 216
22.79305 245
22.81316 225
22.83328 218
22.85339 218
22.87351 245
22.89362 221
22.91373 235
22.93385 221
22.95396 237
22.97407 234
22.99419 259
23.0143 229
23.03442 248
23.05453 227
23.07464 249
23.09476 253
23.11487 238
23.13498 239
23.1551 205
23.17521 226
23.19532 220
23.21544 260
23.23555 204
23.25567 219
23.27578 222
23.29589 216
23.31601 236
23.33612 238
23.35623 227
23.37635 218
23.39646 232
23.41658 233
23.43669 203
23.4568 223
23.47692 205
23.49703 212
23.51714 236
23.53726 219
23.55737 218
23.57749 240
23.5976 188
23.61771 238
23.63783 196
23.65794 257
23.67805 241
23.69817 239
23.71828 231
23.73839 257
23.75851 219
23.77862 241
23.79874 236
23.81885 214
23.83896 243
23.85908 205
23.87919 248
23.8993 261
23.91942 278
23.93953 279
23.95965 290
23.97976 317
23.99987 338
24.01999 367
24.0401 301
24.06021 299
24.08033 257
24.10044 229
24.12056 266
24.14067 256
24.16078 276
24.1809 235
24.20101 240
24.22112 218
24.24124 234
24.26135 243
24.28146 235
24.30158 232
24.32169 215
24.34181 254
24.36192 232
24.38203 209
24.40215 253
24.42226 254
24.44237 243
24.46249 247
24.4826 244
24.50272 260
24.52283 230
24.54294 251
24.56306 234
24.58317 262
24.60328 292
24.6234 258
24.64351 255
24.66362 262
24.68374 296
24.70385 238
24.72397 296
24.74408 300
24.76419 319
24.78431 327
24.80442 379
24.82453 366
24.84465 365
24.86476 405
24.88488 434
24.90499 375
24.9251 384
24.94522 336
24.96533 332
24.98544 309
25.00556 309
25.02567 280
25.04579 291
25.0659 267
25.08601 280
25.10613 273
25.12624 267
25.14635 278
25.16647 278
25.18658 286
25.20669 287
25.22681 290
25.24692 318
25.26704 307
25.28715 313
25.30726 275
25.32738 300
25.34749 301
25.3676 255
25.38772 246
25.40783 266
25.42795 267
25.44806 279
25.46817 292
25.48829 311
25.5084 270
25.52851 317
25.54863 295
25.56874 278
25.58886 273
25.60897 262
25.62908 315
25.6492 324
25.66931 307
25.68942 335
25.70954 381
25.72965 425
25.74976 393
25.76988 441
25.78999 444
25.81011 418
25.83022 423
25.85033 465
25.87045 400
25.89056 425
25.91067 450
25.93079 491
25.9509 439
25.97102 491
25.99113 488
26.01124 477
26.03136 488
26.05147 497
26.07158 524
26.0917 583
26.11181 534
26.13193 615
26.15204 643
26.17215 669
26.19227 731
26.21238 754
26.23249 839
26.25261 848
26.27272 964
26.29283 976
26.31295 1051
26.33306 1199
26.35318 1262
26.37329 1390
26.3934 1657
26.41352 1931
26.43363 2291
26.45374 3046
26.47386 4093
26.49397 5759
26.51409 8491
26.5342 12602
26.55431 17733
26.57443 25132
26.59454 32328
26.61465 38692
26.63477 39837
26.65488 35734
26.67499 27683
26.69511 20883
26.71522 15737
26.73534 9662
26.75545 5038
26.77556 2792
26.79568 2079
26.81579 1733
26.8359 1502
26.85602 1393
26.87613 1292
26.89625 1191
26.91636 1132
26.93647 1049
26.95659 929
26.9767 847
26.99681 833
27.01693 713
27.03704 609
27.05716 625
27.07727 607
27.09738 523
27.1175 506
27.13761 468
27.15772 452
27.17784 446
27.19795 474
27.21806 386
27.23818 457
27.25829 420
27.27841 424
27.29852 436
27.31863 383
27.33875 443
27.35886 422
27.37897 426
27.39909 404
27.4192 421
27.43932 401
27.45943 426
27.47954 427
27.49966 393
27.51977 398
27.53988 367
27.56 403
27.58011 325
27.60023 356
27.62034 326
27.64045 314
27.66057 318
27.68068 316
27.70079 326
27.72091 318
27.74102 335
27.76113 283
27.78125 347
27.80136 323
27.82148 310
27.84159 315
27.8617 338
27.88182 335
27.90193 286
27.92204 284
27.94216 320
27.96227 289
27.98239 315
28.0025 298
28.02261 303
28.04273 307
28.06284 301
28.08295 289
28.10307 297
28.12318 263
28.1433 257
28.16341 314
28.18352 303
28.20364 288
28.22375 334
28.24386 290
28.26398 271
28.28409 259
28.3042 253
28.32432 243
28.34443 300
28.36455 280
28.38466 271
28.40477 254
28.42489 250
28.445 253
28.46511 240
28.48523 232
28.50534 269
28.52546 264
28.54557 257
28.56568 227
28.5858 234
28.60591 266
28.62602 262
28.64614 231
28.66625 284
28.68636 252
28.70648 243
28.72659 265
28.74671 243
28.76682 234
28.78693 258
28.80705 249
28.82716 231
28.84727 259
28.86739 257
28.8875 262
28.90762 244
28.92773 252
28.94784 261
28.96796 265
28.98807 231
29.00818 246
29.0283 264
29.04841 232
29.06853 261
29.08864 227
29.10875 241
29.12887 236
29.14898 238
29.16909 241
29.18921 217
29.20932 232
29.22943 213
29.24955 217
29.26966 221
29.28978 222
29.30989 224
29.33 241
29.35012 251
29.37023 260
29.39034 246
29.41046 280
29.43057 272
29.45069 214
29.4708 237
29.49091 210
29.51103 212
29.53114 232
29.55125 230
29.57137 227
29.59148 236
29.6116 220
29.63171 227
29.65182 221
29.67194 254
29.69205 228
29.71216 240
29.73228 219
29.75239 201
29.7725 229
29.79262 252
29.81273 209
29.83285 188
29.85296 234
29.87307 228
29.89319 236
29.9133 240
29.93341 223
29.95353 214
29.97364 246
29.99376 241
30.01387 207
30.03398 207
30.0541 260
30.07421 205
30.09432 227
30.11444 237
30.13455 240
30.15467 233
30.17478 227
30.19489 228
30.21501 219
30.23512 195
30.25523 222
30.27535 250
30.29546 235
30.31557 223
30.33569 217
30.3558 205
30.37592 232
30.39603 207
30.41614 235
30.43626 203
30.45637 233
30.47648 223
30.4966 232
30.51671 230
30.53683 220
30.55694 229
30.57705 216
30.59717 208
30.61728 206
30.63739 223
30.65751 218
30.67762 220
30.69773 222
30.71785 228
30.73796 234
30.75808 229
30.77819 210
30.7983 209
30.81842 209
30.83853 225
30.85864 199
30.87876 227
30.89887 214
30.91899 210
30.9391 225
30.95921 232
30.97933 234
30.99944 235
31.01955 195
31.03967 203
31.05978 207
31.0799 210
31.10001 200
31.12012 211
31.14024 185
31.16035 206
31.18046 206
31.20058 191
31.22069 201
31.2408 196
31.26092 187
31.28103 220
31.30115 204
31.32126 221
31.34137 195
31.36149 191
31.3816 207
31.40171 187
31.42183 190
31.44194 219
31.46206 210
31.48217 192
31.50228 199
31.5224 178
31.54251 216
31.56262 219
31.58274 196
31.60285 208
31.62297 203
31.64308 191
31.66319 203
31.68331 218
31.70342 192
31.72353 203
31.74365 195
31.76376 206
31.78387 213
31.80399 183
31.8241 190
31.84422 199
31.86433 223
31.88444 198
31.90456 194
31.92467 199
31.94478 191
31.9649 209
31.98501 206
32.00513 201
32.02524 199
32.04535 180
32.06547 202
32.08558 190
32.10569 213
32.12581 209
32.14592 211
32.16604 198
32.18615 195
32.20626 195
32.22638 181
32.24649 212
32.2666 201
32.28672 214
32.30683 173
32.32694 197
32.34706 186
32.36717 186
32.38729 190
32.4074 206
32.42751 214
32.44763 193
32.46774 183
32.48785 220
32.50797 217
32.52808 200
32.5482 235
32.56831 185
32.58842 205
32.60854 176
32.62865 185
32.64876 204
32.66888 204
32.68899 175
32.7091 209
32.72922 203
32.74933 220
32.76945 214
32.78956 219
32.80967 228
32.82979 201
32.8499 225
32.87001 243
32.89013 222
32.91024 205
32.93036 228
32.95047 204
32.97058 214
32.9907 252
33.01081 208
33.03092 226
33.05104 224
33.07115 206
33.09127 258
33.11138 211
33.13149 189
33.15161 224
33.17172 236
33.19183 180
33.21195 215
33.23206 215
33.25217 204
33.27229 240
33.2924 185
33.31252 211
33.33263 239
33.35274 195
33.37286 188
33.39297 185
33.41308 202
33.4332 195
33.45331 185
33.47343 200
33.49354 221
33.51365 214
33.53377 219
33.55388 199
33.57399 180
33.59411 204
33.61422 178
33.63434 197
33.65445 206
33.67456 199
33.69468 186
33.71479 200
33.7349 156
33.75502 156
33.77513 183
33.79524 192
33.81536 174
33.83547 167
33.85559 196
33.8757 156
33.89581 196
33.91593 229
33.93604 170
33.95615 163
33.97627 170
33.99638 188
34.0165 165
34.03661 182
34.05672 187
34.07684 187
34.09695 182
34.11706 184
34.13718 180
34.15729 184
34.17741 195
34.19752 159
34.21763 188
34.23775 163
34.25786 166
34.27797 181
34.29809 173
34.3182 162
34.33831 157
34.35843 181
34.37854 165
34.39866 185
34.41877 150
34.43888 175
34.459 191
34.47911 173
34.49922 179
34.51934 212
34.53945 184
34.55957 212
34.57968 164
34.59979 198
34.61991 212
34.64002 173
34.66013 210
34.68025 182
34.70036 197
34.72047 221
34.74059 189
34.7607 208
34.78082 194
34.80093 225
34.82104 211
34.84116 244
34.86127 217
34.88138 273
34.9015 224
34.92161 278
34.94173 239
34.96184 257
34.98195 231
35.00207 250
35.02218 218
35.04229 212
35.06241 243
35.08252 234
35.10264 222
35.12275 212
35.14286 224
35.16298 229
35.18309 233
35.2032 222
35.22332 204
35.24343 225
35.26354 197
35.28366 236
35.30377 238
35.32389 229
35.344 236
35.36411 258
35.38423 273
35.40434 282
35.42445 249
35.44457 287
35.46468 262
35.4848 278
35.50491 301
35.52502 290
35.54514 266
35.56525 287
35.58536 266
35.60548 286
35.62559 289
35.64571 289
35.66582 279
35.68593 281
35.70605 298
35.72616 280
35.74627 295
35.76639 271
35.7865 307
35.80661 257
35.82673 287
35.84684 291
35.86696 309
35.88707 288
35.90718 283
35.9273 278
35.94741 291
35.96752 298
35.98764 297
36.00775 262
36.02787 263
36.04798 274
36.06809 243
36.08821 274
36.10832 257
36.12843 270
36.14855 257
36.16866 269
36.18878 283
36.20889 250
36.229 293
36.24912 296
36.26923 291
36.28934 325
36.30946 341
36.32957 392
36.34968 412
36.3698 557
36.38991 691
36.41003 818
36.43014 1119
36.45025 1454
36.47037 1910
36.49048 2377
36.51059 2703
36.53071 2682
36.55082 2506
36.57094 2030
36.59105 1687
36.61116 1490
36.63128 1407
36.65139 1078
36.6715 683
36.69162 440
36.71173 366
36.73184 313
36.75196 266
36.77207 295
36.79219 259
36.8123 265
36.83241 269
36.85253 247
36.87264 249
36.89275 218
36.91287 219
36.93298 226
36.9531 201
36.97321 228
36.99332 213
37.01344 201
37.03355 230
37.05366 237
37.07378 195
37.09389 200
37.11401 180
37.13412 217
37.15423 184
37.17435 176
37.19446 200
37.21457 203
37.23469 183
37.2548 193
37.27491 182
37.29503 203
37.31514 193
37.33526 200
37.35537 202
37.37548 212
37.3956 175
37.41571 172
37.43582 206
37.45594 179
37.47605 184
37.49617 202
37.51628 199
37.53639 188
37.55651 184
37.57662 232
37.59673 213
37.61685 203
37.63696 221
37.65708 210
37.67719 244
37.6973 233
37.71742 206
37.73753 224
37.75764 207
37.77776 217
37.79787 187
37.81798 194
37.8381 192
37.85821 216
37.87833 200
37.89844 183
37.91855 226
37.93867 222
37.95878 221
37.97889 200
37.99901 184
38.01912 212
38.03924 191
38.05935 194
38.07946 218
38.09958 189
38.11969 213
38.1398 222
38.15992 222
38.18003 243
38.20015 215
38.22026 210
38.24037 239
38.26049 249
38.2806 255
38.30071 265
38.32083 248
38.34094 305
38.36105 236
38.38117 289
38.40128 281
38.4214 241
38.44151 273
38.46162 254
38.48174 230
38.50185 288
38.52196 237
38.54208 240
38.56219 264
38.58231 240
38.60242 239
38.62253 217
38.64265 216
38.66276 224
38.68287 219
38.70299 238
38.7231 218
38.74321 223
38.76333 231
38.78344 218
38.80356 232
38.82367 249
38.84378 218
38.8639 203
38.88401 211
38.90412 223
38.92424 215
38.94435 243
38.96447 236
38.98458 232
39.00469 232
39.02481 281
39.04492 239
39.06503 263
39.08515 250
39.10526 272
39.12538 281
39.14549 275
39.1656 317
39.18572 318
39.20583 342
39.22594 343
39.24606 410
39.26617 405
39.28628 540
39.3064 650
39.32651 778
39.34663 1015
39.36674 1318
39.38685 1575
39.40697 2001
39.42708 2351
39.44719 2496
39.46731 2331
39.48742 1751
39.50754 1480
39.52765 1315
39.54776 1311
39.56788 1084
39.58799 799
39.6081 516
39.62822 346
39.64833 323
39.66845 320
39.68856 239
39.70867 251
39.72879 276
39.7489 251
39.76901 262
39.78913 225
39.80924 223
39.82935 216
39.84947 233
39.86958 234
39.8897 218
39.90981 214
39.92992 198
39.95004 212
39.97015 271
39.99026 240
40.01038 227
40.03049 244
40.05061 265
40.07072 316
40.09083 297
40.11095 366
40.13106 427
40.15117 513
40.17129 602
40.1914 704
40.21152 881
40.23163 1155
40.25174 1260
40.27186 1320
40.29197 1194
40.31208 993
40.3322 799
40.35231 752
40.37242 765
40.39254 649
40.41265 483
40.43277 364
40.45288 280
40.47299 277
40.49311 244
40.51322 242
40.53333 225
40.55345 256
40.57356 250
40.59368 209
40.61379 218
40.6339 209
40.65402 207
40.67413 174
40.69424 203
40.71436 217
40.73447 187
40.75458 184
40.7747 211
40.79481 203
40.81493 210
40.83504 198
40.85515 183
40.87527 197
40.89538 176
40.91549 197
40.93561 207
40.95572 200
40.97584 183
40.99595 218
41.01606 234
41.03618 238
41.05629 198
41.0764 222
41.09652 219
41.11663 247
41.13675 201
41.15686 202
41.17697 199
41.19709 213
41.2172 231
41.23731 215
41.25743 206
41.27754 212
41.29765 202
41.31777 215
41.33788 211
41.358 199
41.37811 209
41.39822 194
41.41834 200
41.43845 196
41.45856 170
41.47868 185
41.49879 179
41.51891 194
41.53902 220
41.55913 197
41.57925 227
41.59936 195
41.61947 220
41.63959 228
41.6597 184
41.67982 174
41.69993 191
41.72004 166
41.74016 202
41.76027 199
41.78038 190
41.8005 189
41.82061 196
41.84072 202
41.86084 179
41.88095 194
41.90107 195
41.92118 192
41.94129 199
41.96141 187
41.98152 204
42.00163 199
42.02175 196
42.04186 212
42.06198 217
42.08209 212
42.1022 200
42.12232 210
42.14243 223
42.16254 273
42.18266 290
42.20277 307
42.22289 293
42.243 322
42.26311 413
42.28323 493
42.30334 583
42.32345 744
42.34357 949
42.36368 1158
42.38379 1467
42.40391 1637
42.42402 1842
42.44414 1664
42.46425 1420
42.48436 1135
42.50448 994
42.52459 1031
42.5447 1022
42.56482 780
42.58493 556
42.60505 387
42.62516 313
42.64527 261
42.66539 226
42.6855 236
42.70561 224
42.72573 204
42.74584 199
42.76595 189
42.78607 209
42.80618 204
42.8263 197
42.84641 198
42.86652 182
42.88664 181
42.90675 183
42.92686 185
42.94698 167
42.96709 177
42.98721 164
43.00732 178
43.02743 164
43.04755 172
43.06766 168
43.08777 178
43.10789 165
43.128 174
43.14812 176
43.16823 146
43.18834 171
43.20846 183
43.22857 182
43.24868 151
43.2688 174
43.28891 168
43.30902 153
43.32914 180
43.34925 187
43.36937 167
43.38948 154
43.40959 189
43.42971 177
43.44982 175
43.46993 185
43.49005 185
43.51016 166
43.53028 176
43.55039 174
43.5705 177
43.59062 151
43.61073 153
43.63084 194
43.65096 170
43.67107 172
43.69119 176
43.7113 200
43.73141 168
43.75153 190
43.77164 177
43.79175 165
43.81187 170
43.83198 183
43.85209 184
43.87221 167
43.89232 159
43.91244 187
43.93255 166
43.95266 174
43.97278 183
43.99289 167
44.013 188
44.03312 189
44.05323 160
44.07335 167
44.09346 174
44.11357 160
44.13369 184
44.1538 168
44.17391 158
44.19403 145
44.21414 160
44.23426 179
44.25437 176
44.27448 167
44.2946 185
44.31471 195
44.33482 166
44.35494 180
44.37505 165
44.39516 172
44.41528 168
44.43539 157
44.45551 158
44.47562 162
44.49573 167
44.51585 182
44.53596 172
44.55607 163
44.57619 166
44.5963 154
44.61642 147
44.63653 170
44.65664 138
44.67676 211
44.69687 192
44.71698 172
44.7371 166
44.75721 166
44.77732 186
44.79744 156
44.81755 164
44.83767 164
44.85778 172
44.87789 191
44.89801 171
44.91812 179
44.93823 185
44.95835 168
44.97846 195
44.99858 166
45.01869 200
45.0388 197
45.05892 184
45.07903 187
45.09914 195
45.11926 196
45.13937 183
45.15949 191
45.1796 167
45.19971 175
45.21983 160
45.23994 188
45.26005 166
45.28017 171
45.30028 167
45.32039 185
45.34051 179
45.36062 209
45.38074 184
45.40085 187
45.42096 197
45.44108 201
45.46119 228
45.4813 244
45.50142 218
45.52153 258
45.54165 252
45.56176 271
45.58187 278
45.60199 310
45.6221 381
45.64221 471
45.66233 546
45.68244 734
45.70256 810
45.72267 1012
45.74278 1242
45.7629 1254
45.78301 1259
45.80312 1059
45.82324 839
45.84335 693
45.86346 683
45.88358 704
45.90369 682
45.92381 529
45.94392 409
45.96403 320
45.98415 217
46.00426 206
46.02437 234
46.04449 199
46.0646 186
46.08472 197
46.10483 208
46.12494 190
46.14506 188
46.16517 175
46.18528 190
46.2054 174
46.22551 169
46.24563 178
46.26574 160
46.28585 153
46.30597 179
46.32608 164
46.34619 149
46.36631 149
46.38642 182
46.40653 160
46.42665 148
46.44676 164
46.46688 165
46.48699 157
46.5071 143
46.52722 163
46.54733 157
46.56744 181
46.58756 174
46.60767 173
46.62779 151
46.6479 157
46.66801 145
46.68813 169
46.70824 168
46.72835 185
46.74847 151
46.76858 163
46.78869 164
46.80881 154
46.82892 172
46.84904 163
46.86915 164
46.88926 166
46.90938 160
46.92949 168
46.9496 163
46.96972 157
46.98983 156
47.00995 141
47.03006 161
47.05017 154
47.07029 155
47.0904 163
47.11051 170
47.13063 155
47.15074 161
47.17086 176
47.19097 164
47.21108 154
47.2312 180
47.25131 163
47.27142 177
47.29154 181
47.31165 153
47.33176 150
47.35188 165
47.37199 163
47.39211 181
47.41222 154
47.43233 170
47.45245 169
47.47256 138
47.49267 149
47.51279 172
47.5329 160
47.55302 161
47.57313 159
47.59324 148
47.61336 170
47.63347 172
47.65358 141
47.6737 163
47.69381 144
47.71393 167
47.73404 158
47.75415 154
47.77427 154
47.79438 164
47.81449 125
47.83461 170
47.85472 185
47.87483 169
47.89495 172
47.91506 181
47.93518 170
47.95529 186
47.9754 174
47.99552 166
48.01563 181
48.03574 170
48.05586 160
48.07597 180
48.09609 166
48.1162 174
48.13631 154
48.15643 156
48.17654 166
48.19665 171
48.21677 164
48.23688 167
48.257 184
48.27711 173
48.29722 159
48.31734 157
48.33745 164
48.35756 146
48.37768 162
48.39779 176
48.4179 152
48.43802 189
48.45813 166
48.47825 171
48.49836 166
48.51847 167
48.53859 169
48.5587 147
48.57881 185
48.59893 174
48.61904 161
48.63916 161
48.65927 196
48.67938 153
48.6995 157
48.71961 170
48.73972 173
48.75984 168
48.77995 142
48.80006 163
48.82018 177
48.84029 183
48.86041 161
48.88052 175
48.90063 179
48.92075 173
48.94086 162
48.96097 186
48.98109 172
49.0012 180
49.02132 183
49.04143 206
49.06154 169
49.08166 164
49.10177 204
49.12188 185
49.142 206
49.16211 179
49.18223 168
49.20234 171
49.22245 183
49.24257 177
49.26268 233
49.28279 162
49.30291 190
49.32302 176
49.34313 185
49.36325 201
49.38336 213
49.40348 184
49.42359 200
49.4437 194
49.46382 182
49.48393 228
49.50404 203
49.52416 186
49.54427 206
49.56439 236
49.5845 190
49.60461 224
49.62473 208
49.64484 224
49.66495 224
49.68507 233
49.70518 266
49.7253 274
49.74541 298
49.76552 281
49.78564 292
49.80575 304
49.82586 341
49.84598 379
49.86609 423
49.8862 465
49.90632 553
49.92643 648
49.94655 785
49.96666 962
49.98677 1254
50.00689 1550
50.027 2061
50.04711 2525
50.06723 3089
50.08734 3672
50.10746 3904
50.12757 3701
50.14768 3148
50.1678 2528
50.18791 2066
50.20802 2001
50.22814 2005
50.24825 2017
50.26837 1707
50.28848 1219
50.30859 804
50.32871 541
50.34882 462
50.36893 335
50.38905 351
50.40916 297
50.42927 264
50.44939 260
50.4695 288
50.48962 275
50.50973 245
50.52984 285
50.54996 277
50.57007 286
50.59018 284
50.6103 263
50.63041 298
50.65053 275
50.67064 235
50.69075 233
50.71087 227
50.73098 217
50.75109 220
50.77121 195
50.79132 188
50.81143 200
50.83155 199
50.85166 185
50.87178 163
50.89189 180
50.912 187
50.93212 175
50.95223 161
50.97234 185
50.99246 181
51.01257 169
51.03269 176
51.0528 172
51.07291 175
51.09303 181
51.11314 180
51.13325 161
51.15337 153
51.17348 142
51.1936 156
51.21371 178
51.23382 161
51.25394 177
51.27405 159
51.29416 170
51.31428 150
51.33439 162
51.3545 152
51.37462 137
51.39473 145
51.41485 157
51.43496 146
51.45507 158
51.47519 142
51.4953 153
51.51541 152
51.53553 146
51.55564 182
51.57576 146
51.59587 177
51.61598 141
51.6361 182
51.65621 154
51.67632 143
51.69644 160
51.71655 163
51.73667 154
51.75678 149
51.77689 147
51.79701 161
51.81712 152
51.83723 156
51.85735 174
51.87746 151
51.89757 134
51.91769 131
51.9378 172
51.95792 154
51.97803 171
51.99814 167
52.01826 154
52.03837 146
52.05848 163
52.0786 160
52.09871 168
52.11883 169
52.13894 152
52.15905 142
52.17917 178
52.19928 172
52.21939 175
52.23951 156
52.25962 161
52.27974 164
52.29985 161
52.31996 157
52.34008 182
52.36019 143
52.3803 147
52.40042 139
52.42053 150
52.44064 158
52.46076 145
52.48087 151
52.50099 135
52.5211 149
52.54121 149
52.56133 177
52.58144 152
52.60155 145
52.62167 136
52.64178 148
52.6619 149
52.68201 144
52.70212 169
52.72224 149
52.74235 162
52.76246 164
52.78258 151
52.80269 147
52.8228 180
52.84292 168
52.86303 149
52.88315 136
52.90326 141
52.92337 145
52.94349 142
52.9636 150
52.98371 167
53.00383 162
53.02394 149
53.04406 161
53.06417 167
53.08428 178
53.1044 165
53.12451 169
53.14462 178
53.16474 157
53.18485 182
53.20497 164
53.22508 174
53.24519 156
53.26531 165
53.28542 198
53.30553 191
53.32565 180
53.34576 179
53.36587 210
53.38599 204
53.4061 196
53.42622 173
53.44633 194
53.46644 173
53.48656 198
53.50667 189
53.52678 211
53.5469 198
53.56701 180
53.58713 170
53.60724 185
53.62735 177
53.64747 189
53.66758 182
53.68769 188
53.70781 184
53.72792 182
53.74804 176
53.76815 193
53.78826 183
53.80838 204
53.82849 223
53.8486 170
53.86872 203
53.88883 211
53.90894 184
53.92906 207
53.94917 184
53.96929 180
53.9894 223
54.00951 197
54.02963 195
54.04974 231
54.06985 170
54.08997 192
54.11008 202
54.1302 202
54.15031 213
54.17042 191
54.19054 214
54.21065 222
54.23076 191
54.25088 215
54.27099 221
54.29111 224
54.31122 216
54.33133 229
54.35145 217
54.37156 196
54.39167 229
54.41179 216
54.4319 210
54.45201 203
54.47213 223
54.49224 239
54.51236 201
54.53247 237
54.55258 219
54.5727 253
54.59281 297
54.61292 272
54.63304 282
54.65315 320
54.67327 380
54.69338 439
54.71349 507
54.73361 553
54.75372 693
54.77383 818
54.79395 962
54.81406 1068
54.83417 1152
54.85429 1233
54.8744 1120
54.89452 874
54.91463 766
54.93474 688
54.95486 667
54.97497 731
54.99508 696
55.0152 671
55.03531 538
55.05543 389
55.07554 361
55.09565 323
55.11577 356
55.13588 292
55.15599 333
55.17611 353
55.19622 406
55.21634 465
55.23645 508
55.25656 558
55.27668 629
55.29679 641
55.3169 583
55.33702 548
55.35713 471
55.37724 360
55.39736 367
55.41747 372
55.43759 366
55.4577 377
55.47781 320
55.49793 314
55.51804 244
55.53815 234
55.55827 205
55.57838 185
55.5985 195
55.61861 186
55.63872 200
55.65884 203
55.67895 160
55.69906 174
55.71918 177
55.73929 182
55.75941 174
55.77952 184
55.79963 178
55.81975 191
55.83986 175
55.85997 154
55.88009 149
55.9002 181
55.92031 185
55.94043 181
55.96054 148
55.98066 165
56.00077 155
56.02088 166
56.041 173
56.06111 179
56.08122 167
56.10134 145
56.12145 168
56.14157 175
56.16168 186
56.18179 152
56.20191 151
56.22202 165
56.24213 149
56.26225 153
56.28236 159
56.30248 145
56.32259 146
56.3427 177
56.36282 164
56.38293 167
56.40304 166
56.42316 185
56.44327 179
56.46338 167
56.4835 156
56.50361 134
56.52373 154
56.54384 161
56.56395 168
56.58407 165
56.60418 156
56.62429 189
56.64441 172
56.66452 152
56.68464 175
56.70475 155
56.72486 165
56.74498 155
56.76509 154
56.7852 164
56.80532 158
56.82543 163
56.84554 163
56.86566 174
56.88577 161
56.90589 178
56.926 156
56.94611 146
56.96623 171
56.98634 188
57.00645 186
57.02657 173
57.04668 156
57.0668 148
57.08691 168
57.10702 180
57.12714 182
57.14725 200
57.16736 210
57.18748 202
57.20759 229
57.22771 226
57.24782 165
57.26793 178
57.28805 160
57.30816 176
57.32827 165
57.34839 173
57.3685 170
57.38861 156
57.40873 176
57.42884 161
57.44896 166
57.46907 186
57.48918 166
57.5093 174
57.52941 149
57.54952 141
57.56964 137
57.58975 167
57.60987 170
57.62998 152
57.65009 159
57.67021 155
57.69032 147
57.71043 161
57.73055 176
57.75066 138
57.77078 160
57.79089 173
57.811 163
57.83112 168
57.85123 149
57.87134 150
57.89146 165
57.91157 168
57.93168 167
57.9518 150
57.97191 126
57.99203 138
58.01214 165
58.03225 158
58.05237 157
58.07248 149
58.09259 137
58.11271 150
58.13282 150
58.15294 179
58.17305 163
58.19316 142
58.21328 150
58.23339 153
58.2535 145
58.27362 142
58.29373 166
58.31385 156
58.33396 160
58.35407 166
58.37419 143
58.3943 154
58.41441 158
58.43453 174
58.45464 136
58.47475 137
58.49487 147
58.51498 164
58.5351 144
58.55521 150
58.57532 160
58.59544 149
58.61555 152
58.63566 178
58.65578 143
58.67589 139
58.69601 156
58.71612 161
58.73623 153
58.75635 151
58.77646 173
58.79657 151
58.81669 178
58.8368 160
58.85691 168
58.87703 178
58.89714 154
58.91726 167
58.93737 166
58.95748 148
58.9776 153
58.99771 155
59.01782 151
59.03794 167
59.05805 150
59.07817 167
59.09828 157
59.11839 164
59.13851 166
59.15862 172
59.17873 151
59.19885 171
59.21896 146
59.23908 161
59.25919 180
59.2793 187
59.29942 150
59.31953 188
59.33964 164
59.35976 177
59.37987 203
59.39998 185
59.4201 194
59.44021 192
59.46033 174
59.48044 205
59.50055 185
59.52067 234
59.54078 220
59.56089 236
59.58101 253
59.60112 255
59.62124 266
59.64135 322
59.66146 324
59.68158 418
59.70169 416
59.7218 453
59.74192 559
59.76203 658
59.78215 729
59.80226 961
59.82237 1206
59.84249 1461
59.8626 1826
59.88271 2086
59.90283 2348
59.92294 2323
59.94305 2256
59.96317 1913
59.98328 1394
60.0034 1201
60.02351 1167
60.04362 1188
60.06374 1265
60.08385 1249
60.10396 1135
60.12408 934
60.14419 722
60.16431 479
60.18442 343
60.20453 294
60.22465 271
60.24476 211
60.26487 220
60.28499 208
60.3051 201
60.32522 202
60.34533 196
60.36544 205
60.38556 196
60.40567 178
60.42578 189
60.4459 155
60.46601 160
60.48612 168
60.50624 162
60.52635 151
60.54647 169
60.56658 160
60.58669 153
60.60681 138
60.62692 164
60.64703 165
60.66715 145
60.68726 147
60.70738 142
60.72749 151
60.7476 161
60.76772 159
60.78783 167
60.80794 167
60.82806 153
60.84817 164
60.86828 171
60.8884 140
60.90851 148
60.92863 152
60.94874 167
60.96885 153
60.98897 157
61.00908 152
61.02919 153
61.04931 165
61.06942 150
61.08954 144
61.10965 143
61.12976 144
61.14988 145
61.16999 164
61.1901 151
61.21022 139
61.23033 144
61.25045 159
61.27056 133
61.29067 145
61.31079 138
61.3309 156
61.35101 172
61.37113 176
61.39124 141
61.41135 142
61.43147 165
61.45158 131
61.4717 136
61.49181 155
61.51192 134
61.53204 166
61.55215 153
61.57226 154
61.59238 149
61.61249 153
61.63261 146
61.65272 148
61.67283 150
61.69295 151
61.71306 156
61.73317 178
61.75329 163
61.7734 156
61.79352 145
61.81363 169
61.83374 159
61.85386 166
61.87397 156
61.89408 176
61.9142 178
61.93431 150
61.95442 175
61.97454 158
61.99465 155
62.01477 147
62.03488 153
62.05499 174
62.07511 186
62.09522 194
62.11533 192
62.13545 192
62.15556 183
62.17568 170
62.19579 214
62.2159 201
62.23602 193
62.25613 210
62.27624 189
62.29636 203
62.31647 218
62.33659 206
62.3567 190
62.37681 185
62.39693 173
62.41704 176
62.43715 193
62.45727 186
62.47738 168
62.49749 157
62.51761 198
62.53772 177
62.55784 172
62.57795 197
62.59806 163
62.61818 167
62.63829 170
62.6584 170
62.67852 174
62.69863 167
62.71875 165
62.73886 176
62.75897 157
62.77909 160
62.7992 146
62.81931 159
62.83943 176
62.85954 171
62.87965 149
62.89977 139
62.91988 169
62.94 159
62.96011 155
62.98022 164
63.00034 169
63.02045 149
63.04056 157
63.06068 177
63.08079 139
63.10091 179
63.12102 153
63.14113 155
63.16125 155
63.18136 151
63.20147 177
63.22159 169
63.2417 144
63.26182 152
63.28193 149
63.30204 162
63.32216 138
63.34227 152
63.36238 153
63.3825 174
63.40261 183
63.42272 159
63.44284 153
63.46295 146
63.48307 158
63.50318 168
63.52329 174
63.54341 136
63.56352 173
63.58363 166
63.60375 154
63.62386 149
63.64398 163
63.66409 150
63.6842 163
63.70432 171
63.72443 170
63.74454 183
63.76466 203
63.78477 202
63.80489 196
63.825 225
63.84511 258
63.86523 290
63.88534 279
63.90545 316
63.92557 421
63.94568 468
63.96579 503
63.98591 501
64.00602 550
64.02614 498
64.04625 450
64.06636 406
64.08648 308
64.10659 303
64.1267 298
64.14682 360
64.16693 332
64.18705 347
64.20716 311
64.22727 264
64.24739 225
64.2675 228
64.28761 199
64.30773 156
64.32784 176
64.34796 175
64.36807 166
64.38818 160
64.4083 164
64.42841 159
64.44852 131
64.46864 151
64.48875 172
64.50886 145
64.52898 159
64.54909 141
64.56921 136
64.58932 147
64.60943 144
64.62955 158
64.64966 173
64.66977 143
64.68989 149
64.71 149
64.73012 134
64.75023 139
64.77034 152
64.79046 152
64.81057 139
64.83068 129
64.8508 146
64.87091 143
64.89102 150
64.91114 138
64.93125 137
64.95137 149
64.97148 145
64.99159 153
65.01171 159
65.03182 147
65.05193 124
65.07205 115
65.09216 144
65.11228 136
65.13239 139
65.1525 132
65.17262 156
65.19273 147
65.21284 138
65.23296 151
65.25307 154
65.27319 136
65.2933 130
65.31341 147
65.33353 179
65.35364 137
65.37375 161
65.39387 148
65.41398 138
65.43409 146
65.45421 151
65.47432 159
65.49444 142
65.51455 166
65.53466 152
65.55478 146
65.57489 166
65.595 174
65.61512 172
65.63523 197
65.65535 185
65.67546 221
65.69557 235
65.71569 228
65.7358 261
65.75591 224
65.77603 236
65.79614 245
65.81626 205
65.83637 188
65.85648 181
65.8766 206
65.89671 184
65.91682 206
65.93694 207
65.95705 178
65.97716 170
65.99728 172
66.01739 139
66.03751 144
66.05762 143
66.07773 139
66.09785 147
66.11796 157
66.13807 153
66.15819 147
66.1783 164
66.19842 152
66.21853 145
66.23864 152
66.25876 153
66.27887 148
66.29898 153
66.3191 154
66.33921 146
66.35933 167
66.37944 136
66.39955 149
66.41967 130
66.43978 158
66.45989 162
66.48001 152
66.50012 148
66.52023 143
66.54035 128
66.56046 134
66.58058 171
66.60069 148
66.6208 159
66.64092 178
66.66103 151
66.68114 170
66.70126 145
66.72137 138
66.74149 163
66.7616 157
66.78171 162
66.80183 159
66.82194 147
66.84205 166
66.86217 146
66.88228 169
66.90239 145
66.92251 152
66.94262 163
66.96274 148
66.98285 150
67.00296 142
67.02308 169
67.04319 163
67.0633 161
67.08342 138
67.10353 162
67.12365 173
67.14376 155
67.16387 164
67.18399 172
67.2041 182
67.22421 195
67.24433 192
67.26444 207
67.28456 198
67.30467 190
67.32478 212
67.3449 207
67.36501 217
67.38512 255
67.40524 227
67.42535 233
67.44546 296
67.46558 311
67.48569 292
67.50581 334
67.52592 398
67.54603 469
67.56615 558
67.58626 643
67.60637 781
67.62649 936
67.6466 1091
67.66672 1241
67.68683 1308
67.70694 1288
67.72706 1268
67.74717 1198
67.76728 948
67.7874 795
67.80751 748
67.82763 808
67.84774 821
67.86785 882
67.88797 923
67.90808 943
67.92819 956
67.94831 925
67.96842 918
67.98853 943
68.00865 1047
68.02876 1263
68.04888 1359
68.06899 1571
68.0891 1742
68.10922 1915
68.12933 1784
68.14944 1623
68.16956 1489
68.18967 1404
68.20979 1368
68.2299 1452
68.25001 1598
68.27013 1732
68.29024 1627
68.31035 1527
68.33047 1364
68.35058 1073
68.3707 812
68.39081 685
68.41092 681
68.43104 629
68.45115 687
68.47126 694
68.49138 580
68.51149 507
68.5316 368
68.55172 340
68.57183 249
68.59195 240
68.61206 257
68.63217 217
68.65229 203
68.6724 207
68.69251 217
68.71263 175
68.73274 186
68.75286 170
68.77297 193
68.79308 188
68.8132 179
68.83331 178
68.85342 180
68.87354 159
68.89365 148
68.91376 185
68.93388 160
68.95399 176
68.97411 150
68.99422 167
69.01433 149
69.03445 162
69.05456 157
69.07467 170
69.09479 156
69.1149 158
69.13502 159
69.15513 140
69.17524 153
69.19536 154
69.21547 138
69.23558 141
69.2557 138
69.27581 178
69.29593 142
69.31604 131
69.33615 157
69.35627 154
69.37638 147
69.39649 165
69.41661 164
69.43672 146
69.45683 123
69.47695 139
69.49706 141
69.51718 141
69.53729 126
69.5574 144
69.57752 142
69.59763 141
69.61774 168
69.63786 139
69.65797 151
69.67809 139
69.6982 136
69.71831 146
69.73843 141
69.75854 158
69.77865 143
69.79877 147
69.81888 156
69.839 136
69.85911 142
69.87922 150
69.89934 138
69.91945 138
69.93956 146
69.95968 134
69.97979 135
69.9999 122
70.02002 150
70.04013 142
70.06025 127
70.08036 147
70.10047 150
70.12059 135
70.1407 127
70.16081 132
70.18093 141
70.20104 139
70.22116 136
70.24127 113
70.26138 134
70.2815 145
70.30161 148
70.32172 142
70.34184 137
70.36195 152
70.38207 142
70.40218 152
70.42229 138
70.44241 155
70.46252 129
70.48263 129
70.50275 140
70.52286 156
70.54297 147
70.56309 124
70.5832 147
70.60332 143
70.62343 123
70.64354 141
70.66366 129
70.68377 156
70.70388 119
70.724 120
70.74411 119
70.76423 118
70.78434 142
70.80445 133
70.82457 131
70.84468 134
70.86479 129
70.88491 133
70.90502 138
70.92513 150
70.94525 145
70.96536 151
70.98548 130
71.00559 134
71.0257 134
71.04582 127
71.06593 139
71.08604 127
71.10616 132
71.12627 126
71.14639 135
71.1665 139
71.18661 138
71.20673 143
71.22684 119
71.24695 142
71.26707 128
71.28718 143
71.3073 128
71.32741 127
71.34752 116
71.36764 129
71.38775 113
71.40786 122
71.42798 144
71.44809 133
71.4682 142
71.48832 139
71.50843 133
71.52855 149
71.54866 148
71.56877 138
71.58889 137
71.609 138
71.62911 134
71.64923 139
71.66934 132
71.68946 125
71.70957 141
71.72968 111
71.7498 132
71.76991 130
71.79002 129
71.81014 132
71.83025 131
71.85037 118
71.87048 131
71.89059 131
71.91071 141
71.93082 124
71.95093 147
71.97105 137
71.99116 133
72.01127 131
72.03139 136
72.0515 150
72.07162 130
72.09173 134
72.11184 130
72.13196 141
72.15207 125
72.17218 101
72.1923 132
72.21241 119
72.23253 146
72.25264 123
72.27275 148
72.29287 127
72.31298 134
72.33309 134
72.35321 122
72.37332 126
72.39344 124
72.41355 173
72.43366 124
72.45378 129
72.47389 114
72.494 132
72.51412 142
72.53423 152
72.55434 144
72.57446 128
72.59457 136
72.61469 146
72.6348 125
72.65491 130
72.67503 153
72.69514 142
72.71525 152
72.73537 140
72.75548 117
72.7756 131
72.79571 132
72.81582 140
72.83594 163
72.85605 149
72.87616 143
72.89628 144
72.91639 140
72.9365 142
72.95662 156
72.97673 164
72.99685 150
73.01696 139
73.03707 128
73.05719 148
73.0773 157
73.09741 179
73.11753 170
73.13764 155
73.15776 171
73.17787 163
73.19798 179
73.2181 203
73.23821 204
73.25832 219
73.27844 233
73.29855 292
73.31867 332
73.33878 369
73.35889 397
73.37901 466
73.39912 535
73.41923 551
73.43935 538
73.45946 499
73.47957 440
73.49969 355
73.5198 307
73.53992 277
73.56003 293
73.58014 288
73.60026 294
73.62037 310
73.64048 309
73.6606 350
73.68071 278
73.70083 240
73.72094 213
73.74105 189
73.76117 145
73.78128 164
73.80139 138
73.82151 135
73.84162 156
73.86174 137
73.88185 132
73.90196 144
73.92208 142
73.94219 136
73.9623 130
73.98242 128
74.00253 124
74.02264 121
74.04276 134
74.06287 134
74.08299 133
74.1031 133
74.12321 135
74.14333 136
74.16344 135
74.18355 162
74.20367 135
74.22378 131
74.2439 130
74.26401 146
74.28412 115
74.30424 107
74.32435 113
74.34446 126
74.36458 126
74.38469 139
74.40481 128
74.42492 124
74.44503 131
74.46515 132
74.48526 133
74.50537 128
74.52549 124
74.5456 133
74.56571 136
74.58583 146
74.60594 130
74.62606 97
74.64617 121
74.66628 140
74.6864 138
74.70651 145
74.72662 122
74.74674 142
74.76685 122
74.78697 148
74.80708 118
74.82719 124
74.84731 142
74.86742 133
74.88753 140
74.90765 152
74.92776 168
74.94787 131
74.96799 137
74.9881 142
75.00822 140
