3.00117 20695
3.02128 20112
3.0414 19641
3.06151 19050
3.08162 18345
3.10174 17905
3.12185 17550
3.14197 17024
3.16208 16562
3.18219 15886
3.20231 15476
3.22242 14999
3.24253 14865
3.26265 14115
3.28276 13730
3.30288 13469
3.32299 12549
3.3431 12681
3.36322 12097
3.38333 11768
3.40344 11533
3.42356 10853
3.44367 10805
3.46379 10255
3.4839 9698
3.50401 9619
3.52413 9169
3.54424 8952
3.56435 8525
3.58447 8135
3.60458 7983
3.62469 7660
3.64481 7212
3.66492 6841
3.68504 6624
3.70515 6674
3.72526 6090
3.74538 6188
3.76549 5816
3.7856 5349
3.80572 5416
3.82583 5151
3.84595 4872
3.86606 4553
3.88617 4354
3.90629 4223
3.9264 4123
3.94651 3964
3.96663 3619
3.98674 3537
4.00686 3440
4.02697 3234
4.04708 3140
4.0672 2970
4.08731 2741
4.10742 2677
4.12754 2539
4.14765 2340
4.16776 2326
4.18788 2191
4.20799 2226
4.22811 2134
4.24822 1940
4.26833 1819
4.28845 1657
4.30856 1720
4.32867 1731
4.34879 1700
4.3689 1585
4.38902 1465
4.40913 1562
4.42924 1490
4.44936 1380
4.46947 1319
4.48958 1244
4.5097 1258
4.52981 1367
4.54992 1112
4.57004 1166
4.59015 1140
4.61027 1154
4.63038 1140
4.65049 1069
4.67061 1039
4.69072 957
4.71083 1006
4.73095 973
4.75106 910
4.77118 878
4.79129 834
4.8114 842
4.83152 879
4.85163 831
4.87174 816
4.89186 779
4.91197 735
4.93209 759
4.9522 698
4.97231 687
4.99243 701
5.01254 658
5.03265 623
5.05277 644
5.07288 621
5.09299 596
5.11311 625
5.13322 621
5.15334 519
5.17345 533
5.19356 525
5.21368 509
5.23379 542
5.2539 502
5.27402 518
5.29413 493
5.31425 437
5.33436 429
5.35447 444
5.37459 395
5.3947 417
5.41481 407
5.43493 415
5.45504 415
5.47516 372
5.49527 380
5.51538 366
5.5355 372
5.55561 340
5.57572 334
5.59584 318
5.61595 282
5.63606 341
5.65618 279
5.67629 338
5.69641 285
5.71652 294
5.73663 276
5.75675 256
5.77686 275
5.79697 274
5.81709 273
5.8372 270
5.85732 268
5.87743 273
5.89754 242
5.91766 249
5.93777 225
5.95788 233
5.978 249
5.99811 248
6.01823 239
6.03834 213
6.05845 217
6.07857 207
6.09868 203
6.11879 206
6.13891 175
6.15902 229
6.17913 196
6.19925 185
6.21936 218
6.23948 188
6.25959 210
6.2797 216
6.29982 186
6.31993 196
6.34004 199
6.36016 194
6.38027 198
6.40039 200
6.4205 189
6.44061 209
6.46073 199
6.48084 209
6.50095 178
6.52107 187
6.54118 184
6.56129 189
6.58141 171
6.60152 163
6.62164 224
6.64175 212
6.66186 196
6.68198 209
6.70209 177
6.7222 170
6.74232 178
6.76243 177
6.78255 201
6.80266 199
6.82277 205
6.84289 175
6.863 205
6.88311 195
6.90323 184
6.92334 198
6.94346 200
6.96357 222
6.98368 183
7.0038 206
7.02391 197
7.04402 189
7.06414 191
7.08425 179
7.10436 187
7.12448 185
7.14459 166
7.16471 205
7.18482 198
7.20493 192
7.22505 202
7.24516 184
7.26527 195
7.28539 219
7.3055 201
7.32562 199
7.34573 206
7.36584 199
7.38596 201
7.40607 209
7.42618 206
7.4463 194
7.46641 215
7.48653 185
7.50664 193
7.52675 205
7.54687 207
7.56698 197
7.58709 212
7.60721 193
7.62732 204
7.64743 246
7.66755 195
7.68766 196
7.70778 217
7.72789 205
7.748 205
7.76812 200
7.78823 192
7.80834 221
7.82846 218
7.84857 196
7.86869 220
7.8888 201
7.90891 218
7.92903 173
7.94914 214
7.96925 244
7.98937 200
8.00948 228
8.0296 196
8.04971 206
8.06982 199
8.08994 211
8.11005 222
8.13016 222
8.15028 234
8.17039 193
8.1905 221
8.21062 172
8.23073 240
8.25085 213
8.27096 221
8.29107 217
8.31119 245
8.3313 209
8.35141 239
8.37153 210
8.39164 203
8.41176 210
8.43187 241
8.45198 237
8.4721 210
8.49221 220
8.51232 225
8.53244 244
8.55255 249
8.57266 250
8.59278 268
8.61289 292
8.63301 257
8.65312 238
8.67323 258
8.69335 255
8.71346 249
8.73357 264
8.75369 300
8.7738 293
8.79392 282
8.81403 304
8.83414 304
8.85426 270
8.87437 291
8.89448 277
8.9146 272
8.93471 242
8.95483 224
8.97494 261
8.99505 210
9.01517 232
9.03528 216
9.05539 228
9.07551 211
9.09562 263
9.11573 238
9.13585 226
9.15596 220
9.17608 223
9.19619 252
9.2163 232
9.23642 224
9.25653 247
9.27664 215
9.29676 212
9.31687 223
9.33699 220
9.3571 239
9.37721 205
9.39733 226
9.41744 195
9.43755 212
9.45767 227
9.47778 206
9.4979 221
9.51801 215
9.53812 225
9.55824 228
9.57835 221
9.59846 247
9.61858 199
9.63869 215
9.6588 235
9.67892 206
9.69903 223
9.71915 194
9.73926 223
9.75937 226
9.77949 187
9.7996 223
9.81971 201
9.83983 220
9.85994 217
9.88006 223
9.90017 219
9.92028 214
9.9404 223
9.96051 246
9.98062 204
10.00074 206
10.02085 231
10.04097 229
10.06108 209
10.08119 221
10.10131 206
10.12142 197
10.14153 235
10.16165 220
10.18176 208
10.20187 216
10.22199 219
10.2421 203
10.26222 236
10.28233 209
10.30244 221
10.32256 219
10.34267 200
10.36278 223
10.3829 191
10.40301 194
10.42313 212
10.44324 246
10.46335 230
10.48347 205
10.50358 216
10.52369 208
10.54381 210
10.56392 232
10.58403 240
10.60415 200
10.62426 210
10.64438 213
10.66449 220
10.6846 208
10.70472 196
10.72483 188
10.74494 194
10.76506 205
10.78517 219
10.80529 215
10.8254 217
10.84551 226
10.86563 209
10.88574 227
10.90585 194
10.92597 190
10.94608 230
10.9662 240
10.98631 190
11.00642 221
11.02654 214
11.04665 211
11.06676 204
11.08688 207
11.10699 227
11.1271 213
11.14722 217
11.16733 231
11.18745 241
11.20756 220
11.22767 204
11.24779 193
11.2679 219
11.28801 240
11.30813 260
11.32824 238
11.34836 230
11.36847 215
11.38858 240
11.4087 211
11.42881 213
11.44892 191
11.46904 216
11.48915 205
11.50927 220
11.52938 249
11.54949 238
11.56961 224
11.58972 219
11.60983 228
11.62995 210
11.65006 231
11.67017 220
11.69029 251
11.7104 209
11.73052 235
11.75063 205
11.77074 218
11.79086 238
11.81097 200
11.83108 267
11.8512 243
11.87131 226
11.89143 215
11.91154 248
11.93165 241
11.95177 254
11.97188 224
11.99199 237
12.01211 254
12.03222 249
12.05234 248
12.07245 224
12.09256 228
12.11268 228
12.13279 213
12.1529 238
12.17302 243
12.19313 242
12.21324 283
12.23336 230
12.25347 268
12.27359 274
12.2937 244
12.31381 235
12.33393 267
12.35404 262
12.37415 279
12.39427 256
12.41438 263
12.4345 232
12.45461 252
12.47472 229
12.49484 246
12.51495 258
12.53506 221
12.55518 218
12.57529 241
12.5954 220
12.61552 224
12.63563 240
12.65575 187
12.67586 213
12.69597 225
12.71609 223
12.7362 188
12.75631 225
12.77643 207
12.79654 209
12.81666 187
12.83677 197
12.85688 209
12.877 199
12.89711 195
12.91722 195
12.93734 205
12.95745 221
12.97757 229
12.99768 218
13.01779 205
13.03791 213
13.05802 182
13.07813 223
13.09825 227
13.11836 246
13.13847 222
13.15859 209
13.1787 265
13.19882 247
13.21893 247
13.23904 225
13.25916 198
13.27927 222
13.29938 216
13.3195 215
13.33961 225
13.35973 210
13.37984 187
13.39995 223
13.42007 204
13.44018 233
13.46029 200
13.48041 245
13.50052 239
13.52064 237
13.54075 236
13.56086 248
13.58098 271
13.60109 278
13.6212 319
13.64132 338
13.66143 313
13.68154 317
13.70166 296
13.72177 288
13.74189 272
13.762 215
13.78211 204
13.80223 274
13.82234 257
13.84245 247
13.86257 240
13.88268 250
13.9028 248
13.92291 222
13.94302 206
13.96314 229
13.98325 208
14.00336 209
14.02348 188
14.04359 212
14.06371 181
14.08382 191
14.10393 223
14.12405 193
14.14416 169
14.16427 199
14.18439 194
14.2045 191
14.22461 193
14.24473 151
14.26484 212
14.28496 220
14.30507 199
14.32518 184
14.3453 179
14.36541 178
14.38552 178
14.40564 184
14.42575 208
14.44587 171
14.46598 178
14.48609 175
14.50621 195
14.52632 188
14.54643 221
14.56655 187
14.58666 196
14.60677 204
14.62689 184
14.647 181
14.66712 175
14.68723 218
14.70734 214
14.72746 173
14.74757 204
14.76768 189
14.7878 219
14.80791 173
14.82803 199
14.84814 198
14.86825 203
14.88837 207
14.90848 223
14.92859 224
14.94871 221
14.96882 257
14.98894 233
15.00905 238
15.02916 248
15.04928 281
15.06939 240
15.0895 252
15.10962 253
15.12973 235
15.14984 227
15.16996 223
15.19007 214
15.21019 184
15.2303 210
15.25041 196
15.27053 205
15.29064 204
15.31075 157
15.33087 189
15.35098 179
15.3711 208
15.39121 191
15.41132 186
15.43144 197
15.45155 181
15.47166 193
15.49178 179
15.51189 175
15.53201 189
15.55212 185
15.57223 177
15.59235 207
15.61246 179
15.63257 181
15.65269 183
15.6728 160
15.69291 199
15.71303 176
15.73314 191
15.75326 186
15.77337 170
15.79348 189
15.8136 174
15.83371 193
15.85382 189
15.87394 176
15.89405 162
15.91417 173
15.93428 208
15.95439 172
15.97451 164
15.99462 174
16.01473 180
16.03485 171
16.05496 183
16.07508 169
16.09519 160
16.1153 185
16.13542 165
16.15553 195
16.17564 153
16.19576 164
16.21587 184
16.23598 183
16.2561 198
16.27621 163
16.29633 194
16.31644 176
16.33655 195
16.35667 185
16.37678 164
16.39689 186
16.41701 170
16.43712 190
16.45724 184
16.47735 204
16.49746 188
16.51758 207
16.53769 179
16.5578 203
16.57792 185
16.59803 176
16.61814 164
16.63826 152
16.65837 174
16.67849 196
16.6986 153
16.71871 174
16.73883 172
16.75894 170
16.77905 182
16.79917 154
16.81928 136
16.8394 155
16.85951 174
16.87962 155
16.89974 172
16.91985 167
16.93996 166
16.96008 143
16.98019 183
17.00031 169
17.02042 182
17.04053 153
17.06065 172
17.08076 173
17.10087 202
17.12099 195
17.1411 192
17.16121 197
17.18133 168
17.20144 178
17.22156 178
17.24167 165
17.26178 153
17.2819 165
17.30201 161
17.32212 191
17.34224 200
17.36235 177
17.38247 174
17.40258 169
17.42269 184
17.44281 166
17.46292 182
17.48303 181
17.50315 169
17.52326 161
17.54338 177
17.56349 169
17.5836 162
17.60372 180
17.62383 175
17.64394 182
17.66406 177
17.68417 191
17.70428 191
17.7244 174
17.74451 135
17.76463 193
17.78474 182
17.80485 153
17.82497 170
17.84508 163
17.86519 174
17.88531 163
17.90542 171
17.92554 181
17.94565 192
17.96576 157
17.98588 148
18.00599 145
18.0261 173
18.04622 193
18.06633 128
18.08645 164
18.10656 173
18.12667 173
18.14679 152
18.1669 148
18.18701 175
18.20713 147
18.22724 143
18.24735 167
18.26747 152
18.28758 183
18.3077 161
18.32781 187
18.34792 181
18.36804 177
18.38815 167
18.40826 147
18.42838 167
18.44849 172
18.46861 180
18.48872 198
18.50883 169
18.52895 156
18.54906 147
18.56917 178
18.58929 146
18.6094 185
18.62951 189
18.64963 155
18.66974 177
18.68986 170
18.70997 184
18.73008 190
18.7502 163
18.77031 160
18.79042 180
18.81054 191
18.83065 168
18.85077 183
18.87088 163
18.89099 208
18.91111 183
18.93122 180
18.95133 177
18.97145 191
18.99156 182
19.01168 193
19.03179 196
19.0519 180
19.07202 216
19.09213 168
19.11224 192
19.13236 172
19.15247 174
19.17258 189
19.1927 185
19.21281 206
19.23293 201
19.25304 217
19.27315 201
19.29327 252
19.31338 220
19.33349 206
19.35361 219
19.37372 216
19.39384 215
19.41395 186
19.43406 182
19.45418 176
19.47429 185
19.4944 184
19.51452 178
19.53463 231
19.55475 211
19.57486 183
19.59497 212
19.61509 219
19.6352 197
19.65531 231
19.67543 197
19.69554 221
19.71565 211
19.73577 220
19.75588 211
19.776 208
19.79611 218
19.81622 252
19.83634 270
19.85645 254
19.87656 238
19.89668 311
19.91679 244
19.93691 257
19.95702 289
19.97713 290
19.99725 244
20.01736 245
20.03747 224
20.05759 250
20.0777 217
20.09782 236
20.11793 258
20.13804 239
20.15816 250
20.17827 229
20.19838 259
20.2185 260
20.23861 271
20.25872 249
20.27884 263
20.29895 253
20.31907 269
20.33918 268
20.35929 266
20.37941 304
20.39952 307
20.41963 278
20.43975 300
20.45986 260
20.47998 292
20.50009 323
20.5202 296
20.54032 332
20.56043 347
20.58054 370
20.60066 383
20.62077 426
20.64088 448
20.661 532
20.68111 663
20.70123 780
20.72134 1115
20.74145 1465
20.76157 2057
20.78168 2769
20.80179 3693
20.82191 4484
20.84202 5226
20.86214 5315
20.88225 5012
20.90236 4067
20.92248 2997
20.94259 2212
20.9627 1532
20.98282 1327
21.00293 1144
21.02305 1113
21.04316 1166
21.06327 1060
21.08339 936
21.1035 758
21.12361 610
21.14373 547
21.16384 407
21.18395 388
21.20407 358
21.22418 292
21.2443 315
21.26441 300
21.28452 316
21.30464 284
21.32475 281
21.34486 271
21.36498 245
21.38509 292
21.40521 266
21.42532 293
21.44543 264
21.46555 235
21.48566 270
21.50577 263
21.52589 251
21.546 258
21.56612 226
21.58623 253
21.60634 241
21.62646 251
21.64657 224
21.66668 234
21.6868 247
21.70691 265
21.72702 250
21.74714 246
21.76725 260
21.78737 283
21.80748 240
21.82759 274
21.84771 270
21.86782 299
21.88793 310
21.90805 368
21.92816 388
21.94828 445
21.96839 457
21.9885 520
22.00862 519
22.02873 452
22.04884 464
22.06896 335
22.08907 330
22.10919 302
22.1293 272
22.14941 306
22.16953 239
22.18964 268
22.20975 284
22.22987 303
22.24998 339
22.27009 314
22.29021 333
22.31032 335
22.33044 310
22.35055 364
22.37066 352
22.39078 355
22.41089 326
22.431 322
22.45112 348
22.47123 332
22.49135 314
22.51146 318
22.53157 342
22.55169 317
22.5718 317
22.59191 268
22.61203 300
22.63214 261
22.65225 290
22.67237 254
22.69248 325
22.7126 247
22.73271 266
22.75282 240
22.77294 267
22.79305 254
22.81316 282
22.83328 270
22.85339 255
22.87351 297
22.89362 320
22.91373 315
22.93385 306
22.95396 339
22.97407 345
22.99419 346
23.0143 361
23.03442 361
23.05453 377
23.07464 359
23.09476 382
23.11487 416
23.13498 372
23.1551 400
23.17521 403
23.19532 388
23.21544 418
23.23555 403
23.25567 401
23.27578 424
23.29589 391
23.31601 339
23.33612 348
23.35623 372
23.37635 359
23.39646 354
23.41658 350
23.43669 383
23.4568 432
23.47692 429
23.49703 436
23.51714 429
23.53726 468
23.55737 513
23.57749 537
23.5976 565
23.61771 538
23.63783 523
23.65794 471
23.67805 471
23.69817 470
23.71828 388
23.73839 400
23.75851 372
23.77862 344
23.79874 389
23.81885 394
23.83896 392
23.85908 416
23.87919 450
23.8993 427
23.91942 514
23.93953 580
23.95965 545
23.97976 568
23.99987 529
24.01999 528
24.0401 491
24.06021 440
24.08033 362
24.10044 330
24.12056 322
24.14067 290
24.16078 325
24.1809 330
24.20101 366
24.22112 353
24.24124 391
24.26135 446
24.28146 406
24.30158 440
24.32169 436
24.34181 409
24.36192 396
24.38203 356
24.40215 384
24.42226 329
24.44237 338
24.46249 329
24.4826 370
24.50272 295
24.52283 348
24.54294 300
24.56306 321
24.58317 326
24.60328 336
24.6234 334
24.64351 340
24.66362 355
24.68374 326
24.70385 341
24.72397 313
24.74408 349
24.76419 336
24.78431 333
24.80442 315
24.82453 338
24.84465 335
24.86476 293
24.88488 310
24.90499 302
24.9251 304
24.94522 295
24.96533 312
24.98544 281
25.00556 315
25.02567 279
25.04579 282
25.0659 303
25.08601 280
25.10613 274
25.12624 282
25.14635 271
25.16647 259
25.18658 274
25.20669 274
25.22681 273
25.24692 258
25.26704 273
25.28715 280
25.30726 281
25.32738 302
25.34749 319
25.3676 284
25.38772 337
25.40783 368
25.42795 396
25.44806 436
25.46817 538
25.48829 588
25.5084 675
25.52851 724
25.54863 777
25.56874 815
25.58886 831
25.60897 860
25.62908 763
25.6492 788
25.66931 678
25.68942 676
25.70954 616
25.72965 552
25.74976 450
25.76988 430
25.78999 441
25.81011 417
25.83022 437
25.85033 414
25.87045 399
25.89056 418
25.91067 409
25.93079 382
25.9509 402
25.97102 424
25.99113 450
26.01124 458
26.03136 488
26.05147 500
26.07158 508
26.0917 539
26.11181 548
26.13193 527
26.15204 510
26.17215 600
26.19227 618
26.21238 663
26.23249 725
26.25261 769
26.27272 808
26.29283 870
26.31295 972
26.33306 1092
26.35318 1253
26.37329 1406
26.3934 1615
26.41352 1907
26.43363 2394
26.45374 3006
26.47386 3733
26.49397 5032
26.51409 6861
26.5342 9467
26.55431 12975
26.57443 16600
26.59454 20170
26.61465 22940
26.63477 24034
26.65488 22465
26.67499 18125
26.69511 13611
26.71522 10499
26.73534 7122
26.75545 4500
26.77556 2612
26.79568 1824
26.81579 1581
26.8359 1444
26.85602 1315
26.87613 1205
26.89625 1134
26.91636 1104
26.93647 1109
26.95659 1212
26.9767 1118
26.99681 1203
27.01693 1212
27.03704 1275
27.05716 1321
27.07727 1279
27.09738 1132
27.1175 1053
27.13761 954
27.15772 801
27.17784 766
27.19795 719
27.21806 660
27.23818 682
27.25829 644
27.27841 732
27.29852 795
27.31863 904
27.33875 954
27.35886 1122
27.37897 1322
27.39909 1530
27.4192 1678
27.43932 1787
27.45943 1961
27.47954 1851
27.49966 1614
27.51977 1496
27.53988 1320
27.56 1131
27.58011 919
27.60023 780
27.62034 621
27.64045 585
27.66057 584
27.68068 676
27.70079 623
27.72091 692
27.74102 748
27.76113 766
27.78125 800
27.80136 862
27.82148 792
27.84159 844
27.8617 858
27.88182 790
27.90193 788
27.92204 832
27.94216 785
27.96227 774
27.98239 798
28.0025 758
28.02261 639
28.04273 578
28.06284 496
28.08295 465
28.10307 393
28.12318 358
28.1433 346
28.16341 374
28.18352 332
28.20364 335
28.22375 373
28.24386 371
28.26398 371
28.28409 368
28.3042 375
28.32432 363
28.34443 356
28.36455 335
28.38466 327
28.40477 304
28.42489 298
28.445 285
28.46511 219
28.48523 280
28.50534 254
28.52546 247
28.54557 246
28.56568 242
28.5858 271
28.60591 248
28.62602 275
28.64614 260
28.66625 260
28.68636 247
28.70648 247
28.72659 233
28.74671 250
28.76682 252
28.78693 270
28.80705 267
28.82716 276
28.84727 233
28.86739 250
28.8875 230
28.90762 243
28.92773 232
28.94784 248
28.96796 273
28.98807 242
29.00818 263
29.0283 257
29.04841 235
29.06853 243
29.08864 263
29.10875 257
29.12887 258
29.14898 227
29.16909 248
29.18921 230
29.20932 257
29.22943 260
29.24955 271
29.26966 259
29.28978 260
29.30989 296
29.33 275
29.35012 317
29.37023 325
29.39034 386
29.41046 363
29.43057 354
29.45069 376
29.4708 351
29.49091 362
29.51103 357
29.53114 351
29.55125 333
29.57137 333
29.59148 289
29.6116 359
29.63171 337
29.65182 353
29.67194 382
29.69205 383
29.71216 390
29.73228 413
29.75239 457
29.7725 493
29.79262 493
29.81273 442
29.83285 457
29.85296 457
29.87307 443
29.89319 463
29.9133 424
29.93341 369
29.95353 385
29.97364 355
29.99376 404
30.01387 361
30.03398 383
30.0541 377
30.07421 373
30.09432 403
30.11444 405
30.13455 408
30.15467 407
30.17478 429
30.19489 416
30.21501 465
30.23512 428
30.25523 395
30.27535 434
30.29546 404
30.31557 383
30.33569 400
30.3558 371
30.37592 370
30.39603 349
30.41614 374
30.43626 392
30.45637 380
30.47648 369
30.4966 332
30.51671 310
30.53683 302
30.55694 325
30.57705 292
30.59717 284
30.61728 308
30.63739 294
30.65751 350
30.67762 384
30.69773 446
30.71785 479
30.73796 528
30.75808 542
30.77819 573
30.7983 494
30.81842 545
30.83853 533
30.85864 473
30.87876 448
30.89887 412
30.91899 332
30.9391 331
30.95921 296
30.97933 258
30.99944 238
31.01955 240
31.03967 279
31.05978 268
31.0799 187
31.10001 238
31.12012 251
31.14024 232
31.16035 242
31.18046 251
31.20058 223
31.22069 245
31.2408 233
31.26092 260
31.28103 217
31.30115 298
31.32126 250
31.34137 252
31.36149 237
31.3816 273
31.40171 245
31.42183 270
31.44194 237
31.46206 243
31.48217 210
31.50228 198
31.5224 220
31.54251 220
31.56262 225
31.58274 193
31.60285 233
31.62297 230
31.64308 202
31.66319 210
31.68331 192
31.70342 220
31.72353 202
31.74365 207
31.76376 199
31.78387 190
31.80399 189
31.8241 204
31.84422 199
31.86433 213
31.88444 194
31.90456 190
31.92467 211
31.94478 217
31.9649 199
31.98501 201
32.00513 209
32.02524 241
32.04535 255
32.06547 262
32.08558 242
32.10569 258
32.12581 247
32.14592 239
32.16604 283
32.18615 288
32.20626 301
32.22638 290
32.24649 308
32.2666 285
32.28672 295
32.30683 332
32.32694 295
32.34706 287
32.36717 278
32.38729 356
32.4074 292
32.42751 315
32.44763 273
32.46774 296
32.48785 262
32.50797 284
32.52808 264
32.5482 219
32.56831 230
32.58842 209
32.60854 191
32.62865 182
32.64876 199
32.66888 223
32.68899 200
32.7091 185
32.72922 170
32.74933 202
32.76945 202
32.78956 194
32.80967 196
32.82979 198
32.8499 184
32.87001 187
32.89013 192
32.91024 190
32.93036 191
32.95047 165
32.97058 214
32.9907 178
33.01081 213
33.03092 196
33.05104 184
33.07115 208
33.09127 183
33.11138 223
33.13149 212
33.15161 206
33.17172 226
33.19183 199
33.21195 218
33.23206 207
33.25217 177
33.27229 211
33.2924 187
33.31252 204
33.33263 202
33.35274 204
33.37286 196
33.39297 216
33.41308 223
33.4332 190
33.45331 187
33.47343 170
33.49354 190
33.51365 204
33.53377 164
33.55388 171
33.57399 193
33.59411 174
33.61422 175
33.63434 180
33.65445 228
33.67456 192
33.69468 204
33.71479 180
33.7349 179
33.75502 191
33.77513 206
33.79524 243
33.81536 259
33.83547 233
33.85559 223
33.8757 201
33.89581 209
33.91593 219
33.93604 219
33.95615 230
33.97627 227
33.99638 241
34.0165 220
34.03661 228
34.05672 237
34.07684 248
34.09695 253
34.11706 290
34.13718 304
34.15729 306
34.17741 350
34.19752 355
34.21763 346
34.23775 340
34.25786 365
34.27797 356
34.29809 292
34.3182 338
34.33831 261
34.35843 270
34.37854 317
34.39866 325
34.41877 298
34.43888 293
34.459 315
34.47911 309
34.49922 341
34.51934 312
34.53945 277
34.55957 305
34.57968 275
34.59979 298
34.61991 328
34.64002 341
34.66013 288
34.68025 343
34.70036 337
34.72047 307
34.74059 356
34.7607 338
34.78082 341
34.80093 346
34.82104 350
34.84116 339
34.86127 325
34.88138 389
34.9015 337
34.92161 366
34.94173 331
34.96184 348
34.98195 395
35.00207 330
35.02218 350
35.04229 321
35.06241 375
35.08252 321
35.10264 359
35.12275 353
35.14286 345
35.16298 350
35.18309 325
35.2032 352
35.22332 336
35.24343 335
35.26354 397
35.28366 356
35.30377 357
35.32389 379
35.344 359
35.36411 351
35.38423 358
35.40434 343
35.42445 324
35.44457 348
35.46468 345
35.4848 350
35.50491 371
35.52502 365
35.54514 371
35.56525 386
35.58536 399
35.60548 336
35.62559 340
35.64571 314
35.66582 310
35.68593 324
35.70605 306
35.72616 317
35.74627 271
35.76639 292
35.7865 245
35.80661 262
35.82673 276
35.84684 271
35.86696 261
35.88707 303
35.90718 265
35.9273 267
35.94741 256
35.96752 248
35.98764 249
36.00775 254
36.02787 244
36.04798 258
36.06809 271
36.08821 254
36.10832 254
36.12843 251
36.14855 254
36.16866 266
36.18878 259
36.20889 299
36.229 274
36.24912 264
36.26923 321
36.28934 298
36.30946 337
36.32957 368
36.34968 443
36.3698 485
36.38991 556
36.41003 697
36.43014 883
36.45025 1079
36.47037 1282
36.49048 1555
36.51059 1571
36.53071 1781
36.55082 1680
36.57094 1430
36.59105 1251
36.61116 980
36.63128 888
36.65139 736
36.6715 544
36.69162 439
36.71173 366
36.73184 317
36.75196 294
36.77207 285
36.79219 276
36.8123 237
36.83241 243
36.85253 270
36.87264 283
36.89275 291
36.91287 305
36.93298 293
36.9531 307
36.97321 302
36.99332 309
37.01344 293
37.03355 326
37.05366 325
37.07378 278
37.09389 304
37.11401 269
37.13412 288
37.15423 273
37.17435 264
37.19446 255
37.21457 240
37.23469 228
37.2548 246
37.27491 252
37.29503 221
37.31514 198
37.33526 229
37.35537 226
37.37548 246
37.3956 240
37.41571 238
37.43582 212
37.45594 205
37.47605 217
37.49617 234
37.51628 238
37.53639 274
37.55651 234
37.57662 232
37.59673 254
37.61685 222
37.63696 220
37.65708 250
37.67719 223
37.6973 228
37.71742 226
37.73753 203
37.75764 212
37.77776 204
37.79787 206
37.81798 210
37.8381 231
37.85821 190
37.87833 184
37.89844 181
37.91855 192
37.93867 201
37.95878 207
37.97889 180
37.99901 193
38.01912 175
38.03924 189
38.05935 198
38.07946 171
38.09958 216
38.11969 190
38.1398 198
38.15992 244
38.18003 220
38.20015 200
38.22026 170
38.24037 191
38.26049 193
38.2806 224
38.30071 215
38.32083 205
38.34094 197
38.36105 221
38.38117 217
38.40128 187
38.4214 248
38.44151 219
38.46162 255
38.48174 275
38.50185 258
38.52196 272
38.54208 280
38.56219 273
38.58231 260
38.60242 270
38.62253 245
38.64265 267
38.66276 255
38.68287 240
38.70299 198
38.7231 221
38.74321 192
38.76333 191
38.78344 216
38.80356 213
38.82367 193
38.84378 212
38.8639 205
38.88401 231
38.90412 195
38.92424 190
38.94435 187
38.96447 206
38.98458 193
39.00469 212
39.02481 238
39.04492 230
39.06503 220
39.08515 222
39.10526 231
39.12538 237
39.14549 290
39.1656 267
39.18572 284
39.20583 289
39.22594 319
39.24606 337
39.26617 398
39.28628 464
39.3064 500
39.32651 642
39.34663 757
39.36674 923
39.38685 1192
39.40697 1349
39.42708 1422
39.44719 1520
39.46731 1505
39.48742 1278
39.50754 1120
39.52765 933
39.54776 857
39.56788 763
39.58799 634
39.6081 492
39.62822 344
39.64833 300
39.66845 240
39.68856 252
39.70867 253
39.72879 227
39.7489 213
39.76901 212
39.78913 217
39.80924 206
39.82935 206
39.84947 199
39.86958 231
39.8897 216
39.90981 208
39.92992 229
39.95004 201
39.97015 249
39.99026 247
40.01038 238
40.03049 247
40.05061 274
40.07072 244
40.09083 316
40.11095 294
40.13106 397
40.15117 399
40.17129 510
40.1914 601
40.21152 670
40.23163 763
40.25174 828
40.27186 851
40.29197 827
40.31208 721
40.3322 699
40.35231 539
40.37242 534
40.39254 517
40.41265 422
40.43277 315
40.45288 266
40.47299 256
40.49311 269
40.51322 226
40.53333 225
40.55345 221
40.57356 223
40.59368 197
40.61379 208
40.6339 189
40.65402 203
40.67413 223
40.69424 185
40.71436 207
40.73447 219
40.75458 201
40.7747 234
40.79481 233
40.81493 237
40.83504 233
40.85515 242
40.87527 231
40.89538 258
40.91549 220
40.93561 246
40.95572 197
40.97584 212
40.99595 242
41.01606 233
41.03618 211
41.05629 218
41.0764 211
41.09652 229
41.11663 197
41.13675 174
41.15686 185
41.17697 209
41.19709 198
41.2172 170
41.23731 212
41.25743 190
41.27754 180
41.29765 214
41.31777 203
41.33788 201
41.358 196
41.37811 192
41.39822 210
41.41834 213
41.43845 202
41.45856 209
41.47868 244
41.49879 235
41.51891 235
41.53902 266
41.55913 248
41.57925 275
41.59936 262
41.61947 281
41.63959 302
41.6597 328
41.67982 333
41.69993 423
41.72004 377
41.74016 420
41.76027 475
41.78038 486
41.8005 439
41.82061 446
41.84072 388
41.86084 370
41.88095 321
41.90107 344
41.92118 292
41.94129 280
41.96141 275
41.98152 253
42.00163 248
42.02175 231
42.04186 237
42.06198 226
42.08209 262
42.1022 228
42.12232 244
42.14243 258
42.16254 277
42.18266 268
42.20277 305
42.22289 310
42.243 372
42.26311 415
42.28323 452
42.30334 541
42.32345 628
42.34357 728
42.36368 940
42.38379 1037
42.40391 1134
42.42402 1250
42.44414 1148
42.46425 1087
42.48436 948
42.50448 756
42.52459 703
42.5447 656
42.56482 593
42.58493 492
42.60505 369
42.62516 325
42.64527 282
42.66539 327
42.6855 278
42.70561 296
42.72573 286
42.74584 291
42.76595 277
42.78607 276
42.80618 311
42.8263 256
42.84641 240
42.86652 262
42.88664 272
42.90675 236
42.92686 244
42.94698 231
42.96709 234
42.98721 255
43.00732 227
43.02743 202
43.04755 203
43.06766 217
43.08777 203
43.10789 210
43.128 192
43.14812 189
43.16823 195
43.18834 201
43.20846 184
43.22857 195
43.24868 201
43.2688 210
43.28891 172
43.30902 190
43.32914 207
43.34925 195
43.36937 180
43.38948 167
43.40959 189
43.42971 195
43.44982 180
43.46993 195
43.49005 195
43.51016 184
43.53028 199
43.55039 184
43.5705 214
43.59062 186
43.61073 209
43.63084 199
43.65096 196
43.67107 195
43.69119 201
43.7113 172
43.73141 173
43.75153 184
43.77164 174
43.79175 192
43.81187 196
43.83198 197
43.85209 193
43.87221 189
43.89232 186
43.91244 202
43.93255 191
43.95266 197
43.97278 186
43.99289 165
44.013 187
44.03312 199
44.05323 212
44.07335 216
44.09346 188
44.11357 216
44.13369 205
44.1538 209
44.17391 162
44.19403 192
44.21414 214
44.23426 202
44.25437 203
44.27448 202
44.2946 193
44.31471 180
44.33482 175
44.35494 161
44.37505 168
44.39516 162
44.41528 175
44.43539 186
44.45551 181
44.47562 197
44.49573 184
44.51585 168
44.53596 168
44.55607 175
44.57619 174
44.5963 202
44.61642 194
44.63653 205
44.65664 181
44.67676 187
44.69687 179
44.71698 180
44.7371 187
44.75721 174
44.77732 174
44.79744 165
44.81755 180
44.83767 182
44.85778 156
44.87789 179
44.89801 194
44.91812 184
44.93823 171
44.95835 186
44.97846 197
44.99858 193
45.01869 219
45.0388 178
45.05892 200
45.07903 183
45.09914 193
45.11926 194
45.13937 219
45.15949 197
45.1796 179
45.19971 204
45.21983 193
45.23994 207
45.26005 211
45.28017 203
45.30028 197
45.32039 220
45.34051 236
45.36062 220
45.38074 222
45.40085 246
45.42096 239
45.44108 255
45.46119 226
45.4813 261
45.50142 286
45.52153 282
45.54165 308
45.56176 361
45.58187 326
45.60199 385
45.6221 404
45.64221 472
45.66233 505
45.68244 582
45.70256 685
45.72267 739
45.74278 825
45.7629 861
45.78301 874
45.80312 811
45.82324 694
45.84335 605
45.86346 551
45.88358 509
45.90369 483
45.92381 447
45.94392 375
45.96403 285
45.98415 280
46.00426 257
46.02437 236
46.04449 212
46.0646 224
46.08472 216
46.10483 242
46.12494 232
46.14506 218
46.16517 207
46.18528 235
46.2054 201
46.22551 188
46.24563 213
46.26574 196
46.28585 194
46.30597 202
46.32608 188
46.34619 219
46.36631 200
46.38642 190
46.40653 172
46.42665 155
46.44676 199
46.46688 178
46.48699 200
46.5071 185
46.52722 161
46.54733 162
46.56744 180
46.58756 188
46.60767 176
46.62779 168
46.6479 157
46.66801 183
46.68813 170
46.70824 154
46.72835 168
46.74847 159
46.76858 186
46.78869 185
46.80881 185
46.82892 181
46.84904 167
46.86915 183
46.88926 186
46.90938 191
46.92949 210
46.9496 190
46.96972 176
46.98983 197
47.00995 215
47.03006 228
47.05017 218
47.07029 193
47.0904 260
47.11051 273
47.13063 263
47.15074 245
47.17086 234
47.19097 225
47.21108 220
47.2312 224
47.25131 240
47.27142 221
47.29154 241
47.31165 208
47.33176 214
47.35188 210
47.37199 217
47.39211 185
47.41222 246
47.43233 269
47.45245 217
47.47256 211
47.49267 235
47.51279 243
47.5329 247
47.55302 214
47.57313 220
47.59324 225
47.61336 207
47.63347 199
47.65358 196
47.6737 174
47.69381 177
47.71393 172
47.73404 190
47.75415 200
47.77427 171
47.79438 165
47.81449 149
47.83461 182
47.85472 159
47.87483 189
47.89495 169
47.91506 180
47.93518 155
47.95529 164
47.9754 187
47.99552 172
48.01563 183
48.03574 172
48.05586 188
48.07597 173
48.09609 184
48.1162 161
48.13631 192
48.15643 193
48.17654 182
48.19665 185
48.21677 173
48.23688 176
48.257 164
48.27711 193
48.29722 194
48.31734 193
48.33745 196
48.35756 186
48.37768 170
48.39779 175
48.4179 189
48.43802 182
48.45813 187
48.47825 197
48.49836 200
48.51847 183
48.53859 196
48.5587 177
48.57881 177
48.59893 193
48.61904 168
48.63916 199
48.65927 183
48.67938 211
48.6995 182
48.71961 215
48.73972 225
48.75984 193
48.77995 264
48.80006 235
48.82018 231
48.84029 203
48.86041 261
48.88052 247
48.90063 250
48.92075 241
48.94086 253
48.96097 233
48.98109 235
49.0012 263
49.02132 230
49.04143 260
49.06154 249
49.08166 248
49.10177 236
49.12188 241
49.142 244
49.16211 223
49.18223 233
49.20234 229
49.22245 213
49.24257 229
49.26268 231
49.28279 217
49.30291 176
49.32302 205
49.34313 228
49.36325 194
49.38336 197
49.40348 204
49.42359 174
49.4437 208
49.46382 214
49.48393 185
49.50404 222
49.52416 234
49.54427 235
49.56439 204
49.5845 224
49.60461 235
49.62473 244
49.64484 246
49.66495 260
49.68507 224
49.70518 251
49.7253 276
49.74541 310
49.76552 339
49.78564 345
49.80575 364
49.82586 380
49.84598 409
49.86609 442
49.8862 491
49.90632 581
49.92643 577
49.94655 710
49.96666 758
49.98677 948
50.00689 1296
50.027 1437
50.04711 1789
50.06723 2050
50.08734 2348
50.10746 2378
50.12757 2316
50.14768 2136
50.1678 1767
50.18791 1452
50.20802 1355
50.22814 1238
50.24825 1226
50.26837 1189
50.28848 959
50.30859 664
50.32871 510
50.34882 415
50.36893 381
50.38905 400
50.40916 357
50.42927 427
50.44939 474
50.4695 454
50.48962 479
50.50973 488
50.52984 501
50.54996 486
50.57007 457
50.59018 474
50.6103 444
50.63041 494
50.65053 418
50.67064 445
50.69075 388
50.71087 412
50.73098 382
50.75109 369
50.77121 312
50.79132 322
50.81143 318
50.83155 299
50.85166 284
50.87178 270
50.89189 260
50.912 254
50.93212 271
50.95223 235
50.97234 228
50.99246 224
51.01257 217
51.03269 217
51.0528 224
51.07291 211
51.09303 236
51.11314 198
51.13325 200
51.15337 183
51.17348 214
51.1936 198
51.21371 222
51.23382 223
51.25394 208
51.27405 243
51.29416 206
51.31428 240
51.33439 218
51.3545 189
51.37462 225
51.39473 202
51.41485 203
51.43496 202
51.45507 191
51.47519 175
51.4953 209
51.51541 203
51.53553 174
51.55564 162
51.57576 148
51.59587 169
51.61598 187
51.6361 166
51.65621 166
51.67632 180
51.69644 186
51.71655 159
51.73667 152
51.75678 169
51.77689 175
51.79701 173
51.81712 157
51.83723 157
51.85735 162
51.87746 173
51.89757 155
51.91769 177
51.9378 161
51.95792 156
51.97803 135
51.99814 149
52.01826 137
52.03837 158
52.05848 163
52.0786 162
52.09871 176
52.11883 165
52.13894 174
52.15905 163
52.17917 197
52.19928 176
52.21939 168
52.23951 165
52.25962 170
52.27974 149
52.29985 171
52.31996 167
52.34008 180
52.36019 191
52.3803 177
52.40042 176
52.42053 204
52.44064 176
52.46076 193
52.48087 167
52.50099 198
52.5211 190
52.54121 185
52.56133 167
52.58144 188
52.60155 176
52.62167 224
52.64178 210
52.6619 179
52.68201 201
52.70212 198
52.72224 182
52.74235 178
52.76246 206
52.78258 193
52.80269 185
52.8228 182
52.84292 192
52.86303 186
52.88315 183
52.90326 183
52.92337 193
52.94349 179
52.9636 172
52.98371 179
53.00383 170
53.02394 179
53.04406 169
53.06417 197
53.08428 199
53.1044 163
53.12451 188
53.14462 188
53.16474 163
53.18485 159
53.20497 169
53.22508 194
53.24519 178
53.26531 145
53.28542 172
53.30553 175
53.32565 203
53.34576 203
53.36587 165
53.38599 210
53.4061 169
53.42622 153
53.44633 221
53.46644 183
53.48656 181
53.50667 181
53.52678 193
53.5469 217
53.56701 173
53.58713 170
53.60724 177
53.62735 200
53.64747 157
53.66758 203
53.68769 193
53.70781 148
53.72792 168
53.74804 175
53.76815 192
53.78826 183
53.80838 183
53.82849 162
53.8486 201
53.86872 193
53.88883 195
53.90894 195
53.92906 209
53.94917 208
53.96929 202
53.9894 174
54.00951 221
54.02963 180
54.04974 192
54.06985 205
54.08997 220
54.11008 200
54.1302 194
54.15031 190
54.17042 184
54.19054 187
54.21065 179
54.23076 191
54.25088 196
54.27099 186
54.29111 202
54.31122 221
54.33133 188
54.35145 200
54.37156 197
54.39167 208
54.41179 203
54.4319 222
54.45201 207
54.47213 215
54.49224 201
54.51236 232
54.53247 231
54.55258 208
54.5727 255
54.59281 247
54.61292 241
54.63304 292
54.65315 327
54.67327 313
54.69338 344
54.71349 411
54.73361 473
54.75372 542
54.77383 622
54.79395 714
54.81406 782
54.83417 764
54.85429 764
54.8744 738
54.89452 638
54.91463 572
54.93474 514
54.95486 536
54.97497 488
54.99508 484
55.0152 474
55.03531 391
55.05543 333
55.07554 277
55.09565 300
55.11577 274
55.13588 265
55.15599 278
55.17611 303
55.19622 342
55.21634 375
55.23645 390
55.25656 435
55.27668 399
55.29679 444
55.3169 443
55.33702 420
55.35713 374
55.37724 354
55.39736 356
55.41747 361
55.43759 318
55.4577 316
55.47781 274
55.49793 259
55.51804 245
55.53815 207
55.55827 171
55.57838 203
55.5985 205
55.61861 205
55.63872 207
55.65884 216
55.67895 207
55.69906 199
55.71918 203
55.73929 189
55.75941 194
55.77952 194
55.79963 171
55.81975 180
55.83986 196
55.85997 181
55.88009 174
55.9002 187
55.92031 155
55.94043 162
55.96054 187
55.98066 181
56.00077 176
56.02088 170
56.041 190
56.06111 178
56.08122 196
56.10134 190
56.12145 188
56.14157 169
56.16168 156
56.18179 157
56.20191 182
56.22202 163
56.24213 159
56.26225 198
56.28236 158
56.30248 147
56.32259 193
56.3427 188
56.36282 160
56.38293 152
56.40304 167
56.42316 166
56.44327 171
56.46338 171
56.4835 170
56.50361 162
56.52373 184
56.54384 157
56.56395 165
56.58407 164
56.60418 211
56.62429 169
56.64441 180
56.66452 158
56.68464 189
56.70475 187
56.72486 185
56.74498 179
56.76509 192
56.7852 166
56.80532 176
56.82543 189
56.84554 177
56.86566 175
56.88577 160
56.90589 148
56.926 169
56.94611 182
56.96623 192
56.98634 181
57.00645 155
57.02657 170
57.04668 168
57.0668 177
57.08691 177
57.10702 178
57.12714 171
57.14725 202
57.16736 185
57.18748 208
57.20759 217
57.22771 222
57.24782 178
57.26793 192
57.28805 204
57.30816 196
57.32827 189
57.34839 198
57.3685 201
57.38861 171
57.40873 176
57.42884 204
57.44896 199
57.46907 182
57.48918 193
57.5093 182
57.52941 177
57.54952 190
57.56964 186
57.58975 175
57.60987 169
57.62998 191
57.65009 211
57.67021 169
57.69032 182
57.71043 197
57.73055 183
57.75066 176
57.77078 164
57.79089 171
57.811 163
57.83112 177
57.85123 162
57.87134 177
57.89146 152
57.91157 172
57.93168 160
57.9518 171
57.97191 160
57.99203 156
58.01214 171
58.03225 160
58.05237 173
58.07248 165
58.09259 133
58.11271 183
58.13282 181
58.15294 159
58.17305 166
58.19316 166
58.21328 160
58.23339 150
58.2535 179
58.27362 155
58.29373 175
58.31385 194
58.33396 151
58.35407 160
58.37419 192
58.3943 182
58.41441 192
58.43453 178
58.45464 188
58.47475 185
58.49487 156
58.51498 200
58.5351 189
58.55521 191
58.57532 205
58.59544 213
58.61555 188
58.63566 185
58.65578 207
58.67589 193
58.69601 201
58.71612 179
58.73623 216
58.75635 199
58.77646 174
58.79657 175
58.81669 180
58.8368 182
58.85691 176
58.87703 173
58.89714 201
58.91726 182
58.93737 155
58.95748 179
58.9776 150
58.99771 178
59.01782 164
59.03794 188
59.05805 185
59.07817 152
59.09828 155
59.11839 166
59.13851 171
59.15862 173
59.17873 180
59.19885 158
59.21896 178
59.23908 183
59.25919 148
59.2793 172
59.29942 163
59.31953 177
59.33964 196
59.35976 186
59.37987 215
59.39998 188
59.4201 206
59.44021 185
59.46033 189
59.48044 203
59.50055 210
59.52067 211
59.54078 205
59.56089 243
59.58101 233
59.60112 230
59.62124 280
59.64135 289
59.66146 305
59.68158 349
59.70169 391
59.7218 440
59.74192 470
59.76203 534
59.78215 655
59.80226 765
59.82237 903
59.84249 1075
59.8626 1255
59.88271 1416
59.90283 1567
59.92294 1545
59.94305 1513
59.96317 1415
59.98328 1093
60.0034 908
60.02351 831
60.04362 834
60.06374 843
60.08385 897
60.10396 798
60.12408 717
60.14419 571
60.16431 409
60.18442 323
60.20453 313
60.22465 252
60.24476 262
60.26487 251
60.28499 249
60.3051 212
60.32522 215
60.34533 235
60.36544 208
60.38556 207
60.40567 202
60.42578 214
60.4459 210
60.46601 186
60.48612 233
60.50624 194
60.52635 176
60.54647 185
60.56658 202
60.58669 192
60.60681 208
60.62692 181
60.64703 173
60.66715 187
60.68726 196
60.70738 196
60.72749 201
60.7476 191
60.76772 209
60.78783 200
60.80794 183
60.82806 191
60.84817 168
60.86828 191
60.8884 173
60.90851 203
60.92863 190
60.94874 210
60.96885 197
60.98897 204
61.00908 177
61.02919 205
61.04931 193
61.06942 219
61.08954 256
61.10965 225
61.12976 219
61.14988 196
61.16999 186
61.1901 233
61.21022 233
61.23033 192
61.25045 198
61.27056 188
61.29067 181
61.31079 193
61.3309 203
61.35101 170
61.37113 172
61.39124 196
61.41135 189
61.43147 170
61.45158 184
61.4717 164
61.49181 161
61.51192 171
61.53204 170
61.55215 182
61.57226 179
61.59238 172
61.61249 182
61.63261 210
61.65272 203
61.67283 185
61.69295 171
61.71306 185
61.73317 173
61.75329 164
61.7734 163
61.79352 181
61.81363 188
61.83374 169
61.85386 175
61.87397 188
61.89408 194
61.9142 184
61.93431 166
61.95442 218
61.97454 176
61.99465 168
62.01477 176
62.03488 190
62.05499 173
62.07511 203
62.09522 202
62.11533 189
62.13545 174
62.15556 206
62.17568 171
62.19579 196
62.2159 195
62.23602 213
62.25613 174
62.27624 207
62.29636 203
62.31647 169
62.33659 182
62.3567 205
62.37681 181
62.39693 195
62.41704 182
62.43715 199
62.45727 167
62.47738 172
62.49749 178
62.51761 168
62.53772 162
62.55784 175
62.57795 178
62.59806 170
62.61818 177
62.63829 197
62.6584 177
62.67852 195
62.69863 180
62.71875 185
62.73886 201
62.75897 195
62.77909 190
62.7992 181
62.81931 219
62.83943 184
62.85954 199
62.87965 166
62.89977 183
62.91988 190
62.94 198
62.96011 197
62.98022 187
63.00034 194
63.02045 216
63.04056 203
63.06068 212
63.08079 205
63.10091 215
63.12102 211
63.14113 192
63.16125 171
63.18136 193
63.20147 197
63.22159 193
63.2417 207
63.26182 183
63.28193 187
63.30204 173
63.32216 160
63.34227 208
63.36238 195
63.3825 184
63.40261 173
63.42272 186
63.44284 174
63.46295 213
63.48307 184
63.50318 178
63.52329 191
63.54341 170
63.56352 179
63.58363 209
63.60375 203
63.62386 201
63.64398 168
63.66409 218
63.6842 247
63.70432 250
63.72443 224
63.74454 254
63.76466 252
63.78477 256
63.80489 268
63.825 272
63.84511 288
63.86523 313
63.88534 337
63.90545 388
63.92557 379
63.94568 416
63.96579 501
63.98591 442
64.00602 421
64.02614 407
64.04625 367
64.06636 322
64.08648 318
64.10659 314
64.1267 330
64.14682 317
64.16693 324
64.18705 296
64.20716 278
64.22727 282
64.24739 227
64.2675 220
64.28761 185
64.30773 193
64.32784 167
64.34796 188
64.36807 171
64.38818 182
64.4083 166
64.42841 177
64.44852 156
64.46864 146
64.48875 140
64.50886 164
64.52898 175
64.54909 170
64.56921 168
64.58932 181
64.60943 175
64.62955 191
64.64966 165
64.66977 156
64.68989 169
64.71 165
64.73012 162
64.75023 144
64.77034 146
64.79046 176
64.81057 170
64.83068 152
64.8508 174
64.87091 158
64.89102 156
64.91114 178
64.93125 172
64.95137 155
64.97148 198
64.99159 178
65.01171 170
65.03182 168
65.05193 194
65.07205 182
65.09216 195
65.11228 177
65.13239 190
65.1525 172
65.17262 205
65.19273 188
65.21284 201
65.23296 222
65.25307 188
65.27319 191
65.2933 193
65.31341 199
65.33353 217
65.35364 194
65.37375 194
65.39387 196
65.41398 183
65.43409 184
65.45421 222
65.47432 194
65.49444 184
65.51455 189
65.53466 193
65.55478 174
65.57489 163
65.595 191
65.61512 184
65.63523 196
65.65535 197
65.67546 201
65.69557 213
65.71569 222
65.7358 209
65.75591 191
65.77603 178
65.79614 172
65.81626 192
65.83637 164
65.85648 200
65.8766 197
65.89671 165
65.91682 193
65.93694 152
65.95705 167
65.97716 173
65.99728 180
66.01739 168
66.03751 179
66.05762 163
66.07773 169
66.09785 172
66.11796 182
66.13807 181
66.15819 166
66.1783 175
66.19842 179
66.21853 163
66.23864 198
66.25876 175
66.27887 188
66.29898 184
66.3191 211
66.33921 173
66.35933 191
66.37944 206
66.39955 191
66.41967 179
66.43978 207
66.45989 183
66.48001 174
66.50012 185
66.52023 186
66.54035 185
66.56046 186
66.58058 195
66.60069 142
66.6208 169
66.64092 176
66.66103 165
66.68114 162
66.70126 144
66.72137 160
66.74149 178
66.7616 184
66.78171 142
66.80183 148
66.82194 183
66.84205 177
66.86217 172
66.88228 173
66.90239 152
66.92251 158
66.94262 177
66.96274 177
66.98285 185
67.00296 177
67.02308 180
67.04319 176
67.0633 165
67.08342 205
67.10353 192
67.12365 185
67.14376 187
67.16387 203
67.18399 169
67.2041 188
67.22421 201
67.24433 196
67.26444 178
67.28456 182
67.30467 219
67.32478 198
67.3449 222
67.36501 236
67.38512 214
67.40524 206
67.42535 262
67.44546 247
67.46558 290
67.48569 326
67.50581 323
67.52592 346
67.54603 418
67.56615 470
67.58626 530
67.60637 583
67.62649 706
67.6466 798
67.66672 893
67.68683 945
67.70694 930
67.72706 948
67.74717 816
67.76728 721
67.7874 628
67.80751 641
67.82763 614
67.84774 656
67.86785 728
67.88797 683
67.90808 742
67.92819 706
67.94831 745
67.96842 718
67.98853 711
68.00865 866
68.02876 935
68.04888 1082
68.06899 1072
68.0891 1222
68.10922 1290
68.12933 1226
68.14944 1160
68.16956 1078
68.18967 977
68.20979 1018
68.2299 1059
68.25001 1155
68.27013 1206
68.29024 1124
68.31035 1104
68.33047 917
68.35058 713
68.3707 656
68.39081 557
68.41092 509
68.43104 484
68.45115 527
68.47126 476
68.49138 445
68.51149 414
68.5316 328
68.55172 278
68.57183 271
68.59195 239
68.61206 205
68.63217 213
68.65229 188
68.6724 190
68.69251 191
68.71263 195
68.73274 195
68.75286 202
68.77297 177
68.79308 172
68.8132 188
68.83331 172
68.85342 191
68.87354 182
68.89365 179
68.91376 148
68.93388 180
68.95399 166
68.97411 174
68.99422 160
69.01433 158
69.03445 176
69.05456 153
69.07467 169
69.09479 149
69.1149 135
69.13502 140
69.15513 166
69.17524 158
69.19536 168
69.21547 141
69.23558 171
69.2557 164
69.27581 139
69.29593 178
69.31604 199
69.33615 174
69.35627 156
69.37638 139
69.39649 157
69.41661 154
69.43672 137
69.45683 137
69.47695 168
69.49706 151
69.51718 179
69.53729 174
69.5574 141
69.57752 152
69.59763 166
69.61774 175
69.63786 155
69.65797 166
69.67809 161
69.6982 144
69.71831 138
69.73843 156
69.75854 149
69.77865 135
69.79877 178
69.81888 170
69.839 164
69.85911 149
69.87922 160
69.89934 174
69.91945 147
69.93956 153
69.95968 156
69.97979 155
69.9999 163
70.02002 175
70.04013 154
70.06025 151
70.08036 157
70.10047 146
70.12059 158
70.1407 143
70.16081 155
70.18093 155
70.20104 155
70.22116 169
70.24127 164
70.26138 135
70.2815 145
70.30161 155
70.32172 144
70.34184 156
70.36195 179
70.38207 154
70.40218 153
70.42229 134
70.44241 137
70.46252 171
70.48263 138
70.50275 157
70.52286 146
70.54297 136
70.56309 152
70.5832 152
70.60332 152
70.62343 161
70.64354 158
70.66366 146
70.68377 183
70.70388 150
70.724 171
70.74411 166
70.76423 153
70.78434 162
70.80445 159
70.82457 168
70.84468 175
70.86479 169
70.88491 139
70.90502 143
70.92513 162
70.94525 168
70.96536 147
70.98548 149
71.00559 160
71.0257 136
71.04582 157
71.06593 165
71.08604 148
71.10616 152
71.12627 151
71.14639 161
71.1665 165
71.18661 158
71.20673 162
71.22684 151
71.24695 147
71.26707 142
71.28718 168
71.3073 160
71.32741 161
71.34752 169
71.36764 140
71.38775 159
71.40786 161
71.42798 180
71.44809 176
71.4682 183
71.48832 154
71.50843 171
71.52855 203
71.54866 172
71.56877 179
71.58889 173
71.609 156
71.62911 166
71.64923 163
71.66934 167
71.68946 177
71.70957 157
71.72968 178
71.7498 154
71.76991 183
71.79002 153
71.81014 166
71.83025 153
71.85037 160
71.87048 156
71.89059 166
71.91071 154
71.93082 170
71.95093 153
71.97105 170
71.99116 158
72.01127 170
72.03139 147
72.0515 178
72.07162 167
72.09173 208
72.11184 161
72.13196 142
72.15207 201
72.17218 175
72.1923 164
72.21241 203
72.23253 175
72.25264 171
72.27275 179
72.29287 153
72.31298 172
72.33309 159
72.35321 146
72.37332 156
72.39344 141
72.41355 145
72.43366 170
72.45378 149
72.47389 159
72.494 154
72.51412 156
72.53423 144
72.55434 176
72.57446 150
72.59457 167
72.61469 159
72.6348 148
72.65491 149
72.67503 170
72.69514 151
72.71525 172
72.73537 170
72.75548 163
72.7756 175
72.79571 161
72.81582 168
72.83594 169
72.85605 176
72.87616 155
72.89628 169
72.91639 170
72.9365 187
72.95662 186
72.97673 160
72.99685 178
73.01696 189
73.03707 193
73.05719 196
73.0773 212
73.09741 195
73.11753 182
73.13764 182
73.15776 203
73.17787 199
73.19798 234
73.2181 231
73.23821 220
73.25832 227
73.27844 232
73.29855 261
73.31867 307
73.33878 328
73.35889 346
73.37901 419
73.39912 433
73.41923 421
73.43935 429
73.45946 386
73.47957 351
73.49969 350
73.5198 289
73.53992 251
73.56003 274
73.58014 290
73.60026 291
73.62037 317
73.64048 282
73.6606 269
73.68071 263
73.70083 247
73.72094 228
73.74105 213
73.76117 203
73.78128 179
73.80139 170
73.82151 181
73.84162 165
73.86174 160
73.88185 159
73.90196 161
73.92208 185
73.94219 186
73.9623 182
73.98242 156
74.00253 180
74.02264 157
74.04276 183
74.06287 135
74.08299 145
74.1031 172
74.12321 161
74.14333 159
74.16344 174
74.18355 155
74.20367 161
74.22378 136
74.2439 142
74.26401 141
74.28412 144
74.30424 176
74.32435 157
74.34446 170
74.36458 173
74.38469 176
74.40481 155
74.42492 154
74.44503 177
74.46515 154
74.48526 174
74.50537 163
74.52549 168
74.5456 151
74.56571 167
74.58583 158
74.60594 175
74.62606 170
74.64617 150
74.66628 163
74.6864 152
74.70651 156
74.72662 169
74.74674 176
74.76685 168
74.78697 165
74.80708 160
74.82719 174
74.84731 188
74.86742 160
74.88753 187
74.90765 173
74.92776 145
74.94787 157
74.96799 154
74.9881 166
75.00822 165
