3.00117 19248
3.02128 18763
3.0414 18461
3.06151 17838
3.08162 17253
3.10174 17260
3.12185 16573
3.14197 16242
3.16208 15639
3.18219 14890
3.20231 15192
3.22242 14451
3.24253 14065
3.26265 13442
3.28276 13123
3.30288 12930
3.32299 12221
3.3431 11942
3.36322 11800
3.38333 11080
3.40344 11099
3.42356 10446
3.44367 10261
3.46379 9944
3.4839 9510
3.50401 9520
3.52413 9090
3.54424 8756
3.56435 8472
3.58447 7904
3.60458 7703
3.62469 7354
3.64481 7375
3.66492 7035
3.68504 6580
3.70515 6521
3.72526 6242
3.74538 5917
3.76549 5584
3.7856 5244
3.80572 5300
3.82583 5081
3.84595 4863
3.86606 4616
3.88617 4434
3.90629 4154
3.9264 4053
3.94651 3862
3.96663 3672
3.98674 3372
4.00686 3484
4.02697 3302
4.04708 3037
4.0672 2902
4.08731 2793
4.10742 2846
4.12754 2579
4.14765 2362
4.16776 2281
4.18788 2256
4.20799 2240
4.22811 2158
4.24822 1960
4.26833 1924
4.28845 1831
4.30856 1779
4.32867 1838
4.34879 1669
4.3689 1587
4.38902 1593
4.40913 1616
4.42924 1607
4.44936 1463
4.46947 1432
4.48958 1366
4.5097 1427
4.52981 1420
4.54992 1310
4.57004 1268
4.59015 1145
4.61027 1173
4.63038 1276
4.65049 1141
4.67061 1132
4.69072 1064
4.71083 1107
4.73095 1151
4.75106 954
4.77118 1014
4.79129 908
4.8114 972
4.83152 974
4.85163 916
4.87174 931
4.89186 902
4.91197 868
4.93209 863
4.9522 760
4.97231 798
4.99243 771
5.01254 756
5.03265 741
5.05277 723
5.07288 699
5.09299 715
5.11311 734
5.13322 734
5.15334 649
5.17345 662
5.19356 637
5.21368 637
5.23379 632
5.2539 594
5.27402 602
5.29413 627
5.31425 579
5.33436 590
5.35447 493
5.37459 533
5.3947 494
5.41481 531
5.43493 490
5.45504 480
5.47516 463
5.49527 471
5.51538 469
5.5355 468
5.55561 457
5.57572 423
5.59584 383
5.61595 402
5.63606 398
5.65618 410
5.67629 450
5.69641 422
5.71652 395
5.73663 396
5.75675 382
5.77686 383
5.79697 375
5.81709 417
5.8372 354
5.85732 364
5.87743 343
5.89754 370
5.91766 375
5.93777 345
5.95788 340
5.978 358
5.99811 319
6.01823 351
6.03834 321
6.05845 344
6.07857 333
6.09868 350
6.11879 348
6.13891 320
6.15902 356
6.17913 328
6.19925 332
6.21936 315
6.23948 327
6.25959 294
6.2797 334
6.29982 298
6.31993 355
6.34004 336
6.36016 279
6.38027 318
6.40039 330
6.4205 303
6.44061 302
6.46073 324
6.48084 307
6.50095 299
6.52107 305
6.54118 289
6.56129 291
6.58141 284
6.60152 304
6.62164 303
6.64175 310
6.66186 291
6.68198 328
6.70209 314
6.7222 289
6.74232 311
6.76243 273
6.78255 308
6.80266 289
6.82277 305
6.84289 278
6.863 278
6.88311 295
6.90323 302
6.92334 283
6.94346 261
6.96357 289
6.98368 297
7.0038 308
7.02391 290
7.04402 295
7.06414 272
7.08425 309
7.10436 254
7.12448 284
7.14459 275
7.16471 267
7.18482 296
7.20493 288
7.22505 263
7.24516 287
7.26527 305
7.28539 294
7.3055 277
7.32562 298
7.34573 315
7.36584 286
7.38596 307
7.40607 289
7.42618 274
7.4463 273
7.46641 309
7.48653 266
7.50664 308
7.52675 262
7.54687 285
7.56698 330
7.58709 271
7.60721 287
7.62732 312
7.64743 288
7.66755 289
7.68766 279
7.70778 311
7.72789 288
7.748 262
7.76812 274
7.78823 262
7.80834 302
7.82846 263
7.84857 281
7.86869 304
7.8888 291
7.90891 277
7.92903 304
7.94914 257
7.96925 282
7.98937 291
8.00948 290
8.0296 279
8.04971 313
8.06982 286
8.08994 301
8.11005 301
8.13016 280
8.15028 310
8.17039 307
8.1905 295
8.21062 313
8.23073 269
8.25085 302
8.27096 289
8.29107 274
8.31119 276
8.3313 294
8.35141 276
8.37153 279
8.39164 325
8.41176 290
8.43187 294
8.45198 296
8.4721 292
8.49221 326
8.51232 285
8.53244 274
8.55255 296
8.57266 291
8.59278 298
8.61289 296
8.63301 306
8.65312 329
8.67323 317
8.69335 300
8.71346 301
8.73357 305
8.75369 309
8.7738 291
8.79392 318
8.81403 326
8.83414 311
8.85426 334
8.87437 316
8.89448 304
8.9146 312
8.93471 310
8.95483 280
8.97494 301
8.99505 338
9.01517 296
9.03528 265
9.05539 297
9.07551 291
9.09562 276
9.11573 308
9.13585 271
9.15596 305
9.17608 287
9.19619 309
9.2163 294
9.23642 278
9.25653 284
9.27664 306
9.29676 284
9.31687 309
9.33699 270
9.3571 285
9.37721 265
9.39733 300
9.41744 243
9.43755 220
9.45767 299
9.47778 282
9.4979 275
9.51801 314
9.53812 325
9.55824 271
9.57835 319
9.59846 281
9.61858 282
9.63869 292
9.6588 291
9.67892 283
9.69903 304
9.71915 272
9.73926 294
9.75937 318
9.77949 291
9.7996 276
9.81971 283
9.83983 277
9.85994 310
9.88006 282
9.90017 317
9.92028 311
9.9404 315
9.96051 308
9.98062 312
10.00074 297
10.02085 313
10.04097 299
10.06108 278
10.08119 295
10.10131 305
10.12142 274
10.14153 299
10.16165 267
10.18176 337
10.20187 279
10.22199 258
10.2421 308
10.26222 312
10.28233 296
10.30244 279
10.32256 297
10.34267 305
10.36278 290
10.3829 276
10.40301 272
10.42313 298
10.44324 287
10.46335 313
10.48347 265
10.50358 263
10.52369 268
10.54381 289
10.56392 316
10.58403 303
10.60415 346
10.62426 317
10.64438 306
10.66449 310
10.6846 294
10.70472 292
10.72483 308
10.74494 306
10.76506 307
10.78517 284
10.80529 271
10.8254 272
10.84551 292
10.86563 297
10.88574 320
10.90585 318
10.92597 296
10.94608 289
10.9662 311
10.98631 283
11.00642 336
11.02654 286
11.04665 322
11.06676 297
11.08688 266
11.10699 320
11.1271 304
11.14722 311
11.16733 299
11.18745 325
11.20756 333
11.22767 307
11.24779 294
11.2679 328
11.28801 330
11.30813 327
11.32824 305
11.34836 323
11.36847 347
11.38858 358
11.4087 339
11.42881 317
11.44892 317
11.46904 337
11.48915 368
11.50927 330
11.52938 323
11.54949 339
11.56961 369
11.58972 353
11.60983 337
11.62995 332
11.65006 363
11.67017 399
11.69029 356
11.7104 363
11.73052 357
11.75063 370
11.77074 384
11.79086 386
11.81097 409
11.83108 410
11.8512 441
11.87131 451
11.89143 451
11.91154 473
11.93165 489
11.95177 500
11.97188 504
11.99199 504
12.01211 533
12.03222 578
12.05234 595
12.07245 649
12.09256 673
12.11268 675
12.13279 692
12.1529 759
12.17302 776
12.19313 807
12.21324 738
12.23336 773
12.25347 903
12.27359 875
12.2937 888
12.31381 874
12.33393 841
12.35404 818
12.37415 792
12.39427 801
12.41438 820
12.4345 718
12.45461 703
12.47472 675
12.49484 615
12.51495 601
12.53506 506
12.55518 510
12.57529 511
12.5954 501
12.61552 476
12.63563 458
12.65575 429
12.67586 421
12.69597 372
12.71609 403
12.7362 398
12.75631 334
12.77643 354
12.79654 326
12.81666 356
12.83677 354
12.85688 365
12.877 312
12.89711 332
12.91722 338
12.93734 331
12.95745 311
12.97757 266
12.99768 287
13.01779 273
13.03791 278
13.05802 298
13.07813 253
13.09825 283
13.11836 262
13.13847 273
13.15859 275
13.1787 281
13.19882 266
13.21893 298
13.23904 282
13.25916 274
13.27927 278
13.29938 265
13.3195 288
13.33961 308
13.35973 289
13.37984 262
13.39995 289
13.42007 265
13.44018 300
13.46029 261
13.48041 270
13.50052 273
13.52064 271
13.54075 271
13.56086 238
13.58098 268
13.60109 290
13.6212 289
13.64132 238
13.66143 241
13.68154 239
13.70166 281
13.72177 279
13.74189 302
13.762 248
13.78211 268
13.80223 277
13.82234 250
13.84245 272
13.86257 240
13.88268 254
13.9028 288
13.92291 261
13.94302 296
13.96314 249
13.98325 265
14.00336 270
14.02348 232
14.04359 262
14.06371 246
14.08382 269
14.10393 243
14.12405 250
14.14416 248
14.16427 220
14.18439 227
14.2045 259
14.22461 284
14.24473 253
14.26484 241
14.28496 244
14.30507 261
14.32518 254
14.3453 281
14.36541 232
14.38552 238
14.40564 281
14.42575 247
14.44587 236
14.46598 243
14.48609 243
14.50621 260
14.52632 259
14.54643 234
14.56655 272
14.58666 215
14.60677 260
14.62689 249
14.647 264
14.66712 271
14.68723 250
14.70734 255
14.72746 250
14.74757 271
14.76768 282
14.7878 246
14.80791 257
14.82803 251
14.84814 226
14.86825 254
14.88837 233
14.90848 223
14.92859 218
14.94871 204
14.96882 266
14.98894 268
15.00905 231
15.02916 235
15.04928 244
15.06939 232
15.0895 248
15.10962 226
15.12973 258
15.14984 229
15.16996 239
15.19007 253
15.21019 245
15.2303 253
15.25041 237
15.27053 209
15.29064 269
15.31075 247
15.33087 240
15.35098 234
15.3711 284
15.39121 253
15.41132 233
15.43144 226
15.45155 254
15.47166 249
15.49178 215
15.51189 260
15.53201 270
15.55212 223
15.57223 268
15.59235 234
15.61246 253
15.63257 251
15.65269 238
15.6728 271
15.69291 254
15.71303 237
15.73314 243
15.75326 241
15.77337 263
15.79348 248
15.8136 280
15.83371 263
15.85382 231
15.87394 237
15.89405 243
15.91417 259
15.93428 207
15.95439 230
15.97451 227
15.99462 233
16.01473 247
16.03485 247
16.05496 217
16.07508 273
16.09519 223
16.1153 232
16.13542 221
16.15553 249
16.17564 240
16.19576 238
16.21587 229
16.23598 275
16.2561 215
16.27621 226
16.29633 244
16.31644 252
16.33655 268
16.35667 231
16.37678 251
16.39689 269
16.41701 263
16.43712 232
16.45724 248
16.47735 277
16.49746 269
16.51758 253
16.53769 278
16.5578 254
16.57792 255
16.59803 244
16.61814 221
16.63826 251
16.65837 224
16.67849 249
16.6986 232
16.71871 245
16.73883 228
16.75894 230
16.77905 258
16.79917 220
16.81928 254
16.8394 222
16.85951 236
16.87962 276
16.89974 223
16.91985 250
16.93996 243
16.96008 236
16.98019 264
17.00031 228
17.02042 261
17.04053 229
17.06065 236
17.08076 224
17.10087 225
17.12099 247
17.1411 215
17.16121 217
17.18133 223
17.20144 214
17.22156 226
17.24167 232
17.26178 248
17.2819 236
17.30201 239
17.32212 241
17.34224 233
17.36235 266
17.38247 220
17.40258 222
17.42269 234
17.44281 244
17.46292 214
17.48303 233
17.50315 228
17.52326 213
17.54338 263
17.56349 244
17.5836 288
17.60372 248
17.62383 221
17.64394 224
17.66406 262
17.68417 208
17.70428 270
17.7244 256
17.74451 264
17.76463 272
17.78474 250
17.80485 255
17.82497 242
17.84508 238
17.86519 266
17.88531 230
17.90542 241
17.92554 269
17.94565 269
17.96576 231
17.98588 246
18.00599 244
18.0261 251
18.04622 225
18.06633 271
18.08645 270
18.10656 260
18.12667 264
18.14679 302
18.1669 286
18.18701 281
18.20713 293
18.22724 274
18.24735 321
18.26747 308
18.28758 287
18.3077 354
18.32781 265
18.34792 283
18.36804 271
18.38815 240
18.40826 282
18.42838 246
18.44849 249
18.46861 257
18.48872 268
18.50883 263
18.52895 247
18.54906 238
18.56917 253
18.58929 262
18.6094 245
18.62951 250
18.64963 248
18.66974 265
18.68986 222
18.70997 256
18.73008 233
18.7502 255
18.77031 261
18.79042 236
18.81054 241
18.83065 255
18.85077 244
18.87088 235
18.89099 266
18.91111 241
18.93122 240
18.95133 250
18.97145 297
18.99156 249
19.01168 251
19.03179 217
19.0519 247
19.07202 237
19.09213 258
19.11224 221
19.13236 233
19.15247 251
19.17258 247
19.1927 246
19.21281 239
19.23293 228
19.25304 248
19.27315 279
19.29327 247
19.31338 259
19.33349 273
19.35361 237
19.37372 276
19.39384 287
19.41395 279
19.43406 281
19.45418 288
19.47429 305
19.4944 306
19.51452 291
19.53463 274
19.55475 311
19.57486 334
19.59497 323
19.61509 312
19.6352 367
19.65531 357
19.67543 430
19.69554 423
19.71565 470
19.73577 509
19.75588 565
19.776 613
19.79611 667
19.81622 697
19.83634 700
19.85645 729
19.87656 746
19.89668 710
19.91679 746
19.93691 730
19.95702 693
19.97713 716
19.99725 667
20.01736 660
20.03747 677
20.05759 693
20.0777 627
20.09782 662
20.11793 608
20.13804 659
20.15816 658
20.17827 678
20.19838 621
20.2185 619
20.23861 723
20.25872 723
20.27884 709
20.29895 643
20.31907 616
20.33918 651
20.35929 680
20.37941 694
20.39952 693
20.41963 664
20.43975 677
20.45986 740
20.47998 689
20.50009 758
20.5202 718
20.54032 781
20.56043 815
20.58054 804
20.60066 868
20.62077 949
20.64088 982
20.661 1164
20.68111 1325
20.70123 1643
20.72134 2011
20.74145 2578
20.76157 3266
20.78168 3986
20.80179 4468
20.82191 4866
20.84202 4894
20.86214 4470
20.88225 3827
20.90236 2994
20.92248 2281
20.94259 1646
20.9627 1310
20.98282 1013
21.00293 894
21.02305 838
21.04316 769
21.06327 757
21.08339 757
21.1035 658
21.12361 677
21.14373 674
21.16384 686
21.18395 652
21.20407 647
21.22418 610
21.2443 595
21.26441 699
21.28452 641
21.30464 620
21.32475 651
21.34486 632
21.36498 660
21.38509 616
21.40521 586
21.42532 598
21.44543 594
21.46555 556
21.48566 581
21.50577 536
21.52589 522
21.546 549
21.56612 554
21.58623 554
21.60634 521
21.62646 535
21.64657 496
21.66668 508
21.6868 506
21.70691 495
21.72702 472
21.74714 478
21.76725 519
21.78737 483
21.80748 469
21.82759 455
21.84771 450
21.86782 490
21.88793 441
21.90805 450
21.92816 444
21.94828 473
21.96839 444
21.9885 435
22.00862 412
22.02873 438
22.04884 422
22.06896 441
22.08907 436
22.10919 434
22.1293 394
22.14941 392
22.16953 382
22.18964 385
22.20975 429
22.22987 410
22.24998 413
22.27009 417
22.29021 408
22.31032 439
22.33044 439
22.35055 405
22.37066 385
22.39078 433
22.41089 443
22.431 451
22.45112 405
22.47123 413
22.49135 398
22.51146 406
22.53157 373
22.55169 353
22.5718 405
22.59191 432
22.61203 421
22.63214 397
22.65225 415
22.67237 385
22.69248 412
22.7126 401
22.73271 380
22.75282 388
22.77294 388
22.79305 348
22.81316 382
22.83328 338
22.85339 391
22.87351 416
22.89362 397
22.91373 379
22.93385 373
22.95396 353
22.97407 405
22.99419 377
23.0143 381
23.03442 394
23.05453 361
23.07464 382
23.09476 380
23.11487 401
23.13498 376
23.1551 394
23.17521 399
23.19532 362
23.21544 359
23.23555 344
23.25567 366
23.27578 367
23.29589 381
23.31601 373
23.33612 337
23.35623 377
23.37635 345
23.39646 322
23.41658 348
23.43669 400
23.4568 334
23.47692 353
23.49703 342
23.51714 349
23.53726 338
23.55737 339
23.57749 350
23.5976 365
23.61771 361
23.63783 350
23.65794 333
23.67805 405
23.69817 371
23.71828 380
23.73839 381
23.75851 383
23.77862 359
23.79874 416
23.81885 391
23.83896 383
23.85908 396
23.87919 384
23.8993 373
23.91942 416
23.93953 434
23.95965 413
23.97976 430
23.99987 461
24.01999 383
24.0401 435
24.06021 377
24.08033 408
24.10044 426
24.12056 396
24.14067 402
24.16078 388
24.1809 402
24.20101 392
24.22112 460
24.24124 427
24.26135 380
24.28146 414
24.30158 430
24.32169 418
24.34181 441
24.36192 464
24.38203 410
24.40215 443
24.42226 436
24.44237 460
24.46249 409
24.4826 504
24.50272 498
24.52283 525
24.54294 496
24.56306 507
24.58317 506
24.60328 550
24.6234 604
24.64351 608
24.66362 630
24.68374 597
24.70385 639
24.72397 685
24.74408 657
24.76419 734
24.78431 756
24.80442 826
24.82453 787
24.84465 768
24.86476 742
24.88488 767
24.90499 727
24.9251 711
24.94522 676
24.96533 673
24.98544 656
25.00556 625
25.02567 596
25.04579 609
25.0659 574
25.08601 566
25.10613 529
25.12624 575
25.14635 574
25.16647 523
25.18658 485
25.20669 518
25.22681 489
25.24692 476
25.26704 505
25.28715 469
25.30726 492
25.32738 442
25.34749 441
25.3676 457
25.38772 427
25.40783 438
25.42795 413
25.44806 452
25.46817 425
25.48829 389
25.5084 440
25.52851 423
25.54863 427
25.56874 446
25.58886 425
25.60897 433
25.62908 411
25.6492 490
25.66931 489
25.68942 475
25.70954 489
25.72965 508
25.74976 524
25.76988 521
25.78999 544
25.81011 533
25.83022 556
25.85033 544
25.87045 565
25.89056 554
25.91067 585
25.93079 605
25.9509 608
25.97102 685
25.99113 658
26.01124 701
26.03136 695
26.05147 736
26.07158 729
26.0917 757
26.11181 781
26.13193 798
26.15204 829
26.17215 848
26.19227 976
26.21238 910
26.23249 960
26.25261 1110
26.27272 1218
26.29283 1270
26.31295 1410
26.33306 1590
26.35318 1823
26.37329 2048
26.3934 2522
26.41352 3177
26.43363 3798
26.45374 4965
26.47386 6411
26.49397 8280
26.51409 10699
26.5342 13487
26.55431 16827
26.57443 19508
26.59454 21322
26.61465 21150
26.63477 19470
26.65488 16635
26.67499 12823
26.69511 10076
26.71522 7439
26.73534 5135
26.75545 3523
26.77556 2462
26.79568 1966
26.81579 1705
26.8359 1402
26.85602 1242
26.87613 1139
26.89625 1067
26.91636 937
26.93647 924
26.95659 823
26.9767 766
26.99681 695
27.01693 625
27.03704 602
27.05716 590
27.07727 569
27.09738 561
27.1175 520
27.13761 506
27.15772 516
27.17784 483
27.19795 507
27.21806 470
27.23818 468
27.25829 493
27.27841 417
27.29852 450
27.31863 424
27.33875 436
27.35886 435
27.37897 410
27.39909 425
27.4192 428
27.43932 405
27.45943 414
27.47954 403
27.49966 397
27.51977 382
27.53988 381
27.56 381
27.58011 404
27.60023 368
27.62034 384
27.64045 398
27.66057 371
27.68068 377
27.70079 374
27.72091 371
27.74102 356
27.76113 416
27.78125 403
27.80136 374
27.82148 348
27.84159 333
27.8617 405
27.88182 373
27.90193 365
27.92204 365
27.94216 330
27.96227 352
27.98239 343
28.0025 346
28.02261 373
28.04273 342
28.06284 354
28.08295 353
28.10307 361
28.12318 325
28.1433 366
28.16341 332
28.18352 332
28.20364 326
28.22375 348
28.24386 312
28.26398 312
28.28409 354
28.3042 308
28.32432 307
28.34443 354
28.36455 348
28.38466 303
28.40477 359
28.42489 340
28.445 298
28.46511 300
28.48523 324
28.50534 321
28.52546 338
28.54557 330
28.56568 275
28.5858 288
28.60591 313
28.62602 284
28.64614 334
28.66625 323
28.68636 326
28.70648 313
28.72659 305
28.74671 333
28.76682 298
28.78693 318
28.80705 305
28.82716 307
28.84727 283
28.86739 316
28.8875 324
28.90762 273
28.92773 320
28.94784 305
28.96796 324
28.98807 305
29.00818 288
29.0283 269
29.04841 294
29.06853 307
29.08864 261
29.10875 282
29.12887 281
29.14898 259
29.16909 295
29.18921 270
29.20932 272
29.22943 302
29.24955 295
29.26966 282
29.28978 267
29.30989 282
29.33 299
29.35012 310
29.37023 300
29.39034 277
29.41046 268
29.43057 286
29.45069 280
29.4708 285
29.49091 283
29.51103 286
29.53114 265
29.55125 293
29.57137 326
29.59148 282
29.6116 270
29.63171 288
29.65182 281
29.67194 290
29.69205 297
29.71216 309
29.73228 301
29.75239 288
29.7725 297
29.79262 288
29.81273 277
29.83285 302
29.85296 318
29.87307 267
29.89319 271
29.9133 306
29.93341 279
29.95353 298
29.97364 280
29.99376 267
30.01387 275
30.03398 280
30.0541 290
30.07421 273
30.09432 281
30.11444 248
30.13455 279
30.15467 281
30.17478 299
30.19489 298
30.21501 286
30.23512 287
30.25523 288
30.27535 267
30.29546 298
30.31557 261
30.33569 275
30.3558 274
30.37592 269
30.39603 278
30.41614 301
30.43626 295
30.45637 250
30.47648 257
30.4966 257
30.51671 284
30.53683 250
30.55694 282
30.57705 272
30.59717 258
30.61728 285
30.63739 256
30.65751 255
30.67762 294
30.69773 265
30.71785 278
30.73796 279
30.75808 283
30.77819 292
30.7983 276
30.81842 303
30.83853 269
30.85864 304
30.87876 272
30.89887 294
30.91899 300
30.9391 270
30.95921 250
30.97933 284
30.99944 264
31.01955 262
31.03967 262
31.05978 300
31.0799 262
31.10001 290
31.12012 264
31.14024 257
31.16035 283
31.18046 306
31.20058 261
31.22069 279
31.2408 248
31.26092 273
31.28103 255
31.30115 272
31.32126 284
31.34137 305
31.36149 239
31.3816 261
31.40171 259
31.42183 259
31.44194 236
31.46206 276
31.48217 260
31.50228 252
31.5224 265
31.54251 269
31.56262 270
31.58274 261
31.60285 264
31.62297 247
31.64308 253
31.66319 256
31.68331 251
31.70342 241
31.72353 242
31.74365 258
31.76376 275
31.78387 276
31.80399 247
31.8241 254
31.84422 244
31.86433 220
31.88444 265
31.90456 279
31.92467 238
31.94478 271
31.9649 269
31.98501 261
32.00513 300
32.02524 270
32.04535 264
32.06547 248
32.08558 281
32.10569 246
32.12581 251
32.14592 283
32.16604 236
32.18615 293
32.20626 265
32.22638 279
32.24649 239
32.2666 243
32.28672 307
32.30683 302
32.32694 271
32.34706 251
32.36717 291
32.38729 296
32.4074 271
32.42751 305
32.44763 277
32.46774 306
32.48785 307
32.50797 290
32.52808 328
32.5482 311
32.56831 288
32.58842 288
32.60854 288
32.62865 277
32.64876 278
32.66888 276
32.68899 302
32.7091 255
32.72922 268
32.74933 271
32.76945 288
32.78956 281
32.80967 291
32.82979 304
32.8499 308
32.87001 272
32.89013 270
32.91024 273
32.93036 285
32.95047 307
32.97058 304
32.9907 293
33.01081 290
33.03092 297
33.05104 281
33.07115 296
33.09127 285
33.11138 314
33.13149 329
33.15161 300
33.17172 316
33.19183 313
33.21195 282
33.23206 291
33.25217 355
33.27229 311
33.2924 317
33.31252 297
33.33263 330
33.35274 334
33.37286 309
33.39297 309
33.41308 335
33.4332 324
33.45331 298
33.47343 302
33.49354 299
33.51365 290
33.53377 305
33.55388 309
33.57399 300
33.59411 269
33.61422 287
33.63434 258
33.65445 274
33.67456 262
33.69468 277
33.71479 272
33.7349 283
33.75502 267
33.77513 288
33.79524 266
33.81536 297
33.83547 231
33.85559 248
33.8757 265
33.89581 263
33.91593 239
33.93604 293
33.95615 266
33.97627 229
33.99638 273
34.0165 251
34.03661 235
34.05672 223
34.07684 265
34.09695 233
34.11706 260
34.13718 249
34.15729 272
34.17741 219
34.19752 266
34.21763 249
34.23775 241
34.25786 265
34.27797 252
34.29809 273
34.3182 265
34.33831 240
34.35843 227
34.37854 277
34.39866 253
34.41877 285
34.43888 302
34.459 290
34.47911 288
34.49922 316
34.51934 279
34.53945 322
34.55957 309
34.57968 315
34.59979 318
34.61991 325
34.64002 314
34.66013 317
34.68025 327
34.70036 347
34.72047 366
34.74059 391
34.7607 396
34.78082 413
34.80093 440
34.82104 459
34.84116 469
34.86127 505
34.88138 481
34.9015 475
34.92161 484
34.94173 506
34.96184 497
34.98195 518
35.00207 508
35.02218 493
35.04229 457
35.06241 484
35.08252 455
35.10264 436
35.12275 451
35.14286 430
35.16298 464
35.18309 493
35.2032 503
35.22332 448
35.24343 481
35.26354 473
35.28366 431
35.30377 440
35.32389 468
35.344 433
35.36411 415
35.38423 412
35.40434 462
35.42445 465
35.44457 452
35.46468 446
35.4848 429
35.50491 427
35.52502 429
35.54514 397
35.56525 394
35.58536 401
35.60548 468
35.62559 494
35.64571 468
35.66582 483
35.68593 478
35.70605 459
35.72616 470
35.74627 477
35.76639 487
35.7865 488
35.80661 460
35.82673 501
35.84684 497
35.86696 489
35.88707 445
35.90718 475
35.9273 444
35.94741 480
35.96752 442
35.98764 449
36.00775 479
36.02787 421
36.04798 397
36.06809 464
36.08821 401
36.10832 428
36.12843 439
36.14855 423
36.16866 459
36.18878 427
36.20889 425
36.229 424
36.24912 442
36.26923 517
36.28934 537
36.30946 620
36.32957 662
36.34968 713
36.3698 759
36.38991 956
36.41003 1109
36.43014 1259
36.45025 1429
36.47037 1498
36.49048 1698
36.51059 1684
36.53071 1526
36.55082 1359
36.57094 1188
36.59105 1072
36.61116 957
36.63128 812
36.65139 699
36.6715 548
36.69162 516
36.71173 420
36.73184 433
36.75196 425
36.77207 377
36.79219 395
36.8123 373
36.83241 370
36.85253 387
36.87264 378
36.89275 392
36.91287 388
36.93298 385
36.9531 407
36.97321 384
36.99332 353
37.01344 382
37.03355 372
37.05366 372
37.07378 350
37.09389 397
37.11401 379
37.13412 371
37.15423 356
37.17435 336
37.19446 354
37.21457 376
37.23469 346
37.2548 347
37.27491 325
37.29503 370
37.31514 369
37.33526 371
37.35537 337
37.37548 346
37.3956 329
37.41571 333
37.43582 371
37.45594 348
37.47605 380
37.49617 360
37.51628 336
37.53639 370
37.55651 352
37.57662 360
37.59673 374
37.61685 370
37.63696 394
37.65708 372
37.67719 356
37.6973 387
37.71742 371
37.73753 374
37.75764 393
37.77776 359
37.79787 380
37.81798 365
37.8381 355
37.85821 380
37.87833 394
37.89844 375
37.91855 378
37.93867 400
37.95878 377
37.97889 397
37.99901 363
38.01912 397
38.03924 383
38.05935 401
38.07946 401
38.09958 439
38.11969 415
38.1398 374
38.15992 429
38.18003 421
38.20015 459
38.22026 436
38.24037 461
38.26049 476
38.2806 439
38.30071 483
38.32083 470
38.34094 467
38.36105 488
38.38117 482
38.40128 518
38.4214 459
38.44151 511
38.46162 480
38.48174 459
38.50185 491
38.52196 449
38.54208 433
38.56219 458
38.58231 410
38.60242 439
38.62253 419
38.64265 424
38.66276 408
38.68287 426
38.70299 405
38.7231 366
38.74321 413
38.76333 427
38.78344 419
38.80356 384
38.82367 366
38.84378 385
38.8639 392
38.88401 391
38.90412 416
38.92424 422
38.94435 463
38.96447 406
38.98458 391
39.00469 434
39.02481 404
39.04492 420
39.06503 425
39.08515 432
39.10526 462
39.12538 422
39.14549 491
39.1656 467
39.18572 511
39.20583 535
39.22594 586
39.24606 672
39.26617 716
39.28628 758
39.3064 941
39.32651 1058
39.34663 1162
39.36674 1361
39.38685 1500
39.40697 1566
39.42708 1456
39.44719 1438
39.46731 1285
39.48742 1129
39.50754 1015
39.52765 938
39.54776 793
39.56788 680
39.58799 554
39.6081 480
39.62822 455
39.64833 359
39.66845 357
39.68856 338
39.70867 365
39.72879 341
39.7489 330
39.76901 346
39.78913 322
39.80924 339
39.82935 336
39.84947 314
39.86958 328
39.8897 335
39.90981 321
39.92992 303
39.95004 353
39.97015 365
39.99026 331
40.01038 405
40.03049 362
40.05061 389
40.07072 426
40.09083 455
40.11095 495
40.13106 576
40.15117 606
40.17129 682
40.1914 772
40.21152 840
40.23163 865
40.25174 901
40.27186 825
40.29197 756
40.31208 716
40.3322 616
40.35231 564
40.37242 530
40.39254 467
40.41265 435
40.43277 381
40.45288 353
40.47299 333
40.49311 327
40.51322 334
40.53333 308
40.55345 356
40.57356 324
40.59368 307
40.61379 305
40.6339 310
40.65402 287
40.67413 335
40.69424 343
40.71436 336
40.73447 358
40.75458 320
40.7747 328
40.79481 345
40.81493 370
40.83504 430
40.85515 358
40.87527 368
40.89538 348
40.91549 319
40.93561 344
40.95572 333
40.97584 299
40.99595 329
41.01606 339
41.03618 331
41.05629 266
41.0764 297
41.09652 270
41.11663 311
41.13675 311
41.15686 289
41.17697 304
41.19709 304
41.2172 299
41.23731 287
41.25743 268
41.27754 293
41.29765 295
41.31777 278
41.33788 270
41.358 258
41.37811 284
41.39822 317
41.41834 245
41.43845 272
41.45856 307
41.47868 279
41.49879 271
41.51891 296
41.53902 263
41.55913 275
41.57925 257
41.59936 273
41.61947 274
41.63959 312
41.6597 274
41.67982 306
41.69993 296
41.72004 276
41.74016 270
41.76027 270
41.78038 269
41.8005 277
41.82061 316
41.84072 274
41.86084 258
41.88095 279
41.90107 266
41.92118 243
41.94129 284
41.96141 263
41.98152 283
42.00163 287
42.02175 271
42.04186 288
42.06198 351
42.08209 304
42.1022 334
42.12232 313
42.14243 335
42.16254 353
42.18266 371
42.20277 418
42.22289 438
42.243 511
42.26311 548
42.28323 627
42.30334 717
42.32345 824
42.34357 881
42.36368 1026
42.38379 1091
42.40391 1089
42.42402 1102
42.44414 964
42.46425 862
42.48436 816
42.50448 681
42.52459 640
42.5447 573
42.56482 497
42.58493 395
42.60505 350
42.62516 317
42.64527 306
42.66539 316
42.6855 273
42.70561 299
42.72573 304
42.74584 290
42.76595 275
42.78607 259
42.80618 275
42.8263 278
42.84641 288
42.86652 278
42.88664 245
42.90675 237
42.92686 266
42.94698 242
42.96709 253
42.98721 231
43.00732 248
43.02743 251
43.04755 231
43.06766 222
43.08777 230
43.10789 222
43.128 258
43.14812 271
43.16823 229
43.18834 242
43.20846 236
43.22857 255
43.24868 238
43.2688 248
43.28891 256
43.30902 236
43.32914 270
43.34925 229
43.36937 207
43.38948 230
43.40959 240
43.42971 244
43.44982 251
43.46993 227
43.49005 223
43.51016 202
43.53028 271
43.55039 246
43.5705 244
43.59062 211
43.61073 229
43.63084 257
43.65096 235
43.67107 243
43.69119 242
43.7113 244
43.73141 249
43.75153 251
43.77164 234
43.79175 259
43.81187 237
43.83198 237
43.85209 247
43.87221 245
43.89232 223
43.91244 227
43.93255 230
43.95266 221
43.97278 258
43.99289 225
44.013 223
44.03312 227
44.05323 265
44.07335 236
44.09346 241
44.11357 246
44.13369 244
44.1538 253
44.17391 242
44.19403 223
44.21414 178
44.23426 231
44.25437 213
44.27448 224
44.2946 252
44.31471 243
44.33482 221
44.35494 233
44.37505 205
44.39516 225
44.41528 230
44.43539 245
44.45551 235
44.47562 256
44.49573 254
44.51585 256
44.53596 219
44.55607 250
44.57619 222
44.5963 235
44.61642 233
44.63653 242
44.65664 234
44.67676 248
44.69687 257
44.71698 237
44.7371 227
44.75721 228
44.77732 235
44.79744 245
44.81755 243
44.83767 220
44.85778 266
44.87789 235
44.89801 250
44.91812 263
44.93823 253
44.95835 244
44.97846 280
44.99858 263
45.01869 240
45.0388 232
45.05892 279
45.07903 262
45.09914 250
45.11926 258
45.13937 269
45.15949 252
45.1796 268
45.19971 314
45.21983 275
45.23994 279
45.26005 277
45.28017 273
45.30028 314
45.32039 305
45.34051 278
45.36062 300
45.38074 298
45.40085 315
45.42096 290
45.44108 346
45.46119 349
45.4813 381
45.50142 315
45.52153 392
45.54165 388
45.56176 417
45.58187 448
45.60199 512
45.6221 543
45.64221 585
45.66233 659
45.68244 664
45.70256 756
45.72267 782
45.74278 801
45.7629 797
45.78301 760
45.80312 659
45.82324 579
45.84335 587
45.86346 564
45.88358 528
45.90369 415
45.92381 393
45.94392 346
45.96403 345
45.98415 325
46.00426 297
46.02437 305
46.04449 298
46.0646 296
46.08472 243
46.10483 283
46.12494 254
46.14506 289
46.16517 292
46.18528 276
46.2054 260
46.22551 261
46.24563 221
46.26574 257
46.28585 238
46.30597 243
46.32608 241
46.34619 252
46.36631 270
46.38642 281
46.40653 259
46.42665 234
46.44676 237
46.46688 254
46.48699 246
46.5071 285
46.52722 275
46.54733 241
46.56744 255
46.58756 279
46.60767 253
46.62779 254
46.6479 243
46.66801 265
46.68813 252
46.70824 235
46.72835 250
46.74847 250
46.76858 247
46.78869 201
46.80881 247
46.82892 235
46.84904 251
46.86915 228
46.88926 239
46.90938 245
46.92949 260
46.9496 239
46.96972 230
46.98983 242
47.00995 220
47.03006 254
47.05017 267
47.07029 209
47.0904 255
47.11051 247
47.13063 258
47.15074 254
47.17086 223
47.19097 251
47.21108 231
47.2312 236
47.25131 222
47.27142 241
47.29154 253
47.31165 239
47.33176 271
47.35188 230
47.37199 246
47.39211 242
47.41222 251
47.43233 234
47.45245 255
47.47256 275
47.49267 269
47.51279 232
47.5329 273
47.55302 236
47.57313 243
47.59324 231
47.61336 259
47.63347 226
47.65358 231
47.6737 250
47.69381 240
47.71393 250
47.73404 260
47.75415 255
47.77427 272
47.79438 255
47.81449 269
47.83461 268
47.85472 247
47.87483 274
47.89495 254
47.91506 249
47.93518 260
47.95529 236
47.9754 260
47.99552 237
48.01563 230
48.03574 258
48.05586 237
48.07597 246
48.09609 252
48.1162 237
48.13631 255
48.15643 250
48.17654 276
48.19665 223
48.21677 259
48.23688 239
48.257 241
48.27711 260
48.29722 241
48.31734 229
48.33745 258
48.35756 251
48.37768 232
48.39779 233
48.4179 231
48.43802 248
48.45813 281
48.47825 258
48.49836 228
48.51847 245
48.53859 259
48.5587 237
48.57881 255
48.59893 266
48.61904 260
48.63916 245
48.65927 247
48.67938 282
48.6995 285
48.71961 253
48.73972 239
48.75984 270
48.77995 219
48.80006 252
48.82018 269
48.84029 261
48.86041 249
48.88052 255
48.90063 243
48.92075 241
48.94086 237
48.96097 256
48.98109 241
49.0012 255
49.02132 246
49.04143 251
49.06154 241
49.08166 248
49.10177 232
49.12188 290
49.142 256
49.16211 254
49.18223 279
49.20234 276
49.22245 282
49.24257 289
49.26268 259
49.28279 274
49.30291 251
49.32302 281
49.34313 257
49.36325 264
49.38336 262
49.40348 292
49.42359 285
49.4437 279
49.46382 288
49.48393 284
49.50404 291
49.52416 299
49.54427 292
49.56439 298
49.5845 317
49.60461 303
49.62473 333
49.64484 340
49.66495 318
49.68507 340
49.70518 395
49.7253 382
49.74541 388
49.76552 408
49.78564 426
49.80575 474
49.82586 457
49.84598 541
49.86609 638
49.8862 667
49.90632 753
49.92643 934
49.94655 1015
49.96666 1219
49.98677 1439
50.00689 1594
50.027 1843
50.04711 2050
50.06723 2208
50.08734 2189
50.10746 2049
50.12757 1856
50.14768 1698
50.1678 1594
50.18791 1377
50.20802 1274
50.22814 1200
50.24825 988
50.26837 849
50.28848 678
50.30859 527
50.32871 415
50.34882 401
50.36893 376
50.38905 348
50.40916 347
50.42927 331
50.44939 320
50.4695 299
50.48962 351
50.50973 319
50.52984 311
50.54996 324
50.57007 297
50.59018 329
50.6103 307
50.63041 285
50.65053 286
50.67064 295
50.69075 274
50.71087 270
50.73098 311
50.75109 307
50.77121 252
50.79132 246
50.81143 235
50.83155 222
50.85166 256
50.87178 260
50.89189 218
50.912 243
50.93212 259
50.95223 256
50.97234 247
50.99246 255
51.01257 254
51.03269 270
51.0528 254
51.07291 220
51.09303 262
51.11314 236
51.13325 230
51.15337 249
51.17348 212
51.1936 230
51.21371 244
51.23382 246
51.25394 228
51.27405 224
51.29416 221
51.31428 239
51.33439 221
51.3545 240
51.37462 188
51.39473 211
51.41485 233
51.43496 213
51.45507 235
51.47519 233
51.4953 208
51.51541 205
51.53553 212
51.55564 204
51.57576 190
51.59587 208
51.61598 228
51.6361 214
51.65621 225
51.67632 194
51.69644 211
51.71655 247
51.73667 192
51.75678 223
51.77689 184
51.79701 224
51.81712 220
51.83723 228
51.85735 229
51.87746 199
51.89757 206
51.91769 206
51.9378 253
51.95792 195
51.97803 210
51.99814 209
52.01826 233
52.03837 212
52.05848 199
52.0786 218
52.09871 203
52.11883 222
52.13894 238
52.15905 213
52.17917 197
52.19928 233
52.21939 203
52.23951 237
52.25962 222
52.27974 220
52.29985 209
52.31996 202
52.34008 200
52.36019 234
52.3803 222
52.40042 201
52.42053 216
52.44064 217
52.46076 201
52.48087 201
52.50099 230
52.5211 196
52.54121 236
52.56133 218
52.58144 239
52.60155 229
52.62167 225
52.64178 202
52.6619 216
52.68201 215
52.70212 216
52.72224 217
52.74235 194
52.76246 222
52.78258 245
52.80269 234
52.8228 213
52.84292 231
52.86303 236
52.88315 241
52.90326 226
52.92337 237
52.94349 239
52.9636 225
52.98371 240
53.00383 227
53.02394 222
53.04406 270
53.06417 229
53.08428 247
53.1044 230
53.12451 221
53.14462 226
53.16474 260
53.18485 241
53.20497 217
53.22508 230
53.24519 220
53.26531 259
53.28542 214
53.30553 282
53.32565 258
53.34576 253
53.36587 248
53.38599 243
53.4061 262
53.42622 227
53.44633 228
53.46644 259
53.48656 239
53.50667 266
53.52678 265
53.5469 237
53.56701 244
53.58713 283
53.60724 270
53.62735 307
53.64747 240
53.66758 266
53.68769 242
53.70781 276
53.72792 286
53.74804 244
53.76815 277
53.78826 309
53.80838 285
53.82849 267
53.8486 297
53.86872 298
53.88883 264
53.90894 268
53.92906 270
53.94917 264
53.96929 326
53.9894 267
54.00951 310
54.02963 295
54.04974 313
54.06985 311
54.08997 299
54.11008 299
54.1302 319
54.15031 294
54.17042 324
54.19054 328
54.21065 315
54.23076 307
54.25088 341
54.27099 349
54.29111 286
54.31122 354
54.33133 321
54.35145 342
54.37156 334
54.39167 341
54.41179 346
54.4319 337
54.45201 384
54.47213 374
54.49224 354
54.51236 335
54.53247 420
54.55258 390
54.5727 358
54.59281 394
54.61292 421
54.63304 440
54.65315 471
54.67327 536
54.69338 560
54.71349 652
54.73361 668
54.75372 820
54.77383 828
54.79395 834
54.81406 881
54.83417 797
54.85429 797
54.8744 740
54.89452 681
54.91463 662
54.93474 596
54.95486 630
54.97497 578
54.99508 545
55.0152 503
55.03531 472
55.05543 435
55.07554 449
55.09565 446
55.11577 414
55.13588 485
55.15599 457
55.17611 491
55.19622 543
55.21634 521
55.23645 510
55.25656 594
55.27668 519
55.29679 507
55.3169 500
55.33702 503
55.35713 463
55.37724 441
55.39736 450
55.41747 418
55.43759 418
55.4577 382
55.47781 359
55.49793 305
55.51804 323
55.53815 315
55.55827 288
55.57838 302
55.5985 284
55.61861 294
55.63872 318
55.65884 306
55.67895 290
55.69906 283
55.71918 266
55.73929 320
55.75941 288
55.77952 291
55.79963 276
55.81975 298
55.83986 276
55.85997 302
55.88009 266
55.9002 274
55.92031 278
55.94043 275
55.96054 255
55.98066 276
56.00077 294
56.02088 236
56.041 281
56.06111 251
56.08122 240
56.10134 252
56.12145 266
56.14157 239
56.16168 262
56.18179 246
56.20191 266
56.22202 222
56.24213 261
56.26225 229
56.28236 276
56.30248 262
56.32259 249
56.3427 267
56.36282 257
56.38293 253
56.40304 233
56.42316 296
56.44327 263
56.46338 232
56.4835 263
56.50361 233
56.52373 273
56.54384 262
56.56395 257
56.58407 240
56.60418 249
56.62429 248
56.64441 266
56.66452 245
56.68464 265
56.70475 246
56.72486 249
56.74498 235
56.76509 248
56.7852 253
56.80532 261
56.82543 227
56.84554 244
56.86566 236
56.88577 233
56.90589 245
56.926 254
56.94611 248
56.96623 235
56.98634 236
57.00645 244
57.02657 252
57.04668 243
57.0668 260
57.08691 219
57.10702 266
57.12714 278
57.14725 249
57.16736 248
57.18748 298
57.20759 259
57.22771 261
57.24782 263
57.26793 244
57.28805 222
57.30816 240
57.32827 214
57.34839 251
57.3685 234
57.38861 254
57.40873 235
57.42884 212
57.44896 268
57.46907 220
57.48918 240
57.5093 254
57.52941 236
57.54952 261
57.56964 231
57.58975 239
57.60987 232
57.62998 238
57.65009 226
57.67021 245
57.69032 235
57.71043 252
57.73055 259
57.75066 246
57.77078 220
57.79089 239
57.811 203
57.83112 252
57.85123 220
57.87134 231
57.89146 225
57.91157 197
57.93168 236
57.9518 234
57.97191 241
57.99203 232
58.01214 246
58.03225 216
58.05237 216
58.07248 223
58.09259 224
58.11271 227
58.13282 230
58.15294 236
58.17305 231
58.19316 215
58.21328 234
58.23339 260
58.2535 248
58.27362 219
58.29373 202
58.31385 235
58.33396 210
58.35407 248
58.37419 232
58.3943 220
58.41441 241
58.43453 233
58.45464 248
58.47475 225
58.49487 239
58.51498 214
58.5351 240
58.55521 239
58.57532 204
58.59544 203
58.61555 235
58.63566 201
58.65578 233
58.67589 241
58.69601 267
58.71612 239
58.73623 211
58.75635 210
58.77646 235
58.79657 237
58.81669 208
58.8368 232
58.85691 228
58.87703 235
58.89714 270
58.91726 256
58.93737 238
58.95748 236
58.9776 229
58.99771 229
59.01782 234
59.03794 235
59.05805 254
59.07817 235
59.09828 260
59.11839 232
59.13851 261
59.15862 258
59.17873 233
59.19885 257
59.21896 251
59.23908 253
59.25919 227
59.2793 283
59.29942 250
59.31953 272
59.33964 287
59.35976 271
59.37987 268
59.39998 267
59.4201 276
59.44021 286
59.46033 290
59.48044 274
59.50055 304
59.52067 278
59.54078 311
59.56089 306
59.58101 337
59.60112 385
59.62124 374
59.64135 432
59.66146 459
59.68158 486
59.70169 536
59.7218 604
59.74192 699
59.76203 779
59.78215 875
59.80226 1007
59.82237 1146
59.84249 1222
59.8626 1359
59.88271 1480
59.90283 1370
59.92294 1371
59.94305 1190
59.96317 1087
59.98328 934
60.0034 932
60.02351 902
60.04362 873
60.06374 819
60.08385 806
60.10396 668
60.12408 540
60.14419 468
60.16431 415
60.18442 310
60.20453 337
60.22465 305
60.24476 294
60.26487 286
60.28499 238
60.3051 291
60.32522 273
60.34533 281
60.36544 262
60.38556 261
60.40567 218
60.42578 242
60.4459 262
60.46601 240
60.48612 228
60.50624 262
60.52635 266
60.54647 249
60.56658 267
60.58669 233
60.60681 255
60.62692 234
60.64703 246
60.66715 253
60.68726 257
60.70738 249
60.72749 209
60.7476 254
60.76772 268
60.78783 257
60.80794 231
60.82806 280
60.84817 226
60.86828 225
60.8884 232
60.90851 245
60.92863 273
60.94874 234
60.96885 256
60.98897 227
61.00908 216
61.02919 228
61.04931 239
61.06942 254
61.08954 242
61.10965 226
61.12976 220
61.14988 231
61.16999 242
61.1901 230
61.21022 242
61.23033 197
61.25045 229
61.27056 231
61.29067 238
61.31079 244
61.3309 230
61.35101 237
61.37113 230
61.39124 211
61.41135 218
61.43147 226
61.45158 226
61.4717 241
61.49181 257
61.51192 220
61.53204 240
61.55215 230
61.57226 245
61.59238 265
61.61249 266
61.63261 276
61.65272 245
61.67283 256
61.69295 240
61.71306 266
61.73317 261
61.75329 259
61.7734 267
61.79352 258
61.81363 268
61.83374 271
61.85386 236
61.87397 256
61.89408 286
61.9142 284
61.93431 295
61.95442 281
61.97454 324
61.99465 318
62.01477 316
62.03488 330
62.05499 321
62.07511 339
62.09522 375
62.11533 359
62.13545 390
62.15556 377
62.17568 390
62.19579 427
62.2159 447
62.23602 407
62.25613 357
62.27624 365
62.29636 406
62.31647 385
62.33659 400
62.3567 350
62.37681 370
62.39693 371
62.41704 333
62.43715 349
62.45727 303
62.47738 311
62.49749 314
62.51761 296
62.53772 298
62.55784 303
62.57795 284
62.59806 243
62.61818 243
62.63829 250
62.6584 266
62.67852 231
62.69863 239
62.71875 276
62.73886 266
62.75897 239
62.77909 249
62.7992 252
62.81931 248
62.83943 270
62.85954 218
62.87965 234
62.89977 239
62.91988 268
62.94 234
62.96011 211
62.98022 230
63.00034 249
63.02045 226
63.04056 219
63.06068 225
63.08079 241
63.10091 240
63.12102 258
63.14113 220
63.16125 232
63.18136 244
63.20147 222
63.22159 243
63.2417 243
63.26182 246
63.28193 240
63.30204 243
63.32216 237
63.34227 242
63.36238 207
63.3825 217
63.40261 240
63.42272 255
63.44284 255
63.46295 248
63.48307 221
63.50318 223
63.52329 258
63.54341 244
63.56352 248
63.58363 239
63.60375 232
63.62386 268
63.64398 247
63.66409 271
63.6842 266
63.70432 267
63.72443 297
63.74454 274
63.76466 273
63.78477 311
63.80489 330
63.825 338
63.84511 329
63.86523 391
63.88534 374
63.90545 388
63.92557 427
63.94568 471
63.96579 505
63.98591 389
64.00602 450
64.02614 426
64.04625 382
64.06636 369
64.08648 379
64.10659 343
64.1267 335
64.14682 376
64.16693 334
64.18705 321
64.20716 283
64.22727 266
64.24739 246
64.2675 267
64.28761 232
64.30773 227
64.32784 258
64.34796 211
64.36807 221
64.38818 226
64.4083 231
64.42841 219
64.44852 265
64.46864 256
64.48875 238
64.50886 239
64.52898 227
64.54909 226
64.56921 227
64.58932 209
64.60943 182
64.62955 190
64.64966 214
64.66977 204
64.68989 207
64.71 231
64.73012 216
64.75023 206
64.77034 207
64.79046 184
64.81057 192
64.83068 211
64.8508 206
64.87091 221
64.89102 199
64.91114 215
64.93125 199
64.95137 189
64.97148 205
64.99159 228
65.01171 202
65.03182 226
65.05193 222
65.07205 187
65.09216 223
65.11228 195
65.13239 218
65.1525 209
65.17262 250
65.19273 193
65.21284 212
65.23296 205
65.25307 193
65.27319 222
65.2933 211
65.31341 200
65.33353 213
65.35364 199
65.37375 216
65.39387 200
65.41398 194
65.43409 208
65.45421 206
65.47432 224
65.49444 237
65.51455 231
65.53466 218
65.55478 253
65.57489 252
65.595 243
65.61512 244
65.63523 240
65.65535 277
65.67546 245
65.69557 266
65.71569 270
65.7358 260
65.75591 242
65.77603 239
65.79614 261
65.81626 264
65.83637 247
65.85648 196
65.8766 231
65.89671 236
65.91682 223
65.93694 252
65.95705 217
65.97716 229
65.99728 220
66.01739 243
66.03751 234
66.05762 214
66.07773 199
66.09785 203
66.11796 185
66.13807 206
66.15819 233
66.1783 194
66.19842 184
66.21853 206
66.23864 237
66.25876 203
66.27887 218
66.29898 201
66.3191 220
66.33921 199
66.35933 232
66.37944 220
66.39955 206
66.41967 210
66.43978 224
66.45989 226
66.48001 224
66.50012 226
66.52023 234
66.54035 222
66.56046 219
66.58058 190
66.60069 204
66.6208 217
66.64092 210
66.66103 207
66.68114 206
66.70126 210
66.72137 230
66.74149 239
66.7616 203
66.78171 208
66.80183 206
66.82194 205
66.84205 225
66.86217 211
66.88228 240
66.90239 201
66.92251 217
66.94262 237
66.96274 193
66.98285 244
67.00296 230
67.02308 211
67.04319 216
67.0633 231
67.08342 244
67.10353 231
67.12365 215
67.14376 227
67.16387 257
67.18399 230
67.2041 244
67.22421 271
67.24433 275
67.26444 286
67.28456 277
67.30467 263
67.32478 319
67.3449 293
67.36501 303
67.38512 283
67.40524 313
67.42535 355
67.44546 366
67.46558 417
67.48569 444
67.50581 466
67.52592 541
67.54603 594
67.56615 557
67.58626 695
67.60637 772
67.62649 866
67.6466 842
67.66672 924
67.68683 975
67.70694 877
67.72706 843
67.74717 751
67.76728 706
67.7874 721
67.80751 752
67.82763 735
67.84774 761
67.86785 754
67.88797 814
67.90808 777
67.92819 803
67.94831 853
67.96842 916
67.98853 929
68.00865 1017
68.02876 1084
68.04888 1124
68.06899 1183
68.0891 1251
68.10922 1169
68.12933 1132
68.14944 1098
68.16956 1101
68.18967 1078
68.20979 1103
68.2299 1091
68.25001 1102
68.27013 1039
68.29024 1008
68.31035 854
68.33047 770
68.35058 650
68.3707 599
68.39081 575
68.41092 516
68.43104 517
68.45115 489
68.47126 444
68.49138 445
68.51149 435
68.5316 323
68.55172 309
68.57183 290
68.59195 297
68.61206 283
68.63217 266
68.65229 242
68.6724 253
68.69251 270
68.71263 220
68.73274 271
68.75286 247
68.77297 236
68.79308 213
68.8132 247
68.83331 241
68.85342 239
68.87354 236
68.89365 222
68.91376 215
68.93388 214
68.95399 245
68.97411 226
68.99422 223
69.01433 235
69.03445 204
69.05456 205
69.07467 218
69.09479 211
69.1149 222
69.13502 203
69.15513 187
69.17524 191
69.19536 212
69.21547 203
69.23558 200
69.2557 241
69.27581 195
69.29593 219
69.31604 201
69.33615 210
69.35627 205
69.37638 183
69.39649 210
69.41661 215
69.43672 213
69.45683 204
69.47695 208
69.49706 214
69.51718 200
69.53729 212
69.5574 227
69.57752 208
69.59763 179
69.61774 208
69.63786 217
69.65797 191
69.67809 217
69.6982 187
69.71831 198
69.73843 192
69.75854 207
69.77865 176
69.79877 213
69.81888 201
69.839 199
69.85911 217
69.87922 203
69.89934 221
69.91945 200
69.93956 184
69.95968 218
69.97979 209
69.9999 242
70.02002 214
70.04013 217
70.06025 223
70.08036 191
70.10047 195
70.12059 239
70.1407 204
70.16081 203
70.18093 218
70.20104 233
70.22116 215
70.24127 195
70.26138 218
70.2815 218
70.30161 201
70.32172 194
70.34184 218
70.36195 238
70.38207 220
70.40218 193
70.42229 190
70.44241 232
70.46252 229
70.48263 233
70.50275 196
70.52286 212
70.54297 214
70.56309 187
70.5832 212
70.60332 199
70.62343 209
70.64354 203
70.66366 191
70.68377 197
70.70388 215
70.724 204
70.74411 211
70.76423 208
70.78434 174
70.80445 197
70.82457 209
70.84468 166
70.86479 217
70.88491 185
70.90502 178
70.92513 190
70.94525 209
70.96536 193
70.98548 188
71.00559 209
71.0257 181
71.04582 183
71.06593 188
71.08604 227
71.10616 189
71.12627 183
71.14639 173
71.1665 206
71.18661 190
71.20673 234
71.22684 171
71.24695 205
71.26707 167
71.28718 189
71.3073 185
71.32741 191
71.34752 171
71.36764 202
71.38775 188
71.40786 183
71.42798 192
71.44809 188
71.4682 175
71.48832 182
71.50843 215
71.52855 208
71.54866 211
71.56877 217
71.58889 190
71.609 205
71.62911 173
71.64923 195
71.66934 201
71.68946 226
71.70957 203
71.72968 192
71.7498 222
71.76991 215
71.79002 194
71.81014 194
71.83025 198
71.85037 179
71.87048 225
71.89059 206
71.91071 182
71.93082 197
71.95093 207
71.97105 190
71.99116 198
72.01127 213
72.03139 212
72.0515 192
72.07162 214
72.09173 233
72.11184 231
72.13196 202
72.15207 221
72.17218 188
72.1923 224
72.21241 222
72.23253 201
72.25264 201
72.27275 220
72.29287 201
72.31298 188
72.33309 219
72.35321 197
72.37332 213
72.39344 202
72.41355 194
72.43366 219
72.45378 199
72.47389 205
72.494 178
72.51412 206
72.53423 185
72.55434 194
72.57446 217
72.59457 238
72.61469 204
72.6348 184
72.65491 190
72.67503 227
72.69514 184
72.71525 226
72.73537 197
72.75548 189
72.7756 197
72.79571 188
72.81582 215
72.83594 226
72.85605 218
72.87616 213
72.89628 234
72.91639 213
72.9365 187
72.95662 229
72.97673 218
72.99685 220
73.01696 236
73.03707 219
73.05719 243
73.0773 229
73.09741 231
73.11753 241
73.13764 233
73.15776 266
73.17787 247
73.19798 256
73.2181 288
73.23821 309
73.25832 327
73.27844 350
73.29855 363
73.31867 426
73.33878 422
73.35889 390
73.37901 437
73.39912 459
73.41923 458
73.43935 459
73.45946 405
73.47957 365
73.49969 334
73.5198 355
73.53992 318
73.56003 311
73.58014 330
73.60026 326
73.62037 347
73.64048 314
73.6606 329
73.68071 291
73.70083 287
73.72094 275
73.74105 215
73.76117 222
73.78128 222
73.80139 243
73.82151 232
73.84162 232
73.86174 225
73.88185 226
73.90196 225
73.92208 198
73.94219 196
73.9623 221
73.98242 191
74.00253 222
74.02264 211
74.04276 216
74.06287 187
74.08299 228
74.1031 212
74.12321 219
74.14333 226
74.16344 195
74.18355 227
74.20367 194
74.22378 204
74.2439 202
74.26401 186
74.28412 213
74.30424 210
74.32435 200
74.34446 186
74.36458 213
74.38469 236
74.40481 219
74.42492 195
74.44503 218
74.46515 204
74.48526 211
74.50537 189
74.52549 181
74.5456 188
74.56571 194
74.58583 186
74.60594 215
74.62606 215
74.64617 228
74.66628 212
74.6864 202
74.70651 189
74.72662 222
74.74674 227
74.76685 185
74.78697 213
74.80708 188
74.82719 194
74.84731 189
74.86742 216
74.88753 195
74.90765 227
74.92776 217
74.94787 204
74.96799 193
74.9881 185
75.00822 205
