3.00117 20078
3.02128 19474
3.0414 18999
3.06151 18675
3.08162 18002
3.10174 17499
3.12185 17070
3.14197 16347
3.16208 16135
3.18219 15677
3.20231 15413
3.22242 14340
3.24253 14191
3.26265 13784
3.28276 13360
3.30288 13195
3.32299 12398
3.3431 11998
3.36322 11885
3.38333 11420
3.40344 11205
3.42356 10646
3.44367 10395
3.46379 9911
3.4839 9462
3.50401 9451
3.52413 8944
3.54424 8809
3.56435 8383
3.58447 8039
3.60458 7983
3.62469 7366
3.64481 7212
3.66492 6985
3.68504 6700
3.70515 6574
3.72526 5970
3.74538 5952
3.76549 5843
3.7856 5367
3.80572 5503
3.82583 5107
3.84595 4783
3.86606 4726
3.88617 4479
3.90629 4487
3.9264 4011
3.94651 3822
3.96663 3742
3.98674 3500
4.00686 3716
4.02697 3117
4.04708 3123
4.0672 3069
4.08731 2863
4.10742 2739
4.12754 2557
4.14765 2542
4.16776 2409
4.18788 2319
4.20799 2266
4.22811 1942
4.24822 1966
4.26833 1972
4.28845 1869
4.30856 1862
4.32867 1621
4.34879 1652
4.3689 1712
4.38902 1602
4.40913 1610
4.42924 1456
4.44936 1430
4.46947 1416
4.48958 1395
4.5097 1362
4.52981 1312
4.54992 1239
4.57004 1209
4.59015 1232
4.61027 1194
4.63038 1123
4.65049 1033
4.67061 1102
4.69072 1042
4.71083 1071
4.73095 972
4.75106 975
4.77118 995
4.79129 915
4.8114 886
4.83152 811
4.85163 874
4.87174 845
4.89186 853
4.91197 801
4.93209 760
4.9522 758
4.97231 794
4.99243 719
5.01254 706
5.03265 698
5.05277 737
5.07288 694
5.09299 644
5.11311 672
5.13322 668
5.15334 593
5.17345 654
5.19356 588
5.21368 493
5.23379 566
5.2539 549
5.27402 547
5.29413 563
5.31425 496
5.33436 457
5.35447 450
5.37459 436
5.3947 507
5.41481 430
5.43493 471
5.45504 452
5.47516 458
5.49527 384
5.51538 382
5.5355 374
5.55561 412
5.57572 364
5.59584 394
5.61595 356
5.63606 351
5.65618 320
5.67629 363
5.69641 366
5.71652 306
5.73663 329
5.75675 308
5.77686 331
5.79697 306
5.81709 295
5.8372 295
5.85732 289
5.87743 277
5.89754 290
5.91766 250
5.93777 308
5.95788 289
5.978 309
5.99811 303
6.01823 246
6.03834 299
6.05845 271
6.07857 249
6.09868 265
6.11879 287
6.13891 264
6.15902 265
6.17913 267
6.19925 296
6.21936 269
6.23948 242
6.25959 248
6.2797 261
6.29982 240
6.31993 265
6.34004 262
6.36016 243
6.38027 235
6.40039 260
6.4205 237
6.44061 233
6.46073 240
6.48084 231
6.50095 234
6.52107 247
6.54118 245
6.56129 254
6.58141 259
6.60152 239
6.62164 224
6.64175 196
6.66186 253
6.68198 215
6.70209 262
6.7222 236
6.74232 229
6.76243 233
6.78255 229
6.80266 225
6.82277 189
6.84289 240
6.863 204
6.88311 229
6.90323 215
6.92334 225
6.94346 240
6.96357 231
6.98368 193
7.0038 230
7.02391 257
7.04402 254
7.06414 223
7.08425 235
7.10436 225
7.12448 215
7.14459 239
7.16471 254
7.18482 235
7.20493 226
7.22505 230
7.24516 275
7.26527 257
7.28539 202
7.3055 238
7.32562 230
7.34573 251
7.36584 241
7.38596 225
7.40607 236
7.42618 243
7.4463 238
7.46641 233
7.48653 211
7.50664 259
7.52675 221
7.54687 237
7.56698 238
7.58709 242
7.60721 266
7.62732 224
7.64743 257
7.66755 250
7.68766 217
7.70778 227
7.72789 226
7.748 236
7.76812 210
7.78823 258
7.80834 205
7.82846 264
7.84857 242
7.86869 219
7.8888 235
7.90891 232
7.92903 190
7.94914 239
7.96925 243
7.98937 249
8.00948 248
8.0296 229
8.04971 256
8.06982 244
8.08994 261
8.11005 251
8.13016 242
8.15028 262
8.17039 246
8.1905 244
8.21062 270
8.23073 229
8.25085 228
8.27096 233
8.29107 229
8.31119 286
8.3313 271
8.35141 237
8.37153 259
8.39164 214
8.41176 278
8.43187 262
8.45198 266
8.4721 208
8.49221 227
8.51232 256
8.53244 269
8.55255 233
8.57266 253
8.59278 231
8.61289 268
8.63301 266
8.65312 265
8.67323 238
8.69335 274
8.71346 260
8.73357 287
8.75369 255
8.7738 262
8.79392 266
8.81403 296
8.83414 283
8.85426 274
8.87437 254
8.89448 277
8.9146 249
8.93471 250
8.95483 248
8.97494 268
8.99505 265
9.01517 265
9.03528 255
9.05539 251
9.07551 250
9.09562 266
9.11573 256
9.13585 264
9.15596 263
9.17608 250
9.19619 292
9.2163 260
9.23642 258
9.25653 270
9.27664 262
9.29676 249
9.31687 254
9.33699 243
9.3571 256
9.37721 247
9.39733 259
9.41744 230
9.43755 250
9.45767 247
9.47778 262
9.4979 241
9.51801 248
9.53812 256
9.55824 257
9.57835 276
9.59846 250
9.61858 240
9.63869 294
9.6588 232
9.67892 254
9.69903 253
9.71915 259
9.73926 276
9.75937 240
9.77949 279
9.7996 269
9.81971 267
9.83983 262
9.85994 279
9.88006 249
9.90017 262
9.92028 277
9.9404 288
9.96051 253
9.98062 251
10.00074 296
10.02085 269
10.04097 246
10.06108 254
10.08119 259
10.10131 272
10.12142 269
10.14153 278
10.16165 269
10.18176 255
10.20187 273
10.22199 233
10.2421 248
10.26222 255
10.28233 268
10.30244 244
10.32256 245
10.34267 257
10.36278 246
10.3829 250
10.40301 249
10.42313 226
10.44324 261
10.46335 250
10.48347 223
10.50358 250
10.52369 252
10.54381 246
10.56392 263
10.58403 260
10.60415 259
10.62426 235
10.64438 245
10.66449 266
10.6846 276
10.70472 248
10.72483 262
10.74494 257
10.76506 273
10.78517 262
10.80529 239
10.8254 224
10.84551 255
10.86563 233
10.88574 253
10.90585 258
10.92597 246
10.94608 268
10.9662 263
10.98631 238
11.00642 259
11.02654 261
11.04665 232
11.06676 284
11.08688 269
11.10699 262
11.1271 325
11.14722 230
11.16733 239
11.18745 271
11.20756 287
11.22767 286
11.24779 280
11.2679 283
11.28801 260
11.30813 266
11.32824 275
11.34836 300
11.36847 268
11.38858 247
11.4087 259
11.42881 254
11.44892 258
11.46904 247
11.48915 266
11.50927 257
11.52938 291
11.54949 276
11.56961 297
11.58972 235
11.60983 246
11.62995 275
11.65006 274
11.67017 287
11.69029 318
11.7104 300
11.73052 255
11.75063 261
11.77074 266
11.79086 277
11.81097 297
11.83108 294
11.8512 274
11.87131 299
11.89143 299
11.91154 322
11.93165 320
11.95177 323
11.97188 309
11.99199 299
12.01211 338
12.03222 352
12.05234 351
12.07245 354
12.09256 369
12.11268 367
12.13279 408
12.1529 423
12.17302 409
12.19313 471
12.21324 461
12.23336 521
12.25347 572
12.27359 654
12.2937 648
12.31381 734
12.33393 762
12.35404 706
12.37415 690
12.39427 662
12.41438 638
12.4345 586
12.45461 544
12.47472 441
12.49484 414
12.51495 397
12.53506 374
12.55518 364
12.57529 397
12.5954 309
12.61552 341
12.63563 331
12.65575 285
12.67586 254
12.69597 285
12.71609 273
12.7362 258
12.75631 280
12.77643 228
12.79654 276
12.81666 245
12.83677 252
12.85688 274
12.877 267
12.89711 244
12.91722 248
12.93734 241
12.95745 244
12.97757 262
12.99768 267
13.01779 214
13.03791 226
13.05802 235
13.07813 279
13.09825 249
13.11836 249
13.13847 245
13.15859 264
13.1787 216
13.19882 242
13.21893 234
13.23904 255
13.25916 239
13.27927 218
13.29938 213
13.3195 234
13.33961 238
13.35973 227
13.37984 228
13.39995 243
13.42007 221
13.44018 229
13.46029 239
13.48041 223
13.50052 250
13.52064 205
13.54075 226
13.56086 232
13.58098 246
13.60109 230
13.6212 247
13.64132 227
13.66143 228
13.68154 217
13.70166 239
13.72177 203
13.74189 209
13.762 236
13.78211 233
13.80223 232
13.82234 244
13.84245 248
13.86257 238
13.88268 247
13.9028 211
13.92291 250
13.94302 234
13.96314 236
13.98325 256
14.00336 216
14.02348 245
14.04359 216
14.06371 227
14.08382 216
14.10393 214
14.12405 210
14.14416 221
14.16427 234
14.18439 190
14.2045 221
14.22461 201
14.24473 207
14.26484 232
14.28496 238
14.30507 221
14.32518 213
14.3453 233
14.36541 227
14.38552 229
14.40564 214
14.42575 214
14.44587 217
14.46598 200
14.48609 219
14.50621 213
14.52632 212
14.54643 201
14.56655 213
14.58666 207
14.60677 212
14.62689 213
14.647 223
14.66712 190
14.68723 215
14.70734 212
14.72746 213
14.74757 222
14.76768 252
14.7878 214
14.80791 198
14.82803 229
14.84814 219
14.86825 216
14.88837 199
14.90848 227
14.92859 233
14.94871 235
14.96882 212
14.98894 214
15.00905 208
15.02916 218
15.04928 200
15.06939 217
15.0895 211
15.10962 213
15.12973 218
15.14984 192
15.16996 207
15.19007 223
15.21019 240
15.2303 213
15.25041 199
15.27053 232
15.29064 214
15.31075 211
15.33087 207
15.35098 192
15.3711 211
15.39121 189
15.41132 179
15.43144 229
15.45155 207
15.47166 222
15.49178 199
15.51189 211
15.53201 185
15.55212 235
15.57223 209
15.59235 208
15.61246 218
15.63257 218
15.65269 211
15.6728 230
15.69291 218
15.71303 231
15.73314 228
15.75326 238
15.77337 223
15.79348 201
15.8136 227
15.83371 191
15.85382 229
15.87394 209
15.89405 197
15.91417 185
15.93428 211
15.95439 204
15.97451 200
15.99462 214
16.01473 222
16.03485 200
16.05496 189
16.07508 233
16.09519 212
16.1153 205
16.13542 194
16.15553 195
16.17564 197
16.19576 218
16.21587 212
16.23598 205
16.2561 208
16.27621 182
16.29633 184
16.31644 222
16.33655 188
16.35667 201
16.37678 226
16.39689 205
16.41701 203
16.43712 186
16.45724 198
16.47735 241
16.49746 195
16.51758 208
16.53769 222
16.5578 199
16.57792 200
16.59803 189
16.61814 202
16.63826 190
16.65837 203
16.67849 230
16.6986 211
16.71871 198
16.73883 210
16.75894 199
16.77905 194
16.79917 213
16.81928 213
16.8394 196
16.85951 198
16.87962 194
16.89974 204
16.91985 201
16.93996 220
16.96008 205
16.98019 202
17.00031 211
17.02042 214
17.04053 198
17.06065 207
17.08076 176
17.10087 219
17.12099 209
17.1411 224
17.16121 224
17.18133 193
17.20144 216
17.22156 196
17.24167 217
17.26178 223
17.2819 205
17.30201 225
17.32212 240
17.34224 221
17.36235 225
17.38247 217
17.40258 212
17.42269 237
17.44281 218
17.46292 213
17.48303 191
17.50315 189
17.52326 202
17.54338 231
17.56349 218
17.5836 170
17.60372 202
17.62383 179
17.64394 203
17.66406 204
17.68417 224
17.70428 222
17.7244 205
17.74451 220
17.76463 212
17.78474 220
17.80485 219
17.82497 199
17.84508 243
17.86519 216
17.88531 184
17.90542 183
17.92554 188
17.94565 220
17.96576 217
17.98588 205
18.00599 204
18.0261 183
18.04622 212
18.06633 178
18.08645 242
18.10656 219
18.12667 241
18.14679 195
18.1669 187
18.18701 217
18.20713 203
18.22724 200
18.24735 175
18.26747 211
18.28758 191
18.3077 200
18.32781 245
18.34792 208
18.36804 187
18.38815 172
18.40826 199
18.42838 216
18.44849 199
18.46861 222
18.48872 188
18.50883 202
18.52895 215
18.54906 230
18.56917 193
18.58929 196
18.6094 192
18.62951 221
18.64963 206
18.66974 166
18.68986 187
18.70997 194
18.73008 216
18.7502 197
18.77031 222
18.79042 235
18.81054 240
18.83065 224
18.85077 180
18.87088 211
18.89099 182
18.91111 182
18.93122 205
18.95133 196
18.97145 197
18.99156 195
19.01168 207
19.03179 229
19.0519 205
19.07202 205
19.09213 198
19.11224 205
19.13236 203
19.15247 207
19.17258 220
19.1927 209
19.21281 193
19.23293 211
19.25304 223
19.27315 206
19.29327 202
19.31338 224
19.33349 189
19.35361 227
19.37372 233
19.39384 192
19.41395 203
19.43406 218
19.45418 244
19.47429 211
19.4944 222
19.51452 229
19.53463 221
19.55475 239
19.57486 242
19.59497 244
19.61509 261
19.6352 228
19.65531 266
19.67543 290
19.69554 276
19.71565 271
19.73577 337
19.75588 344
19.776 356
19.79611 443
19.81622 470
19.83634 463
19.85645 478
19.87656 486
19.89668 511
19.91679 447
19.93691 451
19.95702 482
19.97713 492
19.99725 411
20.01736 433
20.03747 443
20.05759 443
20.0777 479
20.09782 407
20.11793 470
20.13804 399
20.15816 444
20.17827 411
20.19838 445
20.2185 442
20.23861 476
20.25872 436
20.27884 464
20.29895 462
20.31907 487
20.33918 511
20.35929 499
20.37941 446
20.39952 492
20.41963 454
20.43975 461
20.45986 560
20.47998 544
20.50009 500
20.5202 536
20.54032 481
20.56043 536
20.58054 531
20.60066 591
20.62077 602
20.64088 664
20.661 701
20.68111 907
20.70123 1131
20.72134 1453
20.74145 2085
20.76157 2918
20.78168 3999
20.80179 5444
20.82191 6539
20.84202 7468
20.86214 7134
20.88225 5887
20.90236 4445
20.92248 3113
20.94259 1895
20.9627 1233
20.98282 860
21.00293 688
21.02305 630
21.04316 624
21.06327 603
21.08339 557
21.1035 587
21.12361 513
21.14373 516
21.16384 480
21.18395 515
21.20407 464
21.22418 467
21.2443 426
21.26441 451
21.28452 487
21.30464 468
21.32475 425
21.34486 429
21.36498 419
21.38509 408
21.40521 473
21.42532 414
21.44543 394
21.46555 421
21.48566 427
21.50577 344
21.52589 373
21.546 370
21.56612 362
21.58623 345
21.60634 367
21.62646 382
21.64657 404
21.66668 313
21.6868 351
21.70691 343
21.72702 333
21.74714 340
21.76725 343
21.78737 336
21.80748 321
21.82759 323
21.84771 312
21.86782 314
21.88793 366
21.90805 341
21.92816 314
21.94828 335
21.96839 353
21.9885 333
22.00862 320
22.02873 312
22.04884 292
22.06896 314
22.08907 364
22.10919 324
22.1293 315
22.14941 297
22.16953 318
22.18964 279
22.20975 327
22.22987 331
22.24998 295
22.27009 276
22.29021 331
22.31032 322
22.33044 317
22.35055 329
22.37066 271
22.39078 310
22.41089 276
22.431 315
22.45112 313
22.47123 274
22.49135 301
22.51146 305
22.53157 286
22.55169 281
22.5718 276
22.59191 297
22.61203 320
22.63214 262
22.65225 259
22.67237 288
22.69248 250
22.7126 320
22.73271 321
22.75282 287
22.77294 302
22.79305 292
22.81316 292
22.83328 303
22.85339 291
22.87351 280
22.89362 233
22.91373 296
22.93385 320
22.95396 284
22.97407 298
22.99419 323
23.0143 284
23.03442 313
23.05453 294
23.07464 288
23.09476 289
23.11487 271
23.13498 303
23.1551 280
23.17521 294
23.19532 272
23.21544 304
23.23555 300
23.25567 279
23.27578 299
23.29589 293
23.31601 295
23.33612 249
23.35623 265
23.37635 241
23.39646 258
23.41658 293
23.43669 311
23.4568 261
23.47692 307
23.49703 283
23.51714 300
23.53726 261
23.55737 286
23.57749 305
23.5976 277
23.61771 272
23.63783 281
23.65794 252
23.67805 250
23.69817 298
23.71828 307
23.73839 262
23.75851 278
23.77862 281
23.79874 288
23.81885 295
23.83896 256
23.85908 297
23.87919 276
23.8993 297
23.91942 326
23.93953 359
23.95965 314
23.97976 359
23.99987 338
24.01999 339
24.0401 336
24.06021 309
24.08033 313
24.10044 282
24.12056 319
24.14067 330
24.16078 337
24.1809 280
24.20101 304
24.22112 324
24.24124 332
24.26135 325
24.28146 328
24.30158 308
24.32169 334
24.34181 331
24.36192 306
24.38203 281
24.40215 294
24.42226 287
24.44237 287
24.46249 280
24.4826 330
24.50272 282
24.52283 303
24.54294 326
24.56306 307
24.58317 341
24.60328 320
24.6234 323
24.64351 344
24.66362 378
24.68374 378
24.70385 387
24.72397 448
24.74408 484
24.76419 483
24.78431 483
24.80442 562
24.82453 536
24.84465 594
24.86476 624
24.88488 602
24.90499 561
24.9251 543
24.94522 532
24.96533 507
24.98544 481
25.00556 426
25.02567 445
25.04579 384
25.0659 357
25.08601 366
25.10613 392
25.12624 382
25.14635 340
25.16647 339
25.18658 377
25.20669 403
25.22681 382
25.24692 401
25.26704 380
25.28715 409
25.30726 375
25.32738 346
25.34749 381
25.3676 358
25.38772 343
25.40783 347
25.42795 327
25.44806 280
25.46817 329
25.48829 327
25.5084 347
25.52851 301
25.54863 316
25.56874 336
25.58886 369
25.60897 297
25.62908 352
25.6492 393
25.66931 371
25.68942 389
25.70954 391
25.72965 494
25.74976 462
25.76988 466
25.78999 472
25.81011 456
25.83022 459
25.85033 438
25.87045 455
25.89056 420
25.91067 436
25.93079 455
25.9509 507
25.97102 485
25.99113 504
26.01124 502
26.03136 528
26.05147 535
26.07158 533
26.0917 555
26.11181 631
26.13193 610
26.15204 688
26.17215 686
26.19227 703
26.21238 763
26.23249 785
26.25261 815
26.27272 951
26.29283 1012
26.31295 1043
26.33306 1117
26.35318 1293
26.37329 1420
26.3934 1650
26.41352 1923
26.43363 2426
26.45374 3270
26.47386 4642
26.49397 6286
26.51409 9088
26.5342 12988
26.55431 18129
26.57443 24089
26.59454 29829
26.61465 32849
26.63477 31827
26.65488 27040
26.67499 21398
26.69511 16178
26.71522 11208
26.73534 7123
26.75545 3878
26.77556 2506
26.79568 1703
26.81579 1533
26.8359 1399
26.85602 1203
26.87613 1111
26.89625 1048
26.91636 926
26.93647 919
26.95659 831
26.9767 786
26.99681 715
27.01693 644
27.03704 555
27.05716 579
27.07727 528
27.09738 519
27.1175 467
27.13761 460
27.15772 425
27.17784 474
27.19795 459
27.21806 460
27.23818 453
27.25829 438
27.27841 396
27.29852 402
27.31863 444
27.33875 459
27.35886 440
27.37897 403
27.39909 448
27.4192 468
27.43932 399
27.45943 437
27.47954 419
27.49966 427
27.51977 379
27.53988 398
27.56 402
27.58011 382
27.60023 362
27.62034 369
27.64045 365
27.66057 325
27.68068 322
27.70079 381
27.72091 324
27.74102 302
27.76113 356
27.78125 322
27.80136 332
27.82148 334
27.84159 277
27.8617 287
27.88182 330
27.90193 288
27.92204 321
27.94216 327
27.96227 320
27.98239 351
28.0025 317
28.02261 314
28.04273 291
28.06284 271
28.08295 308
28.10307 298
28.12318 304
28.1433 366
28.16341 297
28.18352 296
28.20364 287
28.22375 313
28.24386 273
28.26398 294
28.28409 288
28.3042 312
28.32432 318
28.34443 282
28.36455 304
28.38466 299
28.40477 315
28.42489 293
28.445 317
28.46511 273
28.48523 281
28.50534 282
28.52546 269
28.54557 280
28.56568 255
28.5858 311
28.60591 287
28.62602 281
28.64614 279
28.66625 253
28.68636 273
28.70648 258
28.72659 271
28.74671 267
28.76682 258
28.78693 301
28.80705 292
28.82716 252
28.84727 274
28.86739 270
28.8875 262
28.90762 297
28.92773 253
28.94784 260
28.96796 293
28.98807 264
29.00818 275
29.0283 275
29.04841 262
29.06853 252
29.08864 256
29.10875 284
29.12887 258
29.14898 246
29.16909 246
29.18921 273
29.20932 267
29.22943 282
29.24955 256
29.26966 231
29.28978 230
29.30989 251
29.33 256
29.35012 241
29.37023 265
29.39034 262
29.41046 262
29.43057 243
29.45069 277
29.4708 248
29.49091 265
29.51103 266
29.53114 246
29.55125 253
29.57137 283
29.59148 252
29.6116 265
29.63171 246
29.65182 265
29.67194 246
29.69205 245
29.71216 232
29.73228 252
29.75239 256
29.7725 284
29.79262 256
29.81273 260
29.83285 296
29.85296 267
29.87307 227
29.89319 283
29.9133 242
29.93341 236
29.95353 251
29.97364 251
29.99376 258
30.01387 274
30.03398 231
30.0541 256
30.07421 229
30.09432 269
30.11444 255
30.13455 246
30.15467 237
30.17478 266
30.19489 269
30.21501 217
30.23512 249
30.25523 272
30.27535 270
30.29546 242
30.31557 245
30.33569 296
30.3558 248
30.37592 259
30.39603 232
30.41614 221
30.43626 254
30.45637 250
30.47648 215
30.4966 242
30.51671 247
30.53683 232
30.55694 251
30.57705 247
30.59717 255
30.61728 243
30.63739 246
30.65751 224
30.67762 226
30.69773 244
30.71785 247
30.73796 244
30.75808 247
30.77819 227
30.7983 225
30.81842 232
30.83853 220
30.85864 225
30.87876 236
30.89887 224
30.91899 233
30.9391 226
30.95921 238
30.97933 238
30.99944 249
31.01955 221
31.03967 232
31.05978 245
31.0799 245
31.10001 227
31.12012 243
31.14024 213
31.16035 230
31.18046 214
31.20058 228
31.22069 234
31.2408 224
31.26092 232
31.28103 197
31.30115 221
31.32126 229
31.34137 234
31.36149 201
31.3816 227
31.40171 233
31.42183 225
31.44194 202
31.46206 222
31.48217 230
31.50228 230
31.5224 207
31.54251 211
31.56262 202
31.58274 225
31.60285 241
31.62297 209
31.64308 228
31.66319 243
31.68331 219
31.70342 224
31.72353 225
31.74365 205
31.76376 246
31.78387 213
31.80399 216
31.8241 242
31.84422 235
31.86433 231
31.88444 211
31.90456 218
31.92467 209
31.94478 237
31.9649 243
31.98501 224
32.00513 250
32.02524 195
32.04535 228
32.06547 202
32.08558 217
32.10569 201
32.12581 202
32.14592 221
32.16604 247
32.18615 235
32.20626 226
32.22638 218
32.24649 230
32.2666 199
32.28672 231
32.30683 238
32.32694 220
32.34706 209
32.36717 232
32.38729 222
32.4074 221
32.42751 229
32.44763 208
32.46774 260
32.48785 228
32.50797 234
32.52808 213
32.5482 238
32.56831 244
32.58842 236
32.60854 238
32.62865 232
32.64876 254
32.66888 239
32.68899 234
32.7091 234
32.72922 246
32.74933 229
32.76945 240
32.78956 208
32.80967 223
32.82979 269
32.8499 251
32.87001 256
32.89013 240
32.91024 224
32.93036 244
32.95047 256
32.97058 250
32.9907 273
33.01081 258
33.03092 270
33.05104 282
33.07115 267
33.09127 250
33.11138 282
33.13149 262
33.15161 268
33.17172 280
33.19183 254
33.21195 243
33.23206 275
33.25217 283
33.27229 279
33.2924 273
33.31252 230
33.33263 225
33.35274 247
33.37286 237
33.39297 291
33.41308 246
33.4332 264
33.45331 245
33.47343 228
33.49354 217
33.51365 246
33.53377 231
33.55388 213
33.57399 219
33.59411 206
33.61422 229
33.63434 226
33.65445 231
33.67456 224
33.69468 219
33.71479 215
33.7349 217
33.75502 196
33.77513 225
33.79524 211
33.81536 226
33.83547 213
33.85559 196
33.8757 209
33.89581 208
33.91593 181
33.93604 235
33.95615 212
33.97627 197
33.99638 185
34.0165 219
34.03661 221
34.05672 202
34.07684 213
34.09695 211
34.11706 232
34.13718 211
34.15729 204
34.17741 246
34.19752 221
34.21763 213
34.23775 222
34.25786 234
34.27797 193
34.29809 200
34.3182 207
34.33831 199
34.35843 219
34.37854 202
34.39866 182
34.41877 200
34.43888 192
34.459 222
34.47911 235
34.49922 210
34.51934 202
34.53945 253
34.55957 231
34.57968 216
34.59979 201
34.61991 221
34.64002 257
34.66013 248
34.68025 238
34.70036 258
34.72047 277
34.74059 313
34.7607 292
34.78082 251
34.80093 303
34.82104 322
34.84116 313
34.86127 335
34.88138 344
34.9015 371
34.92161 343
34.94173 366
34.96184 360
34.98195 353
35.00207 363
35.02218 336
35.04229 354
35.06241 342
35.08252 301
35.10264 306
35.12275 327
35.14286 329
35.16298 306
35.18309 283
35.2032 289
35.22332 292
35.24343 299
35.26354 307
35.28366 315
35.30377 290
35.32389 305
35.344 308
35.36411 309
35.38423 329
35.40434 313
35.42445 345
35.44457 349
35.46468 348
35.4848 337
35.50491 392
35.52502 323
35.54514 394
35.56525 362
35.58536 365
35.60548 399
35.62559 395
35.64571 384
35.66582 394
35.68593 359
35.70605 415
35.72616 377
35.74627 351
35.76639 409
35.7865 337
35.80661 410
35.82673 376
35.84684 383
35.86696 407
35.88707 376
35.90718 405
35.9273 354
35.94741 391
35.96752 375
35.98764 339
36.00775 377
36.02787 349
36.04798 373
36.06809 362
36.08821 353
36.10832 305
36.12843 322
36.14855 327
36.16866 353
36.18878 343
36.20889 335
36.229 353
36.24912 348
36.26923 336
36.28934 379
36.30946 389
36.32957 470
36.34968 507
36.3698 624
36.38991 771
36.41003 969
36.43014 1177
36.45025 1499
36.47037 1927
36.49048 2130
36.51059 2302
36.53071 2268
36.55082 2022
36.57094 1596
36.59105 1362
36.61116 1264
36.63128 1087
36.65139 819
36.6715 536
36.69162 431
36.71173 432
36.73184 353
36.75196 328
36.77207 340
36.79219 290
36.8123 290
36.83241 309
36.85253 323
36.87264 255
36.89275 303
36.91287 290
36.93298 298
36.9531 307
36.97321 247
36.99332 267
37.01344 250
37.03355 229
37.05366 248
37.07378 252
37.09389 220
37.11401 256
37.13412 238
37.15423 229
37.17435 253
37.19446 259
37.21457 248
37.23469 261
37.2548 237
37.27491 254
37.29503 210
37.31514 256
37.33526 247
37.35537 226
37.37548 245
37.3956 241
37.41571 255
37.43582 249
37.45594 242
37.47605 241
37.49617 239
37.51628 278
37.53639 248
37.55651 283
37.57662 263
37.59673 291
37.61685 275
37.63696 281
37.65708 276
37.67719 272
37.6973 281
37.71742 294
37.73753 285
37.75764 279
37.77776 298
37.79787 273
37.81798 250
37.8381 266
37.85821 262
37.87833 238
37.89844 267
37.91855 261
37.93867 259
37.95878 285
37.97889 274
37.99901 266
38.01912 278
38.03924 275
38.05935 280
38.07946 310
38.09958 308
38.11969 306
38.1398 297
38.15992 272
38.18003 306
38.20015 302
38.22026 342
38.24037 328
38.26049 331
38.2806 337
38.30071 356
38.32083 373
38.34094 375
38.36105 379
38.38117 393
38.40128 383
38.4214 376
38.44151 365
38.46162 398
38.48174 389
38.50185 392
38.52196 371
38.54208 335
38.56219 373
38.58231 327
38.60242 342
38.62253 314
38.64265 326
38.66276 295
38.68287 319
38.70299 296
38.7231 310
38.74321 259
38.76333 304
38.78344 293
38.80356 261
38.82367 282
38.84378 244
38.8639 278
38.88401 260
38.90412 301
38.92424 275
38.94435 309
38.96447 309
38.98458 313
39.00469 313
39.02481 323
39.04492 292
39.06503 335
39.08515 355
39.10526 336
39.12538 349
39.14549 373
39.1656 357
39.18572 385
39.20583 452
39.22594 442
39.24606 518
39.26617 548
39.28628 617
39.3064 699
39.32651 924
39.34663 1074
39.36674 1430
39.38685 1714
39.40697 2046
39.42708 2227
39.44719 2185
39.46731 1888
39.48742 1498
39.50754 1329
39.52765 1238
39.54776 1043
39.56788 896
39.58799 681
39.6081 495
39.62822 371
39.64833 334
39.66845 278
39.68856 272
39.70867 304
39.72879 286
39.7489 264
39.76901 263
39.78913 272
39.80924 272
39.82935 268
39.84947 277
39.86958 257
39.8897 248
39.90981 254
39.92992 280
39.95004 259
39.97015 284
39.99026 271
40.01038 277
40.03049 277
40.05061 318
40.07072 302
40.09083 371
40.11095 371
40.13106 459
40.15117 558
40.17129 654
40.1914 816
40.21152 995
40.23163 1110
40.25174 1201
40.27186 1131
40.29197 1045
40.31208 870
40.3322 785
40.35231 645
40.37242 661
40.39254 581
40.41265 476
40.43277 356
40.45288 329
40.47299 290
40.49311 262
40.51322 252
40.53333 261
40.55345 271
40.57356 271
40.59368 260
40.61379 244
40.6339 248
40.65402 244
40.67413 253
40.69424 245
40.71436 249
40.73447 225
40.75458 237
40.7747 255
40.79481 264
40.81493 275
40.83504 273
40.85515 253
40.87527 256
40.89538 254
40.91549 254
40.93561 263
40.95572 260
40.97584 246
40.99595 269
41.01606 266
41.03618 273
41.05629 256
41.0764 277
41.09652 258
41.11663 316
41.13675 256
41.15686 250
41.17697 276
41.19709 242
41.2172 242
41.23731 255
41.25743 232
41.27754 235
41.29765 237
41.31777 239
41.33788 235
41.358 242
41.37811 236
41.39822 275
41.41834 220
41.43845 241
41.45856 236
41.47868 220
41.49879 210
41.51891 244
41.53902 217
41.55913 220
41.57925 230
41.59936 209
41.61947 237
41.63959 220
41.6597 205
41.67982 215
41.69993 218
41.72004 216
41.74016 223
41.76027 239
41.78038 220
41.8005 233
41.82061 220
41.84072 241
41.86084 239
41.88095 240
41.90107 209
41.92118 248
41.94129 187
41.96141 248
41.98152 214
42.00163 227
42.02175 237
42.04186 227
42.06198 246
42.08209 239
42.1022 284
42.12232 245
42.14243 283
42.16254 281
42.18266 304
42.20277 295
42.22289 329
42.243 391
42.26311 418
42.28323 513
42.30334 635
42.32345 828
42.34357 981
42.36368 1166
42.38379 1415
42.40391 1508
42.42402 1597
42.44414 1440
42.46425 1221
42.48436 965
42.50448 888
42.52459 925
42.5447 749
42.56482 619
42.58493 478
42.60505 337
42.62516 275
42.64527 285
42.66539 266
42.6855 262
42.70561 247
42.72573 230
42.74584 219
42.76595 210
42.78607 218
42.80618 217
42.8263 227
42.84641 214
42.86652 205
42.88664 226
42.90675 190
42.92686 196
42.94698 196
42.96709 192
42.98721 194
43.00732 204
43.02743 216
43.04755 182
43.06766 185
43.08777 202
43.10789 181
43.128 191
43.14812 207
43.16823 203
43.18834 179
43.20846 178
43.22857 204
43.24868 217
43.2688 198
43.28891 207
43.30902 189
43.32914 218
43.34925 189
43.36937 189
43.38948 209
43.40959 190
43.42971 189
43.44982 195
43.46993 211
43.49005 203
43.51016 191
43.53028 192
43.55039 184
43.5705 193
43.59062 197
43.61073 212
43.63084 192
43.65096 223
43.67107 202
43.69119 217
43.7113 205
43.73141 224
43.75153 215
43.77164 193
43.79175 203
43.81187 206
43.83198 197
43.85209 234
43.87221 202
43.89232 209
43.91244 169
43.93255 201
43.95266 202
43.97278 204
43.99289 179
44.013 198
44.03312 200
44.05323 195
44.07335 197
44.09346 198
44.11357 192
44.13369 192
44.1538 212
44.17391 184
44.19403 183
44.21414 190
44.23426 202
44.25437 212
44.27448 194
44.2946 177
44.31471 208
44.33482 192
44.35494 179
44.37505 177
44.39516 219
44.41528 177
44.43539 204
44.45551 185
44.47562 185
44.49573 187
44.51585 181
44.53596 198
44.55607 195
44.57619 208
44.5963 186
44.61642 194
44.63653 197
44.65664 176
44.67676 211
44.69687 186
44.71698 189
44.7371 196
44.75721 164
44.77732 227
44.79744 200
44.81755 198
44.83767 202
44.85778 223
44.87789 198
44.89801 177
44.91812 195
44.93823 198
44.95835 201
44.97846 211
44.99858 180
45.01869 212
45.0388 199
45.05892 193
45.07903 215
45.09914 216
45.11926 246
45.13937 213
45.15949 210
45.1796 187
45.19971 222
45.21983 214
45.23994 219
45.26005 206
45.28017 192
45.30028 244
45.32039 252
45.34051 217
45.36062 236
45.38074 235
45.40085 245
45.42096 255
45.44108 248
45.46119 261
45.4813 265
45.50142 281
45.52153 296
45.54165 341
45.56176 334
45.58187 383
45.60199 408
45.6221 455
45.64221 536
45.66233 592
45.68244 757
45.70256 888
45.72267 925
45.74278 1085
45.7629 1127
45.78301 992
45.80312 837
45.82324 726
45.84335 673
45.86346 656
45.88358 655
45.90369 508
45.92381 448
45.94392 371
45.96403 283
45.98415 246
46.00426 249
46.02437 251
46.04449 228
46.0646 237
46.08472 231
46.10483 199
46.12494 198
46.14506 225
46.16517 218
46.18528 214
46.2054 218
46.22551 216
46.24563 205
46.26574 227
46.28585 193
46.30597 207
46.32608 208
46.34619 230
46.36631 204
46.38642 180
46.40653 183
46.42665 209
46.44676 209
46.46688 218
46.48699 191
46.5071 199
46.52722 204
46.54733 194
46.56744 205
46.58756 180
46.60767 194
46.62779 202
46.6479 202
46.66801 192
46.68813 207
46.70824 211
46.72835 190
46.74847 201
46.76858 215
46.78869 178
46.80881 200
46.82892 224
46.84904 202
46.86915 188
46.88926 186
46.90938 194
46.92949 216
46.9496 189
46.96972 220
46.98983 206
47.00995 178
47.03006 198
47.05017 196
47.07029 186
47.0904 207
47.11051 213
47.13063 205
47.15074 221
47.17086 210
47.19097 197
47.21108 208
47.2312 194
47.25131 182
47.27142 223
47.29154 188
47.31165 171
47.33176 186
47.35188 218
47.37199 186
47.39211 196
47.41222 184
47.43233 210
47.45245 203
47.47256 188
47.49267 190
47.51279 205
47.5329 171
47.55302 180
47.57313 210
47.59324 199
47.61336 230
47.63347 195
47.65358 208
47.6737 172
47.69381 227
47.71393 186
47.73404 222
47.75415 203
47.77427 180
47.79438 220
47.81449 201
47.83461 199
47.85472 221
47.87483 216
47.89495 201
47.91506 214
47.93518 217
47.95529 201
47.9754 213
47.99552 216
48.01563 189
48.03574 203
48.05586 200
48.07597 212
48.09609 209
48.1162 210
48.13631 215
48.15643 224
48.17654 187
48.19665 201
48.21677 213
48.23688 196
48.257 197
48.27711 175
48.29722 171
48.31734 199
48.33745 186
48.35756 211
48.37768 201
48.39779 228
48.4179 200
48.43802 173
48.45813 185
48.47825 183
48.49836 204
48.51847 205
48.53859 187
48.5587 191
48.57881 196
48.59893 189
48.61904 205
48.63916 204
48.65927 192
48.67938 206
48.6995 209
48.71961 203
48.73972 206
48.75984 174
48.77995 195
48.80006 199
48.82018 204
48.84029 186
48.86041 205
48.88052 195
48.90063 227
48.92075 225
48.94086 206
48.96097 190
48.98109 196
49.0012 209
49.02132 188
49.04143 197
49.06154 200
49.08166 200
49.10177 210
49.12188 203
49.142 217
49.16211 199
49.18223 199
49.20234 214
49.22245 238
49.24257 234
49.26268 246
49.28279 192
49.30291 232
49.32302 228
49.34313 235
49.36325 226
49.38336 227
49.40348 241
49.42359 235
49.4437 242
49.46382 245
49.48393 247
49.50404 261
49.52416 251
49.54427 270
49.56439 263
49.5845 238
49.60461 262
49.62473 249
49.64484 248
49.66495 277
49.68507 277
49.70518 298
49.7253 295
49.74541 271
49.76552 307
49.78564 332
49.80575 388
49.82586 411
49.84598 374
49.86609 431
49.8862 498
49.90632 597
49.92643 691
49.94655 851
49.96666 1023
49.98677 1252
50.00689 1610
50.027 2022
50.04711 2515
50.06723 2964
50.08734 3272
50.10746 3250
50.12757 2945
50.14768 2432
50.1678 2002
50.18791 1796
50.20802 1788
50.22814 1739
50.24825 1603
50.26837 1311
50.28848 960
50.30859 646
50.32871 454
50.34882 388
50.36893 308
50.38905 337
50.40916 301
50.42927 292
50.44939 299
50.4695 292
50.48962 308
50.50973 284
50.52984 276
50.54996 310
50.57007 287
50.59018 315
50.6103 265
50.63041 239
50.65053 235
50.67064 250
50.69075 250
50.71087 270
50.73098 249
50.75109 234
50.77121 216
50.79132 191
50.81143 206
50.83155 214
50.85166 185
50.87178 188
50.89189 215
50.912 201
50.93212 226
50.95223 235
50.97234 222
50.99246 223
51.01257 218
51.03269 247
51.0528 202
51.07291 217
51.09303 226
51.11314 177
51.13325 185
51.15337 180
51.17348 221
51.1936 205
51.21371 180
51.23382 212
51.25394 171
51.27405 176
51.29416 162
51.31428 202
51.33439 198
51.3545 171
51.37462 161
51.39473 177
51.41485 178
51.43496 166
51.45507 191
51.47519 213
51.4953 187
51.51541 183
51.53553 188
51.55564 189
51.57576 160
51.59587 185
51.61598 176
51.6361 182
51.65621 173
51.67632 163
51.69644 188
51.71655 173
51.73667 178
51.75678 174
51.77689 173
51.79701 208
51.81712 188
51.83723 238
51.85735 167
51.87746 166
51.89757 186
51.91769 162
51.9378 182
51.95792 157
51.97803 188
51.99814 175
52.01826 180
52.03837 164
52.05848 213
52.0786 186
52.09871 191
52.11883 190
52.13894 193
52.15905 192
52.17917 181
52.19928 191
52.21939 186
52.23951 189
52.25962 192
52.27974 191
52.29985 166
52.31996 182
52.34008 164
52.36019 172
52.3803 175
52.40042 190
52.42053 190
52.44064 160
52.46076 201
52.48087 196
52.50099 184
52.5211 192
52.54121 196
52.56133 168
52.58144 177
52.60155 178
52.62167 174
52.64178 211
52.6619 161
52.68201 178
52.70212 174
52.72224 167
52.74235 179
52.76246 203
52.78258 169
52.80269 195
52.8228 198
52.84292 201
52.86303 175
52.88315 177
52.90326 197
52.92337 181
52.94349 209
52.9636 193
52.98371 191
53.00383 167
53.02394 179
53.04406 188
53.06417 201
53.08428 184
53.1044 183
53.12451 217
53.14462 182
53.16474 209
53.18485 199
53.20497 200
53.22508 196
53.24519 191
53.26531 222
53.28542 201
53.30553 234
53.32565 237
53.34576 223
53.36587 236
53.38599 228
53.4061 249
53.42622 267
53.44633 219
53.46644 222
53.48656 245
53.50667 251
53.52678 216
53.5469 235
53.56701 225
53.58713 204
53.60724 236
53.62735 233
53.64747 213
53.66758 242
53.68769 204
53.70781 234
53.72792 213
53.74804 254
53.76815 229
53.78826 215
53.80838 208
53.82849 203
53.8486 240
53.86872 252
53.88883 231
53.90894 239
53.92906 252
53.94917 258
53.96929 284
53.9894 246
54.00951 228
54.02963 262
54.04974 256
54.06985 241
54.08997 239
54.11008 261
54.1302 250
54.15031 260
54.17042 288
54.19054 281
54.21065 253
54.23076 260
54.25088 273
54.27099 263
54.29111 240
54.31122 277
54.33133 270
54.35145 270
54.37156 304
54.39167 283
54.41179 253
54.4319 260
54.45201 280
54.47213 275
54.49224 298
54.51236 274
54.53247 278
54.55258 273
54.5727 291
54.59281 319
54.61292 348
54.63304 329
54.65315 408
54.67327 401
54.69338 476
54.71349 542
54.73361 640
54.75372 722
54.77383 896
54.79395 1012
54.81406 1080
54.83417 1126
54.85429 1057
54.8744 947
54.89452 835
54.91463 676
54.93474 724
54.95486 678
54.97497 683
54.99508 660
55.0152 614
55.03531 510
55.05543 398
55.07554 389
55.09565 371
55.11577 387
55.13588 388
55.15599 426
55.17611 414
55.19622 412
55.21634 519
55.23645 546
55.25656 619
55.27668 619
55.29679 640
55.3169 590
55.33702 516
55.35713 464
55.37724 440
55.39736 448
55.41747 438
55.43759 463
55.4577 355
55.47781 365
55.49793 326
55.51804 266
55.53815 261
55.55827 252
55.57838 232
55.5985 240
55.61861 249
55.63872 240
55.65884 213
55.67895 216
55.69906 242
55.71918 245
55.73929 236
55.75941 204
55.77952 197
55.79963 240
55.81975 210
55.83986 215
55.85997 224
55.88009 198
55.9002 196
55.92031 189
55.94043 211
55.96054 193
55.98066 198
56.00077 228
56.02088 214
56.041 223
56.06111 203
56.08122 199
56.10134 218
56.12145 210
56.14157 197
56.16168 205
56.18179 236
56.20191 208
56.22202 200
56.24213 227
56.26225 211
56.28236 221
56.30248 216
56.32259 197
56.3427 226
56.36282 192
56.38293 207
56.40304 197
56.42316 202
56.44327 207
56.46338 195
56.4835 192
56.50361 201
56.52373 215
56.54384 224
56.56395 211
56.58407 225
56.60418 217
56.62429 233
56.64441 215
56.66452 209
56.68464 201
56.70475 224
56.72486 197
56.74498 199
56.76509 195
56.7852 234
56.80532 216
56.82543 190
56.84554 192
56.86566 204
56.88577 210
56.90589 209
56.926 211
56.94611 205
56.96623 226
56.98634 172
57.00645 223
57.02657 207
57.04668 205
57.0668 228
57.08691 228
57.10702 195
57.12714 240
57.14725 256
57.16736 235
57.18748 224
57.20759 253
57.22771 241
57.24782 215
57.26793 228
57.28805 223
57.30816 245
57.32827 231
57.34839 207
57.3685 207
57.38861 181
57.40873 202
57.42884 210
57.44896 205
57.46907 207
57.48918 181
57.5093 210
57.52941 189
57.54952 178
57.56964 220
57.58975 182
57.60987 209
57.62998 211
57.65009 196
57.67021 176
57.69032 198
57.71043 178
57.73055 213
57.75066 187
57.77078 192
57.79089 172
57.811 197
57.83112 204
57.85123 183
57.87134 217
57.89146 190
57.91157 174
57.93168 188
57.9518 170
57.97191 197
57.99203 187
58.01214 181
58.03225 215
58.05237 205
58.07248 204
58.09259 196
58.11271 160
58.13282 180
58.15294 193
58.17305 184
58.19316 180
58.21328 157
58.23339 196
58.2535 196
58.27362 189
58.29373 178
58.31385 187
58.33396 190
58.35407 168
58.37419 185
58.3943 204
58.41441 193
58.43453 188
58.45464 184
58.47475 192
58.49487 182
58.51498 196
58.5351 191
58.55521 170
58.57532 180
58.59544 175
58.61555 183
58.63566 210
58.65578 190
58.67589 182
58.69601 172
58.71612 200
58.73623 208
58.75635 179
58.77646 197
58.79657 153
58.81669 206
58.8368 180
58.85691 175
58.87703 206
58.89714 180
58.91726 185
58.93737 194
58.95748 177
58.9776 184
58.99771 183
59.01782 163
59.03794 192
59.05805 186
59.07817 192
59.09828 199
59.11839 198
59.13851 197
59.15862 175
59.17873 200
59.19885 197
59.21896 180
59.23908 199
59.25919 202
59.2793 196
59.29942 218
59.31953 183
59.33964 230
59.35976 233
59.37987 234
59.39998 205
59.4201 223
59.44021 225
59.46033 226
59.48044 253
59.50055 253
59.52067 300
59.54078 273
59.56089 273
59.58101 284
59.60112 305
59.62124 325
59.64135 322
59.66146 393
59.68158 363
59.70169 462
59.7218 535
59.74192 609
59.76203 678
59.78215 802
59.80226 1020
59.82237 1213
59.84249 1589
59.8626 1674
59.88271 1967
59.90283 2120
59.92294 2136
59.94305 1833
59.96317 1501
59.98328 1195
60.0034 1168
60.02351 1055
60.04362 1103
60.06374 1112
60.08385 1106
60.10396 998
60.12408 809
60.14419 600
60.16431 465
60.18442 374
60.20453 296
60.22465 294
60.24476 265
60.26487 279
60.28499 254
60.3051 221
60.32522 252
60.34533 204
60.36544 222
60.38556 195
60.40567 194
60.42578 198
60.4459 183
60.46601 197
60.48612 203
60.50624 190
60.52635 186
60.54647 203
60.56658 194
60.58669 179
60.60681 201
60.62692 218
60.64703 176
60.66715 189
60.68726 197
60.70738 180
60.72749 201
60.7476 187
60.76772 214
60.78783 182
60.80794 200
60.82806 191
60.84817 179
60.86828 164
60.8884 184
60.90851 195
60.92863 196
60.94874 181
60.96885 205
60.98897 170
61.00908 171
61.02919 189
61.04931 156
61.06942 192
61.08954 180
61.10965 174
61.12976 183
61.14988 171
61.16999 190
61.1901 210
61.21022 189
61.23033 187
61.25045 182
61.27056 179
61.29067 196
61.31079 205
61.3309 182
61.35101 173
61.37113 207
61.39124 173
61.41135 139
61.43147 191
61.45158 186
61.4717 197
61.49181 193
61.51192 192
61.53204 192
61.55215 196
61.57226 196
61.59238 207
61.61249 211
61.63261 212
61.65272 181
61.67283 204
61.69295 195
61.71306 202
61.73317 218
61.75329 185
61.7734 208
61.79352 191
61.81363 205
61.83374 212
61.85386 206
61.87397 225
61.89408 199
61.9142 220
61.93431 227
61.95442 213
61.97454 216
61.99465 218
62.01477 231
62.03488 229
62.05499 246
62.07511 262
62.09522 262
62.11533 294
62.13545 267
62.15556 264
62.17568 277
62.19579 266
62.2159 289
62.23602 304
62.25613 330
62.27624 281
62.29636 299
62.31647 280
62.33659 273
62.3567 258
62.37681 253
62.39693 261
62.41704 261
62.43715 282
62.45727 248
62.47738 237
62.49749 222
62.51761 231
62.53772 229
62.55784 205
62.57795 227
62.59806 211
62.61818 225
62.63829 241
62.6584 214
62.67852 214
62.69863 205
62.71875 194
62.73886 228
62.75897 219
62.77909 205
62.7992 192
62.81931 204
62.83943 211
62.85954 199
62.87965 196
62.89977 217
62.91988 199
62.94 202
62.96011 188
62.98022 180
63.00034 213
63.02045 220
63.04056 181
63.06068 181
63.08079 212
63.10091 192
63.12102 182
63.14113 177
63.16125 186
63.18136 177
63.20147 187
63.22159 178
63.2417 178
63.26182 187
63.28193 211
63.30204 196
63.32216 184
63.34227 188
63.36238 188
63.3825 204
63.40261 172
63.42272 183
63.44284 194
63.46295 199
63.48307 185
63.50318 214
63.52329 202
63.54341 198
63.56352 198
63.58363 205
63.60375 199
63.62386 204
63.64398 202
63.66409 215
63.6842 228
63.70432 201
63.72443 216
63.74454 237
63.76466 235
63.78477 238
63.80489 273
63.825 263
63.84511 290
63.86523 328
63.88534 366
63.90545 392
63.92557 423
63.94568 485
63.96579 510
63.98591 506
64.00602 514
64.02614 497
64.04625 424
64.06636 381
64.08648 366
64.10659 367
64.1267 367
64.14682 347
64.16693 370
64.18705 339
64.20716 339
64.22727 291
64.24739 235
64.2675 242
64.28761 228
64.30773 199
64.32784 199
64.34796 225
64.36807 212
64.38818 176
64.4083 183
64.42841 216
64.44852 190
64.46864 170
64.48875 196
64.50886 182
64.52898 192
64.54909 193
64.56921 184
64.58932 173
64.60943 182
64.62955 163
64.64966 187
64.66977 179
64.68989 183
64.71 176
64.73012 167
64.75023 189
64.77034 180
64.79046 167
64.81057 186
64.83068 170
64.8508 163
64.87091 147
64.89102 193
64.91114 194
64.93125 180
64.95137 174
64.97148 169
64.99159 182
65.01171 191
65.03182 164
65.05193 179
65.07205 156
65.09216 178
65.11228 132
65.13239 194
65.1525 193
65.17262 174
65.19273 180
65.21284 158
65.23296 183
65.25307 190
65.27319 176
65.2933 166
65.31341 179
65.33353 179
65.35364 191
65.37375 189
65.39387 168
65.41398 167
65.43409 169
65.45421 177
65.47432 175
65.49444 173
65.51455 195
65.53466 190
65.55478 198
65.57489 190
65.595 200
65.61512 206
65.63523 223
65.65535 225
65.67546 240
65.69557 242
65.71569 281
65.7358 278
65.75591 250
65.77603 237
65.79614 252
65.81626 226
65.83637 218
65.85648 204
65.8766 198
65.89671 233
65.91682 212
65.93694 231
65.95705 210
65.97716 181
65.99728 175
66.01739 183
66.03751 176
66.05762 214
66.07773 173
66.09785 198
66.11796 167
66.13807 180
66.15819 171
66.1783 177
66.19842 189
66.21853 191
66.23864 149
66.25876 158
66.27887 181
66.29898 153
66.3191 163
66.33921 178
66.35933 169
66.37944 179
66.39955 172
66.41967 168
66.43978 196
66.45989 170
66.48001 182
66.50012 175
66.52023 175
66.54035 172
66.56046 188
66.58058 174
66.60069 156
66.6208 191
66.64092 187
66.66103 174
66.68114 194
66.70126 174
66.72137 170
66.74149 174
66.7616 186
66.78171 193
66.80183 173
66.82194 166
66.84205 192
66.86217 179
66.88228 201
66.90239 186
66.92251 183
66.94262 194
66.96274 185
66.98285 192
67.00296 174
67.02308 203
67.04319 199
67.0633 216
67.08342 180
67.10353 196
67.12365 199
67.14376 205
67.16387 192
67.18399 219
67.2041 186
67.22421 226
67.24433 202
67.26444 229
67.28456 236
67.30467 231
67.32478 224
67.3449 234
67.36501 259
67.38512 268
67.40524 283
67.42535 264
67.44546 276
67.46558 308
67.48569 386
67.50581 390
67.52592 412
67.54603 495
67.56615 596
67.58626 701
67.60637 776
67.62649 912
67.6466 1049
67.66672 1261
67.68683 1224
67.70694 1206
67.72706 1133
67.74717 1005
67.76728 825
67.7874 715
67.80751 734
67.82763 757
67.84774 891
67.86785 923
67.88797 963
67.90808 910
67.92819 846
67.94831 898
67.96842 832
67.98853 935
68.00865 1114
68.02876 1207
68.04888 1384
68.06899 1491
68.0891 1567
68.10922 1645
68.12933 1573
68.14944 1405
68.16956 1272
68.18967 1225
68.20979 1345
68.2299 1432
68.25001 1608
68.27013 1548
68.29024 1504
68.31035 1328
68.33047 1080
68.35058 871
68.3707 761
68.39081 669
68.41092 699
68.43104 635
68.45115 572
68.47126 582
68.49138 582
68.51149 449
68.5316 360
68.55172 293
68.57183 271
68.59195 266
68.61206 257
68.63217 250
68.65229 226
68.6724 231
68.69251 208
68.71263 216
68.73274 240
68.75286 202
68.77297 212
68.79308 197
68.8132 229
68.83331 185
68.85342 208
68.87354 197
68.89365 200
68.91376 208
68.93388 172
68.95399 209
68.97411 204
68.99422 184
69.01433 193
69.03445 215
69.05456 214
69.07467 209
69.09479 181
69.1149 178
69.13502 169
69.15513 204
69.17524 186
69.19536 169
69.21547 180
69.23558 169
69.2557 179
69.27581 181
69.29593 174
69.31604 188
69.33615 195
69.35627 180
69.37638 166
69.39649 184
69.41661 160
69.43672 180
69.45683 171
69.47695 166
69.49706 168
69.51718 178
69.53729 191
69.5574 173
69.57752 157
69.59763 166
69.61774 178
69.63786 180
69.65797 178
69.67809 177
69.6982 164
69.71831 187
69.73843 149
69.75854 163
69.77865 164
69.79877 171
69.81888 158
69.839 168
69.85911 168
69.87922 173
69.89934 165
69.91945 173
69.93956 170
69.95968 166
69.97979 186
69.9999 174
70.02002 161
70.04013 208
70.06025 196
70.08036 201
70.10047 200
70.12059 188
70.1407 192
70.16081 167
70.18093 172
70.20104 163
70.22116 159
70.24127 157
70.26138 181
70.2815 168
70.30161 170
70.32172 168
70.34184 168
70.36195 188
70.38207 191
70.40218 140
70.42229 152
70.44241 182
70.46252 147
70.48263 156
70.50275 151
70.52286 158
70.54297 150
70.56309 179
70.5832 152
70.60332 164
70.62343 157
70.64354 175
70.66366 161
70.68377 166
70.70388 163
70.724 165
70.74411 167
70.76423 177
70.78434 148
70.80445 150
70.82457 149
70.84468 163
70.86479 153
70.88491 166
70.90502 180
70.92513 161
70.94525 141
70.96536 163
70.98548 139
71.00559 147
71.0257 179
71.04582 163
71.06593 158
71.08604 160
71.10616 149
71.12627 157
71.14639 152
71.1665 161
71.18661 184
71.20673 172
71.22684 167
71.24695 171
71.26707 167
71.28718 148
71.3073 149
71.32741 154
71.34752 155
71.36764 166
71.38775 144
71.40786 174
71.42798 162
71.44809 172
71.4682 151
71.48832 175
71.50843 179
71.52855 167
71.54866 180
71.56877 157
71.58889 163
71.609 148
71.62911 161
71.64923 160
71.66934 168
71.68946 172
71.70957 163
71.72968 156
71.7498 157
71.76991 157
71.79002 167
71.81014 165
71.83025 190
71.85037 160
71.87048 167
71.89059 167
71.91071 162
71.93082 157
71.95093 173
71.97105 174
71.99116 151
72.01127 189
72.03139 188
72.0515 183
72.07162 172
72.09173 154
72.11184 169
72.13196 166
72.15207 154
72.17218 181
72.1923 169
72.21241 180
72.23253 170
72.25264 171
72.27275 147
72.29287 171
72.31298 184
72.33309 164
72.35321 169
72.37332 146
72.39344 163
72.41355 178
72.43366 164
72.45378 160
72.47389 159
72.494 172
72.51412 172
72.53423 173
72.55434 148
72.57446 176
72.59457 159
72.61469 165
72.6348 163
72.65491 154
72.67503 140
72.69514 144
72.71525 156
72.73537 139
72.75548 172
72.7756 153
72.79571 174
72.81582 161
72.83594 163
72.85605 174
72.87616 158
72.89628 188
72.91639 189
72.9365 179
72.95662 166
72.97673 165
72.99685 176
73.01696 184
73.03707 164
73.05719 174
73.0773 195
73.09741 184
73.11753 175
73.13764 226
73.15776 179
73.17787 214
73.19798 215
73.2181 229
73.23821 268
73.25832 268
73.27844 292
73.29855 317
73.31867 361
73.33878 398
73.35889 460
73.37901 478
73.39912 538
73.41923 510
73.43935 521
73.45946 462
73.47957 415
73.49969 350
73.5198 317
73.53992 300
73.56003 347
73.58014 308
73.60026 359
73.62037 370
73.64048 374
73.6606 314
73.68071 291
73.70083 273
73.72094 217
73.74105 192
73.76117 216
73.78128 180
73.80139 202
73.82151 199
73.84162 167
73.86174 171
73.88185 165
73.90196 167
73.92208 179
73.94219 171
73.9623 196
73.98242 169
74.00253 161
74.02264 155
74.04276 182
74.06287 177
74.08299 160
74.1031 158
74.12321 142
74.14333 164
74.16344 164
74.18355 172
74.20367 142
74.22378 155
74.2439 173
74.26401 166
74.28412 148
74.30424 159
74.32435 159
74.34446 175
74.36458 170
74.38469 152
74.40481 162
74.42492 177
74.44503 169
74.46515 178
74.48526 169
74.50537 148
74.52549 141
74.5456 158
74.56571 159
74.58583 150
74.60594 138
74.62606 169
74.64617 175
74.66628 158
74.6864 163
74.70651 153
74.72662 167
74.74674 134
74.76685 170
74.78697 167
74.80708 176
74.82719 165
74.84731 165
74.86742 172
74.88753 173
74.90765 184
74.92776 169
74.94787 162
74.96799 164
74.9881 165
75.00822 143
