3.00117 19821.8632221891
3.02128 18737.7490305586
3.0414 18320
3.06151 18012.7762291991
3.08162 17471.499857389
3.10174 17004.884502878
3.12185 16394.2048595026
3.14197 15985.8318292835
3.16208 15325.4868604981
3.18219 15075.1077698886
3.20231 14624.6295963513
3.22242 13887.6355922989
3.24253 13793.5794085867
3.26265 13174.395487761
3.28276 12735.6134750375
3.30288 12431.3479790207
3.32299 12072.1401301956
3.3431 11833
3.36322 11407.5633039481
3.38333 11064.6565545886
3.40344 10743.7464956642
3.42356 10060.5141024143
3.44367 10067.5415190611
3.46379 9328.24010887965
3.4839 9296
3.50401 8910.65718955267
3.52413 8292.65332570177
3.54424 8322.71537252759
3.56435 7883.05386865372
3.58447 7666.19340472895
3.60458 7389.53458504104
3.62469 6893.01954363949
3.64481 7105.92215532042
3.66492 6507.51084642415
3.68504 6379.89362478879
3.70515 6136.99008685453
3.72526 5749.42109392379
3.74538 5615.31018889786
3.76549 5182.12021309771
3.7856 5199
3.80572 5046.71897937217
3.82583 4744.60873913332
3.84595 4525.42375107946
3.86606 4304.26163992878
3.88617 4266.02946257838
3.90629 4134.148980684
3.9264 3820
3.94651 3818.91743666421
3.96663 3470.60651679422
3.98674 3374.78102154504
4.00686 3147.52731328019
4.02697 2995.94712643248
4.04708 3102.01298535255
4.0672 2921
4.08731 2800.9701021884
4.10742 2717.83949561624
4.12754 2534.81533927066
4.14765 2521.14287946762
4.16776 2398.17372677249
4.18788 2341.13319941581
4.20799 2144.06908950078
4.22811 2132.0309362862
4.24822 2150.91136728124
4.26833 2004.86970907012
4.28845 1976.79278902292
4.30856 1844.12237631454
4.32867 1897.86072193155
4.34879 1948.99846081713
4.3689 1892
4.38902 1750.8976586079
4.40913 1729.06925071257
4.42924 1763.91322858459
4.44936 1679.04260105254
4.46947 1709.05227305538
4.48958 1611.04171611394
4.5097 1629
4.52981 1544.99734761179
4.54992 1627.05302524553
4.57004 1568.72856921045
4.59015 1433.21941377802
4.61027 1407.98854491303
4.63038 1395.0563931075
4.65049 1349.977510658
4.67061 1446.01417861599
4.69072 1362.87998344142
4.71083 1300.02413356866
4.73095 1368.17776635953
4.75106 1379.12949891319
4.77118 1281.0718963411
4.79129 1250.0164353291
4.8114 1180
4.83152 1092.9567406692
4.85163 1143.2417821404
4.87174 1285.94969230358
4.89186 1123.23809921895
4.91197 1112.02512122121
4.93209 1085.96212021193
4.9522 1205
4.97231 1082.97550008457
4.99243 1116.9135279066
5.01254 981.954481073052
5.03265 1072.95715918817
5.05277 982.068317573352
5.07288 1017.99951852781
5.09299 957.015378903653
5.11311 980.004493457293
5.13322 969.030511219137
5.15334 1024.00083235411
5.17345 954.813058511895
5.19356 932.945393450192
5.21368 960.019088020767
5.23379 898.027590874382
5.2539 860
5.27402 804.009531472725
5.29413 861.035864084438
5.31425 813.810420292959
5.33436 781.912492225061
5.35447 853.969099618534
5.37459 797.040414429855
5.3947 748
5.41481 757.007835818065
5.43493 752.948589197248
5.45504 735.111527751421
5.47516 814.0142964125
5.49527 720.108707486189
5.51538 732.94513697461
5.5355 760
5.55561 692.968406579785
5.57572 673.020938896266
5.59584 715.090500512118
5.61595 725.116685680176
5.63606 663.027573979653
5.65618 690.00324494292
5.67629 648.008935989719
5.69641 659.99253379523
5.71652 615.981950050768
5.73663 639.037001162929
5.75675 629.902406732286
5.77686 591.02303714286
5.79697 616.930024996452
5.81709 653.993567728335
5.8372 647
5.85732 636.970316699532
5.87743 593.953371444437
5.89754 580.974010631677
5.91766 566.994785533677
5.93777 579.004912549986
5.95788 567.986408232376
5.978 609
5.99811 608.977770052645
6.01823 572.043773703671
6.03834 632.999564375432
6.05845 560.158866535834
6.07857 554.967142317513
6.09868 554.042120908942
6.11879 507.996765175805
6.13891 562.019964837563
6.15902 573.027701053692
6.17913 607.979954837028
6.19925 547.876846624177
6.21936 557.877797966825
6.23948 611.007081842708
6.25959 549.029655632763
6.2797 527
6.29982 509.968551662389
6.31993 506.104456663209
6.34004 604.067760970118
6.36016 559.093431919923
6.38027 550.012030811733
6.40039 535.9949097295
6.4205 553
6.44061 512.006707864685
6.46073 558.982109920898
6.48084 502.007870636215
6.50095 572.90618904032
6.52107 533.092414815481
6.54118 506.988010760503
6.56129 536.987301478088
6.58141 524.970069084876
6.60152 453.966270136798
6.62164 486.157452101027
6.64175 557.065989466627
6.66186 544.02281738399
6.68198 539.034559690802
6.70209 486.011674059892
6.7222 504
6.74232 505.989460796243
6.76243 508.046144189277
6.78255 536.950131547594
6.80266 483.050772672535
6.82277 500.978401252713
6.84289 490.005602900504
6.863 499
6.88311 525.008872018024
6.90323 519.950720060629
6.92334 494.042198124165
6.94346 549.924939608547
6.96357 527.109647874224
6.98368 466.992637154976
7.0038 528
7.02391 512.972487682485
7.04402 480.030669754699
7.06414 539.020232087167
7.08425 487.12474728392
7.10436 485.937126544474
7.12448 502.031283737831
7.14459 453.002289895889
7.16471 499.020242718735
7.18482 508.006670290224
7.20493 513.966404555338
7.22505 472.945683406522
7.24516 482.966299589897
7.26527 491.983396074813
7.28539 495.012659578243
7.3055 476
7.32562 553.028249042521
7.34573 500.877926388712
7.36584 460.03964521738
7.38596 513.919022824786
7.40607 509.053916510377
7.42618 468.033825256046
7.4463 469
7.46641 527.001349275097
7.48653 484.97763542582
7.50664 515.043049281322
7.52675 511.976764493783
7.54687 534.00332310992
7.56698 507.015164693732
7.58709 508.00740717931
7.60721 480.998443517524
7.62732 500.003475187816
7.64743 476.965696140406
7.66755 466.973911710916
7.68766 454.007847791971
7.70778 467.970799565462
7.72789 491.999757784534
7.748 483
7.76812 507.992390479622
7.78823 473.984507026976
7.80834 511.116462033002
7.82846 544.027796104685
7.84857 501.049286342438
7.86869 493.003527762274
7.8888 472
7.90891 455.999343213307
7.92903 460.996912336801
7.94914 454.007034306949
7.96925 472.941022857949
7.98937 484.012735022208
8.00948 461.025289806917
8.0296 455
8.04971 491.0112398471
8.06982 488.988417358263
8.08994 481.993986335286
8.11005 471.93206741879
8.13016 439.03275304781
8.15028 455.954799109512
8.17039 489.007650240733
8.1905 436
8.21062 427.004486705055
8.23073 443.069823278125
8.25085 492.008516195527
8.27096 459.024926199649
8.29107 485.957071924107
8.31119 490.004706209454
8.3313 484
8.35141 492.001451084109
8.37153 499.045122846224
8.39164 536.016460372622
8.41176 516.024347874871
8.43187 520.01079726637
8.45198 491.033528746881
8.4721 482
8.49221 511.992300612167
8.51232 467.991830224252
8.53244 510.084721007861
8.55255 515.052644551507
8.57266 484.071678033821
8.59278 466.978888517887
8.61289 507.988582368714
8.63301 499.993059007587
8.65312 508.032785546291
8.67323 552.057074959739
8.69335 562.947491308262
8.71346 528.05087878034
8.73357 529.963163359305
8.75369 561.985731262803
8.7738 590
8.79392 639.039702658775
8.81403 670.059297209459
8.83414 708.016314705958
8.85426 712.888433094655
8.87437 787.989133807776
8.89448 722.057274139683
8.9146 711
8.93471 675.976186859324
8.95483 626.921817189503
8.97494 578.933153943935
8.99505 552.093833738879
9.01517 516.006011251548
9.03528 539.982516624672
9.05539 530.012032655004
9.07551 506.990157555602
9.09562 488.980422540348
9.11573 478.017195542192
9.13585 493.971781471083
9.15596 474.950825561879
9.17608 519.012449279056
9.19619 447.029039354108
9.2163 451
9.23642 482.998488428402
9.25653 453.959626153824
9.27664 457.063495170308
9.29676 491.973878052239
9.31687 472.059296783691
9.33699 451.987122427152
9.3571 496
9.37721 475.005417390413
9.39733 515.00809426802
9.41744 474.934323938363
9.43755 474.983419663559
9.45767 472.999199491395
9.47778 475.008776577569
9.4979 476
9.51801 524.991794838341
9.53812 453.956208535506
9.55824 472.067337452865
9.57835 473.921496349603
9.59846 442.989093910895
9.61858 462.025970506425
9.63869 417.988002874454
9.6588 486
9.67892 428.00022277417
9.69903 499.055457658694
9.71915 481.024312581677
9.73926 514.061891126927
9.75937 433.043832322803
9.77949 476.98159198095
9.7996 458
9.81971 426.993934002226
9.83983 433.026142177326
9.85994 447.004244073025
9.88006 449.950702439916
9.90017 481.994532895205
9.92028 453.030007070065
9.9404 452
9.96051 469.986729087341
9.98062 431.016637626853
10.00074 481.991953816076
10.02085 443.904853437397
10.04097 525.030196322687
10.06108 413.049290003893
10.08119 454.99603947362
10.10131 406.999935838544
10.12142 473.046599134975
10.14153 454.935046869193
10.16165 442.085522324988
10.18176 483.020015771079
10.20187 433.031972305414
10.22199 451.000289911617
10.2421 430
10.26222 475.013422421119
10.28233 438.937265265276
10.30244 425.009530441403
10.32256 442.931039974774
10.34267 471.008383931965
10.36278 445.005892385154
10.3829 457
10.40301 421.994168471856
10.42313 442.022097168693
10.44324 436.994692601382
10.46335 450.943624583457
10.48347 465.006129953182
10.50358 450.009049179336
10.52369 451.999282714978
10.54381 447.998673217939
10.56392 444.988289233608
10.58403 435.016028207239
10.60415 453.989796147752
10.62426 424.05404535815
10.64438 421.98314594761
10.66449 442.991891469426
10.6846 454
10.70472 467.000150638959
10.72483 453.97825028341
10.74494 441.966464822168
10.76506 430.974056821248
10.78517 456.985392145067
10.80529 445.004980523473
10.8254 446
10.84551 446.01190524391
10.86563 484.031384097191
10.88574 471.93968306346
10.90585 444.048487104966
10.92597 431.021450478283
10.94608 420.992072492089
10.9662 434
10.98631 414.002720130855
11.00642 451.037644873571
11.02654 449.902486143696
11.04665 400.979067100906
11.06676 455.933201263933
11.08688 439.028139700016
11.10699 438.985767227987
11.1271 468
11.14722 435.959541289658
11.16733 411.991000766608
11.18745 425.079491243728
11.20756 452.997986499579
11.22767 436.004913450846
11.24779 451.995522250967
11.2679 454
11.28801 486.003895424521
11.30813 459.948206918104
11.32824 447.028076836021
11.34836 466.00755176959
11.36847 436.047807353188
11.38858 426.985212084031
11.4087 443
11.42881 433.014600240589
11.44892 480.000213862177
11.46904 435.957353253443
11.48915 446.040497939967
11.50927 399.035997333586
11.52938 433.92389899536
11.54949 494.99700024266
11.56961 454.981388080386
11.58972 455.023650809398
11.60983 477.012479501688
11.62995 471.984255381133
11.65006 471.996067741849
11.67017 464.038064748981
11.69029 437.002403296706
11.7104 469
11.73052 506.975738367555
11.75063 459.011270506706
11.77074 505.983242863306
11.79086 445.030831491737
11.81097 482.00183977245
11.83108 432.018111965607
11.8512 478
11.87131 510.002450769259
11.89143 496.96336056453
11.91154 474.976637796865
11.93165 470.023221718502
11.95177 460.989225587796
11.97188 480.986733973926
11.99199 479.003231593578
12.01211 495.027209116122
12.03222 544.98578823432
12.05234 495.004486148129
12.07245 554.082050842773
12.09256 510.17666455353
12.11268 446.001557793556
12.13279 498.969312601481
12.1529 520
12.17302 500.03401896642
12.19313 565.032348470467
12.21324 539.997430454002
12.23336 560.062596951468
12.25347 506.958067081124
12.27359 597.983923902659
12.2937 545
12.31381 563.017818621462
12.33393 566.949080880703
12.35404 519.943223710157
12.37415 536.855783754006
12.39427 584.017233862822
12.41438 530.0321691841
12.4345 545
12.45461 546.994281301207
12.47472 527.971414693495
12.49484 495.947035455487
12.51495 484.984245319103
12.53506 499.973329037545
12.55518 495.029714835741
12.57529 469.991959458416
12.5954 502
12.61552 449.979624222259
12.63563 476.027052184674
12.65575 457.929717054029
12.67586 438.037444211392
12.69597 415.037505894141
12.71609 402.992873280403
12.7362 440
12.75631 477.018234799042
12.77643 495.967995054453
12.79654 451.947986781254
12.81666 453.999795428172
12.83677 439.019584701902
12.85688 430.019541670944
12.877 408
12.89711 426.006288851063
12.91722 430.016576613491
12.93734 450.991507786318
12.95745 425.035929593145
12.97757 437.96550857945
12.99768 455.985134827738
13.01779 456.014343917157
13.03791 430.011203235324
13.05802 467.974950161083
13.07813 403.999870808361
13.09825 462.01985290751
13.11836 393.128389116957
13.13847 400.89941522153
13.15859 462.997733666839
13.1787 432
13.19882 466.977329495154
13.21893 395.963047478391
13.23904 440.082319104254
13.25916 438.029293672113
13.27927 431.014382600536
13.29938 421.994746886051
13.3195 429
13.33961 398.998018381463
13.35973 414.987359504712
13.37984 396.057097655203
13.39995 464.892745266517
13.42007 450.059004139491
13.44018 435.972009739668
13.46029 473.002084577663
13.48041 441.001891654389
13.50052 490.039961745454
13.52064 508.072573654291
13.54075 565.097593104019
13.56086 562.062656593395
13.58098 542.97951210112
13.60109 579.000034555444
13.6212 548
13.64132 575.008819889894
13.66143 548.958991745154
13.68154 539.992326503052
13.70166 523.069214424902
13.72177 482.045909449919
13.74189 464.009596649205
13.762 455
13.78211 489.994835735218
13.80223 439.954528853668
13.82234 455.054968705542
13.84245 457.071902440992
13.86257 428.985082557718
13.88268 460.999351846787
13.9028 415
13.92291 387.998977768969
13.94302 399.014560237979
13.96314 407.000983285483
13.98325 404.996599972255
14.00336 408.999945971891
14.02348 401.013344501662
14.04359 394.994210854167
14.06371 406.992431144285
14.08382 366.965302986209
14.10393 364.038575833612
14.12405 395.038771929506
14.14416 387.038237095147
14.16427 386.94445643922
14.18439 435.991511266049
14.2045 428
14.22461 456.987810598469
14.24473 391.958708281592
14.26484 426.084977136203
14.28496 426.081634397239
14.30507 378.033840217539
14.32518 372.030336230656
14.3453 347
14.36541 446.022525948901
14.38552 397.920211905964
14.40564 358.023152526478
14.42575 399.902164632514
14.44587 421.966128092747
14.46598 441.007047041437
14.48609 413.010555702614
14.50621 409.999464029483
14.52632 401.99252571425
14.54643 401.00619974044
14.56655 404.999768333007
14.58666 404.983776137519
14.60677 421.972501553465
14.62689 426.009367831566
14.647 396
14.66712 398.018903032723
14.68723 405.962696968102
14.70734 376.02954460733
14.72746 431.914213920997
14.74757 428.047329354168
14.76768 396.023978635324
14.7878 376
14.80791 369.027323447715
14.82803 444.018289653536
14.84814 393.941200744075
14.86825 419.916081237307
14.88837 418.04975875502
14.90848 390.987257670091
14.92859 426.995571513615
14.94871 406.999852656226
14.96882 432.007360678042
14.98894 411.971296154556
15.00905 425.073524681454
15.02916 445.009786419874
15.04928 428.998106522553
15.06939 454.986462907121
15.0895 452
15.10962 414.016801408445
15.12973 476.069418918896
15.14984 476.971649377502
15.16996 477.967442468181
15.19007 495.991323198004
15.21019 480.016658056539
15.2303 453
15.25041 471.004846693242
15.27053 450.933958316883
15.29064 420.028406172322
15.31075 453.017148097654
15.33087 400.069608366296
15.35098 398.968837396782
15.3711 420
15.39121 379.993482133052
15.41132 411.044114612307
15.43144 427.959471119713
15.45155 395.026569612233
15.47166 417.933870739284
15.49178 416.058902491129
15.51189 348.003067705387
15.53201 406.02668678697
15.55212 414.992442846597
15.57223 408.978689156879
15.59235 397.026662144114
15.61246 421.979489503499
15.63257 405.041921470272
15.65269 391.993989226617
15.6728 423
15.69291 438.997091772681
15.71303 419.971142775333
15.73314 402.950664329412
15.75326 383.978823720089
15.77337 402.030684527419
15.79348 365.982219028272
15.8136 420
15.83371 366.987165574866
15.85382 404.052399492396
15.87394 420.954214858996
15.89405 384.050653509242
15.91417 385.004877523055
15.93428 374.993575246792
15.95439 392.000820438355
15.97451 391.024001879124
15.99462 456.000744206288
16.01473 384.89604053398
16.03485 373.072696562807
16.05496 407.957146872962
16.07508 405.019614737884
16.09519 387.002783163646
16.1153 397
16.13542 408.999357187949
16.15553 401.999229979018
16.17564 407.999538260264
16.19576 401.997085432098
16.21587 413.981524745758
16.23598 406.038726054933
16.2561 374
16.27621 434.014423436345
16.29633 409.952859431404
16.31644 409.044884646431
16.33655 416.100587516695
16.35667 369.966716621807
16.37678 443.965458902529
16.39689 416.011385749275
16.41701 427.002880709803
16.43712 414.996651784267
16.45724 430.03334803691
16.47735 431.968198127044
16.49746 409.056476132958
16.51758 394.984513028319
16.53769 416.006476867186
16.5578 393
16.57792 457.013409628406
16.59803 407.940400592573
16.61814 404.981089547291
16.63826 386.970083415775
16.65837 425.981444292564
16.67849 398.015654916167
16.6986 377
16.71871 347.006250258285
16.73883 402.087127067948
16.75894 423.969529800503
16.77905 399.015031176958
16.79917 422.945448321973
16.81928 445.999217854207
16.8394 434
16.85951 434.996261999645
16.87962 419.994621551675
16.89974 417.956503640104
16.91985 392.970366590427
16.93996 440.914024813767
16.96008 444.03136466478
16.98019 407.009418483821
17.00031 418.014525046204
17.02042 428.968233627463
17.04053 378.972179688301
17.06065 408.109086529791
17.08076 424.043549967774
17.10087 383.047036782148
17.12099 386.981694107766
17.1411 430
17.16121 421.983735516024
17.18133 395.00087983586
17.20144 415.018985026518
17.22156 407.005437642405
17.24167 427.939816667643
17.26178 459.002633319621
17.2819 427
17.30201 416.001901238641
17.32212 427.017177888958
17.34224 442.010176904364
17.36235 424.115458893961
17.38247 390.958531817996
17.40258 452.978277170425
17.42269 417.018329908673
17.44281 419.011714208488
17.46292 428.978699088206
17.48303 397.998498787274
17.50315 423.019018759152
17.52326 407.005244202787
17.54338 426.985208046492
17.56349 439.979018666968
17.5836 483
17.60372 410.933767468776
17.62383 400.04957244256
17.64394 445.071466348309
17.66406 450.053553206591
17.68417 417.018472573657
17.70428 443.942113102322
17.7244 485
17.74451 436.993440970364
17.76463 471.0408013493
17.78474 459.945347203481
17.80485 452.929301601779
17.82497 478.048043244713
17.84508 413.01915453904
17.86519 450.986119538043
17.88531 429.979445654899
17.90542 399.984506955368
17.92554 404.05117854741
17.94565 428.999464579108
17.96576 411.007718243242
17.98588 436.960458489287
18.00599 464.996589647843
18.0261 454
18.04622 434.967679385123
18.06633 410.020945869337
18.08645 460.12851338826
18.10656 483.004059918615
18.12667 464.047535431227
18.14679 431.013172952236
18.1669 419
18.18701 432.009201098417
18.20713 440.983934014139
18.22724 422.994945468276
18.24735 447.896501526321
18.26747 466.052369690931
18.28758 414.002876670321
18.3077 449
18.32781 411.006256278655
18.34792 467.008469948972
18.36804 417.948454546329
18.38815 437.979751081215
18.40826 410.060631759151
18.42838 407.976485470099
18.44849 431.999100359792
18.46861 424.008572640144
18.48872 447.977423155632
18.50883 388.952679854117
18.52895 413.111728721768
18.54906 438.002382086652
18.56917 424.011158156413
18.58929 423.006952001186
18.6094 398
18.62951 412.019610321345
18.64963 446.001329514886
18.66974 418.955708892998
18.68986 419.979800652514
18.70997 427.986978623845
18.73008 432.008992772493
18.7502 428
18.77031 473.010946295143
18.79042 456.971514350323
18.81054 435.963232465708
18.83065 417.04276514536
18.85077 414.963517167547
18.87088 453.969936046028
18.89099 450.020005054637
18.91111 414.005362622681
18.93122 459.024095502015
18.95133 440.959906012674
18.97145 425.960880155985
18.99156 417.958689149195
19.01168 457.971471633567
19.03179 454.013615851724
19.0519 426
19.07202 453.084544600185
19.09213 529.981042280137
19.11224 432.811081013157
19.13236 414.905278402084
19.15247 472.962778983754
19.17258 453.0328541875
19.1927 440
19.21281 463.015073933793
19.23293 485.008348333434
19.25304 470.942610955537
19.27315 445.024858175586
19.29327 463.928373574464
19.31338 508.99019342926
19.33349 488.007566478324
19.35361 486.992507719286
19.37372 457.985456531373
19.39384 482.116883307042
19.41395 539.056721208559
19.43406 520.071529464494
19.45418 496.007913922874
19.47429 494.005137828434
19.4944 482
19.51452 493.981220187073
19.53463 470.047939017362
19.55475 535.034064859924
19.57486 484.089125461617
19.59497 506.87825610737
19.61509 582.992477110109
19.6352 555
19.65531 603.018151157961
19.67543 593.95346980569
19.69554 579.032401631312
19.71565 628.824812377747
19.73577 678.002319467744
19.75588 668.944168151957
19.776 748
19.79611 660.986629112538
19.81622 736.08470180429
19.83634 758.960396818667
19.85645 743.954239625778
19.87656 774.017184554691
19.89668 725.040156267329
19.91679 709.0124216361
19.93691 679.001138520305
19.95702 708.01285036118
19.97713 667.86983901502
19.99725 592.977382881093
20.01736 635.9450138873
20.03747 623.017302371632
20.05759 623.010114056753
20.0777 593
20.09782 627.020400289845
20.11793 614.971400973414
20.13804 605.986432811045
20.15816 609.93772147261
20.17827 640.024517706656
20.19838 594.01315613945
20.2185 625
20.23861 615.991464896662
20.25872 617.020501131187
20.27884 632.971586076631
20.29895 594.079979382127
20.31907 583.010172913656
20.33918 578.985708489562
20.35929 600.998372996989
20.37941 598.014749968217
20.39952 635.983271103477
20.41963 569.93029927658
20.43975 581.097044178694
20.45986 601.032670391446
20.47998 571.003535006899
20.50009 598.987816631845
20.5202 620
20.54032 672.987028202051
20.56043 599.909160178795
20.58054 613.153163697688
20.60066 698.902142281307
20.62077 698.02926263353
20.64088 689.000666847503
20.661 711
20.68111 793.033664714054
20.70123 842.091130957651
20.72134 921.143822377202
20.74145 995.725016714074
20.76157 1162.68658143051
20.78168 1379.79981819947
20.80179 1543.93611689758
20.82191 1631.01904256775
20.84202 1589.85698806149
20.86214 1397.67625004769
20.88225 1271.60430817507
20.90236 1044.51732934678
20.92248 837.102614850758
20.94259 785.052275022772
20.9627 638
20.98282 656.011678594747
21.00293 622.971896211727
21.02305 630.972018808127
21.04316 609.950804505577
21.06327 664.978534654294
21.08339 639.995937882708
21.1035 673
21.12361 596.977701236712
21.14373 622.073977928717
21.16384 651.01682176019
21.18395 667.865384910552
21.20407 734.960290529578
21.22418 712.028039869329
21.2443 722
21.26441 784.02772707082
21.28452 802.973000688121
21.30464 776.05729878797
21.32475 856.81790510737
21.34486 895.925005073711
21.36498 940.972124871242
21.38509 944.002808510185
21.40521 938.994320901479
21.42532 925.997309923907
21.44543 922.961557082293
21.46555 911.151267678204
21.48566 981.086509062994
21.50577 835.171917642303
21.52589 824.982236143493
21.546 845
21.56612 832.979817650849
21.58623 804.938732159557
21.60634 766.973055335413
21.62646 768.03105074553
21.64657 736.02522347771
21.66668 747.977089120817
21.6868 749
21.70691 698.987557866335
21.72702 706.007338261795
21.74714 685.913188203554
21.76725 654.964440528576
21.78737 678.05571237884
21.80748 611.99361024623
21.82759 696.96607033148
21.84771 698.990968620156
21.86782 694.998519119213
21.88793 707.071895907626
21.90805 741.8750221671
21.92816 631.148278194316
21.94828 635.968982108203
21.96839 641.010112366053
21.9885 614
22.00862 604.975598421351
22.02873 579.013199980497
22.04884 604.978814335807
22.06896 568.992232101606
22.08907 606.002624866447
22.10919 562.008688421643
22.1293 572
22.14941 509.99160200428
22.16953 556.074763235087
22.18964 567.980574363931
22.20975 547.093968129035
22.22987 529.929679002173
22.24998 590.021985370281
22.27009 510.009094322287
22.29021 565.009929339159
22.31032 513.950393561057
22.33044 515.059089886723
22.35055 549.090069298627
22.37066 563.060868997493
22.39078 514.018854097577
22.41089 529.996404745311
22.431 523
22.45112 563.023352119275
22.47123 553.972917206808
22.49135 542.972947854288
22.51146 536.978775597822
22.53157 562.957883999486
22.55169 578.998766330837
22.5718 567
22.59191 551.008914948331
22.61203 602.088813857907
22.63214 639.015765403584
22.65225 638.951343866317
22.67237 667.999054618382
22.69248 667.935269045597
22.7126 771
22.73271 742.984549731968
22.75282 749.010551881307
22.77294 742.977257403452
22.79305 744.942793939333
22.81316 780.933697388098
22.83328 783.041923732832
22.85339 723.019179189997
22.87351 703.97972070936
22.89362 654.997552982479
22.91373 688.004219040111
22.93385 631.80526860885
22.95396 578.037923846941
22.97407 593.938522064944
22.99419 616.015841503003
23.0143 541
23.03442 526.052386268597
23.05453 590.013741415436
23.07464 533.868600575729
23.09476 500.029147241459
23.11487 501.956516039697
23.13498 552.943400927709
23.1551 585
23.17521 557.994462022873
23.19532 566.998272972196
23.21544 544.958165616537
23.23555 548.921112854752
23.25567 584.978990155006
23.27578 560.054514040817
23.29589 533.974049598379
23.31601 622.015839973183
23.33612 578.955422141642
23.35623 585.05461121864
23.37635 606.956256190677
23.39646 569.028105626886
23.41658 593.964876638297
23.43669 630.970723905824
23.4568 713
23.47692 773.021951376681
23.49703 781.043861471296
23.51714 859.236307129508
23.53726 991.747480948125
23.55737 1105.83158317084
23.57749 1185.99811071332
23.5976 1140
23.61771 1168.02262672983
23.63783 1184.96832693569
23.65794 1130.85692248424
23.67805 1047.25859136237
23.69817 935.147692000563
23.71828 861.058079268287
23.73839 819.007792102607
23.75851 810.985529722879
23.77862 755.943191704059
23.79874 717.95730123733
23.81885 688.855532206828
23.83896 641.948318258303
23.85908 704.997486114221
23.87919 631.034207611538
23.8993 622
23.91942 636.992766659053
23.93953 610.958912424018
23.95965 600.016137951529
23.97976 610.996863925019
23.99987 599.023654377866
24.01999 598.987158532134
24.0401 641
24.06021 651.989582370868
24.08033 613.946558759146
24.10044 596.998604740911
24.12056 598.018483225785
24.14067 581.015076186059
24.16078 581.001372502395
24.1809 569
24.20101 569.023322661904
24.22112 632.021787564027
24.24124 597.904950770631
24.26135 574.011295725087
24.28146 584.945808413716
24.30158 597.035300507788
24.32169 530.024911415151
24.34181 546.041168003606
24.36192 635.03389796314
24.38203 615.986063663771
24.40215 619.896365430968
24.42226 557.001551465362
24.44237 608.981757557262
24.46249 586.978949942474
24.4826 657
24.50272 547.991287140686
24.52283 649.07370047174
24.54294 606.975202230545
24.56306 650.987657882584
24.58317 611.000742294576
24.60328 667.953851012293
24.6234 673
24.64351 687.003117526764
24.66362 670.967924434445
24.68374 651.029326064721
24.70385 677.02173214498
24.72397 637.032486128797
24.74408 636.027195880537
24.76419 596.99441362085
24.78431 649.010555452509
24.80442 617.966859452622
24.82453 601.956839875669
24.84465 572.027291782519
24.86476 608.988054834604
24.88488 579.014061693039
24.90499 594.995794584205
24.9251 582
24.94522 591.022093547807
24.96533 610.008706302811
24.98544 594.932934103125
25.00556 562.029242579824
25.02567 561.013619679883
25.04579 547.995383420196
25.0659 574
25.08601 561.994469702487
25.10613 555.969411722998
25.12624 541.059840258619
25.14635 606.869181151191
25.16647 601.090828698724
25.18658 546.988885971039
25.20669 596.998096058445
25.22681 547.98841416996
25.24692 587.059278039259
25.26704 612.959882806084
25.28715 573.95453848812
25.30726 589.951759923692
25.32738 604.985801600658
25.34749 619.995675281616
25.3676 621
25.38772 622.001390906981
25.40783 632.042488221362
25.42795 663.019352501847
25.44806 640.070558416759
25.46817 629.94753808777
25.48829 678.994277346361
25.5084 642
25.52851 616.991472225432
25.54863 620.071250198191
25.56874 679.024663286315
25.58886 652.002580275534
25.60897 690.957002554013
25.62908 694.984877168045
25.6492 738
25.66931 802.050040858744
25.68942 885.990369640246
25.70954 815.959802971512
25.72965 890.739421513251
25.74976 931.107838626496
25.76988 836.051789332895
25.78999 829.021798964391
25.81011 739.969886936941
25.83022 711.935404210047
25.85033 627.976211342359
25.87045 675.045253328738
25.89056 635.071108908279
25.91067 625.037434635407
25.93079 574.023262843252
25.9509 564
25.97102 591.984216157597
25.99113 561.037563412082
26.01124 638.106805966415
26.03136 619.130601886968
26.05147 572.979344925735
26.07158 621.981283986592
26.0917 584
26.11181 560.009302971818
26.13193 601.047906869912
26.15204 618.0532681024
26.17215 652.959034413827
26.19227 647.008809370742
26.21238 659.972033647922
26.23249 671.017196303764
26.25261 640.025058337093
26.27272 750.06996078451
26.29283 732.92080595808
26.31295 703.002434987383
26.33306 735.884908128022
26.35318 801.936069417609
26.37329 859.971555442806
26.3934 944
26.41352 1099.12688151354
26.43363 1212.23990571427
26.45374 1465.65319494481
26.47386 1846.15238718746
26.49397 2355.05203297464
26.51409 3067.65398735552
26.5342 3749
26.55431 4636.47812877474
26.57443 5464.80349385513
26.59454 5685.0593545472
26.61465 5538.0853382109
26.63477 4799.40505330683
26.65488 3824.93099044151
26.67499 3020.32358246276
26.69511 2386.61474659909
26.71522 1576.42153614368
26.73534 1264.47312584832
26.75545 981.639810966984
26.77556 970.07840784916
26.79568 853.082866982327
26.81579 832.020709292547
26.8359 764
26.85602 783.966318674321
26.87613 695.92263646128
26.89625 715.086307075687
26.91636 717.047657078514
26.93647 690.020923633513
26.95659 689.002041222876
26.9767 676
26.99681 673.001200525713
27.01693 684.038744550483
27.03704 718.057399205974
27.05716 736.965472367407
27.07727 759.959085582903
27.09738 791.962229653402
27.1175 813
27.13761 799.031961213663
27.15772 930.113945042165
27.17784 972.998698997156
27.19795 996.780250706569
27.21806 1140.70054597124
27.23818 1234.97619832143
27.25829 1227.9924264884
27.27841 1319.08316413787
27.29852 1503.14044825147
27.31863 1617.24186914432
27.33875 1794.20839149058
27.35886 1780.01783996467
27.37897 1817.96479599016
27.39909 1779.04384423251
27.4192 1670
27.43932 1585.96895314529
27.45943 1559.86537425634
27.47954 1379.54879873295
27.49966 1230.97683709832
27.51977 1320.99249292301
27.53988 1223.05467002013
27.56 1265
27.58011 1265.99916753483
27.60023 1312.15149935434
27.62034 1422.12706775753
27.64045 1448.86751251272
27.66057 1546.85502844045
27.68068 1588.02453292065
27.70079 1541.00805033646
27.72091 1561.00410874451
27.74102 1499.86059535334
27.76113 1344.8566613854
27.78125 1277.64803678422
27.80136 1080.26093571819
27.82148 1033.06663144505
27.84159 938.01342438801
27.8617 976
27.88182 915.946470996791
27.90193 899.975728661533
27.92204 848.836090747768
27.94216 768.098185341321
27.96227 758.984052246526
27.98239 745.031085445692
28.0025 664
28.02261 669.008435709968
28.04273 644.881541732367
28.06284 565.982811001714
28.08295 608.985317272989
28.10307 556.066899829753
28.12318 555.985802408735
28.1433 566
28.16341 568.977065879286
28.18352 528.052442252092
28.20364 618.971080627075
28.22375 512.898452734375
28.24386 584.849625376217
28.26398 573.081181157649
28.28409 507.989988099999
28.3042 576
28.32432 526.997613846071
28.34443 580.01814131395
28.36455 524.868885238074
28.38466 514.992024899657
28.40477 522.953751980046
28.42489 566.986144743574
28.445 545
28.46511 471.996346937703
28.48523 513.014649692136
28.50534 469.923600829858
28.52546 477.923147015737
28.54557 509.994104519732
28.56568 489.021071223157
28.5858 487
28.60591 500.003589684142
28.62602 493.980464534119
28.64614 472.980701901235
28.66625 479.959277709632
28.68636 488.021478405633
28.70648 469.005974894273
28.72659 471.008081411147
28.74671 436.987587882463
28.76682 439.020039470006
28.78693 452.988640769525
28.80705 445.070328752603
28.82716 488.001214392239
28.84727 445.038957334509
28.86739 456.994138268164
28.8875 466
28.90762 510.982453525119
28.92773 454.992986881892
28.94784 501.013702294987
28.96796 457.032978008427
28.98807 484.982685598225
29.00818 462.014557018713
29.0283 465
29.04841 440.000642533568
29.06853 457.980619739183
29.08864 427.022717470525
29.10875 491.829207538413
29.12887 514.038079857188
29.14898 471.029100614201
29.16909 456.015713877581
29.18921 418.99983800949
29.20932 468.06871461394
29.22943 504.973103347691
29.24955 463.977030174615
29.26966 494.95042553141
29.28978 499.982633611871
29.30989 517.014305177127
29.33 473
29.35012 532.006830676556
29.37023 474.942405438236
29.39034 496.079401888552
29.41046 508.043828202095
29.43057 489.955290836063
29.45069 540.001097011533
29.4708 488
29.49091 516.019079380853
29.51103 527.990362390332
29.53114 521.004851746015
29.55125 541.904491663252
29.57137 575.987017636701
29.59148 558.02484030754
29.6116 554
29.63171 586.004085293513
29.65182 581.022822270291
29.67194 641.129825955259
29.69205 673.987218848631
29.71216 665.940284332993
29.73228 722.968197206025
29.75239 710.01279310532
29.7725 704
29.79262 740.059701026843
29.81273 798.041919473004
29.83285 783.898781187019
29.85296 733.118795532517
29.87307 710.908910536426
29.89319 812.972691752569
29.9133 796
29.93341 799.00259277492
29.95353 799.020397137686
29.97364 829.060247628002
29.99376 831.076989023385
30.01387 766.096224508228
30.03398 732.997540661503
30.0541 748
30.07421 724.986046442768
30.09432 678.905221425811
30.11444 596.044051094978
30.13455 693.872687201865
30.15467 640.141964911325
30.17478 584.000499047472
30.19489 615.987648938074
30.21501 604.982195836249
30.23512 586.02825193446
30.25523 639.036409842905
30.27535 607.849777773906
30.29546 566.997004814551
30.31557 593.980810925977
30.33569 584.999383627027
30.3558 591
30.37592 543.983168873613
30.39603 558.998060178086
30.41614 537.001873957286
30.43626 564.96950791228
30.45637 550.034895302284
30.47648 548.969969803588
30.4966 579
30.51671 554.013394565132
30.53683 618.029667987632
30.55694 579.942349425272
30.57705 602.87390809242
30.59717 638.995401708671
30.61728 626.990818562877
30.63739 668.975191178482
30.65751 685.984206058412
30.67762 648.014037052881
30.69773 706.053121370248
30.71785 680.855960814473
30.73796 637.021061750175
30.75808 654.977370989154
30.77819 663.001199141215
30.7983 646
30.81842 615.018689639287
30.83853 650.970305780651
30.85864 572.869220988702
30.87876 561.96819834248
30.89887 572.996799297159
30.91899 565.007700277582
30.9391 547
30.95921 533.997665616342
30.97933 544.041833471419
30.99944 568.995240744862
31.01955 546.030711381721
31.03967 551.003201415892
31.05978 532.020897378838
31.0799 523
31.10001 525.997206916754
31.12012 501.957465628681
31.14024 475.047138552862
31.16035 533.891741228938
31.18046 525.095715947815
31.20058 482.006794470266
31.22069 509.984970167876
31.2408 516
31.26092 517.038745611406
31.28103 549.937756222304
31.30115 467.95147256025
31.32126 518.946633047116
31.34137 483.063923965136
31.36149 472.996794988454
31.3816 464
31.40171 433.016750311289
31.42183 491.984081110463
31.44194 420.945007779163
31.46206 465.914675744202
31.48217 470.991159627405
31.50228 487.003585455192
31.5224 451
31.54251 436.027957716908
31.56262 503.985699347379
31.58274 421.918291773504
31.60285 453.928863727309
31.62297 440.02859844586
31.64308 443.982041708753
31.66319 459.99656277937
31.68331 456.996689102793
31.70342 450.992757008117
31.72353 446.004149288085
31.74365 455.02043692352
31.76376 460.981627706444
31.78387 478.9601364934
31.80399 498.002545000622
31.8241 481
31.84422 490.984867316187
31.86433 467.028227883581
31.88444 517.035564952275
31.90456 482.089721601321
31.92467 464.990037425506
31.94478 483.975913127927
31.9649 504
31.98501 494.977548414461
32.00513 444.985169945219
32.02524 472.0323128847
32.04535 474.91366957416
32.06547 517.030448901021
32.08558 452.021526350813
32.10569 488.988728960638
32.12581 467.989591812098
32.14592 473.013082466557
32.16604 487.050459128746
32.18615 521.073505724237
32.20626 525.058853398792
32.22638 482.028135303241
32.24649 485.987271530232
32.2666 522
32.28672 562.018781692714
32.30683 552.957405873826
32.32694 540.05833054132
32.34706 587.968294073734
32.36717 563.036469048913
32.38729 558.004114175538
32.4074 533
32.42751 501.985213007599
32.44763 489.0290447466
32.46774 518.000070227705
32.48785 490.040895922519
32.50797 486.044997042177
32.52808 452.973958413938
32.5482 522
32.56831 488.974837708018
32.58842 472.019234110433
32.60854 483.916869670618
32.62865 411.086263954434
32.64876 442.884836355488
32.66888 477.995931386402
32.68899 462.008482542278
32.7091 456
32.72922 467.039432624166
32.74933 502.976708965406
32.76945 449.928993804879
32.78956 468.944599413123
32.80967 467.047382649218
32.82979 446.98341468937
32.8499 516
32.87001 505.981389324811
32.89013 486.021569069474
32.91024 514.007534102597
32.93036 489.040608633794
32.95047 506.915052570616
32.97058 564.979590962278
32.9907 547
33.01081 555.012153654089
33.03092 583.0288662227
33.05104 591.941119711491
33.07115 558.956715715162
33.09127 608.983562794311
33.11138 567.036927765607
33.13149 568.991365021906
33.15161 564.980904393724
33.17172 515.977258461926
33.19183 524.010418544641
33.21195 508.934823556087
33.23206 491.996082478914
33.25217 491.052847832648
33.27229 442.00499740531
33.2924 468
33.31252 448.002044816326
33.33263 471.996186382074
33.35274 443.991908747237
33.37286 465.004469117838
33.39297 438.00747492324
33.41308 464.97805814081
33.4332 460
33.45331 441.988817135237
33.47343 428.016552649452
33.49354 457.046372745446
33.51365 458.035619258547
33.53377 441.021001538631
33.55388 444.96862108373
33.57399 461.025956414133
33.59411 388.003207294924
33.61422 464.035476353929
33.63434 432.971400855761
33.65445 458.010630732453
33.67456 441.952012996452
33.69468 487.013781822443
33.71479 429.003696871808
33.7349 482
33.75502 453.968873869987
33.77513 457.032698141451
33.79524 466.965444891182
33.81536 433.048040082599
33.83547 432.981735387255
33.85559 441.998944108614
33.8757 451
33.89581 484.996849670991
33.91593 441.947688821056
33.93604 440.023458160932
33.95615 458.903987212758
33.97627 504.957561465784
33.99638 492.052855589646
34.0165 448
34.03661 501.013460903328
34.05672 477.968518046512
34.07684 464.983217852634
34.09695 457.986512740828
34.11706 472.978605408244
34.13718 477.988416028007
34.15729 492.998678690297
34.17741 479.991928475376
34.19752 477.014221548876
34.21763 498.019565683651
34.23775 497.990478090384
34.25786 501.971916749063
34.27797 514.006948904789
34.29809 491.014094899406
34.3182 482
34.33831 507.995646593909
34.35843 482.019383205359
34.37854 523.004226052488
34.39866 482.042204750579
34.41877 499.979204101867
34.43888 486.022305837123
34.459 489
34.47911 523.982731154133
34.49922 460.00894632465
34.51934 544.117670465812
34.53945 531.081079506654
34.55957 523.983561980399
34.57968 542.975728878632
34.59979 566.989854217268
34.61991 574.995042042769
34.64002 562.004441026923
34.66013 560.925543769033
34.68025 514.126980424912
34.70036 636.854666738092
34.72047 618.047919491594
34.74059 623.991865634235
34.7607 628
34.78082 642.050891126753
34.80093 706.049088901938
34.82104 700.988014038661
34.84116 734.845576353668
34.86127 807.975792974272
34.88138 777.015913104041
34.9015 806
34.92161 853.038563504871
34.94173 917.97646359371
34.96184 833.856495133538
34.98195 839.825738263183
35.00207 912.956896151597
35.02218 889.037985238306
35.04229 882.983165917817
35.06241 907.97992520688
35.08252 821.94468135576
35.10264 841.123614869034
35.12275 882.975420850777
35.14286 830.109993869305
35.16298 799.020458309025
35.18309 780.006245532105
35.2032 791
35.22332 829.975530052118
35.24343 748.888421380684
35.26354 742.119495056206
35.28366 804.995658833427
35.30377 757.036349043868
35.32389 778.991578927257
35.344 770
35.36411 791.018230640362
35.38423 824.02953464607
35.40434 820.948308663984
35.42445 789.051209888197
35.44457 794.954365676149
35.46468 828.981974851175
35.4848 815
35.50491 778.000335128533
35.52502 818.049107319964
35.54514 832.933819687707
35.56525 789.007736207578
35.58536 805.075576833012
35.60548 719.054037178307
35.62559 736.974616902313
35.64571 761.989600024316
35.66582 705.939795026147
35.68593 669.980643267176
35.70605 660.943928332249
35.72616 632.02118080442
35.74627 632.032207204288
35.76639 598.002408050755
35.7865 616
35.80661 569.974777583212
35.82673 558.053810381811
35.84684 591.945476293048
35.86696 531.014142076044
35.88707 573.001084993762
35.90718 523.013515864837
35.9273 554
35.94741 519.005184354684
35.96752 566.999656142456
35.98764 505.903801906618
36.00775 519.869201401453
36.02787 560.995522580452
36.04798 530.034089173233
36.06809 524.987059944743
36.08821 551.998058608342
36.10832 535.019446509979
36.12843 573.987864258514
36.14855 524.956832769276
36.16866 560.923480925815
36.18878 560.031405227154
36.20889 531.001017388259
36.229 548
36.24912 533.996429249246
36.26923 546.007165692225
36.28934 542.016538358974
36.30946 577.885679934969
36.32957 624.984351396194
36.34968 610.003074581781
36.3698 645
36.38991 704.018870867152
36.41003 739.102285569787
36.43014 822.083881196025
36.45025 819.986148643492
36.47037 856.940061748437
36.49048 858.051874762117
36.51059 794.010132520153
36.53071 810.996231979261
36.55082 759.948738511564
36.57094 741.007554666591
36.59105 739.941238714713
36.61116 684.158447277527
36.63128 608.052898142312
36.65139 569.026291233544
36.6715 520
36.69162 558.017359321033
36.71173 530.943810145628
36.73184 519.032366420741
36.75196 550.93577945883
36.77207 562.024875702662
36.79219 536.005169499036
36.8123 547
36.83241 548.998294158567
36.85253 542.982840673839
36.87264 523.948963964119
36.89275 507.977147539142
36.91287 540.940390068667
36.93298 560.012876018186
36.9531 534
36.97321 557.019874915618
36.99332 582.996174282213
37.01344 553.93289829709
37.03355 539.975473423284
37.05366 555.005052414262
37.07378 539.999498593441
37.09389 542.01916842489
37.11401 497.0123402344
37.13412 569.020393245921
37.15423 519.943025348917
37.17435 528.023590957831
37.19446 511.052937867646
37.21457 503.962717263263
37.23469 535.999284710985
37.2548 504
37.27491 493.997629753664
37.29503 478.962212380517
37.31514 472.079838005231
37.33526 524.000972668574
37.35537 473.053076524628
37.37548 485.971645113081
37.3956 498
37.41571 476.979312464142
37.43582 443.004803641985
37.45594 487.104465022793
37.47605 505.071939555841
37.49617 461.022301809526
37.51628 481.980659596272
37.53639 480.002869227216
37.55651 475.992851498103
37.57662 466.021141480261
37.59673 496.988761446088
37.61685 464.006599047598
37.63696 509.928933983181
37.65708 505.022642495324
37.67719 483.012725398531
37.6973 465
37.71742 492.032095693078
37.73753 518.037100412185
37.75764 527.952681813079
37.77776 488.038640554719
37.79787 497.982382176973
37.81798 486.033570731703
37.8381 449
37.85821 452.013282990097
37.87833 484.032747103965
37.89844 479.938992664697
37.91855 460.92132887191
37.93867 512.995352406442
37.95878 466.028541430362
37.97889 480.992300846174
37.99901 472.993924915988
38.01912 474.012367212414
38.03924 483.991020454739
38.05935 471.998741808191
38.07946 482.992990264162
38.09958 476.001606472121
38.11969 482.998551401035
38.1398 497
38.15992 550.989101226156
38.18003 497.990319932316
38.20015 536.988160929193
38.22026 479.062254576802
38.24037 502.957943714528
38.26049 507.997199734858
38.2806 520
38.30071 506.995050313023
38.32083 504.99176470898
38.34094 498.009931246973
38.36105 517.939484412573
38.38117 523.040966761919
38.40128 483.019206033592
38.4214 493
38.44151 501.007572627464
38.46162 517.999613894712
38.48174 498.960657242213
38.50185 485.047934328276
38.52196 462.027605584244
38.54208 464.985456368433
38.56219 479.995351806479
38.58231 480.998024014564
38.60242 475.9945739461
38.62253 483.04752165309
38.64265 509.95048882902
38.66276 461.0359430402
38.68287 485.969454383593
38.70299 482.998849137477
38.7231 500
38.74321 491.987809835793
38.76333 470.998128032109
38.78344 502.118959063316
38.80356 553.978806548486
38.82367 516.090867794221
38.84378 473.009990738234
38.8639 494
38.88401 520.005765381645
38.90412 507.960922685644
38.92424 467.979080464272
38.94435 486.954572863526
38.96447 484.021706241538
38.98458 476.990076945317
39.00469 494.996236567321
39.02481 488.997914949865
39.04492 503.033102473461
39.06503 537.022613529188
39.08515 530.97500390821
39.10526 518.063060930218
39.12538 480.01584161045
39.14549 487.997386098694
39.1656 482
39.18572 489.997093320378
39.20583 476.993578569704
39.22594 498.088174568388
39.24606 545.933281626092
39.26617 556.007429302147
39.28628 553.989586943956
39.3064 578
39.32651 604.011619023665
39.34663 642.10389762053
39.36674 734.175978511247
39.38685 775.061556846576
39.40697 722.038540638637
39.42708 738.980312292556
39.44719 721.027999183459
39.46731 633.94548975527
39.48742 546.972763568606
39.50754 574.078355972173
39.52765 576.8995347318
39.54776 524.054668535165
39.56788 524.008169310359
39.58799 501.004308840011
39.6081 493
39.62822 430.999533908408
39.64833 480.020028623982
39.66845 438.926364988659
39.68856 459.91068205282
39.70867 487.008908470295
39.72879 457.01478946268
39.7489 444
39.76901 442.000557401862
39.78913 449.021853128143
39.80924 454.958771058469
39.82935 433.942283334846
39.84947 476.013620759395
39.86958 425.013245751603
39.8897 467
39.90981 460.990472989341
39.92992 460.020461046759
39.95004 485.017770878369
39.97015 477.013191647369
39.99026 482.987582562588
40.01038 477.019512897184
40.03049 459.998375866173
40.05061 485.01516743979
40.07072 502.000726494858
40.09083 484.949983984772
40.11095 462.033226600234
40.13106 515.855580470069
40.15117 557.028578363085
40.17129 511.005220304136
40.1914 559
40.21152 599.006145595676
40.23163 584.979264258285
40.25174 584.008901007068
40.27186 575.067200353637
40.29197 540.001888440315
40.31208 562.997457433884
40.3322 546
40.35231 562.980421261846
40.37242 488.977222611474
40.39254 520.004340276683
40.41265 480.031525309724
40.43277 514.950026945712
40.45288 497.069790693667
40.47299 428.006811711064
40.49311 472.024735141999
40.51322 492.006644516921
40.53333 485.948499698367
40.55345 447.998198148809
40.57356 479.961469450831
40.59368 464.028698842728
40.61379 458.983553115688
40.6339 493
40.65402 446.997062183452
40.67413 493.042759095908
40.69424 474.944333804184
40.71436 476.930161080337
40.73447 512.997588418705
40.75458 490.002266948045
40.7747 515
40.79481 495.983512459671
40.81493 480.02133407932
40.83504 497.964328764741
40.85515 455.043045284045
40.87527 471.986078019456
40.89538 462.995963979851
40.91549 481.997827562727
40.93561 466.995291676101
40.95572 479.024452147433
40.97584 494.990308568241
40.99595 471.934514753307
41.01606 473.906448142774
41.03618 521.014702404099
41.05629 454.023672659928
41.0764 458
41.09652 447.965502111389
41.11663 418.003930184734
41.13675 453.098050861332
41.15686 463.050532664837
41.17697 439.965767001839
41.19709 483.003355936495
41.2172 437
41.23731 480.008535614908
41.25743 445.944915860462
41.27754 441.027264215849
41.29765 455.970189546651
41.31777 468.966922469242
41.33788 488.004650101994
41.358 460
41.37811 450.00597145804
41.39822 484.054102994826
41.41834 516.943060149142
41.43845 456.058622674504
41.45856 490.91019054023
41.47868 512.985989279578
41.49879 529.992239999329
41.51891 536.997774077647
41.53902 534.014234857614
41.55913 558.015401888552
41.57925 550.988267335525
41.59936 559.971200416537
41.61947 568.998844318098
41.63959 567.996769293244
41.6597 566
41.67982 515.980733609212
41.69993 526.99466891756
41.72004 505.000987785466
41.74016 518.050408566126
41.76027 464.033008376908
41.78038 486.97963422208
41.8005 483
41.82061 482.989220409722
41.84072 446.981411418023
41.86084 455.024934717233
41.88095 448.070347726093
41.90107 422.993000875086
41.92118 453.972857932245
41.94129 462.996893798525
41.96141 461.985936847633
41.98152 416.968923340578
42.00163 433.09914501959
42.02175 493.991493973226
42.04186 445.033371572585
42.06198 475.983413871654
42.08209 460.002412078505
42.1022 486
42.12232 498.991078842513
42.14243 480.982250445925
42.16254 482.011203575462
42.18266 482.015099140673
42.20277 475.989992526981
42.22289 498.984257068249
42.243 515
42.26311 501.019737185443
42.28323 576.060720856047
42.30334 582.080068739598
42.32345 660.869198614757
42.34357 651.065781899634
42.36368 627.975225023946
42.38379 681.981482339375
42.40391 687.001633633766
42.42402 683.955878143868
42.44414 603.850522054581
42.46425 564.970454149289
42.48436 562.006239715585
42.50448 550.020354363262
42.52459 521.018897913626
42.5447 494
42.56482 516.005223900788
42.58493 488.939376778803
42.60505 451.913437072358
42.62516 438.940519416206
42.64527 486.96961619391
42.66539 468.011950508404
42.6855 466
42.70561 472.993972319413
42.72573 450.986080729341
42.74584 458.009096015954
42.76595 451.022096768505
42.78607 451.980651602289
42.80618 470.98314835108
42.8263 473
42.84641 456.004403119358
42.86652 479.000327273549
42.88664 450.949631968998
42.90675 455.920846329779
42.92686 484.005923910647
42.94698 459.010505158041
42.96709 460.013355986392
42.98721 426.009492195759
43.00732 473.992684808951
43.02743 411.952239149825
43.04755 442.098979209168
43.06766 448.038318320955
43.08777 426.016346247949
43.10789 424.004498104713
43.128 403
43.14812 403.033428711492
43.16823 439.997838084087
43.18834 399.926075752115
43.20846 392.981794059172
43.22857 399.003345159368
43.24868 387.018015088494
43.2688 376
43.28891 397.01260568395
43.30902 412.000923096538
43.32914 404.989852719382
43.34925 401.033347047971
43.36937 384.006180378759
43.38948 394.988202145229
43.40959 398.000635382461
43.42971 406.013073601374
43.44982 427.986221401661
43.46993 395.998473341655
43.49005 434.090157486608
43.51016 429.089336268667
43.53028 396.967869738266
43.55039 458.997306172074
43.5705 409
43.59062 440.008641370473
43.61073 411.987738196738
43.63084 441.05464348713
43.65096 430.094314061759
43.67107 387.99526589753
43.69119 431.979955287823
43.7113 423
43.73141 364.99812801073
43.75153 403.021632978485
43.77164 375.957045015799
43.79175 387.933579852181
43.81187 406.988434165256
43.83198 408.994637844638
43.85209 427.983253966184
43.87221 442.981037635858
43.89232 393.013685993612
43.91244 452.020545403453
43.93255 403.943350405976
43.95266 425.000232907632
43.97278 390.018520344152
43.99289 407.988316784463
44.013 418
44.03312 432.013800571791
44.05323 436.989272866055
44.07335 419.947226217186
44.09346 413.954157584145
44.11357 445.989365878026
44.13369 418.019540131246
44.1538 387
44.17391 383.020965841329
44.19403 440.025957957452
44.21414 413.961949299185
44.23426 430.936557288299
44.25437 446.018601792717
44.27448 408.050534293504
44.2946 379
44.31471 427.024426790592
44.33482 445.98990078242
44.35494 416.923130252342
44.37505 400.926128195385
44.39516 455.92664614432
44.41528 447.038611023699
44.43539 413.005217464566
44.45551 422.002820544758
44.47562 413.990794103012
44.49573 410.997559031365
44.51585 404.972061662209
44.53596 402.955271496544
44.55607 445.933954794112
44.57619 454.023090881257
44.5963 392
44.61642 415.011039598243
44.63653 402.008767343051
44.65664 432.033053084471
44.67676 421.030337259467
44.69687 413.018807228618
44.71698 407.973479892933
44.7371 453
44.75721 438.981650981575
44.77732 407.986816978382
44.79744 411.011883475198
44.81755 408.026313791823
44.83767 395.017330780181
44.85778 388.999997309625
44.87789 396.991262694138
44.89801 411.999356161374
44.91812 405.011534177882
44.93823 427.000001702947
44.95835 400.940790210729
44.97846 393.013089232222
44.99858 393.970849729001
45.01869 421.013295332841
45.0388 369
45.05892 426.030481573112
45.07903 406.982651218368
45.09914 418.990097397836
45.11926 395.008569407264
45.13937 418.966690817511
45.15949 421.003428118672
45.1796 421
45.19971 427.991402334432
45.21983 403.0057423672
45.23994 434.040123463031
45.26005 429.016228895539
45.28017 435.982376722606
45.30028 447.983827430357
45.32039 452.014339360871
45.34051 421.009046272089
45.36062 456.971313458565
45.38074 387.995912748416
45.40085 458.101880815582
45.42096 446.970373180669
45.44108 492.995880109433
45.46119 439.027475866172
45.4813 436
45.50142 485.009992187755
45.52153 463.996779897593
45.54165 487.011850021149
45.56176 452.104654004018
45.58187 425.965911416309
45.60199 482.973225118395
45.6221 500
45.64221 482.003865852729
45.66233 522.076336042649
45.68244 553.001065584478
45.70256 538.010485711126
45.72267 548.987148206954
45.74278 553.981242436587
45.7629 576
45.78301 541.978886643755
45.80312 514.989957114575
45.82324 505.949898352283
45.84335 483.955587200719
45.86346 531.93678244226
45.88358 511.063263842127
45.90369 453.007080948217
45.92381 484.019585131676
45.94392 483.949860644931
45.96403 425.982215960299
45.98415 448.983460009486
46.00426 416.977219035377
46.02437 470.959831605503
46.04449 433.035195779346
46.0646 389
46.08472 436.038669785497
46.10483 440.985277549082
46.12494 433.989185603387
46.14506 423.044169131047
46.16517 414.94430698874
46.18528 477.962596641928
46.2054 451
46.22551 379.993274295878
46.24563 422.069706409381
46.26574 433.977033575827
46.28585 426.964269943673
46.30597 448.005878294842
46.32608 424.007382815068
46.34619 444.987810633293
46.36631 439.978798055614
46.38642 399.007938702396
46.40653 456.088052260938
46.42665 459.847467350427
46.44676 396.981126638055
46.46688 469.946468644827
46.48699 458.020680582331
46.5071 428
46.52722 434.023219424786
46.54733 464.042002712006
46.56744 472.962144016377
46.58756 447.005760891907
46.60767 461.007700933812
46.62779 429.015053249509
46.6479 426
46.66801 454.010144892666
46.68813 454.976358420974
46.70824 436.983912391775
46.72835 440.984627524328
46.74847 439.015819540611
46.76858 433.984820812969
46.78869 446.014680165115
46.80881 395.994500650061
46.82892 424.007839120903
46.84904 405.012792757043
46.86915 438.021790417406
46.88926 412.040575822613
46.90938 416.990171667153
46.92949 417.002064812334
46.9496 417
46.96972 418.983256590039
46.98983 389.969380936783
47.00995 383.985052610904
47.03006 386.929618765508
47.05017 424.023200731248
47.07029 368.014779996322
47.0904 385
47.11051 380.999639146204
47.13063 381.964971955778
47.15074 353.020856788976
47.17086 402.912278063623
47.19097 401.06443518372
47.21108 354.018046459819
47.2312 380
47.25131 419.001460538362
47.27142 394.980745406339
47.29154 385.951245214696
47.31165 356.99124303185
47.33176 389.955176500401
47.35188 387.003393916616
47.37199 402.985016131263
47.39211 422.995459966667
47.41222 397.991375553339
47.43233 411.011816775377
47.45245 412.047171826431
47.47256 416.136134113339
47.49267 324.01370639552
47.51279 396.976450606249
47.5329 382
47.55302 408.010302318676
47.57313 391.991902458818
47.59324 405.004953719842
47.61336 394.991067967504
47.63347 403.039384112626
47.65358 358.009629773955
47.6737 393
47.69381 402.001088666837
47.71393 410.011058590043
47.73404 403.948431562043
47.75415 374.028609023994
47.77427 394.932710118771
47.79438 433.989036767978
47.81449 416.012929234874
47.83461 398.994008601565
47.85472 393.005144452008
47.87483 404.009559444608
47.89495 409.042788865903
47.91506 432.976912527927
47.93518 424.018713852375
47.95529 398.020548058692
47.9754 382
47.99552 471.027784275597
48.01563 428.956391173289
48.03574 437.980527227166
48.05586 391.089765214022
48.07597 387.939442913325
48.09609 442.98085214747
48.1162 449
48.13631 428.98283924402
48.15643 398.999265716852
48.17654 423.037225011885
48.19665 432.931866710716
48.21677 465.999392612301
48.23688 441.004744790942
48.257 464
48.27711 448.989386740189
48.29722 442.006828513878
48.31734 460.053643560282
48.33745 473.95335940479
48.35756 435.053159728765
48.37768 427.014974463094
48.39779 407.997051920264
48.4179 437
48.43802 435.993003530444
48.45813 429.978907982992
48.47825 429.106091181715
48.49836 474.048779358155
48.51847 401.043093015427
48.53859 451.963441954604
48.5587 477
48.57881 418.988227629218
48.59893 430.990910768105
48.61904 401.993604531559
48.63916 427.980508268851
48.65927 415.991204039231
48.67938 433.018415798218
48.6995 384
48.71961 401.016450919494
48.73972 415.991344692576
48.75984 407.039243151489
48.77995 424.114390610566
48.80006 350.013195946656
48.82018 425.922789264265
48.84029 433.027233245136
48.86041 384.007763251206
48.88052 431.989498069058
48.90063 376.003466346631
48.92075 433.011658266806
48.94086 372.065572310131
48.96097 409.912970049132
48.98109 428.016080162462
49.0012 380
49.02132 406.041571585641
49.04143 427.993493716089
49.06154 416.011010996124
49.08166 428.035308869618
49.10177 390.018755458898
49.12188 411.98034604809
49.142 414
49.16211 427.00141671728
49.18223 422.010441160513
49.20234 431.968632205696
49.22245 410.942735852973
49.24257 465.961852002925
49.26268 453.996034853448
49.28279 479.001294592344
49.30291 447.994298293869
49.32302 461.997570001429
49.34313 433.968791035475
49.36325 454.155147202332
49.38336 512.984027701684
49.40348 481.013956456649
49.42359 496.001490799202
49.4437 468
49.46382 471.982791441923
49.48393 437.988027190527
49.50404 459.021159538228
49.52416 452.979231114548
49.54427 476.997682938467
49.56439 451.011150497369
49.5845 448
49.60461 448.004448344715
49.62473 446.940382327944
49.64484 390.959428161975
49.66495 422.877562401129
49.68507 455.972668357831
49.70518 458.017237513938
49.7253 434
49.74541 433.000983083726
49.76552 434.006966737099
49.78564 445.012015357922
49.80575 447.019374954482
49.82586 455.014331016494
49.84598 438.005974503533
49.86609 463.971076148603
49.8862 519
49.90632 494.969583487872
49.92643 500.07328376875
49.94655 578.207620219526
49.96666 636.945801323803
49.98677 650.961589189884
50.00689 716.945444063937
50.027 805
50.04711 771.031087039827
50.06723 923.159331342995
50.08734 921.925605534369
50.10746 881.164406786306
50.12757 760.175089333203
50.14768 675.065934974373
50.1678 629
50.18791 643.006531749303
50.20802 635.979249018937
50.22814 618.996616654536
50.24825 613.102040749272
50.26837 537.119089577934
50.28848 471.065477968018
50.30859 435.980117082043
50.32871 504.002311400012
50.34882 431.929515826584
50.36893 420.040247444942
50.38905 451.050002611021
50.40916 457.987258405049
50.42927 468.987910217186
50.44939 468.004359188821
50.4695 458
50.48962 448.975954014178
50.50973 428.01891898927
50.52984 466.049184288468
50.54996 463.013116734224
50.57007 472.966391949765
50.59018 491.996559838173
50.6103 478
50.63041 476.016713803089
50.65053 504.951938485707
50.67064 442.991688743359
50.69075 493.96090328817
50.71087 454.038305851775
50.73098 477.961421939128
50.75109 492.007685559669
50.77121 464.992102316441
50.79132 479.039852297929
50.81143 523.044365198578
50.83155 529.984750588338
50.85166 538.915434395485
50.87178 588.987126690608
50.89189 554.02439458624
50.912 539
50.93212 572.97308931216
50.95223 500.941224900491
50.97234 524.075686459861
50.99246 531.045235273094
51.01257 501.024247035635
51.03269 503.996732714981
51.0528 503
51.07291 491.986881828065
51.09303 461.979893716214
51.11314 466.004811678142
51.13325 457.027589821524
51.15337 441.049183135581
51.17348 408.003980281673
51.1936 437
51.21371 447.988487026871
51.23382 398.942011447464
51.25394 369.038612304677
51.27405 407.981321555484
51.29416 389.973423821046
51.31428 435.97745917625
51.33439 412.018824969279
51.3545 389
51.37462 381.996884893428
51.39473 381.001185475839
51.41485 388.044785429039
51.43496 399.037390225336
51.45507 369.995416111346
51.47519 405.986473219988
51.4953 398
51.51541 371.991140328877
51.53553 369.018090646404
51.55564 379.986778620634
51.57576 367.977212704293
51.59587 395.986748395395
51.61598 375.025633337745
51.6361 365
51.65621 368.000031627969
51.67632 368.007539327098
51.69644 375.987317752397
51.71655 367.955647669952
51.73667 401.980689231075
51.75678 400.970588544932
51.77689 436.014585752361
51.79701 349.96763784199
51.81712 356.049540307082
51.83723 399.019299783395
51.85735 376.903460153395
51.87746 358.955458784631
51.89757 400.967962727253
51.91769 393.002992386165
51.9378 394
51.95792 363.992619358035
51.97803 390.054116951294
51.99814 413.018578121954
52.01826 410.027063087541
52.03837 391.031190825222
52.05848 377.998827457869
52.0786 394
52.09871 406.992725676376
52.11883 384.005060413131
52.13894 401.972630884786
52.15905 367.990674686242
52.17917 407.974987716991
52.19928 393.992635159485
52.21939 427.993283866568
52.23951 404.985907837885
52.25962 402.021801772832
52.27974 421.983450276334
52.29985 405.050125419919
52.31996 447.988914143664
52.34008 411.02452138517
52.36019 418.99704010067
52.3803 410
52.40042 414.990669492653
52.42053 390.973962435789
52.44064 398.056364870931
52.46076 417.035637623272
52.48087 383.998315420558
52.50099 422.98455240721
52.5211 409
52.54121 360.992232801555
52.56133 389.078994810003
52.58144 421.973791717348
52.60155 376.096730605217
52.62167 381.926925106222
52.64178 423.016130226252
52.6619 370
52.68201 394.004127434791
52.70212 387.037337095441
52.72224 453.037297466905
52.74235 415.070588373611
52.76246 425.97258312907
52.78258 423.002655005437
52.80269 424.004524451582
52.8228 408
52.84292 422.026678100414
52.86303 436.978554905423
52.88315 404.948976486486
52.90326 415.933620621149
52.92337 442.002896964744
52.94349 404.030508771033
52.9636 368
52.98371 428.015911298619
53.00383 412.972578359385
53.02394 428.083069700581
53.04406 452.062984794576
53.06417 380.088478443247
53.08428 368.980545231457
53.1044 401
53.12451 436.002845577946
53.14462 409.960302622863
53.16474 393.049703035574
53.18485 430.000394617034
53.20497 395.02752982678
53.22508 416.965411369982
53.24519 428.010757680739
53.26531 392.989974618574
53.28542 404.030189749442
53.30553 430.014623301273
53.32565 404.83380296215
53.34576 353.941024313536
53.36587 435.937798839063
53.38599 419.998942669694
53.4061 455
53.42622 421.976658731104
53.44633 430.018201930244
53.46644 424.967336597768
53.48656 415.977164985817
53.50667 432.012510782536
53.52678 411.989816297956
53.5469 445
53.56701 417.991430076889
53.58713 435.048905497488
53.60724 453.988253555869
53.62735 431.052182739881
53.64747 421.013443801559
53.66758 408.0119377808
53.68769 401.001499871859
53.70781 419.028394489181
53.72792 470.984782619324
53.74804 413.977869867811
53.76815 459.060854554152
53.78826 431.070862247667
53.80838 421.993005865734
53.82849 429.997810781083
53.8486 441
53.86872 481.018938579716
53.88883 466.954163220906
53.90894 454.045502834995
53.92906 492.966270730871
53.94917 472.0551708114
53.96929 445.006475934032
53.9894 445
54.00951 454.004010472032
54.02963 456.993656304881
54.04974 446.975891586699
54.06985 439.002999209391
54.08997 440.005924275472
54.11008 433.997896683532
54.1302 443
54.15031 436.99454269429
54.17042 430.000427089858
54.19054 435.006527081047
54.21065 427.055719220149
54.23076 405.007095665557
54.25088 428.957805869571
54.27099 459.002058169383
54.29111 421.976741873803
54.31122 400.014163138044
54.33133 439.061161248475
54.35145 454.966900508524
54.37156 426.052856634461
54.39167 406.040497740521
54.41179 391.983513317894
54.4319 442
54.45201 396.986100245233
54.47213 418.055883735052
54.49224 434.984192107386
54.51236 413.040768298552
54.53247 412.964082248717
54.55258 442.986004918767
54.5727 446
54.59281 460.982481926704
54.61292 394.969123704656
54.63304 434.156625891255
54.65315 501.909309068621
54.67327 504.022793425987
54.69338 499.981369451813
54.71349 524.998375297984
54.73361 502.988701727933
54.75372 513.051437660372
54.77383 573.0388501826
54.79395 561.977324256971
54.81406 584.90815614174
54.83417 616.020392701886
54.85429 569.019456959832
54.8744 548
54.89452 504.982788567194
54.91463 516.010845586059
54.93474 511.012232615788
54.95486 533.956435832843
54.97497 527.068440322686
54.99508 479.003216369185
55.0152 508
55.03531 467.982186462303
55.05543 456.983268163659
55.07554 442.005171107987
55.09565 463.946225653758
55.11577 474.985418797992
55.13588 481.009618394033
55.15599 465.999017557853
55.17611 478.997857843968
55.19622 455.985246590953
55.21634 463.031288035911
55.23645 474.014737961171
55.25656 486.935745709741
55.27668 513.01820357739
55.29679 464.013871064638
55.3169 474
55.33702 449.935104464791
55.35713 400.039026636432
55.37724 470.042025628502
55.39736 425.070321353791
55.41747 435.972522497882
55.43759 443.990696753798
55.4577 454
55.47781 386.983696628132
55.49793 406.039462532243
55.51804 413.009688464171
55.53815 423.98024076388
55.55827 429.978719473298
55.57838 437.025867370454
55.5985 408
55.61861 463.00410545749
55.63872 407.943152075999
55.65884 398.050739090222
55.67895 424.985119559163
55.69906 413.009211549982
55.71918 423.990647773914
55.73929 423.001472963916
55.75941 415.989272148016
55.77952 399.017137253096
55.79963 433.005667974809
55.81975 407.985965419564
55.83986 432.962779643431
55.85997 427.018306626433
55.88009 412.016224931199
55.9002 374
55.92031 395.023180693079
55.94043 434.014655090549
55.96054 410.924061979085
55.98066 382.025603184601
56.00077 379.008935540711
56.02088 372.990218190358
56.041 393
56.06111 380.989997185823
56.08122 374.014826216809
56.10134 395.00506076379
56.12145 381.010079224834
56.14157 393.984120221039
56.16168 393.999480673439
56.18179 412.977988603389
56.20191 443.986258409526
56.22202 384.982218631678
56.24213 421.045379794646
56.26225 407.912876283823
56.28236 388.972585914809
56.30248 418.986959713695
56.32259 408.004532482797
56.3427 412
56.36282 403.987839192069
56.38293 412.069625139417
56.40304 461.999525702788
56.42316 423.024916949967
56.44327 448.982799803941
56.46338 426.02426483629
56.4835 429
56.50361 451.999179850976
56.52373 433.993390550753
56.54384 458.074816020797
56.56395 472.079428203392
56.58407 427.999845962447
56.60418 463.992855154184
56.62429 433.006785719748
56.64441 446.998155903252
56.66452 417.983436825897
56.68464 431.04464971172
56.70475 439.982132090574
56.72486 417.07056635311
56.74498 394.985785820422
56.76509 443.970592588222
56.7852 464
56.80532 408.008001539674
56.82543 470.044725646996
56.84554 440.941583788866
56.86566 440.004925006981
56.88577 429.990422436951
56.90589 444.005643174759
56.926 428
56.94611 476.989181237976
56.96623 404.977468811765
56.98634 457.045329684526
57.00645 422.061739127198
57.02657 426.024645499386
57.04668 393.993035458672
57.0668 444
57.08691 435.975075999469
57.10702 387.990197193043
57.12714 412.035204297482
57.14725 412.965407318185
57.16736 435.008978467768
57.18748 403.025391514269
57.20759 402.994751837371
57.22771 410.002134751726
57.24782 415.008250821617
57.26793 420.99333660748
57.28805 418.046178719222
57.30816 444.995818842294
57.32827 426.004734988987
57.34839 437.006756023256
57.3685 398
57.38861 400.004204438398
57.40873 406.02486959004
57.42884 423.993922647413
57.44896 402.032385716532
57.46907 392.04125028018
57.48918 360.996079585682
57.5093 399
57.52941 407.001692933951
57.54952 409.98680562588
57.56964 387.98526146913
57.58975 393.019933910705
57.60987 369.025958525878
57.62998 376.970660630696
57.65009 405.994849529865
57.67021 390.985651087561
57.69032 367.991093101698
57.71043 378.038437135018
57.73055 395.974917302512
57.75066 372.006751802711
57.77078 392.985308868025
57.79089 388.003798659732
57.811 388
57.83112 391.013441681994
57.85123 404.994329711846
57.87134 389.99714905469
57.89146 396.034610941648
57.91157 365.005899236736
57.93168 383.005995185366
57.9518 360
57.97191 400.002051427228
57.99203 372.009298067127
58.01214 414.026512543943
58.03225 373.13954438774
58.05237 345.989085410106
58.07248 365.994436509161
58.09259 356.998304318017
58.11271 376.005334501782
58.13282 380.022549813115
58.15294 411.007286439771
58.17305 376.883747449027
58.19316 364.909990982567
58.21328 420.005057914064
58.23339 365.012235068804
58.2535 393
58.27362 381.986184955942
58.29373 383.004878177509
58.31385 383.009460737937
58.33396 390.989141262834
58.35407 392.993590854102
58.37419 397.002315584636
58.3943 381
58.41441 379.018563164721
58.43453 419.984127224263
58.45464 366.937891835239
58.47475 384.924473489197
58.49487 404.964537739562
58.51498 419.023265573772
58.5351 378
58.55521 389.990250128484
58.57532 345.993348990051
58.59544 385.062815380968
58.61555 389.96973231686
58.63566 412.993101991212
58.65578 380.055450789909
58.67589 349.984808887213
58.69601 416.020581404519
58.71612 399.954002558955
58.73623 366.994858508837
58.75635 381.007909924788
58.77646 378.947249915768
58.79657 415.010919407228
58.81669 369.013348475942
58.8368 388
58.85691 405.000134712879
58.87703 392.970523015125
58.89714 376.989522745539
58.91726 380.990423171362
58.93737 378.016379297609
58.95748 365.00881808659
58.9776 369
58.99771 396.012074283582
59.01782 398.973597254158
59.03794 362.965784175052
59.05805 376.927351868845
59.07817 402.969737398515
59.09828 412.005214170126
59.11839 398.007083635181
59.13851 392.00109324703
59.15862 397.002440469613
59.17873 405.040317726249
59.19885 430.978887984051
59.21896 395.045618561911
59.23908 396.004553803363
59.25919 389.986950062203
59.2793 433
59.29942 409.991605945473
59.31953 422.990065320437
59.33964 393.973868319439
59.35976 410.954160704311
59.37987 420.00162491773
59.39998 402.045342086205
59.4201 361
59.44021 409.020137558144
59.46033 410.972316822738
59.48044 402.025349581621
59.50055 419.020956127754
59.52067 391.017955743469
59.54078 409.970761197091
59.56089 421.0077257082
59.58101 403.005890437495
59.60112 426.986291775782
59.62124 393.026222599859
59.64135 443.023877961634
59.66146 411.989435281299
59.68158 462.971056541224
59.70169 462.984366078652
59.7218 507
59.74192 438.988260545485
59.76203 507.105351721751
59.78215 533.027871611487
59.80226 555.937892769846
59.82237 596.916996976409
59.84249 645.991917345405
59.8626 663
59.88271 755.000357688337
59.90283 660.87075217516
59.92294 640.002342330322
59.94305 623.078934089627
59.96317 579.085019675797
59.98328 540.986456868367
60.0034 576
60.02351 525.984341898947
60.04362 545.039639217841
60.06374 569.002126149486
60.08385 543.123808602582
60.10396 499.023226649264
60.12408 505.017807251154
60.14419 450.031646929048
60.16431 411.996707324621
60.18442 421.003104718061
60.20453 407.973218399631
60.22465 403.036641992626
60.24476 426.968443375994
60.26487 419.045288796822
60.28499 389.004143989183
60.3051 401
60.32522 404.014836599165
60.34533 420.986253301101
60.36544 404.043393971253
60.38556 435.071674069074
60.40567 356.032599445548
60.42578 413.940494556284
60.4459 421
60.46601 398.992282701526
60.48612 396.009340037666
60.50624 407.003941918259
60.52635 398.027956192084
60.54647 398.971641481136
60.56658 427.975027819759
60.58669 430.013102693327
60.60681 399.998189671485
60.62692 423.019888327144
60.64703 422.988945691879
60.66715 409.926788243726
60.68726 380.007274110336
60.70738 399.985763375768
60.72749 400.995301902033
60.7476 413
60.76772 380.983097958932
60.78783 388.009265846676
60.80794 386.01413471968
60.82806 410.932240461897
60.84817 410.106659002116
60.86828 326.002731077794
60.8884 397
60.90851 377.993532369887
60.92863 403.040589293485
60.94874 416.036031051938
60.96885 429.053803597536
60.98897 386.032108061659
61.00908 391.006464730222
61.02919 368.003195608195
61.04931 387.010014269665
61.06942 389.991873232928
61.08954 387.024995386012
61.10965 399.970154636283
61.12976 369.036603709653
61.14988 384.959441419304
61.16999 419.995908545611
61.1901 413
61.21022 426.971162095593
61.23033 381.013939823106
61.25045 445.114602413629
61.27056 432.080980794902
61.29067 412.969293442943
61.31079 446.998464915928
61.3309 418
61.35101 421.996685303773
61.37113 393.958879448527
61.39124 396.077741082004
61.41135 449.903568861931
61.43147 454.030741145634
61.45158 434.004190808082
61.4717 439
61.49181 417.993446427125
61.51192 436.051185859534
61.53204 489.040655502653
61.55215 461.143973216983
61.57226 425.955744155823
61.59238 477.980780803247
61.61249 453.009120793941
61.63261 464.005961345253
61.65272 450.964477957378
61.67283 425.02063555687
61.69295 466.063803361287
61.71306 468.969636465432
61.73317 498.98198898793
61.75329 471.02851230128
61.7734 435
61.79352 491.015992560594
61.81363 469.018126972806
61.83374 513.003262560556
61.85386 464.066317643585
61.87397 488.910602718943
61.89408 534.993459678132
61.9142 510
61.93431 527.030499138962
61.95442 572.966853925753
61.97454 491.933696863507
61.99465 533.877141506815
62.01477 550.981069806128
62.03488 569.992124834327
62.05499 566.998146958596
62.07511 570.990120924281
62.09522 531.970779956775
62.11533 543.079875593681
62.13545 586.951023473208
62.15556 522.074647825706
62.17568 548.944164488263
62.19579 577.01098804961
62.2159 541
62.23602 589.024398761306
62.25613 559.925690052528
62.27624 533.013341183715
62.29636 550.013960380763
62.31647 511.06666501696
62.33659 482.009120774673
62.3567 485
62.37681 530.001227347518
62.39693 494.970297253022
62.41704 503.998803683841
62.43715 477.078056884834
62.45727 461.004000726304
62.47738 462.002983341451
62.49749 456.000151291491
62.51761 469.012538874092
62.53772 492.007440604115
62.55784 462.854076448603
62.57795 399.016701816505
62.59806 455.949458391366
62.61818 434.003552900528
62.63829 463.993627511335
62.6584 441
62.67852 434.003659354495
62.69863 431.977430514698
62.71875 420.03684798058
62.73886 440.039879646288
62.75897 392.027915168686
62.77909 410.996251480842
62.7992 393
62.81931 410.011574004586
62.83943 419.994540422988
62.85954 409.982677956699
62.87965 401.045620568601
62.89977 383.993665556402
62.91988 405.983888097371
62.94 411
62.96011 416.984396558798
62.98022 363.972483194534
63.00034 377.044158036265
63.02045 388.96594562454
63.04056 402.998380981775
63.06068 401.977923901298
63.08079 426.010275024099
63.10091 371.985372695363
63.12102 397.051208097516
63.14113 428.991786059661
63.16125 397.933586848072
63.18136 394.979262497675
63.20147 396.031064435412
63.22159 358.018894435298
63.2417 354
63.26182 418.030767047176
63.28193 400.955637935591
63.30204 384.978136305654
63.32216 379.978676480668
63.34227 400.975899359572
63.36238 396.027077309655
63.3825 380
63.40261 414.982517009044
63.42272 345.005604828654
63.44284 424.079554369685
63.46295 380.149938284296
63.48307 370.93709115581
63.50318 425.970835323708
63.52329 417.010556553224
63.54341 398.987359041358
63.56352 373.99387691476
63.58363 385.012131550581
63.60375 387.031366857411
63.62386 411.955823151377
63.64398 419.005617841868
63.66409 411.999774986323
63.6842 413
63.70432 394.002316917147
63.72443 421.043327120369
63.74454 432.996933700402
63.76466 436.950364087739
63.78477 457.039229812114
63.80489 407.004679978695
63.825 448
63.84511 449.995536152244
63.86523 453.021039990645
63.88534 462.983258525171
63.90545 440.047863017953
63.92557 451.921685877457
63.94568 503.001879680108
63.96579 459.011748426153
63.98591 472.00162070083
64.00602 462.019405985386
64.02614 490.951760440688
64.04625 417.862737490006
64.06636 418.942025362994
64.08648 442.986209008568
64.10659 440.010697266176
64.1267 411
64.14682 415.041545839995
64.16693 453.978835209432
64.18705 395.89448938345
64.20716 395.979894606064
64.22727 393.010078795361
64.24739 383.010980180773
64.2675 355
64.28761 355.006874573599
64.30773 380.057765767968
64.32784 409.992745184961
64.34796 382.035706211619
64.36807 386.990129874976
64.38818 384.002478064998
64.4083 387
64.42841 390.003552464594
64.44852 398.001099337002
64.46864 392.994841819439
64.48875 406.910436281191
64.50886 433.04294534648
64.52898 386.01210771546
64.54909 418.986033845978
64.56921 403.977057537525
64.58932 369.006413832674
64.60943 398.003721964334
64.62955 369.966037933391
64.64966 385.967923910175
64.66977 392.972941882891
64.68989 405.015782434204
64.71 355
64.73012 402.042981557047
64.75023 405.977764632644
64.77034 401.026660708208
64.79046 417.011452665537
64.81057 389.039496554119
64.83068 377.008404605026
64.8508 372
64.87091 392.008200270397
64.89102 391.984855700124
64.91114 373.980839802199
64.93125 368.044939297692
64.95137 352.971553277763
64.97148 390.989470427071
64.99159 368.008067255442
65.01171 383.015053654567
65.03182 404.003117135839
65.05193 381.93145084018
65.07205 346.016428082971
65.09216 385.937601147867
65.11228 382.024158310151
65.13239 369.991115242756
65.1525 404
65.17262 395.985179056476
65.19273 392.007291651271
65.21284 399.008741368352
65.23296 391.050356398647
65.25307 363.016507604313
65.27319 380.980416212294
65.2933 405
65.31341 372.007754441224
65.33353 424.022662885732
65.35364 384.924754311591
65.37375 383.959985214376
65.39387 393.003535666841
65.41398 399.958775262349
65.43409 446.002246585537
65.45421 393.979510908212
65.47432 390.001404538828
65.49444 379.987070499341
65.51455 393.083957781017
65.53466 425.981612641765
65.55478 410.019925065921
65.57489 413.98265459977
65.595 447
65.61512 401.96345028369
65.63523 401.026368850512
65.65535 409.975257330523
65.67546 386.045172156344
65.69557 385.956827567811
65.71569 418.997122946576
65.7358 400
65.75591 409.002092112788
65.77603 392.958374068907
65.79614 382.052600814986
65.81626 426.952676681448
65.83637 409.061073683821
65.85648 375.01590674242
65.8766 384
65.89671 402.99050036825
65.91682 363.986629632362
65.93694 390.067754018995
65.95705 406.985045413743
65.97716 403.038463262061
65.99728 370.039327968258
66.01739 343.001270115246
66.03751 366.018738907767
66.05762 386.98390475464
66.07773 349.968490840691
66.09785 355.011966745254
66.11796 359.937042632163
66.13807 409.950113748249
66.15819 412.004544237709
66.1783 397
66.19842 350.969639242179
66.21853 341.989577454686
66.23864 344.074635959736
66.25876 391.986878100803
66.27887 352.06009338438
66.29898 349.971797150999
66.3191 380
66.33921 383.013804459389
66.35933 412.96602506403
66.37944 353.952046751762
66.39955 376.972294261133
66.41967 348.057115511478
66.43978 337.975186266117
66.45989 368.999328030381
66.48001 349.001383764959
66.50012 382.026514103879
66.52023 380.979848640288
66.54035 371.993414521007
66.56046 378.964165601015
66.58058 389.018360032885
66.60069 349.016938311776
66.6208 342
66.64092 366.030407871169
66.66103 390.012112911966
66.68114 379.957854516311
66.70126 364.002513956263
66.72137 367.018743707197
66.74149 350.993716523953
66.7616 380
66.78171 343.981329385127
66.80183 340.043667106261
66.82194 372.009152080445
66.84205 358.976953480507
66.86217 409.892369237284
66.88228 440.05447396398
66.90239 342.028200533363
66.92251 361.022061069305
66.94262 380.996195804521
66.96274 373.013756432262
66.98285 383.963386896747
67.00296 339.098743010904
67.02308 325.960603359448
67.04319 393.972161328331
67.0633 409
67.08342 386.980701753433
67.10353 385.02992555
67.12365 398.938280341283
67.14376 359.99151912129
67.16387 402.970156362564
67.18399 379.013410423826
67.2041 374
67.22421 372.001214023976
67.24433 379.006526268281
67.26444 387.049905155634
67.28456 413.00572428975
67.30467 382.04294361991
67.32478 374.996132275785
67.3449 390
67.36501 426.000187691318
67.38512 393.973352264562
67.40524 388.991725553475
67.42535 380.988947351487
67.44546 393.997243065865
67.46558 402.944168029871
67.48569 468.002009179234
67.50581 401.978757635938
67.52592 421.033914921054
67.54603 449.070678111391
67.56615 496.00375409952
67.58626 471.969397102382
67.60637 524.964261624724
67.62649 522.979029333589
67.6466 617
67.66672 628.942544822086
67.68683 561.973871262255
67.70694 585.998334656433
67.72706 546.053316267383
67.74717 544.026408885724
67.76728 507.019185378298
67.7874 508
67.80751 477.992791013967
67.82763 491.030374427662
67.84774 506.033936010984
67.86785 521.989392428113
67.88797 518.992914138111
67.90808 529.002293823049
67.92819 511.009675512157
67.94831 489.981634666264
67.96842 482.079785988901
67.98853 595.046945474705
68.00865 553.015928383098
68.02876 634.875637241749
68.04888 630.025727472032
68.06899 638.973617005351
68.0891 689
68.10922 628.954827234607
68.12933 609.931622216316
68.14944 548.977075269216
68.16956 593.913312901178
68.18967 592.050687820297
68.20979 570.988321878556
68.2299 630
68.25001 637.980937976259
68.27013 580.928770406619
68.29024 568.038742641015
68.31035 579.08944203115
68.33047 514.055897052185
68.35058 504.039248085086
68.3707 431
68.39081 426.009823410799
68.41092 446.019476735176
68.43104 452.965938145244
68.45115 426.97939439862
68.47126 441.965745369699
68.49138 438.027462561868
68.51149 408.004325817089
68.5316 421
68.55172 401.945640472268
68.57183 352.000282737728
68.59195 385.007894727448
68.61206 348.049307533914
68.63217 364.946165154153
68.65229 387.001288393258
68.6724 372
68.69251 386.009026911424
68.71263 396.006019295033
68.73274 385.931597571341
68.75286 351.996592317541
68.77297 385.958484183117
68.79308 384.0167649918
68.8132 374
68.83331 388.007094316351
68.85342 391.993318386755
68.87354 375.953313809013
68.89365 361.973541881392
68.91376 384.984080382603
68.93388 376.000427482733
68.95399 375.018058535273
68.97411 333.00835170976
68.99422 386.002281629347
69.01433 336.97870944352
69.03445 378.077518290241
69.05456 370.022927389614
69.07467 370.013725364812
69.09479 339.022177918868
69.1149 323
69.13502 395.026086323713
69.15513 374.001855427252
69.17524 408.016065314804
69.19536 384.006840930454
69.21547 405.004838727088
69.23558 383.983479356982
69.2557 434
69.27581 415.992565715772
69.29593 415.973468062897
69.31604 383.979874125004
69.33615 390.048745184179
69.35627 353.006370747748
69.37638 384.978707698668
69.39649 379.00161103692
69.41661 388.000264266909
69.43672 379.00106330447
69.45683 386.988418580383
69.47695 359.932380789884
69.49706 360.923541373045
69.51718 399.009464247304
69.53729 353.012004982871
69.5574 380
69.57752 408.99619883871
69.59763 383.967424040606
69.61774 379.002455130872
69.63786 372.037703062011
69.65797 355.99159503257
69.67809 373.000381076993
69.6982 349
69.71831 343.002452368697
69.73843 359.050541263127
69.75854 393.019248036258
69.77865 379.031137479074
69.79877 384.975562162005
69.81888 386.031846091205
69.839 352
69.85911 397.006777744739
69.87922 367.980630086849
69.89934 378.014672370171
69.91945 370.997078668816
69.93956 382.975658896797
69.95968 382.014739513122
69.97979 371.992993850439
69.9999 397
70.02002 368.96344534343
70.04013 353.017380028331
70.06025 377.035571021295
70.08036 375.00586573355
70.10047 384.968083533777
70.12059 404.996350422103
70.1407 387
70.16081 341.991282905353
70.18093 364.068509335738
70.20104 395.991795483154
70.22116 375.986886598322
70.24127 402.006178190566
70.26138 359.040533207924
70.2815 359
70.30161 404.011716482743
70.32172 380.933961221743
70.34184 314.950055701808
70.36195 343.861865582967
70.38207 381.994347956433
70.40218 363.013338223636
70.42229 362.005080004396
70.44241 338.991187711553
70.46252 337.006093406674
70.48263 349.034709887442
70.50275 372.014599192593
70.52286 359.03324169417
70.54297 354.985075651648
70.56309 367.998207303425
70.5832 357
70.60332 339.98605047165
70.62343 341.03961349787
70.64354 369.995912557113
70.66366 345.012361326615
70.68377 358.013345305201
70.70388 336.981946166489
70.724 384
70.74411 359.997216712945
70.76423 371.958631082611
70.78434 323.010308779823
70.80445 376.945982341947
70.82457 349.02110675417
70.84468 371.9803848556
70.86479 363.011270481551
70.88491 357.012918243731
70.90502 389.999812330148
70.92513 367.006920799609
70.94525 393.984609829757
70.96536 358.013634705484
70.98548 379.011205310314
71.00559 335.008434452021
71.0257 372
71.04582 397.973994511529
71.06593 354.993135929293
71.08604 382.999682799458
71.10616 345.04866049029
71.12627 358.960919167396
71.14639 369.004138971375
71.1665 357
71.18661 362.992879490601
71.20673 334.985190877768
71.22684 349.024318617626
71.24695 347.007379910383
71.26707 360.946982197233
71.28718 380.040006287147
71.3073 318
71.32741 372.014713380395
71.34752 348.977987136581
71.36764 365.075806619496
71.38775 387.04068095258
71.40786 346.059277451629
71.42798 344.990761265426
71.44809 349.997719300408
71.4682 362
71.48832 377.985914099094
71.50843 341.959843795393
71.52855 344.049696946483
71.54866 359.004137909539
71.56877 348.995270815541
71.58889 365.994889752391
71.609 364
71.62911 374.005346038718
71.64923 375.98841533149
71.66934 370.016490694525
71.68946 380.026614253896
71.70957 353.008697155002
71.72968 368.996526960136
71.7498 361
71.76991 381.985886362689
71.79002 326.995448488173
71.81014 370.021688933383
71.83025 342.977851943511
71.85037 393.962293830667
71.87048 377.007691953743
71.89059 389.004682871156
71.91071 356.992772781799
71.93082 370.01057986825
71.95093 373.029787806813
71.97105 392.946631373749
71.99116 335.095004354388
72.01127 334.942005095383
72.03139 386.976103671413
72.0515 408
72.07162 378.976070176197
72.09173 370.995944487446
72.11184 365.991881385632
72.13196 369.968261050961
72.15207 385.004123090645
72.17218 370.00473265922
72.1923 375
72.21241 350.99049728966
72.23253 358.050423967042
72.25264 383.966139446796
72.27275 350.966900945939
72.29287 398.986927474062
72.31298 353.041787092874
72.33309 357.98202123027
72.35321 381.992199202492
72.37332 345.990559889975
72.39344 369.02943239911
72.41355 360.987773459945
72.43366 373.960731192489
72.45378 382.01104212035
72.47389 358.011560359833
72.494 352
72.51412 376.020947357677
72.53423 383.996532920632
72.55434 378.994413770647
72.57446 389.937623765717
72.59457 410.044279723364
72.61469 351.014550272729
72.6348 364
72.65491 354.001889949559
72.67503 382.04516537316
72.69514 387.954222718381
72.71525 358.024994123927
72.73537 366.999409406462
72.75548 361.979592748638
72.7756 403
72.79571 384.973549740085
72.81582 339.998296392521
72.83594 382.102012781569
72.85605 403.036174600997
72.87616 386.957027378071
72.89628 424.009189994569
72.91639 366.023586141009
72.9365 363
72.95662 377.016949287168
72.97673 387.986579014954
72.99685 371.002110097354
73.01696 385.006664084624
73.03707 358.039474926379
73.05719 359.983049218274
73.0773 401
73.09741 394.997363563711
73.11753 405.021169097159
73.13764 400.93324741702
73.15776 358.041014990387
73.17787 368.96955168451
73.19798 379.995044305377
73.2181 386
73.23821 403.010544259303
73.25832 425.021412178519
73.27844 435.983417654948
73.29855 423.97812855794
73.31867 443.00872927477
73.33878 413.018109185616
73.35889 435.971376551295
73.37901 481.997472179311
73.39912 426.935947810113
73.41923 406.051867101157
73.43935 448.97892876006
73.45946 392.08482058205
73.47957 395.969665232827
73.49969 411.989428841792
73.5198 425
73.53992 390.98916124226
73.56003 409.021026950948
73.58014 395.939039411732
73.60026 379.957248888766
73.62037 431.921210812759
73.64048 445.037336764761
73.6606 387
73.68071 386.005078317597
73.70083 382.976914282047
73.72094 377.049131452031
73.74105 415.961637070673
73.76117 391.066495166948
73.78128 361.999118647019
73.80139 391.978193323514
73.82151 415.992895067927
73.84162 377.971365245939
73.86174 387.084756282964
73.88185 413.916494799564
73.90196 362.960862034784
73.92208 434.982002968543
73.94219 376.02623715294
73.9623 375
73.98242 378.007310623877
74.00253 388.999709362661
74.02264 378.992715950955
74.04276 391.952913154279
74.06287 406.015059097685
74.08299 393.988615692474
74.1031 437
74.12321 404.98218940998
74.14333 392.999691628932
74.16344 405.073066419015
74.18355 428.103489068597
74.20367 358.016745284529
74.22378 408.971143917286
74.2439 391
74.26401 416.007159131567
74.28412 405.992980401627
74.30424 417.033653906051
74.32435 421.038737966453
74.34446 395.041003955464
74.36458 394.980231114685
74.38469 414.000977444981
74.40481 389.986597795908
74.42492 376.998786516871
74.44503 386.029671587936
74.46515 398.969327176565
74.48526 378.983258820077
74.50537 406.995846454885
74.52549 377.012574373044
74.5456 374
74.56571 373.007924171861
74.58583 398.01337410902
74.60594 382.956262392052
74.62606 372.991965116966
74.64617 383.986618679581
74.66628 387.994898025803
74.6864 395
74.70651 386.988959043119
74.72662 361.986316982788
74.74674 359.992557219722
74.76685 360.936402421437
74.78697 392.004002670743
74.80708 361.014502902607
74.82719 381.98464839838
74.84731 387.986118318218
74.86742 357.005721931343
74.88753 385.998595669177
74.90765 347.927187462071
74.92776 353.956046090895
74.94787 376.958261345729
74.96799 393.008441449385
74.9881 358
75.00822 377.036816747862
