3.00117 24717
3.02128 24371
3.0414 23412
3.06151 22712
3.08162 22268
3.10174 21466
3.12185 20864
3.14197 20062
3.16208 19394
3.18219 19143
3.20231 18325
3.22242 18229
3.24253 17320
3.26265 16822
3.28276 16629
3.30288 16137
3.32299 15736
3.3431 14828
3.36322 14490
3.38333 14347
3.40344 13281
3.42356 13487
3.44367 12764
3.46379 12239
3.4839 12093
3.50401 11314
3.52413 11136
3.54424 10779
3.56435 10443
3.58447 10054
3.60458 9523
3.62469 9472
3.64481 9054
3.66492 8572
3.68504 8457
3.70515 7896
3.72526 7806
3.74538 7322
3.76549 7107
3.7856 6853
3.80572 6530
3.82583 6225
3.84595 6094
3.86606 5806
3.88617 5529
3.90629 5160
3.9264 5101
3.94651 5059
3.96663 4679
3.98674 4621
4.00686 4240
4.02697 4256
4.04708 4034
4.0672 3584
4.08731 3665
4.10742 3434
4.12754 3363
4.14765 3325
4.16776 2930
4.18788 2869
4.20799 2671
4.22811 2743
4.24822 2677
4.26833 2373
4.28845 2370
4.30856 2256
4.32867 2284
4.34879 2266
4.3689 2002
4.38902 2024
4.40913 1897
4.42924 1921
4.44936 1908
4.46947 1786
4.48958 1782
4.5097 1759
4.52981 1627
4.54992 1696
4.57004 1545
4.59015 1507
4.61027 1368
4.63038 1568
4.65049 1480
4.67061 1395
4.69072 1288
4.71083 1394
4.73095 1355
4.75106 1303
4.77118 1235
4.79129 1163
4.8114 1202
4.83152 1183
4.85163 1312
4.87174 1004
4.89186 1125
4.91197 1183
4.93209 1124
4.9522 1018
4.97231 1007
4.99243 948
5.01254 942
5.03265 1005
5.05277 1000
5.07288 850
5.09299 911
5.11311 895
5.13322 796
5.15334 921
5.17345 761
5.19356 801
5.21368 808
5.23379 727
5.2539 795
5.27402 753
5.29413 710
5.31425 683
5.33436 706
5.35447 671
5.37459 637
5.3947 648
5.41481 672
5.43493 605
5.45504 683
5.47516 605
5.49527 574
5.51538 585
5.5355 624
5.55561 599
5.57572 593
5.59584 551
5.61595 543
5.63606 564
5.65618 518
5.67629 535
5.69641 524
5.71652 525
5.73663 512
5.75675 516
5.77686 435
5.79697 440
5.81709 477
5.8372 478
5.85732 436
5.87743 439
5.89754 440
5.91766 479
5.93777 473
5.95788 423
5.978 427
5.99811 435
6.01823 454
6.03834 456
6.05845 446
6.07857 416
6.09868 420
6.11879 424
6.13891 371
6.15902 438
6.17913 402
6.19925 413
6.21936 441
6.23948 416
6.25959 399
6.2797 386
6.29982 448
6.31993 383
6.34004 407
6.36016 432
6.38027 402
6.40039 392
6.4205 378
6.44061 356
6.46073 404
6.48084 403
6.50095 391
6.52107 379
6.54118 380
6.56129 359
6.58141 370
6.60152 387
6.62164 358
6.64175 433
6.66186 382
6.68198 412
6.70209 342
6.7222 374
6.74232 385
6.76243 398
6.78255 410
6.80266 384
6.82277 326
6.84289 408
6.863 373
6.88311 391
6.90323 409
6.92334 352
6.94346 383
6.96357 353
6.98368 377
7.0038 360
7.02391 370
7.04402 326
7.06414 405
7.08425 370
7.10436 347
7.12448 391
7.14459 382
7.16471 344
7.18482 404
7.20493 406
7.22505 368
7.24516 338
7.26527 358
7.28539 367
7.3055 361
7.32562 352
7.34573 394
7.36584 336
7.38596 396
7.40607 359
7.42618 368
7.4463 362
7.46641 370
7.48653 410
7.50664 381
7.52675 372
7.54687 402
7.56698 333
7.58709 337
7.60721 379
7.62732 341
7.64743 376
7.66755 340
7.68766 355
7.70778 323
7.72789 328
7.748 365
7.76812 354
7.78823 366
7.80834 371
7.82846 347
7.84857 386
7.86869 363
7.8888 368
7.90891 355
7.92903 398
7.94914 388
7.96925 339
7.98937 337
8.00948 353
8.0296 371
8.04971 350
8.06982 349
8.08994 351
8.11005 372
8.13016 392
8.15028 339
8.17039 374
8.1905 338
8.21062 390
8.23073 356
8.25085 363
8.27096 368
8.29107 370
8.31119 325
8.3313 347
8.35141 387
8.37153 384
8.39164 346
8.41176 379
8.43187 340
8.45198 358
8.4721 353
8.49221 343
8.51232 360
8.53244 403
8.55255 388
8.57266 350
8.59278 335
8.61289 370
8.63301 330
8.65312 368
8.67323 374
8.69335 345
8.71346 365
8.73357 349
8.75369 351
8.7738 382
8.79392 366
8.81403 392
8.83414 371
8.85426 390
8.87437 354
8.89448 378
8.9146 344
8.93471 382
8.95483 388
8.97494 393
8.99505 355
9.01517 380
9.03528 358
9.05539 377
9.07551 365
9.09562 391
9.11573 328
9.13585 359
9.15596 367
9.17608 375
9.19619 357
9.2163 389
9.23642 348
9.25653 342
9.27664 374
9.29676 367
9.31687 367
9.33699 384
9.3571 331
9.37721 371
9.39733 340
9.41744 362
9.43755 395
9.45767 346
9.47778 340
9.4979 349
9.51801 381
9.53812 358
9.55824 385
9.57835 382
9.59846 364
9.61858 356
9.63869 355
9.6588 343
9.67892 345
9.69903 319
9.71915 373
9.73926 348
9.75937 332
9.77949 367
9.7996 379
9.81971 359
9.83983 344
9.85994 364
9.88006 353
9.90017 332
9.92028 364
9.9404 358
9.96051 385
9.98062 368
10.00074 354
10.02085 397
10.04097 344
10.06108 338
10.08119 358
10.10131 306
10.12142 355
10.14153 380
10.16165 330
10.18176 350
10.20187 413
10.22199 348
10.2421 338
10.26222 361
10.28233 370
10.30244 344
10.32256 371
10.34267 384
10.36278 383
10.3829 363
10.40301 354
10.42313 343
10.44324 395
10.46335 380
10.48347 382
10.50358 367
10.52369 389
10.54381 344
10.56392 362
10.58403 340
10.60415 369
10.62426 381
10.64438 363
10.66449 391
10.6846 342
10.70472 382
10.72483 336
10.74494 334
10.76506 335
10.78517 333
10.80529 341
10.8254 373
10.84551 387
10.86563 387
10.88574 385
10.90585 330
10.92597 347
10.94608 359
10.9662 370
10.98631 379
11.00642 368
11.02654 342
11.04665 373
11.06676 334
11.08688 335
11.10699 358
11.1271 370
11.14722 369
11.16733 371
11.18745 361
11.20756 365
11.22767 359
11.24779 368
11.2679 365
11.28801 384
11.30813 399
11.32824 406
11.34836 413
11.36847 373
11.38858 375
11.4087 382
11.42881 434
11.44892 417
11.46904 391
11.48915 373
11.50927 378
11.52938 380
11.54949 331
11.56961 407
11.58972 352
11.60983 398
11.62995 400
11.65006 393
11.67017 385
11.69029 386
11.7104 412
11.73052 443
11.75063 423
11.77074 436
11.79086 438
11.81097 396
11.83108 414
11.8512 471
11.87131 507
11.89143 491
11.91154 479
11.93165 492
11.95177 508
11.97188 503
11.99199 491
12.01211 481
12.03222 529
12.05234 538
12.07245 620
12.09256 602
12.11268 701
12.13279 699
12.1529 715
12.17302 732
12.19313 753
12.21324 873
12.23336 876
12.25347 909
12.27359 935
12.2937 943
12.31381 890
12.33393 986
12.35404 950
12.37415 905
12.39427 896
12.41438 860
12.4345 847
12.45461 816
12.47472 761
12.49484 742
12.51495 662
12.53506 658
12.55518 642
12.57529 610
12.5954 590
12.61552 540
12.63563 504
12.65575 504
12.67586 533
12.69597 500
12.71609 471
12.7362 430
12.75631 408
12.77643 440
12.79654 402
12.81666 398
12.83677 395
12.85688 368
12.877 402
12.89711 390
12.91722 412
12.93734 372
12.95745 379
12.97757 351
12.99768 373
13.01779 362
13.03791 343
13.05802 336
13.07813 371
13.09825 358
13.11836 330
13.13847 334
13.15859 342
13.1787 376
13.19882 330
13.21893 349
13.23904 322
13.25916 369
13.27927 360
13.29938 397
13.3195 321
13.33961 381
13.35973 360
13.37984 353
13.39995 315
13.42007 377
13.44018 341
13.46029 314
13.48041 317
13.50052 338
13.52064 340
13.54075 379
13.56086 347
13.58098 396
13.60109 377
13.6212 342
13.64132 349
13.66143 345
13.68154 358
13.70166 363
13.72177 332
13.74189 299
13.762 359
13.78211 338
13.80223 337
13.82234 325
13.84245 319
13.86257 350
13.88268 338
13.9028 350
13.92291 306
13.94302 315
13.96314 356
13.98325 379
14.00336 351
14.02348 318
14.04359 323
14.06371 339
14.08382 344
14.10393 342
14.12405 336
14.14416 350
14.16427 307
14.18439 362
14.2045 304
14.22461 358
14.24473 344
14.26484 291
14.28496 304
14.30507 361
14.32518 357
14.3453 304
14.36541 341
14.38552 343
14.40564 348
14.42575 333
14.44587 335
14.46598 314
14.48609 300
14.50621 339
14.52632 312
14.54643 320
14.56655 332
14.58666 336
14.60677 320
14.62689 297
14.647 330
14.66712 315
14.68723 318
14.70734 332
14.72746 327
14.74757 350
14.76768 319
14.7878 355
14.80791 331
14.82803 312
14.84814 300
14.86825 350
14.88837 309
14.90848 337
14.92859 343
14.94871 319
14.96882 319
14.98894 333
15.00905 311
15.02916 333
15.04928 319
15.06939 317
15.0895 288
15.10962 334
15.12973 322
15.14984 280
15.16996 336
15.19007 329
15.21019 317
15.2303 311
15.25041 340
15.27053 314
15.29064 329
15.31075 350
15.33087 357
15.35098 328
15.3711 318
15.39121 293
15.41132 341
15.43144 338
15.45155 329
15.47166 343
15.49178 298
15.51189 325
15.53201 351
15.55212 307
15.57223 331
15.59235 322
15.61246 323
15.63257 290
15.65269 346
15.6728 341
15.69291 287
15.71303 325
15.73314 330
15.75326 313
15.77337 330
15.79348 335
15.8136 322
15.83371 299
15.85382 326
15.87394 341
15.89405 352
15.91417 287
15.93428 334
15.95439 318
15.97451 318
15.99462 316
16.01473 301
16.03485 313
16.05496 270
16.07508 315
16.09519 346
16.1153 315
16.13542 316
16.15553 288
16.17564 312
16.19576 334
16.21587 325
16.23598 345
16.2561 316
16.27621 324
16.29633 283
16.31644 372
16.33655 311
16.35667 318
16.37678 307
16.39689 317
16.41701 332
16.43712 319
16.45724 311
16.47735 309
16.49746 332
16.51758 328
16.53769 323
16.5578 335
16.57792 291
16.59803 340
16.61814 302
16.63826 318
16.65837 321
16.67849 320
16.6986 304
16.71871 297
16.73883 322
16.75894 293
16.77905 283
16.79917 297
16.81928 298
16.8394 309
16.85951 308
16.87962 300
16.89974 316
16.91985 306
16.93996 333
16.96008 329
16.98019 323
17.00031 317
17.02042 305
17.04053 329
17.06065 316
17.08076 304
17.10087 316
17.12099 301
17.1411 351
17.16121 302
17.18133 319
17.20144 332
17.22156 358
17.24167 322
17.26178 298
17.2819 321
17.30201 364
17.32212 324
17.34224 341
17.36235 327
17.38247 316
17.40258 341
17.42269 329
17.44281 344
17.46292 306
17.48303 300
17.50315 327
17.52326 341
17.54338 310
17.56349 356
17.5836 336
17.60372 334
17.62383 356
17.64394 353
17.66406 354
17.68417 317
17.70428 381
17.7244 350
17.74451 385
17.76463 387
17.78474 317
17.80485 342
17.82497 379
17.84508 397
17.86519 383
17.88531 369
17.90542 340
17.92554 383
17.94565 390
17.96576 417
17.98588 353
18.00599 387
18.0261 398
18.04622 415
18.06633 472
18.08645 415
18.10656 487
18.12667 503
18.14679 554
18.1669 575
18.18701 625
18.20713 710
18.22724 772
18.24735 879
18.26747 1018
18.28758 1057
18.3077 1093
18.32781 1090
18.34792 985
18.36804 919
18.38815 825
18.40826 733
18.42838 578
18.44849 551
18.46861 520
18.48872 475
18.50883 421
18.52895 440
18.54906 410
18.56917 402
18.58929 392
18.6094 370
18.62951 389
18.64963 393
18.66974 379
18.68986 304
18.70997 358
18.73008 367
18.7502 346
18.77031 335
18.79042 367
18.81054 345
18.83065 398
18.85077 369
18.87088 367
18.89099 351
18.91111 365
18.93122 357
18.95133 366
18.97145 339
18.99156 339
19.01168 340
19.03179 340
19.0519 327
19.07202 326
19.09213 346
19.11224 368
19.13236 367
19.15247 328
19.17258 369
19.1927 358
19.21281 346
19.23293 342
19.25304 341
19.27315 351
19.29327 400
19.31338 391
19.33349 373
19.35361 357
19.37372 362
19.39384 375
19.41395 349
19.43406 373
19.45418 360
19.47429 388
19.4944 381
19.51452 389
19.53463 381
19.55475 388
19.57486 405
19.59497 408
19.61509 444
19.6352 412
19.65531 426
19.67543 432
19.69554 477
19.71565 489
19.73577 466
19.75588 533
19.776 540
19.79611 625
19.81622 639
19.83634 651
19.85645 724
19.87656 750
19.89668 700
19.91679 737
19.93691 728
19.95702 746
19.97713 724
19.99725 666
20.01736 682
20.03747 720
20.05759 706
20.0777 679
20.09782 711
20.11793 723
20.13804 710
20.15816 777
20.17827 777
20.19838 846
20.2185 871
20.23861 897
20.25872 979
20.27884 969
20.29895 878
20.31907 991
20.33918 927
20.35929 893
20.37941 874
20.39952 868
20.41963 814
20.43975 880
20.45986 845
20.47998 857
20.50009 904
20.5202 935
20.54032 875
20.56043 832
20.58054 885
20.60066 871
20.62077 896
20.64088 1023
20.661 993
20.68111 1094
20.70123 1261
20.72134 1560
20.74145 1899
20.76157 2527
20.78168 3230
20.80179 4095
20.82191 4993
20.84202 5490
20.86214 5589
20.88225 5077
20.90236 4016
20.92248 3044
20.94259 2159
20.9627 1517
20.98282 1063
21.00293 950
21.02305 925
21.04316 871
21.06327 850
21.08339 823
21.1035 783
21.12361 776
21.14373 699
21.16384 738
21.18395 705
21.20407 690
21.22418 742
21.2443 704
21.26441 690
21.28452 677
21.30464 715
21.32475 708
21.34486 701
21.36498 749
21.38509 778
21.40521 773
21.42532 779
21.44543 762
21.46555 759
21.48566 810
21.50577 802
21.52589 789
21.546 819
21.56612 757
21.58623 725
21.60634 734
21.62646 723
21.64657 707
21.66668 711
21.6868 664
21.70691 629
21.72702 645
21.74714 646
21.76725 659
21.78737 581
21.80748 606
21.82759 587
21.84771 569
21.86782 576
21.88793 580
21.90805 552
21.92816 531
21.94828 562
21.96839 552
21.9885 556
22.00862 559
22.02873 489
22.04884 571
22.06896 528
22.08907 519
22.10919 478
22.1293 513
22.14941 578
22.16953 527
22.18964 480
22.20975 511
22.22987 514
22.24998 524
22.27009 509
22.29021 486
22.31032 520
22.33044 476
22.35055 493
22.37066 478
22.39078 513
22.41089 454
22.431 501
22.45112 512
22.47123 443
22.49135 495
22.51146 479
22.53157 477
22.55169 477
22.5718 491
22.59191 495
22.61203 496
22.63214 481
22.65225 494
22.67237 441
22.69248 463
22.7126 458
22.73271 425
22.75282 470
22.77294 474
22.79305 402
22.81316 449
22.83328 454
22.85339 440
22.87351 469
22.89362 452
22.91373 484
22.93385 429
22.95396 446
22.97407 441
22.99419 389
23.0143 460
23.03442 439
23.05453 406
23.07464 414
23.09476 503
23.11487 418
23.13498 455
23.1551 455
23.17521 479
23.19532 461
23.21544 461
23.23555 460
23.25567 420
23.27578 417
23.29589 439
23.31601 424
23.33612 417
23.35623 438
23.37635 446
23.39646 426
23.41658 387
23.43669 377
23.4568 393
23.47692 481
23.49703 416
23.51714 432
23.53726 402
23.55737 457
23.57749 417
23.5976 414
23.61771 449
23.63783 431
23.65794 391
23.67805 418
23.69817 459
23.71828 446
23.73839 430
23.75851 421
23.77862 466
23.79874 447
23.81885 513
23.83896 421
23.85908 440
23.87919 460
23.8993 486
23.91942 464
23.93953 534
23.95965 501
23.97976 460
23.99987 493
24.01999 560
24.0401 483
24.06021 524
24.08033 490
24.10044 544
24.12056 505
24.14067 495
24.16078 523
24.1809 466
24.20101 522
24.22112 472
24.24124 477
24.26135 463
24.28146 475
24.30158 484
24.32169 491
24.34181 491
24.36192 481
24.38203 494
24.40215 466
24.42226 520
24.44237 498
24.46249 516
24.4826 539
24.50272 518
24.52283 522
24.54294 539
24.56306 572
24.58317 597
24.60328 548
24.6234 592
24.64351 633
24.66362 695
24.68374 634
24.70385 705
24.72397 709
24.74408 726
24.76419 807
24.78431 806
24.80442 779
24.82453 771
24.84465 763
24.86476 809
24.88488 802
24.90499 835
24.9251 882
24.94522 843
24.96533 793
24.98544 729
25.00556 732
25.02567 751
25.04579 691
25.0659 664
25.08601 658
25.10613 619
25.12624 640
25.14635 683
25.16647 669
25.18658 639
25.20669 616
25.22681 632
25.24692 660
25.26704 587
25.28715 604
25.30726 606
25.32738 597
25.34749 565
25.3676 531
25.38772 551
25.40783 523
25.42795 523
25.44806 519
25.46817 481
25.48829 466
25.5084 493
25.52851 433
25.54863 500
25.56874 470
25.58886 463
25.60897 484
25.62908 527
25.6492 506
25.66931 523
25.68942 544
25.70954 553
25.72965 559
25.74976 598
25.76988 599
25.78999 591
25.81011 605
25.83022 591
25.85033 575
25.87045 623
25.89056 624
25.91067 626
25.93079 546
25.9509 570
25.97102 640
25.99113 601
26.01124 632
26.03136 625
26.05147 657
26.07158 622
26.0917 684
26.11181 711
26.13193 712
26.15204 739
26.17215 795
26.19227 861
26.21238 886
26.23249 959
26.25261 1019
26.27272 1049
26.29283 1110
26.31295 1204
26.33306 1278
26.35318 1307
26.37329 1528
26.3934 1699
26.41352 2013
26.43363 2303
26.45374 2995
26.47386 3873
26.49397 5274
26.51409 7064
26.5342 9687
26.55431 13500
26.57443 17635
26.59454 21489
26.61465 23885
26.63477 24732
26.65488 22218
26.67499 17911
26.69511 13923
26.71522 10350
26.73534 6938
26.75545 4398
26.77556 2759
26.79568 2014
26.81579 1669
26.8359 1453
26.85602 1444
26.87613 1214
26.89625 1082
26.91636 1165
26.93647 1032
26.95659 972
26.9767 868
26.99681 867
27.01693 774
27.03704 734
27.05716 739
27.07727 629
27.09738 565
27.1175 674
27.13761 645
27.15772 603
27.17784 640
27.19795 575
27.21806 543
27.23818 531
27.25829 517
27.27841 510
27.29852 570
27.31863 540
27.33875 529
27.35886 549
27.37897 555
27.39909 559
27.4192 562
27.43932 521
27.45943 534
27.47954 550
27.49966 483
27.51977 504
27.53988 513
27.56 506
27.58011 504
27.60023 497
27.62034 480
27.64045 488
27.66057 488
27.68068 454
27.70079 504
27.72091 454
27.74102 451
27.76113 414
27.78125 491
27.80136 461
27.82148 459
27.84159 440
27.8617 446
27.88182 458
27.90193 435
27.92204 433
27.94216 480
27.96227 471
27.98239 419
28.0025 490
28.02261 454
28.04273 430
28.06284 489
28.08295 464
28.10307 401
28.12318 441
28.1433 429
28.16341 459
28.18352 390
28.20364 454
28.22375 426
28.24386 429
28.26398 416
28.28409 432
28.3042 403
28.32432 419
28.34443 427
28.36455 388
28.38466 419
28.40477 416
28.42489 420
28.445 430
28.46511 416
28.48523 401
28.50534 406
28.52546 430
28.54557 404
28.56568 412
28.5858 457
28.60591 380
28.62602 403
28.64614 412
28.66625 440
28.68636 409
28.70648 384
28.72659 369
28.74671 404
28.76682 404
28.78693 415
28.80705 392
28.82716 409
28.84727 347
28.86739 359
28.8875 365
28.90762 405
28.92773 375
28.94784 375
28.96796 422
28.98807 400
29.00818 368
29.0283 395
29.04841 367
29.06853 388
29.08864 402
29.10875 433
29.12887 403
29.14898 329
29.16909 359
29.18921 366
29.20932 388
29.22943 392
29.24955 363
29.26966 351
29.28978 388
29.30989 384
29.33 415
29.35012 367
29.37023 376
29.39034 382
29.41046 379
29.43057 407
29.45069 382
29.4708 391
29.49091 397
29.51103 380
29.53114 362
29.55125 364
29.57137 356
29.59148 373
29.6116 382
29.63171 368
29.65182 365
29.67194 355
29.69205 377
29.71216 355
29.73228 391
29.75239 345
29.7725 385
29.79262 367
29.81273 394
29.83285 372
29.85296 330
29.87307 338
29.89319 347
29.9133 356
29.93341 369
29.95353 390
29.97364 388
29.99376 327
30.01387 332
30.03398 386
30.0541 348
30.07421 353
30.09432 399
30.11444 352
30.13455 359
30.15467 373
30.17478 335
30.19489 307
30.21501 329
30.23512 363
30.25523 375
30.27535 372
30.29546 359
30.31557 361
30.33569 391
30.3558 401
30.37592 338
30.39603 357
30.41614 411
30.43626 391
30.45637 370
30.47648 370
30.4966 349
30.51671 331
30.53683 360
30.55694 359
30.57705 358
30.59717 333
30.61728 403
30.63739 356
30.65751 341
30.67762 355
30.69773 343
30.71785 303
30.73796 368
30.75808 359
30.77819 359
30.7983 350
30.81842 364
30.83853 367
30.85864 365
30.87876 330
30.89887 347
30.91899 350
30.9391 372
30.95921 344
30.97933 329
30.99944 345
31.01955 334
31.03967 342
31.05978 361
31.0799 319
31.10001 334
31.12012 331
31.14024 345
31.16035 329
31.18046 362
31.20058 333
31.22069 326
31.2408 369
31.26092 327
31.28103 340
31.30115 344
31.32126 316
31.34137 392
31.36149 319
31.3816 350
31.40171 360
31.42183 328
31.44194 323
31.46206 312
31.48217 341
31.50228 328
31.5224 351
31.54251 359
31.56262 327
31.58274 321
31.60285 322
31.62297 344
31.64308 348
31.66319 337
31.68331 341
31.70342 304
31.72353 354
31.74365 308
31.76376 358
31.78387 347
31.80399 329
31.8241 329
31.84422 362
31.86433 337
31.88444 331
31.90456 338
31.92467 323
31.94478 349
31.9649 356
31.98501 342
32.00513 362
32.02524 325
32.04535 344
32.06547 346
32.08558 359
32.10569 348
32.12581 330
32.14592 367
32.16604 354
32.18615 321
32.20626 379
32.22638 331
32.24649 326
32.2666 350
32.28672 357
32.30683 350
32.32694 351
32.34706 313
32.36717 320
32.38729 321
32.4074 338
32.42751 373
32.44763 342
32.46774 343
32.48785 355
32.50797 355
32.52808 330
32.5482 331
32.56831 366
32.58842 388
32.60854 336
32.62865 332
32.64876 331
32.66888 381
32.68899 372
32.7091 350
32.72922 364
32.74933 348
32.76945 358
32.78956 351
32.80967 364
32.82979 334
32.8499 359
32.87001 374
32.89013 373
32.91024 403
32.93036 391
32.95047 380
32.97058 440
32.9907 427
33.01081 451
33.03092 455
33.05104 471
33.07115 469
33.09127 490
33.11138 467
33.13149 468
33.15161 493
33.17172 447
33.19183 445
33.21195 402
33.23206 418
33.25217 393
33.27229 371
33.2924 387
33.31252 382
33.33263 417
33.35274 350
33.37286 387
33.39297 374
33.41308 382
33.4332 362
33.45331 370
33.47343 355
33.49354 399
33.51365 394
33.53377 378
33.55388 386
33.57399 382
33.59411 365
33.61422 393
33.63434 352
33.65445 393
33.67456 428
33.69468 392
33.71479 407
33.7349 391
33.75502 379
33.77513 409
33.79524 376
33.81536 390
33.83547 407
33.85559 358
33.8757 395
33.89581 404
33.91593 368
33.93604 359
33.95615 389
33.97627 363
33.99638 385
34.0165 380
34.03661 376
34.05672 393
34.07684 372
34.09695 343
34.11706 383
34.13718 355
34.15729 356
34.17741 352
34.19752 375
34.21763 346
34.23775 343
34.25786 341
34.27797 340
34.29809 400
34.3182 346
34.33831 362
34.35843 334
34.37854 352
34.39866 370
34.41877 330
34.43888 377
34.459 323
34.47911 380
34.49922 378
34.51934 374
34.53945 382
34.55957 378
34.57968 377
34.59979 384
34.61991 353
34.64002 381
34.66013 393
34.68025 388
34.70036 423
34.72047 397
34.74059 417
34.7607 430
34.78082 429
34.80093 440
34.82104 436
34.84116 484
34.86127 515
34.88138 512
34.9015 533
34.92161 528
34.94173 545
34.96184 567
34.98195 566
35.00207 509
35.02218 535
35.04229 527
35.06241 484
35.08252 557
35.10264 510
35.12275 469
35.14286 476
35.16298 479
35.18309 452
35.2032 436
35.22332 469
35.24343 485
35.26354 482
35.28366 522
35.30377 548
35.32389 508
35.344 533
35.36411 556
35.38423 536
35.40434 474
35.42445 556
35.44457 552
35.46468 522
35.4848 537
35.50491 577
35.52502 556
35.54514 606
35.56525 572
35.58536 579
35.60548 540
35.62559 577
35.64571 528
35.66582 565
35.68593 516
35.70605 555
35.72616 497
35.74627 522
35.76639 554
35.7865 528
35.80661 584
35.82673 523
35.84684 506
35.86696 568
35.88707 562
35.90718 580
35.9273 565
35.94741 557
35.96752 583
35.98764 575
36.00775 564
36.02787 559
36.04798 526
36.06809 521
36.08821 517
36.10832 495
36.12843 543
36.14855 510
36.16866 491
36.18878 529
36.20889 481
36.229 529
36.24912 559
36.26923 534
36.28934 602
36.30946 609
36.32957 661
36.34968 676
36.3698 817
36.38991 920
36.41003 979
36.43014 1173
36.45025 1353
36.47037 1613
36.49048 1816
36.51059 1934
36.53071 1942
36.55082 1839
36.57094 1715
36.59105 1434
36.61116 1287
36.63128 1155
36.65139 1011
36.6715 808
36.69162 637
36.71173 616
36.73184 569
36.75196 535
36.77207 577
36.79219 504
36.8123 488
36.83241 481
36.85253 468
36.87264 477
36.89275 457
36.91287 493
36.93298 477
36.9531 493
36.97321 492
36.99332 492
37.01344 474
37.03355 448
37.05366 493
37.07378 500
37.09389 455
37.11401 501
37.13412 499
37.15423 496
37.17435 515
37.19446 496
37.21457 492
37.23469 522
37.2548 517
37.27491 532
37.29503 532
37.31514 537
37.33526 509
37.35537 542
37.37548 559
37.3956 528
37.41571 563
37.43582 562
37.45594 552
37.47605 578
37.49617 585
37.51628 556
37.53639 553
37.55651 624
37.57662 532
37.59673 568
37.61685 539
37.63696 606
37.65708 581
37.67719 515
37.6973 556
37.71742 563
37.73753 565
37.75764 535
37.77776 490
37.79787 511
37.81798 441
37.8381 509
37.85821 504
37.87833 485
37.89844 507
37.91855 487
37.93867 495
37.95878 439
37.97889 458
37.99901 464
38.01912 454
38.03924 450
38.05935 475
38.07946 516
38.09958 481
38.11969 459
38.1398 495
38.15992 520
38.18003 560
38.20015 493
38.22026 497
38.24037 534
38.26049 534
38.2806 536
38.30071 576
38.32083 576
38.34094 589
38.36105 640
38.38117 646
38.40128 595
38.4214 601
38.44151 589
38.46162 618
38.48174 634
38.50185 598
38.52196 628
38.54208 594
38.56219 528
38.58231 537
38.60242 505
38.62253 535
38.64265 493
38.66276 476
38.68287 501
38.70299 484
38.7231 456
38.74321 448
38.76333 469
38.78344 432
38.80356 458
38.82367 428
38.84378 448
38.8639 474
38.88401 462
38.90412 437
38.92424 470
38.94435 455
38.96447 471
38.98458 519
39.00469 529
39.02481 508
39.04492 508
39.06503 460
39.08515 540
39.10526 534
39.12538 557
39.14549 524
39.1656 524
39.18572 573
39.20583 612
39.22594 653
39.24606 651
39.26617 657
39.28628 790
39.3064 848
39.32651 950
39.34663 1107
39.36674 1286
39.38685 1414
39.40697 1669
39.42708 1814
39.44719 1877
39.46731 1757
39.48742 1537
39.50754 1348
39.52765 1152
39.54776 1114
39.56788 982
39.58799 834
39.6081 632
39.62822 531
39.64833 502
39.66845 471
39.68856 423
39.70867 466
39.72879 393
39.7489 411
39.76901 408
39.78913 424
39.80924 398
39.82935 398
39.84947 388
39.86958 408
39.8897 419
39.90981 449
39.92992 422
39.95004 389
39.97015 454
39.99026 438
40.01038 461
40.03049 456
40.05061 463
40.07072 480
40.09083 549
40.11095 565
40.13106 615
40.15117 641
40.17129 745
40.1914 741
40.21152 856
40.23163 1000
40.25174 1023
40.27186 1076
40.29197 1022
40.31208 953
40.3322 847
40.35231 791
40.37242 690
40.39254 660
40.41265 549
40.43277 510
40.45288 489
40.47299 438
40.49311 416
40.51322 442
40.53333 395
40.55345 390
40.57356 413
40.59368 449
40.61379 409
40.6339 436
40.65402 405
40.67413 432
40.69424 435
40.71436 425
40.73447 435
40.75458 450
40.7747 455
40.79481 401
40.81493 423
40.83504 432
40.85515 398
40.87527 418
40.89538 413
40.91549 414
40.93561 421
40.95572 408
40.97584 450
40.99595 380
41.01606 461
41.03618 403
41.05629 418
41.0764 402
41.09652 393
41.11663 387
41.13675 412
41.15686 402
41.17697 391
41.19709 448
41.2172 419
41.23731 398
41.25743 380
41.27754 405
41.29765 413
41.31777 393
41.33788 394
41.358 391
41.37811 379
41.39822 403
41.41834 423
41.43845 391
41.45856 370
41.47868 406
41.49879 388
41.51891 384
41.53902 427
41.55913 369
41.57925 424
41.59936 377
41.61947 407
41.63959 394
41.6597 413
41.67982 395
41.69993 413
41.72004 439
41.74016 392
41.76027 411
41.78038 405
41.8005 432
41.82061 423
41.84072 389
41.86084 382
41.88095 410
41.90107 382
41.92118 404
41.94129 416
41.96141 406
41.98152 413
42.00163 424
42.02175 435
42.04186 392
42.06198 442
42.08209 385
42.1022 395
42.12232 459
42.14243 441
42.16254 447
42.18266 476
42.20277 426
42.22289 466
42.243 461
42.26311 571
42.28323 620
42.30334 697
42.32345 760
42.34357 930
42.36368 1048
42.38379 1106
42.40391 1254
42.42402 1351
42.44414 1329
42.46425 1187
42.48436 954
42.50448 882
42.52459 851
42.5447 781
42.56482 689
42.58493 554
42.60505 483
42.62516 419
42.64527 393
42.66539 407
42.6855 363
42.70561 335
42.72573 365
42.74584 354
42.76595 327
42.78607 391
42.80618 333
42.8263 318
42.84641 355
42.86652 373
42.88664 320
42.90675 355
42.92686 356
42.94698 342
42.96709 327
42.98721 346
43.00732 317
43.02743 291
43.04755 337
43.06766 328
43.08777 336
43.10789 338
43.128 356
43.14812 351
43.16823 317
43.18834 309
43.20846 341
43.22857 347
43.24868 348
43.2688 349
43.28891 330
43.30902 325
43.32914 319
43.34925 324
43.36937 347
43.38948 310
43.40959 292
43.42971 320
43.44982 333
43.46993 332
43.49005 347
43.51016 320
43.53028 341
43.55039 328
43.5705 318
43.59062 329
43.61073 316
43.63084 348
43.65096 328
43.67107 347
43.69119 333
43.7113 340
43.73141 308
43.75153 360
43.77164 310
43.79175 309
43.81187 328
43.83198 314
43.85209 359
43.87221 332
43.89232 326
43.91244 303
43.93255 321
43.95266 342
43.97278 354
43.99289 383
44.013 329
44.03312 404
44.05323 411
44.07335 393
44.09346 357
44.11357 322
44.13369 387
44.1538 361
44.17391 391
44.19403 378
44.21414 391
44.23426 336
44.25437 376
44.27448 396
44.2946 331
44.31471 364
44.33482 338
44.35494 361
44.37505 345
44.39516 305
44.41528 325
44.43539 342
44.45551 311
44.47562 310
44.49573 341
44.51585 315
44.53596 361
44.55607 376
44.57619 319
44.5963 326
44.61642 334
44.63653 308
44.65664 343
44.67676 341
44.69687 351
44.71698 334
44.7371 327
44.75721 352
44.77732 368
44.79744 360
44.81755 321
44.83767 339
44.85778 320
44.87789 341
44.89801 362
44.91812 344
44.93823 323
44.95835 351
44.97846 339
44.99858 352
45.01869 364
45.0388 349
45.05892 368
45.07903 362
45.09914 384
45.11926 386
45.13937 369
45.15949 361
45.1796 366
45.19971 365
45.21983 336
45.23994 392
45.26005 406
45.28017 425
45.30028 439
45.32039 426
45.34051 422
45.36062 432
45.38074 424
45.40085 439
45.42096 434
45.44108 417
45.46119 419
45.4813 472
45.50142 445
45.52153 492
45.54165 468
45.56176 485
45.58187 517
45.60199 517
45.6221 597
45.64221 610
45.66233 660
45.68244 751
45.70256 837
45.72267 938
45.74278 1027
45.7629 1004
45.78301 1016
45.80312 894
45.82324 804
45.84335 729
45.86346 659
45.88358 652
45.90369 622
45.92381 582
45.94392 495
45.96403 428
45.98415 405
46.00426 418
46.02437 395
46.04449 362
46.0646 388
46.08472 379
46.10483 347
46.12494 397
46.14506 375
46.16517 359
46.18528 339
46.2054 366
46.22551 334
46.24563 324
46.26574 346
46.28585 387
46.30597 361
46.32608 370
46.34619 346
46.36631 353
46.38642 336
46.40653 360
46.42665 350
46.44676 322
46.46688 342
46.48699 380
46.5071 356
46.52722 380
46.54733 331
46.56744 353
46.58756 324
46.60767 354
46.62779 361
46.6479 347
46.66801 302
46.68813 402
46.70824 323
46.72835 356
46.74847 337
46.76858 338
46.78869 293
46.80881 314
46.82892 355
46.84904 328
46.86915 354
46.88926 331
46.90938 358
46.92949 348
46.9496 352
46.96972 312
46.98983 348
47.00995 368
47.03006 334
47.05017 365
47.07029 357
47.0904 356
47.11051 362
47.13063 326
47.15074 350
47.17086 352
47.19097 366
47.21108 349
47.2312 394
47.25131 361
47.27142 375
47.29154 364
47.31165 351
47.33176 330
47.35188 337
47.37199 344
47.39211 348
47.41222 363
47.43233 344
47.45245 340
47.47256 356
47.49267 392
47.51279 376
47.5329 334
47.55302 350
47.57313 326
47.59324 355
47.61336 343
47.63347 353
47.65358 332
47.6737 370
47.69381 356
47.71393 343
47.73404 318
47.75415 325
47.77427 357
47.79438 333
47.81449 350
47.83461 377
47.85472 377
47.87483 351
47.89495 340
47.91506 348
47.93518 367
47.95529 390
47.9754 343
47.99552 364
48.01563 381
48.03574 388
48.05586 360
48.07597 353
48.09609 369
48.1162 343
48.13631 343
48.15643 334
48.17654 329
48.19665 343
48.21677 340
48.23688 315
48.257 327
48.27711 357
48.29722 343
48.31734 342
48.33745 355
48.35756 328
48.37768 337
48.39779 314
48.4179 324
48.43802 335
48.45813 322
48.47825 334
48.49836 348
48.51847 345
48.53859 349
48.5587 333
48.57881 353
48.59893 337
48.61904 327
48.63916 329
48.65927 318
48.67938 343
48.6995 348
48.71961 360
48.73972 334
48.75984 344
48.77995 342
48.80006 333
48.82018 359
48.84029 322
48.86041 307
48.88052 317
48.90063 314
48.92075 304
48.94086 355
48.96097 326
48.98109 372
49.0012 343
49.02132 343
49.04143 347
49.06154 329
49.08166 350
49.10177 368
49.12188 343
49.142 336
49.16211 353
49.18223 312
49.20234 368
49.22245 345
49.24257 351
49.26268 381
49.28279 389
49.30291 344
49.32302 377
49.34313 360
49.36325 376
49.38336 382
49.40348 392
49.42359 371
49.4437 389
49.46382 372
49.48393 375
49.50404 392
49.52416 386
49.54427 347
49.56439 383
49.5845 380
49.60461 371
49.62473 381
49.64484 392
49.66495 413
49.68507 393
49.70518 414
49.7253 402
49.74541 449
49.76552 428
49.78564 438
49.80575 492
49.82586 477
49.84598 546
49.86609 581
49.8862 598
49.90632 684
49.92643 750
49.94655 841
49.96666 1011
49.98677 1161
50.00689 1489
50.027 1761
50.04711 2008
50.06723 2218
50.08734 2597
50.10746 2643
50.12757 2692
50.14768 2265
50.1678 1874
50.18791 1627
50.20802 1569
50.22814 1570
50.24825 1480
50.26837 1258
50.28848 1040
50.30859 806
50.32871 646
50.34882 556
50.36893 512
50.38905 482
50.40916 456
50.42927 420
50.44939 432
50.4695 476
50.48962 451
50.50973 449
50.52984 402
50.54996 442
50.57007 457
50.59018 433
50.6103 434
50.63041 425
50.65053 404
50.67064 413
50.69075 388
50.71087 382
50.73098 450
50.75109 400
50.77121 385
50.79132 359
50.81143 357
50.83155 377
50.85166 372
50.87178 372
50.89189 334
50.912 345
50.93212 331
50.95223 350
50.97234 369
50.99246 368
51.01257 340
51.03269 346
51.0528 366
51.07291 343
51.09303 334
51.11314 343
51.13325 361
51.15337 309
51.17348 351
51.1936 345
51.21371 390
51.23382 348
51.25394 320
51.27405 350
51.29416 313
51.31428 344
51.33439 350
51.3545 344
51.37462 332
51.39473 341
51.41485 326
51.43496 360
51.45507 333
51.47519 335
51.4953 334
51.51541 333
51.53553 339
51.55564 347
51.57576 303
51.59587 333
51.61598 294
51.6361 328
51.65621 307
51.67632 330
51.69644 317
51.71655 315
51.73667 319
51.75678 284
51.77689 338
51.79701 319
51.81712 330
51.83723 335
51.85735 332
51.87746 336
51.89757 328
51.91769 363
51.9378 323
51.95792 314
51.97803 333
51.99814 365
52.01826 322
52.03837 322
52.05848 316
52.0786 339
52.09871 343
52.11883 354
52.13894 356
52.15905 400
52.17917 371
52.19928 367
52.21939 368
52.23951 357
52.25962 322
52.27974 336
52.29985 346
52.31996 349
52.34008 356
52.36019 362
52.3803 356
52.40042 317
52.42053 320
52.44064 331
52.46076 349
52.48087 306
52.50099 336
52.5211 304
52.54121 309
52.56133 308
52.58144 297
52.60155 308
52.62167 310
52.64178 354
52.6619 317
52.68201 298
52.70212 314
52.72224 327
52.74235 294
52.76246 307
52.78258 321
52.80269 348
52.8228 322
52.84292 340
52.86303 330
52.88315 328
52.90326 306
52.92337 324
52.94349 344
52.9636 377
52.98371 319
53.00383 308
53.02394 306
53.04406 325
53.06417 293
53.08428 301
53.1044 302
53.12451 327
53.14462 359
53.16474 318
53.18485 300
53.20497 337
53.22508 334
53.24519 334
53.26531 324
53.28542 330
53.30553 327
53.32565 343
53.34576 347
53.36587 332
53.38599 353
53.4061 332
53.42622 350
53.44633 312
53.46644 373
53.48656 319
53.50667 355
53.52678 303
53.5469 366
53.56701 354
53.58713 345
53.60724 361
53.62735 377
53.64747 368
53.66758 374
53.68769 365
53.70781 364
53.72792 368
53.74804 388
53.76815 406
53.78826 383
53.80838 426
53.82849 386
53.8486 430
53.86872 437
53.88883 441
53.90894 417
53.92906 457
53.94917 494
53.96929 479
53.9894 447
54.00951 455
54.02963 468
54.04974 483
54.06985 453
54.08997 460
54.11008 476
54.1302 497
54.15031 472
54.17042 489
54.19054 512
54.21065 509
54.23076 486
54.25088 460
54.27099 483
54.29111 454
54.31122 443
54.33133 460
54.35145 501
54.37156 493
54.39167 477
54.41179 475
54.4319 473
54.45201 443
54.47213 439
54.49224 473
54.51236 477
54.53247 480
54.55258 476
54.5727 484
54.59281 499
54.61292 533
54.63304 526
54.65315 538
54.67327 550
54.69338 567
54.71349 654
54.73361 707
54.75372 804
54.77383 910
54.79395 905
54.81406 1043
54.83417 1111
54.85429 1137
54.8744 935
54.89452 892
54.91463 806
54.93474 801
54.95486 731
54.97497 819
54.99508 719
55.0152 737
55.03531 632
55.05543 596
55.07554 545
55.09565 577
55.11577 551
55.13588 531
55.15599 591
55.17611 564
55.19622 592
55.21634 665
55.23645 651
55.25656 695
55.27668 717
55.29679 632
55.3169 660
55.33702 648
55.35713 616
55.37724 558
55.39736 524
55.41747 562
55.43759 531
55.4577 521
55.47781 491
55.49793 483
55.51804 459
55.53815 429
55.55827 424
55.57838 455
55.5985 389
55.61861 370
55.63872 412
55.65884 381
55.67895 383
55.69906 375
55.71918 364
55.73929 391
55.75941 396
55.77952 376
55.79963 353
55.81975 368
55.83986 372
55.85997 363
55.88009 350
55.9002 361
55.92031 376
55.94043 377
55.96054 377
55.98066 362
56.00077 356
56.02088 372
56.041 386
56.06111 380
56.08122 360
56.10134 348
56.12145 363
56.14157 352
56.16168 382
56.18179 374
56.20191 337
56.22202 376
56.24213 360
56.26225 364
56.28236 351
56.30248 330
56.32259 350
56.3427 337
56.36282 357
56.38293 355
56.40304 367
56.42316 361
56.44327 349
56.46338 348
56.4835 358
56.50361 332
56.52373 367
56.54384 349
56.56395 362
56.58407 357
56.60418 331
56.62429 354
56.64441 370
56.66452 366
56.68464 365
56.70475 352
56.72486 344
56.74498 324
56.76509 305
56.7852 322
56.80532 346
56.82543 354
56.84554 327
56.86566 360
56.88577 336
56.90589 347
56.926 306
56.94611 360
56.96623 320
56.98634 369
57.00645 324
57.02657 332
57.04668 369
57.0668 357
57.08691 358
57.10702 332
57.12714 363
57.14725 358
57.16736 405
57.18748 379
57.20759 367
57.22771 360
57.24782 351
57.26793 360
57.28805 324
57.30816 309
57.32827 348
57.34839 361
57.3685 346
57.38861 344
57.40873 341
57.42884 364
57.44896 336
57.46907 329
57.48918 351
57.5093 362
57.52941 302
57.54952 347
57.56964 370
57.58975 317
57.60987 341
57.62998 324
57.65009 340
57.67021 345
57.69032 329
57.71043 335
57.73055 320
57.75066 335
57.77078 356
57.79089 359
57.811 347
57.83112 369
57.85123 327
57.87134 331
57.89146 321
57.91157 339
57.93168 334
57.9518 324
57.97191 334
57.99203 328
58.01214 343
58.03225 283
58.05237 331
58.07248 333
58.09259 358
58.11271 328
58.13282 345
58.15294 356
58.17305 318
58.19316 281
58.21328 336
58.23339 348
58.2535 332
58.27362 348
58.29373 323
58.31385 339
58.33396 345
58.35407 347
58.37419 343
58.3943 308
58.41441 352
58.43453 337
58.45464 340
58.47475 353
58.49487 322
58.51498 361
58.5351 347
58.55521 307
58.57532 353
58.59544 340
58.61555 356
58.63566 357
58.65578 334
58.67589 306
58.69601 336
58.71612 301
58.73623 328
58.75635 336
58.77646 312
58.79657 331
58.81669 333
58.8368 351
58.85691 324
58.87703 325
58.89714 349
58.91726 334
58.93737 334
58.95748 328
58.9776 348
58.99771 328
59.01782 368
59.03794 355
59.05805 365
59.07817 335
59.09828 336
59.11839 334
59.13851 376
59.15862 381
59.17873 325
59.19885 329
59.21896 355
59.23908 315
59.25919 342
59.2793 362
59.29942 352
59.31953 318
59.33964 349
59.35976 336
59.37987 353
59.39998 358
59.4201 363
59.44021 342
59.46033 384
59.48044 359
59.50055 399
59.52067 412
59.54078 357
59.56089 430
59.58101 415
59.60112 406
59.62124 426
59.64135 435
59.66146 499
59.68158 581
59.70169 559
59.7218 570
59.74192 677
59.76203 747
59.78215 863
59.80226 1015
59.82237 1145
59.84249 1248
59.8626 1527
59.88271 1624
59.90283 1760
59.92294 1785
59.94305 1676
59.96317 1449
59.98328 1242
60.0034 1117
60.02351 1056
60.04362 1061
60.06374 1081
60.08385 1077
60.10396 1011
60.12408 903
60.14419 731
60.16431 626
60.18442 516
60.20453 517
60.22465 454
60.24476 466
60.26487 414
60.28499 423
60.3051 363
60.32522 407
60.34533 359
60.36544 370
60.38556 355
60.40567 372
60.42578 357
60.4459 361
60.46601 361
60.48612 336
60.50624 335
60.52635 373
60.54647 319
60.56658 334
60.58669 343
60.60681 352
60.62692 360
60.64703 324
60.66715 333
60.68726 344
60.70738 368
60.72749 320
60.7476 337
60.76772 333
60.78783 344
60.80794 304
60.82806 305
60.84817 340
60.86828 329
60.8884 328
60.90851 318
60.92863 319
60.94874 326
60.96885 319
60.98897 324
61.00908 319
61.02919 311
61.04931 334
61.06942 330
61.08954 314
61.10965 327
61.12976 346
61.14988 290
61.16999 322
61.1901 305
61.21022 295
61.23033 349
61.25045 340
61.27056 332
61.29067 284
61.31079 325
61.3309 328
61.35101 299
61.37113 348
61.39124 303
61.41135 316
61.43147 294
61.45158 341
61.4717 327
61.49181 331
61.51192 341
61.53204 330
61.55215 328
61.57226 323
61.59238 316
61.61249 323
61.63261 325
61.65272 347
61.67283 310
61.69295 341
61.71306 339
61.73317 349
61.75329 327
61.7734 349
61.79352 334
61.81363 367
61.83374 308
61.85386 331
61.87397 331
61.89408 363
61.9142 404
61.93431 355
61.95442 352
61.97454 373
61.99465 415
62.01477 410
62.03488 381
62.05499 397
62.07511 457
62.09522 463
62.11533 490
62.13545 479
62.15556 478
62.17568 523
62.19579 536
62.2159 515
62.23602 468
62.25613 500
62.27624 510
62.29636 471
62.31647 495
62.33659 506
62.3567 479
62.37681 541
62.39693 512
62.41704 436
62.43715 451
62.45727 477
62.47738 434
62.49749 397
62.51761 387
62.53772 437
62.55784 415
62.57795 380
62.59806 367
62.61818 393
62.63829 391
62.6584 361
62.67852 375
62.69863 357
62.71875 332
62.73886 382
62.75897 329
62.77909 355
62.7992 339
62.81931 357
62.83943 345
62.85954 356
62.87965 356
62.89977 351
62.91988 323
62.94 339
62.96011 351
62.98022 345
63.00034 322
63.02045 326
63.04056 340
63.06068 331
63.08079 323
63.10091 351
63.12102 339
63.14113 305
63.16125 338
63.18136 333
63.20147 335
63.22159 351
63.2417 326
63.26182 327
63.28193 328
63.30204 348
63.32216 331
63.34227 319
63.36238 304
63.3825 349
63.40261 326
63.42272 344
63.44284 334
63.46295 355
63.48307 330
63.50318 350
63.52329 364
63.54341 324
63.56352 337
63.58363 369
63.60375 372
63.62386 380
63.64398 379
63.66409 413
63.6842 400
63.70432 383
63.72443 403
63.74454 425
63.76466 407
63.78477 439
63.80489 440
63.825 456
63.84511 472
63.86523 495
63.88534 515
63.90545 530
63.92557 562
63.94568 549
63.96579 651
63.98591 661
64.00602 625
64.02614 596
64.04625 566
64.06636 531
64.08648 515
64.10659 478
64.1267 493
64.14682 489
64.16693 475
64.18705 478
64.20716 453
64.22727 443
64.24739 362
64.2675 383
64.28761 370
64.30773 354
64.32784 337
64.34796 346
64.36807 316
64.38818 344
64.4083 345
64.42841 349
64.44852 350
64.46864 336
64.48875 335
64.50886 329
64.52898 334
64.54909 343
64.56921 318
64.58932 356
64.60943 335
64.62955 304
64.64966 336
64.66977 339
64.68989 342
64.71 347
64.73012 323
64.75023 311
64.77034 319
64.79046 313
64.81057 326
64.83068 336
64.8508 315
64.87091 358
64.89102 332
64.91114 295
64.93125 330
64.95137 284
64.97148 344
64.99159 301
65.01171 345
65.03182 315
65.05193 302
65.07205 350
65.09216 302
65.11228 356
65.13239 298
65.1525 332
65.17262 331
65.19273 298
65.21284 332
65.23296 348
65.25307 307
65.27319 347
65.2933 316
65.31341 347
65.33353 309
65.35364 338
65.37375 307
65.39387 308
65.41398 323
65.43409 317
65.45421 344
65.47432 341
65.49444 303
65.51455 327
65.53466 353
65.55478 303
65.57489 347
65.595 349
65.61512 338
65.63523 372
65.65535 358
65.67546 364
65.69557 396
65.71569 377
65.7358 412
65.75591 402
65.77603 351
65.79614 342
65.81626 339
65.83637 349
65.85648 313
65.8766 347
65.89671 340
65.91682 368
65.93694 352
65.95705 359
65.97716 339
65.99728 338
66.01739 381
66.03751 370
66.05762 351
66.07773 360
66.09785 313
66.11796 341
66.13807 312
66.15819 317
66.1783 330
66.19842 354
66.21853 317
66.23864 309
66.25876 335
66.27887 317
66.29898 335
66.3191 337
66.33921 354
66.35933 336
66.37944 350
66.39955 336
66.41967 355
66.43978 331
66.45989 308
66.48001 356
66.50012 325
66.52023 340
66.54035 341
66.56046 323
66.58058 331
66.60069 325
66.6208 332
66.64092 315
66.66103 339
66.68114 307
66.70126 329
66.72137 301
66.74149 323
66.7616 329
66.78171 323
66.80183 343
66.82194 349
66.84205 332
66.86217 319
66.88228 330
66.90239 315
66.92251 346
66.94262 340
66.96274 336
66.98285 338
67.00296 321
67.02308 324
67.04319 334
67.0633 338
67.08342 355
67.10353 338
67.12365 374
67.14376 343
67.16387 352
67.18399 348
67.2041 333
67.22421 345
67.24433 345
67.26444 387
67.28456 376
67.30467 364
67.32478 414
67.3449 383
67.36501 392
67.38512 403
67.40524 412
67.42535 434
67.44546 457
67.46558 446
67.48569 480
67.50581 511
67.52592 564
67.54603 579
67.56615 705
67.58626 751
67.60637 833
67.62649 852
67.6466 969
67.66672 1078
67.68683 1216
67.70694 1133
67.72706 1141
67.74717 1035
67.76728 962
67.7874 801
67.80751 813
67.82763 855
67.84774 829
67.86785 911
67.88797 941
67.90808 930
67.92819 940
67.94831 898
67.96842 880
67.98853 938
68.00865 996
68.02876 1156
68.04888 1265
68.06899 1399
68.0891 1508
68.10922 1514
68.12933 1328
68.14944 1335
68.16956 1227
68.18967 1192
68.20979 1260
68.2299 1332
68.25001 1335
68.27013 1433
68.29024 1440
68.31035 1364
68.33047 1153
68.35058 907
68.3707 825
68.39081 733
68.41092 720
68.43104 729
68.45115 701
68.47126 620
68.49138 625
68.51149 597
68.5316 495
68.55172 427
68.57183 379
68.59195 383
68.61206 359
68.63217 368
68.65229 330
68.6724 360
68.69251 387
68.71263 322
68.73274 370
68.75286 353
68.77297 336
68.79308 322
68.8132 332
68.83331 356
68.85342 349
68.87354 346
68.89365 340
68.91376 357
68.93388 348
68.95399 316
68.97411 319
68.99422 378
69.01433 324
69.03445 341
69.05456 324
69.07467 320
69.09479 339
69.1149 344
69.13502 303
69.15513 320
69.17524 334
69.19536 333
69.21547 305
69.23558 305
69.2557 294
69.27581 307
69.29593 304
69.31604 340
69.33615 295
69.35627 286
69.37638 344
69.39649 313
69.41661 318
69.43672 294
69.45683 296
69.47695 312
69.49706 319
69.51718 313
69.53729 309
69.5574 289
69.57752 296
69.59763 294
69.61774 305
69.63786 309
69.65797 317
69.67809 349
69.6982 299
69.71831 318
69.73843 314
69.75854 298
69.77865 299
69.79877 309
69.81888 296
69.839 301
69.85911 287
69.87922 329
69.89934 299
69.91945 305
69.93956 328
69.95968 316
69.97979 314
69.9999 332
70.02002 312
70.04013 299
70.06025 315
70.08036 310
70.10047 302
70.12059 318
70.1407 297
70.16081 311
70.18093 293
70.20104 320
70.22116 326
70.24127 312
70.26138 298
70.2815 330
70.30161 315
70.32172 337
70.34184 322
70.36195 303
70.38207 330
70.40218 312
70.42229 280
70.44241 274
70.46252 350
70.48263 282
70.50275 270
70.52286 284
70.54297 316
70.56309 291
70.5832 338
70.60332 313
70.62343 343
70.64354 306
70.66366 278
70.68377 323
70.70388 326
70.724 314
70.74411 297
70.76423 315
70.78434 320
70.80445 307
70.82457 266
70.84468 307
70.86479 293
70.88491 282
70.90502 267
70.92513 317
70.94525 329
70.96536 283
70.98548 300
71.00559 326
71.0257 293
71.04582 297
71.06593 312
71.08604 298
71.10616 284
71.12627 294
71.14639 311
71.1665 299
71.18661 278
71.20673 308
71.22684 319
71.24695 273
71.26707 301
71.28718 255
71.3073 264
71.32741 296
71.34752 310
71.36764 307
71.38775 300
71.40786 305
71.42798 287
71.44809 287
71.4682 300
71.48832 282
71.50843 295
71.52855 305
71.54866 305
71.56877 316
71.58889 298
71.609 340
71.62911 336
71.64923 288
71.66934 308
71.68946 303
71.70957 328
71.72968 312
71.7498 303
71.76991 336
71.79002 334
71.81014 321
71.83025 311
71.85037 300
71.87048 331
71.89059 333
71.91071 354
71.93082 284
71.95093 300
71.97105 286
71.99116 305
72.01127 309
72.03139 318
72.0515 288
72.07162 324
72.09173 300
72.11184 285
72.13196 292
72.15207 298
72.17218 334
72.1923 312
72.21241 284
72.23253 318
72.25264 312
72.27275 321
72.29287 278
72.31298 305
72.33309 317
72.35321 295
72.37332 301
72.39344 334
72.41355 315
72.43366 288
72.45378 322
72.47389 304
72.494 316
72.51412 294
72.53423 307
72.55434 296
72.57446 315
72.59457 298
72.61469 282
72.6348 297
72.65491 291
72.67503 296
72.69514 328
72.71525 289
72.73537 327
72.75548 315
72.7756 318
72.79571 293
72.81582 299
72.83594 285
72.85605 300
72.87616 301
72.89628 283
72.91639 303
72.9365 326
72.95662 305
72.97673 314
72.99685 346
73.01696 307
73.03707 286
73.05719 322
73.0773 328
73.09741 321
73.11753 355
73.13764 325
73.15776 330
73.17787 365
73.19798 348
73.2181 353
73.23821 415
73.25832 414
73.27844 419
73.29855 422
73.31867 464
73.33878 482
73.35889 552
73.37901 600
73.39912 618
73.41923 623
73.43935 582
73.45946 527
73.47957 504
73.49969 487
73.5198 453
73.53992 425
73.56003 435
73.58014 460
73.60026 449
73.62037 459
73.64048 463
73.6606 447
73.68071 407
73.70083 436
73.72094 321
73.74105 358
73.76117 364
73.78128 336
73.80139 355
73.82151 337
73.84162 293
73.86174 324
73.88185 285
73.90196 301
73.92208 311
73.94219 300
73.9623 295
73.98242 318
74.00253 297
74.02264 293
74.04276 300
74.06287 265
74.08299 315
74.1031 293
74.12321 305
74.14333 314
74.16344 290
74.18355 288
74.20367 288
74.22378 293
74.2439 268
74.26401 273
74.28412 278
74.30424 279
74.32435 302
74.34446 302
74.36458 304
74.38469 290
74.40481 273
74.42492 307
74.44503 269
74.46515 306
74.48526 274
74.50537 264
74.52549 302
74.5456 307
74.56571 294
74.58583 298
74.60594 290
74.62606 297
74.64617 290
74.66628 326
74.6864 298
74.70651 296
74.72662 288
74.74674 283
74.76685 316
74.78697 294
74.80708 320
74.82719 320
74.84731 302
74.86742 296
74.88753 298
74.90765 320
74.92776 287
74.94787 286
74.96799 305
74.9881 320
75.00822 302
