3.00117 19678
3.02128 18893
3.0414 18657
3.06151 17727
3.08162 17189
3.10174 16828
3.12185 15946
3.14197 16174
3.16208 15198
3.18219 15014
3.20231 14783
3.22242 14057
3.24253 13844
3.26265 13500
3.28276 12803
3.30288 12352
3.32299 11915
3.3431 11730
3.36322 11427
3.38333 10798
3.40344 10769
3.42356 10183
3.44367 10085
3.46379 9508
3.4839 9268
3.50401 8918
3.52413 8606
3.54424 8388
3.56435 7984
3.58447 7670
3.60458 7417
3.62469 7130
3.64481 7192
3.66492 6564
3.68504 6346
3.70515 6259
3.72526 5775
3.74538 5794
3.76549 5637
3.7856 5154
3.80572 5155
3.82583 4872
3.84595 4727
3.86606 4412
3.88617 4249
3.90629 4234
3.9264 3866
3.94651 3872
3.96663 3579
3.98674 3457
4.00686 3440
4.02697 3246
4.04708 3161
4.0672 2893
4.08731 2917
4.10742 2819
4.12754 2662
4.14765 2552
4.16776 2388
4.18788 2354
4.20799 2280
4.22811 2327
4.24822 2164
4.26833 2073
4.28845 2015
4.30856 2061
4.32867 1967
4.34879 1896
4.3689 1834
4.38902 1823
4.40913 1876
4.42924 1791
4.44936 1678
4.46947 1679
4.48958 1594
4.5097 1601
4.52981 1495
4.54992 1478
4.57004 1428
4.59015 1411
4.61027 1450
4.63038 1418
4.65049 1395
4.67061 1285
4.69072 1301
4.71083 1344
4.73095 1244
4.75106 1211
4.77118 1229
4.79129 1194
4.8114 1215
4.83152 1231
4.85163 1128
4.87174 1151
4.89186 1088
4.91197 1137
4.93209 1088
4.9522 1035
4.97231 1029
4.99243 1002
5.01254 1042
5.03265 1023
5.05277 906
5.07288 954
5.09299 963
5.11311 870
5.13322 926
5.15334 869
5.17345 897
5.19356 859
5.21368 825
5.23379 811
5.2539 822
5.27402 865
5.29413 823
5.31425 800
5.33436 841
5.35447 766
5.37459 762
5.3947 760
5.41481 743
5.43493 722
5.45504 692
5.47516 760
5.49527 734
5.51538 705
5.5355 751
5.55561 688
5.57572 638
5.59584 682
5.61595 641
5.63606 679
5.65618 663
5.67629 658
5.69641 651
5.71652 671
5.73663 670
5.75675 637
5.77686 620
5.79697 678
5.81709 571
5.8372 598
5.85732 599
5.87743 608
5.89754 610
5.91766 571
5.93777 638
5.95788 609
5.978 619
5.99811 575
6.01823 564
6.03834 552
6.05845 544
6.07857 608
6.09868 599
6.11879 612
6.13891 595
6.15902 587
6.17913 585
6.19925 567
6.21936 597
6.23948 502
6.25959 568
6.2797 558
6.29982 531
6.31993 566
6.34004 532
6.36016 576
6.38027 560
6.40039 534
6.4205 582
6.44061 494
6.46073 536
6.48084 589
6.50095 565
6.52107 535
6.54118 540
6.56129 578
6.58141 581
6.60152 560
6.62164 517
6.64175 593
6.66186 522
6.68198 577
6.70209 590
6.7222 580
6.74232 545
6.76243 519
6.78255 569
6.80266 541
6.82277 514
6.84289 561
6.863 548
6.88311 543
6.90323 516
6.92334 518
6.94346 514
6.96357 580
6.98368 514
7.0038 574
7.02391 541
7.04402 522
7.06414 529
7.08425 547
7.10436 530
7.12448 575
7.14459 530
7.16471 512
7.18482 540
7.20493 591
7.22505 482
7.24516 583
7.26527 548
7.28539 562
7.3055 523
7.32562 535
7.34573 478
7.36584 595
7.38596 511
7.40607 544
7.42618 556
7.4463 504
7.46641 533
7.48653 509
7.50664 503
7.52675 519
7.54687 522
7.56698 520
7.58709 546
7.60721 506
7.62732 495
7.64743 561
7.66755 508
7.68766 558
7.70778 533
7.72789 548
7.748 566
7.76812 556
7.78823 544
7.80834 570
7.82846 554
7.84857 491
7.86869 553
7.8888 525
7.90891 553
7.92903 563
7.94914 531
7.96925 549
7.98937 528
8.00948 509
8.0296 519
8.04971 543
8.06982 565
8.08994 511
8.11005 527
8.13016 524
8.15028 591
8.17039 568
8.1905 528
8.21062 485
8.23073 495
8.25085 522
8.27096 553
8.29107 537
8.31119 543
8.3313 488
8.35141 539
8.37153 552
8.39164 499
8.41176 549
8.43187 534
8.45198 477
8.4721 564
8.49221 578
8.51232 540
8.53244 562
8.55255 529
8.57266 547
8.59278 563
8.61289 530
8.63301 568
8.65312 523
8.67323 514
8.69335 581
8.71346 527
8.73357 507
8.75369 548
8.7738 537
8.79392 473
8.81403 559
8.83414 495
8.85426 543
8.87437 496
8.89448 497
8.9146 515
8.93471 503
8.95483 527
8.97494 525
8.99505 525
9.01517 582
9.03528 511
9.05539 540
9.07551 516
9.09562 516
9.11573 519
9.13585 511
9.15596 506
9.17608 570
9.19619 527
9.2163 531
9.23642 526
9.25653 486
9.27664 540
9.29676 504
9.31687 466
9.33699 510
9.3571 482
9.37721 516
9.39733 521
9.41744 548
9.43755 509
9.45767 491
9.47778 567
9.4979 554
9.51801 520
9.53812 530
9.55824 506
9.57835 536
9.59846 542
9.61858 531
9.63869 543
9.6588 519
9.67892 527
9.69903 519
9.71915 548
9.73926 553
9.75937 512
9.77949 533
9.7996 526
9.81971 524
9.83983 542
9.85994 555
9.88006 527
9.90017 543
9.92028 534
9.9404 504
9.96051 548
9.98062 513
10.00074 529
10.02085 489
10.04097 549
10.06108 509
10.08119 541
10.10131 526
10.12142 557
10.14153 531
10.16165 562
10.18176 515
10.20187 518
10.22199 554
10.2421 566
10.26222 552
10.28233 581
10.30244 508
10.32256 547
10.34267 551
10.36278 547
10.3829 530
10.40301 517
10.42313 498
10.44324 518
10.46335 527
10.48347 517
10.50358 534
10.52369 509
10.54381 551
10.56392 528
10.58403 587
10.60415 531
10.62426 506
10.64438 501
10.66449 527
10.6846 500
10.70472 507
10.72483 497
10.74494 535
10.76506 524
10.78517 532
10.80529 534
10.8254 515
10.84551 518
10.86563 515
10.88574 496
10.90585 561
10.92597 556
10.94608 517
10.9662 499
10.98631 524
11.00642 551
11.02654 543
11.04665 582
11.06676 584
11.08688 541
11.10699 528
11.1271 527
11.14722 533
11.16733 528
11.18745 525
11.20756 575
11.22767 498
11.24779 540
11.2679 535
11.28801 538
11.30813 514
11.32824 538
11.34836 510
11.36847 531
11.38858 561
11.4087 550
11.42881 557
11.44892 527
11.46904 538
11.48915 567
11.50927 551
11.52938 595
11.54949 568
11.56961 544
11.58972 569
11.60983 559
11.62995 603
11.65006 579
11.67017 551
11.69029 535
11.7104 580
11.73052 573
11.75063 626
11.77074 528
11.79086 634
11.81097 584
11.83108 582
11.8512 664
11.87131 624
11.89143 645
11.91154 653
11.93165 666
11.95177 634
11.97188 685
11.99199 677
12.01211 689
12.03222 674
12.05234 774
12.07245 748
12.09256 795
12.11268 838
12.13279 786
12.1529 896
12.17302 932
12.19313 952
12.21324 872
12.23336 977
12.25347 995
12.27359 1101
12.2937 981
12.31381 989
12.33393 975
12.35404 909
12.37415 920
12.39427 944
12.41438 929
12.4345 869
12.45461 857
12.47472 863
12.49484 853
12.51495 802
12.53506 742
12.55518 729
12.57529 723
12.5954 651
12.61552 611
12.63563 641
12.65575 630
12.67586 555
12.69597 602
12.71609 628
12.7362 620
12.75631 588
12.77643 577
12.79654 575
12.81666 564
12.83677 587
12.85688 546
12.877 557
12.89711 527
12.91722 582
12.93734 519
12.95745 553
12.97757 559
12.99768 561
13.01779 500
13.03791 481
13.05802 550
13.07813 559
13.09825 582
13.11836 521
13.13847 520
13.15859 536
13.1787 486
13.19882 497
13.21893 522
13.23904 527
13.25916 484
13.27927 542
13.29938 514
13.3195 492
13.33961 503
13.35973 486
13.37984 518
13.39995 533
13.42007 508
13.44018 537
13.46029 496
13.48041 519
13.50052 493
13.52064 473
13.54075 515
13.56086 490
13.58098 508
13.60109 505
13.6212 486
13.64132 464
13.66143 493
13.68154 499
13.70166 495
13.72177 560
13.74189 479
13.762 506
13.78211 458
13.80223 497
13.82234 464
13.84245 495
13.86257 459
13.88268 530
13.9028 516
13.92291 541
13.94302 480
13.96314 553
13.98325 479
14.00336 515
14.02348 518
14.04359 533
14.06371 499
14.08382 538
14.10393 535
14.12405 513
14.14416 479
14.16427 492
14.18439 526
14.2045 567
14.22461 548
14.24473 489
14.26484 465
14.28496 526
14.30507 486
14.32518 507
14.3453 504
14.36541 535
14.38552 516
14.40564 463
14.42575 559
14.44587 494
14.46598 480
14.48609 467
14.50621 506
14.52632 515
14.54643 501
14.56655 438
14.58666 495
14.60677 497
14.62689 501
14.647 524
14.66712 466
14.68723 495
14.70734 465
14.72746 484
14.74757 450
14.76768 501
14.7878 506
14.80791 505
14.82803 499
14.84814 504
14.86825 501
14.88837 488
14.90848 543
14.92859 469
14.94871 508
14.96882 497
14.98894 501
15.00905 487
15.02916 476
15.04928 529
15.06939 485
15.0895 475
15.10962 463
15.12973 557
15.14984 443
15.16996 476
15.19007 510
15.21019 478
15.2303 499
15.25041 471
15.27053 513
15.29064 496
15.31075 487
15.33087 452
15.35098 510
15.3711 501
15.39121 469
15.41132 477
15.43144 467
15.45155 499
15.47166 511
15.49178 512
15.51189 486
15.53201 502
15.55212 444
15.57223 475
15.59235 519
15.61246 510
15.63257 469
15.65269 489
15.6728 503
15.69291 475
15.71303 547
15.73314 471
15.75326 499
15.77337 440
15.79348 459
15.8136 494
15.83371 462
15.85382 478
15.87394 522
15.89405 474
15.91417 460
15.93428 468
15.95439 478
15.97451 445
15.99462 483
16.01473 496
16.03485 528
16.05496 492
16.07508 504
16.09519 494
16.1153 458
16.13542 496
16.15553 501
16.17564 504
16.19576 514
16.21587 483
16.23598 478
16.2561 496
16.27621 450
16.29633 507
16.31644 496
16.33655 525
16.35667 486
16.37678 496
16.39689 499
16.41701 511
16.43712 494
16.45724 492
16.47735 495
16.49746 499
16.51758 435
16.53769 475
16.5578 491
16.57792 464
16.59803 531
16.61814 481
16.63826 517
16.65837 479
16.67849 539
16.6986 520
16.71871 470
16.73883 503
16.75894 513
16.77905 525
16.79917 481
16.81928 497
16.8394 460
16.85951 441
16.87962 478
16.89974 505
16.91985 462
16.93996 521
16.96008 547
16.98019 469
17.00031 494
17.02042 529
17.04053 509
17.06065 483
17.08076 499
17.10087 495
17.12099 526
17.1411 507
17.16121 521
17.18133 488
17.20144 530
17.22156 456
17.24167 475
17.26178 471
17.2819 477
17.30201 468
17.32212 482
17.34224 492
17.36235 470
17.38247 489
17.40258 531
17.42269 495
17.44281 502
17.46292 470
17.48303 486
17.50315 495
17.52326 502
17.54338 496
17.56349 495
17.5836 518
17.60372 507
17.62383 491
17.64394 483
17.66406 526
17.68417 488
17.70428 548
17.7244 519
17.74451 497
17.76463 472
17.78474 535
17.80485 524
17.82497 466
17.84508 511
17.86519 518
17.88531 478
17.90542 470
17.92554 534
17.94565 538
17.96576 528
17.98588 511
18.00599 494
18.0261 530
18.04622 528
18.06633 502
18.08645 571
18.10656 519
18.12667 504
18.14679 520
18.1669 541
18.18701 562
18.20713 617
18.22724 593
18.24735 582
18.26747 627
18.28758 639
18.3077 655
18.32781 610
18.34792 612
18.36804 560
18.38815 553
18.40826 530
18.42838 531
18.44849 529
18.46861 548
18.48872 484
18.50883 503
18.52895 559
18.54906 553
18.56917 552
18.58929 553
18.6094 508
18.62951 508
18.64963 536
18.66974 500
18.68986 494
18.70997 546
18.73008 537
18.7502 512
18.77031 493
18.79042 546
18.81054 512
18.83065 556
18.85077 562
18.87088 524
18.89099 524
18.91111 528
18.93122 504
18.95133 504
18.97145 512
18.99156 541
19.01168 540
19.03179 568
19.0519 502
19.07202 513
19.09213 477
19.11224 494
19.13236 491
19.15247 520
19.17258 469
19.1927 508
19.21281 506
19.23293 526
19.25304 521
19.27315 534
19.29327 554
19.31338 494
19.33349 545
19.35361 513
19.37372 500
19.39384 550
19.41395 578
19.43406 627
19.45418 521
19.47429 565
19.4944 578
19.51452 547
19.53463 573
19.55475 566
19.57486 574
19.59497 563
19.61509 615
19.6352 623
19.65531 614
19.67543 599
19.69554 657
19.71565 690
19.73577 748
19.75588 790
19.776 755
19.79611 859
19.81622 892
19.83634 829
19.85645 826
19.87656 931
19.89668 965
19.91679 907
19.93691 871
19.95702 898
19.97713 904
19.99725 845
20.01736 932
20.03747 817
20.05759 888
20.0777 864
20.09782 828
20.11793 870
20.13804 849
20.15816 817
20.17827 854
20.19838 845
20.2185 823
20.23861 881
20.25872 853
20.27884 828
20.29895 885
20.31907 851
20.33918 860
20.35929 818
20.37941 830
20.39952 897
20.41963 866
20.43975 905
20.45986 826
20.47998 864
20.50009 843
20.5202 829
20.54032 921
20.56043 879
20.58054 877
20.60066 914
20.62077 928
20.64088 1020
20.661 1042
20.68111 1089
20.70123 1220
20.72134 1479
20.74145 1734
20.76157 2038
20.78168 2270
20.80179 2492
20.82191 2602
20.84202 2448
20.86214 2132
20.88225 1778
20.90236 1448
20.92248 1260
20.94259 1045
20.9627 900
20.98282 933
21.00293 857
21.02305 885
21.04316 764
21.06327 844
21.08339 789
21.1035 781
21.12361 776
21.14373 752
21.16384 771
21.18395 780
21.20407 740
21.22418 702
21.2443 734
21.26441 765
21.28452 714
21.30464 770
21.32475 714
21.34486 762
21.36498 744
21.38509 654
21.40521 686
21.42532 767
21.44543 741
21.46555 752
21.48566 732
21.50577 712
21.52589 709
21.546 744
21.56612 674
21.58623 740
21.60634 706
21.62646 701
21.64657 742
21.66668 680
21.6868 685
21.70691 628
21.72702 695
21.74714 662
21.76725 681
21.78737 647
21.80748 648
21.82759 647
21.84771 700
21.86782 694
21.88793 691
21.90805 666
21.92816 657
21.94828 645
21.96839 682
21.9885 696
22.00862 620
22.02873 620
22.04884 695
22.06896 654
22.08907 671
22.10919 619
22.1293 637
22.14941 602
22.16953 632
22.18964 605
22.20975 628
22.22987 591
22.24998 626
22.27009 623
22.29021 639
22.31032 659
22.33044 638
22.35055 681
22.37066 648
22.39078 627
22.41089 633
22.431 615
22.45112 663
22.47123 632
22.49135 600
22.51146 618
22.53157 602
22.55169 641
22.5718 607
22.59191 632
22.61203 579
22.63214 620
22.65225 664
22.67237 630
22.69248 576
22.7126 619
22.73271 644
22.75282 622
22.77294 564
22.79305 642
22.81316 613
22.83328 606
22.85339 606
22.87351 600
22.89362 612
22.91373 590
22.93385 605
22.95396 658
22.97407 595
22.99419 592
23.0143 583
23.03442 637
23.05453 610
23.07464 605
23.09476 607
23.11487 569
23.13498 644
23.1551 583
23.17521 632
23.19532 616
23.21544 596
23.23555 621
23.25567 571
23.27578 615
23.29589 658
23.31601 640
23.33612 587
23.35623 598
23.37635 590
23.39646 574
23.41658 593
23.43669 610
23.4568 626
23.47692 630
23.49703 652
23.51714 625
23.53726 630
23.55737 619
23.57749 624
23.5976 641
23.61771 660
23.63783 695
23.65794 699
23.67805 684
23.69817 706
23.71828 698
23.73839 692
23.75851 720
23.77862 751
23.79874 704
23.81885 719
23.83896 674
23.85908 714
23.87919 768
23.8993 718
23.91942 716
23.93953 729
23.95965 699
23.97976 717
23.99987 745
24.01999 763
24.0401 763
24.06021 773
24.08033 776
24.10044 778
24.12056 761
24.14067 792
24.16078 754
24.1809 771
24.20101 780
24.22112 818
24.24124 773
24.26135 727
24.28146 748
24.30158 731
24.32169 682
24.34181 697
24.36192 737
24.38203 730
24.40215 723
24.42226 744
24.44237 712
24.46249 726
24.4826 720
24.50272 710
24.52283 725
24.54294 799
24.56306 742
24.58317 792
24.60328 818
24.6234 796
24.64351 830
24.66362 795
24.68374 848
24.70385 862
24.72397 912
24.74408 843
24.76419 913
24.78431 910
24.80442 891
24.82453 920
24.84465 933
24.86476 948
24.88488 909
24.90499 910
24.9251 864
24.94522 886
24.96533 836
24.98544 837
25.00556 843
25.02567 792
25.04579 807
25.0659 780
25.08601 771
25.10613 735
25.12624 779
25.14635 801
25.16647 790
25.18658 707
25.20669 673
25.22681 743
25.24692 726
25.26704 676
25.28715 691
25.30726 649
25.32738 688
25.34749 688
25.3676 657
25.38772 657
25.40783 640
25.42795 637
25.44806 662
25.46817 665
25.48829 596
25.5084 631
25.52851 656
25.54863 609
25.56874 633
25.58886 643
25.60897 615
25.62908 633
25.6492 662
25.66931 643
25.68942 642
25.70954 645
25.72965 634
25.74976 649
25.76988 651
25.78999 666
25.81011 619
25.83022 707
25.85033 650
25.87045 620
25.89056 636
25.91067 667
25.93079 647
25.9509 652
25.97102 666
25.99113 677
26.01124 637
26.03136 666
26.05147 714
26.07158 668
26.0917 753
26.11181 703
26.13193 732
26.15204 706
26.17215 726
26.19227 744
26.21238 812
26.23249 772
26.25261 857
26.27272 826
26.29283 950
26.31295 991
26.33306 1066
26.35318 1090
26.37329 1167
26.3934 1277
26.41352 1594
26.43363 1947
26.45374 2457
26.47386 3071
26.49397 3986
26.51409 5322
26.5342 6671
26.55431 7866
26.57443 8824
26.59454 8937
26.61465 8360
26.63477 7409
26.65488 5993
26.67499 4672
26.69511 3452
26.71522 2546
26.73534 1801
26.75545 1361
26.77556 1210
26.79568 1066
26.81579 995
26.8359 880
26.85602 886
26.87613 858
26.89625 829
26.91636 795
26.93647 722
26.95659 789
26.9767 710
26.99681 705
27.01693 702
27.03704 664
27.05716 643
27.07727 734
27.09738 634
27.1175 603
27.13761 634
27.15772 670
27.17784 645
27.19795 583
27.21806 583
27.23818 646
27.25829 615
27.27841 587
27.29852 563
27.31863 578
27.33875 592
27.35886 656
27.37897 611
27.39909 600
27.4192 603
27.43932 597
27.45943 580
27.47954 590
27.49966 567
27.51977 556
27.53988 595
27.56 603
27.58011 569
27.60023 614
27.62034 572
27.64045 561
27.66057 549
27.68068 564
27.70079 569
27.72091 568
27.74102 585
27.76113 569
27.78125 550
27.80136 580
27.82148 578
27.84159 597
27.8617 611
27.88182 568
27.90193 549
27.92204 608
27.94216 560
27.96227 557
27.98239 580
28.0025 563
28.02261 548
28.04273 575
28.06284 578
28.08295 573
28.10307 561
28.12318 529
28.1433 598
28.16341 536
28.18352 553
28.20364 572
28.22375 567
28.24386 566
28.26398 563
28.28409 529
28.3042 625
28.32432 530
28.34443 573
28.36455 578
28.38466 596
28.40477 563
28.42489 555
28.445 564
28.46511 570
28.48523 556
28.50534 562
28.52546 562
28.54557 571
28.56568 534
28.5858 527
28.60591 554
28.62602 574
28.64614 574
28.66625 569
28.68636 537
28.70648 514
28.72659 579
28.74671 510
28.76682 532
28.78693 594
28.80705 574
28.82716 541
28.84727 538
28.86739 512
28.8875 534
28.90762 526
28.92773 516
28.94784 551
28.96796 557
28.98807 536
29.00818 552
29.0283 533
29.04841 553
29.06853 532
29.08864 513
29.10875 568
29.12887 563
29.14898 477
29.16909 476
29.18921 515
29.20932 534
29.22943 533
29.24955 518
29.26966 564
29.28978 549
29.30989 537
29.33 535
29.35012 558
29.37023 545
29.39034 524
29.41046 503
29.43057 561
29.45069 510
29.4708 548
29.49091 556
29.51103 566
29.53114 512
29.55125 532
29.57137 534
29.59148 543
29.6116 526
29.63171 506
29.65182 533
29.67194 510
29.69205 522
29.71216 579
29.73228 535
29.75239 538
29.7725 529
29.79262 519
29.81273 522
29.83285 485
29.85296 555
29.87307 564
29.89319 547
29.9133 523
29.93341 555
29.95353 513
29.97364 529
29.99376 515
30.01387 513
30.03398 573
30.0541 567
30.07421 529
30.09432 568
30.11444 540
30.13455 538
30.15467 519
30.17478 551
30.19489 536
30.21501 566
30.23512 565
30.25523 534
30.27535 606
30.29546 538
30.31557 548
30.33569 551
30.3558 572
30.37592 562
30.39603 523
30.41614 540
30.43626 543
30.45637 542
30.47648 532
30.4966 565
30.51671 526
30.53683 525
30.55694 533
30.57705 550
30.59717 545
30.61728 555
30.63739 577
30.65751 521
30.67762 524
30.69773 541
30.71785 504
30.73796 518
30.75808 493
30.77819 549
30.7983 536
30.81842 499
30.83853 579
30.85864 481
30.87876 552
30.89887 539
30.91899 553
30.9391 498
30.95921 517
30.97933 551
30.99944 549
31.01955 556
31.03967 496
31.05978 561
31.0799 496
31.10001 515
31.12012 535
31.14024 527
31.16035 554
31.18046 480
31.20058 524
31.22069 529
31.2408 548
31.26092 499
31.28103 528
31.30115 530
31.32126 516
31.34137 479
31.36149 543
31.3816 512
31.40171 492
31.42183 537
31.44194 544
31.46206 515
31.48217 582
31.50228 506
31.5224 531
31.54251 566
31.56262 505
31.58274 521
31.60285 481
31.62297 493
31.64308 506
31.66319 527
31.68331 521
31.70342 532
31.72353 533
31.74365 498
31.76376 526
31.78387 537
31.80399 472
31.8241 538
31.84422 499
31.86433 542
31.88444 537
31.90456 551
31.92467 528
31.94478 574
31.9649 525
31.98501 525
32.00513 547
32.02524 551
32.04535 524
32.06547 519
32.08558 533
32.10569 574
32.12581 554
32.14592 571
32.16604 589
32.18615 605
32.20626 566
32.22638 613
32.24649 554
32.2666 595
32.28672 595
32.30683 623
32.32694 694
32.34706 660
32.36717 670
32.38729 646
32.4074 711
32.42751 763
32.44763 764
32.46774 820
32.48785 799
32.50797 823
32.52808 799
32.5482 769
32.56831 744
32.58842 769
32.60854 728
32.62865 741
32.64876 728
32.66888 707
32.68899 662
32.7091 673
32.72922 729
32.74933 652
32.76945 689
32.78956 730
32.80967 690
32.82979 716
32.8499 686
32.87001 671
32.89013 738
32.91024 783
32.93036 795
32.95047 778
32.97058 844
32.9907 844
33.01081 831
33.03092 850
33.05104 879
33.07115 877
33.09127 943
33.11138 915
33.13149 962
33.15161 909
33.17172 997
33.19183 930
33.21195 897
33.23206 825
33.25217 852
33.27229 812
33.2924 776
33.31252 754
33.33263 797
33.35274 722
33.37286 707
33.39297 731
33.41308 685
33.4332 690
33.45331 689
33.47343 652
33.49354 647
33.51365 647
33.53377 582
33.55388 643
33.57399 631
33.59411 593
33.61422 579
33.63434 598
33.65445 594
33.67456 561
33.69468 532
33.71479 576
33.7349 602
33.75502 550
33.77513 564
33.79524 578
33.81536 525
33.83547 538
33.85559 529
33.8757 580
33.89581 561
33.91593 547
33.93604 531
33.95615 516
33.97627 531
33.99638 538
34.0165 532
34.03661 568
34.05672 524
34.07684 527
34.09695 520
34.11706 536
34.13718 513
34.15729 502
34.17741 534
34.19752 507
34.21763 529
34.23775 553
34.25786 513
34.27797 550
34.29809 532
34.3182 541
34.33831 507
34.35843 529
34.37854 552
34.39866 538
34.41877 538
34.43888 587
34.459 525
34.47911 552
34.49922 555
34.51934 511
34.53945 563
34.55957 547
34.57968 549
34.59979 539
34.61991 610
34.64002 577
34.66013 578
34.68025 588
34.70036 545
34.72047 647
34.74059 620
34.7607 651
34.78082 642
34.80093 637
34.82104 665
34.84116 679
34.86127 688
34.88138 701
34.9015 763
34.92161 700
34.94173 726
34.96184 699
34.98195 736
35.00207 714
35.02218 748
35.04229 715
35.06241 776
35.08252 723
35.10264 778
35.12275 772
35.14286 840
35.16298 816
35.18309 800
35.2032 837
35.22332 837
35.24343 827
35.26354 812
35.28366 827
35.30377 816
35.32389 849
35.344 873
35.36411 869
35.38423 828
35.40434 891
35.42445 856
35.44457 893
35.46468 910
35.4848 932
35.50491 1022
35.52502 945
35.54514 1060
35.56525 1103
35.58536 1163
35.60548 1101
35.62559 1149
35.64571 1075
35.66582 1135
35.68593 1121
35.70605 1063
35.72616 1106
35.74627 1136
35.76639 1047
35.7865 1060
35.80661 1020
35.82673 912
35.84684 938
35.86696 915
35.88707 868
35.90718 813
35.9273 804
35.94741 750
35.96752 804
35.98764 770
36.00775 790
36.02787 756
36.04798 693
36.06809 690
36.08821 689
36.10832 694
36.12843 725
36.14855 667
36.16866 652
36.18878 662
36.20889 646
36.229 654
36.24912 626
36.26923 670
36.28934 671
36.30946 679
36.32957 739
36.34968 734
36.3698 837
36.38991 912
36.41003 937
36.43014 1036
36.45025 1067
36.47037 1139
36.49048 1137
36.51059 1072
36.53071 1046
36.55082 950
36.57094 949
36.59105 873
36.61116 791
36.63128 760
36.65139 712
36.6715 657
36.69162 640
36.71173 594
36.73184 603
36.75196 648
36.77207 567
36.79219 559
36.8123 553
36.83241 567
36.85253 520
36.87264 591
36.89275 566
36.91287 557
36.93298 565
36.9531 579
36.97321 545
36.99332 614
37.01344 603
37.03355 598
37.05366 563
37.07378 579
37.09389 551
37.11401 613
37.13412 553
37.15423 635
37.17435 584
37.19446 564
37.21457 611
37.23469 561
37.2548 587
37.27491 607
37.29503 605
37.31514 592
37.33526 607
37.35537 592
37.37548 566
37.3956 570
37.41571 593
37.43582 610
37.45594 586
37.47605 642
37.49617 600
37.51628 609
37.53639 591
37.55651 644
37.57662 641
37.59673 588
37.61685 622
37.63696 601
37.65708 660
37.67719 598
37.6973 655
37.71742 595
37.73753 600
37.75764 613
37.77776 673
37.79787 607
37.81798 617
37.8381 626
37.85821 579
37.87833 624
37.89844 646
37.91855 619
37.93867 606
37.95878 633
37.97889 645
37.99901 642
38.01912 611
38.03924 571
38.05935 625
38.07946 631
38.09958 677
38.11969 582
38.1398 638
38.15992 648
38.18003 656
38.20015 712
38.22026 627
38.24037 650
38.26049 657
38.2806 635
38.30071 658
38.32083 704
38.34094 692
38.36105 693
38.38117 699
38.40128 700
38.4214 682
38.44151 678
38.46162 684
38.48174 680
38.50185 687
38.52196 674
38.54208 636
38.56219 638
38.58231 613
38.60242 659
38.62253 596
38.64265 642
38.66276 636
38.68287 661
38.70299 586
38.7231 626
38.74321 624
38.76333 639
38.78344 591
38.80356 586
38.82367 607
38.84378 627
38.8639 592
38.88401 610
38.90412 614
38.92424 630
38.94435 636
38.96447 675
38.98458 625
39.00469 607
39.02481 624
39.04492 613
39.06503 601
39.08515 631
39.10526 647
39.12538 680
39.14549 614
39.1656 668
39.18572 625
39.20583 683
39.22594 707
39.24606 663
39.26617 699
39.28628 750
39.3064 839
39.32651 882
39.34663 930
39.36674 974
39.38685 1051
39.40697 990
39.42708 1072
39.44719 1006
39.46731 979
39.48742 853
39.50754 876
39.52765 745
39.54776 670
39.56788 665
39.58799 604
39.6081 625
39.62822 598
39.64833 582
39.66845 595
39.68856 638
39.70867 519
39.72879 523
39.7489 522
39.76901 540
39.78913 545
39.80924 555
39.82935 517
39.84947 566
39.86958 575
39.8897 568
39.90981 551
39.92992 561
39.95004 541
39.97015 579
39.99026 587
40.01038 560
40.03049 647
40.05061 587
40.07072 604
40.09083 642
40.11095 680
40.13106 674
40.15117 731
40.17129 739
40.1914 779
40.21152 842
40.23163 837
40.25174 767
40.27186 784
40.29197 700
40.31208 738
40.3322 716
40.35231 673
40.37242 685
40.39254 643
40.41265 596
40.43277 634
40.45288 571
40.47299 610
40.49311 608
40.51322 577
40.53333 597
40.55345 563
40.57356 600
40.59368 627
40.61379 576
40.6339 596
40.65402 537
40.67413 658
40.69424 665
40.71436 604
40.73447 645
40.75458 637
40.7747 614
40.79481 601
40.81493 660
40.83504 606
40.85515 660
40.87527 639
40.89538 600
40.91549 594
40.93561 641
40.95572 636
40.97584 654
40.99595 668
41.01606 637
41.03618 611
41.05629 627
41.0764 596
41.09652 619
41.11663 565
41.13675 557
41.15686 589
41.17697 587
41.19709 560
41.2172 573
41.23731 567
41.25743 552
41.27754 562
41.29765 557
41.31777 528
41.33788 547
41.358 558
41.37811 569
41.39822 563
41.41834 510
41.43845 523
41.45856 544
41.47868 512
41.49879 527
41.51891 545
41.53902 516
41.55913 546
41.57925 550
41.59936 533
41.61947 521
41.63959 536
41.6597 498
41.67982 575
41.69993 510
41.72004 526
41.74016 505
41.76027 535
41.78038 466
41.8005 533
41.82061 509
41.84072 502
41.86084 506
41.88095 470
41.90107 522
41.92118 539
41.94129 489
41.96141 480
41.98152 516
42.00163 514
42.02175 531
42.04186 548
42.06198 532
42.08209 511
42.1022 480
42.12232 511
42.14243 545
42.16254 520
42.18266 561
42.20277 565
42.22289 535
42.243 578
42.26311 608
42.28323 644
42.30334 703
42.32345 766
42.34357 774
42.36368 804
42.38379 850
42.40391 838
42.42402 817
42.44414 753
42.46425 753
42.48436 673
42.50448 712
42.52459 637
42.5447 645
42.56482 551
42.58493 566
42.60505 536
42.62516 535
42.64527 501
42.66539 544
42.6855 528
42.70561 519
42.72573 482
42.74584 492
42.76595 494
42.78607 546
42.80618 490
42.8263 507
42.84641 502
42.86652 497
42.88664 532
42.90675 495
42.92686 535
42.94698 454
42.96709 522
42.98721 515
43.00732 474
43.02743 507
43.04755 532
43.06766 530
43.08777 558
43.10789 523
43.128 502
43.14812 533
43.16823 526
43.18834 475
43.20846 494
43.22857 513
43.24868 498
43.2688 524
43.28891 515
43.30902 537
43.32914 573
43.34925 529
43.36937 575
43.38948 554
43.40959 483
43.42971 541
43.44982 521
43.46993 502
43.49005 515
43.51016 516
43.53028 507
43.55039 539
43.5705 521
43.59062 536
43.61073 521
43.63084 496
43.65096 522
43.67107 487
43.69119 529
43.7113 499
43.73141 532
43.75153 533
43.77164 529
43.79175 520
43.81187 478
43.83198 500
43.85209 514
43.87221 532
43.89232 523
43.91244 483
43.93255 487
43.95266 515
43.97278 534
43.99289 502
44.013 475
44.03312 485
44.05323 508
44.07335 513
44.09346 499
44.11357 523
44.13369 485
44.1538 508
44.17391 520
44.19403 500
44.21414 576
44.23426 542
44.25437 552
44.27448 526
44.2946 522
44.31471 525
44.33482 488
44.35494 521
44.37505 524
44.39516 500
44.41528 518
44.43539 525
44.45551 507
44.47562 499
44.49573 506
44.51585 512
44.53596 478
44.55607 497
44.57619 501
44.5963 521
44.61642 539
44.63653 499
44.65664 459
44.67676 543
44.69687 480
44.71698 516
44.7371 481
44.75721 500
44.77732 460
44.79744 497
44.81755 528
44.83767 528
44.85778 503
44.87789 487
44.89801 488
44.91812 507
44.93823 517
44.95835 528
44.97846 544
44.99858 504
45.01869 527
45.0388 505
45.05892 481
45.07903 506
45.09914 520
45.11926 518
45.13937 510
45.15949 473
45.1796 519
45.19971 520
45.21983 534
45.23994 526
45.26005 525
45.28017 555
45.30028 549
45.32039 556
45.34051 549
45.36062 542
45.38074 536
45.40085 524
45.42096 532
45.44108 529
45.46119 525
45.4813 543
45.50142 516
45.52153 558
45.54165 618
45.56176 568
45.58187 576
45.60199 622
45.6221 659
45.64221 627
45.66233 683
45.68244 748
45.70256 717
45.72267 780
45.74278 777
45.7629 724
45.78301 682
45.80312 688
45.82324 697
45.84335 624
45.86346 623
45.88358 620
45.90369 572
45.92381 570
45.94392 525
45.96403 522
45.98415 526
46.00426 522
46.02437 552
46.04449 521
46.0646 497
46.08472 498
46.10483 526
46.12494 499
46.14506 506
46.16517 490
46.18528 461
46.2054 531
46.22551 511
46.24563 515
46.26574 539
46.28585 475
46.30597 455
46.32608 517
46.34619 518
46.36631 512
46.38642 483
46.40653 506
46.42665 487
46.44676 519
46.46688 488
46.48699 500
46.5071 531
46.52722 485
46.54733 538
46.56744 488
46.58756 510
46.60767 532
46.62779 513
46.6479 528
46.66801 519
46.68813 535
46.70824 493
46.72835 535
46.74847 464
46.76858 492
46.78869 497
46.80881 522
46.82892 498
46.84904 497
46.86915 516
46.88926 553
46.90938 493
46.92949 549
46.9496 507
46.96972 485
46.98983 496
47.00995 517
47.03006 508
47.05017 452
47.07029 511
47.0904 528
47.11051 517
47.13063 530
47.15074 538
47.17086 489
47.19097 516
47.21108 507
47.2312 530
47.25131 538
47.27142 507
47.29154 513
47.31165 459
47.33176 471
47.35188 505
47.37199 519
47.39211 513
47.41222 485
47.43233 519
47.45245 545
47.47256 514
47.49267 508
47.51279 515
47.5329 518
47.55302 499
47.57313 488
47.59324 476
47.61336 507
47.63347 462
47.65358 516
47.6737 510
47.69381 504
47.71393 530
47.73404 540
47.75415 530
47.77427 483
47.79438 476
47.81449 469
47.83461 526
47.85472 497
47.87483 508
47.89495 493
47.91506 488
47.93518 494
47.95529 512
47.9754 524
47.99552 503
48.01563 500
48.03574 504
48.05586 472
48.07597 527
48.09609 515
48.1162 560
48.13631 476
48.15643 485
48.17654 510
48.19665 512
48.21677 531
48.23688 525
48.257 528
48.27711 478
48.29722 510
48.31734 511
48.33745 500
48.35756 526
48.37768 486
48.39779 530
48.4179 484
48.43802 528
48.45813 510
48.47825 495
48.49836 585
48.51847 525
48.53859 565
48.5587 551
48.57881 550
48.59893 542
48.61904 556
48.63916 540
48.65927 580
48.67938 593
48.6995 580
48.71961 543
48.73972 573
48.75984 563
48.77995 583
48.80006 596
48.82018 521
48.84029 602
48.86041 531
48.88052 561
48.90063 546
48.92075 534
48.94086 548
48.96097 571
48.98109 522
49.0012 542
49.02132 577
49.04143 573
49.06154 544
49.08166 573
49.10177 580
49.12188 533
49.142 571
49.16211 566
49.18223 553
49.20234 553
49.22245 570
49.24257 590
49.26268 595
49.28279 579
49.30291 582
49.32302 601
49.34313 617
49.36325 610
49.38336 608
49.40348 626
49.42359 649
49.4437 603
49.46382 659
49.48393 591
49.50404 598
49.52416 603
49.54427 652
49.56439 595
49.5845 639
49.60461 620
49.62473 569
49.64484 621
49.66495 651
49.68507 631
49.70518 628
49.7253 611
49.74541 609
49.76552 626
49.78564 619
49.80575 670
49.82586 656
49.84598 618
49.86609 632
49.8862 655
49.90632 718
49.92643 821
49.94655 834
49.96666 976
49.98677 1043
50.00689 1128
50.027 1241
50.04711 1286
50.06723 1266
50.08734 1258
50.10746 1200
50.12757 1099
50.14768 1034
50.1678 1047
50.18791 944
50.20802 927
50.22814 892
50.24825 764
50.26837 657
50.28848 653
50.30859 625
50.32871 536
50.34882 580
50.36893 518
50.38905 556
50.40916 517
50.42927 511
50.44939 506
50.4695 524
50.48962 561
50.50973 515
50.52984 519
50.54996 517
50.57007 539
50.59018 518
50.6103 518
50.63041 540
50.65053 519
50.67064 477
50.69075 541
50.71087 511
50.73098 505
50.75109 501
50.77121 505
50.79132 517
50.81143 462
50.83155 517
50.85166 485
50.87178 483
50.89189 498
50.912 499
50.93212 489
50.95223 493
50.97234 474
50.99246 518
51.01257 494
51.03269 511
51.0528 470
51.07291 498
51.09303 462
51.11314 492
51.13325 479
51.15337 495
51.17348 440
51.1936 493
51.21371 513
51.23382 475
51.25394 481
51.27405 447
51.29416 511
51.31428 464
51.33439 523
51.3545 464
51.37462 484
51.39473 478
51.41485 483
51.43496 484
51.45507 490
51.47519 506
51.4953 502
51.51541 481
51.53553 409
51.55564 507
51.57576 511
51.59587 500
51.61598 475
51.6361 483
51.65621 466
51.67632 458
51.69644 463
51.71655 497
51.73667 454
51.75678 487
51.77689 449
51.79701 493
51.81712 485
51.83723 505
51.85735 494
51.87746 499
51.89757 465
51.91769 493
51.9378 467
51.95792 470
51.97803 499
51.99814 482
52.01826 480
52.03837 489
52.05848 475
52.0786 446
52.09871 447
52.11883 503
52.13894 439
52.15905 510
52.17917 482
52.19928 457
52.21939 485
52.23951 491
52.25962 443
52.27974 461
52.29985 475
52.31996 510
52.34008 444
52.36019 486
52.3803 502
52.40042 514
52.42053 494
52.44064 445
52.46076 481
52.48087 511
52.50099 484
52.5211 513
52.54121 497
52.56133 515
52.58144 501
52.60155 480
52.62167 522
52.64178 509
52.6619 471
52.68201 485
52.70212 485
52.72224 513
52.74235 489
52.76246 533
52.78258 520
52.80269 511
52.8228 515
52.84292 575
52.86303 574
52.88315 538
52.90326 554
52.92337 539
52.94349 567
52.9636 609
52.98371 565
53.00383 565
53.02394 516
53.04406 571
53.06417 600
53.08428 560
53.1044 542
53.12451 499
53.14462 556
53.16474 592
53.18485 586
53.20497 580
53.22508 563
53.24519 583
53.26531 479
53.28542 582
53.30553 567
53.32565 555
53.34576 558
53.36587 523
53.38599 513
53.4061 564
53.42622 512
53.44633 554
53.46644 552
53.48656 511
53.50667 537
53.52678 556
53.5469 617
53.56701 569
53.58713 539
53.60724 531
53.62735 560
53.64747 566
53.66758 546
53.68769 615
53.70781 598
53.72792 548
53.74804 583
53.76815 627
53.78826 612
53.80838 589
53.82849 597
53.8486 584
53.86872 653
53.88883 625
53.90894 677
53.92906 627
53.94917 707
53.96929 677
53.9894 723
54.00951 702
54.02963 688
54.04974 733
54.06985 711
54.08997 696
54.11008 734
54.1302 758
54.15031 740
54.17042 735
54.19054 662
54.21065 653
54.23076 659
54.25088 708
54.27099 703
54.29111 696
54.31122 674
54.33133 679
54.35145 685
54.37156 669
54.39167 627
54.41179 616
54.4319 631
54.45201 631
54.47213 606
54.49224 650
54.51236 670
54.53247 625
54.55258 603
54.5727 603
54.59281 635
54.61292 629
54.63304 639
54.65315 682
54.67327 642
54.69338 723
54.71349 673
54.73361 719
54.75372 765
54.77383 798
54.79395 824
54.81406 733
54.83417 738
54.85429 757
54.8744 672
54.89452 716
54.91463 666
54.93474 713
54.95486 670
54.97497 705
54.99508 631
55.0152 623
55.03531 638
55.05543 623
55.07554 593
55.09565 576
55.11577 576
55.13588 576
55.15599 616
55.17611 626
55.19622 668
55.21634 663
55.23645 625
55.25656 647
55.27668 611
55.29679 635
55.3169 659
55.33702 653
55.35713 610
55.37724 589
55.39736 628
55.41747 577
55.43759 599
55.4577 552
55.47781 618
55.49793 535
55.51804 553
55.53815 521
55.55827 542
55.57838 569
55.5985 521
55.61861 532
55.63872 550
55.65884 558
55.67895 523
55.69906 520
55.71918 540
55.73929 500
55.75941 561
55.77952 520
55.79963 515
55.81975 514
55.83986 508
55.85997 524
55.88009 522
55.9002 521
55.92031 531
55.94043 521
55.96054 529
55.98066 503
56.00077 500
56.02088 506
56.041 523
56.06111 532
56.08122 544
56.10134 538
56.12145 516
56.14157 530
56.16168 566
56.18179 516
56.20191 522
56.22202 516
56.24213 521
56.26225 525
56.28236 490
56.30248 537
56.32259 487
56.3427 545
56.36282 526
56.38293 480
56.40304 486
56.42316 494
56.44327 518
56.46338 553
56.4835 497
56.50361 515
56.52373 557
56.54384 500
56.56395 517
56.58407 512
56.60418 484
56.62429 495
56.64441 540
56.66452 505
56.68464 494
56.70475 500
56.72486 470
56.74498 509
56.76509 478
56.7852 538
56.80532 463
56.82543 516
56.84554 511
56.86566 519
56.88577 519
56.90589 536
56.926 499
56.94611 538
56.96623 485
56.98634 500
57.00645 527
57.02657 517
57.04668 513
57.0668 469
57.08691 529
57.10702 544
57.12714 507
57.14725 531
57.16736 552
57.18748 517
57.20759 523
57.22771 514
57.24782 553
57.26793 508
57.28805 540
57.30816 501
57.32827 500
57.34839 536
57.3685 519
57.38861 493
57.40873 502
57.42884 576
57.44896 553
57.46907 501
57.48918 541
57.5093 568
57.52941 510
57.54952 483
57.56964 511
57.58975 542
57.60987 494
57.62998 514
57.65009 547
57.67021 539
57.69032 548
57.71043 508
57.73055 509
57.75066 543
57.77078 512
57.79089 511
57.811 520
57.83112 530
57.85123 548
57.87134 507
57.89146 496
57.91157 498
57.93168 554
57.9518 500
57.97191 481
57.99203 484
58.01214 494
58.03225 503
58.05237 479
58.07248 497
58.09259 461
58.11271 456
58.13282 453
58.15294 489
58.17305 515
58.19316 516
58.21328 471
58.23339 477
58.2535 470
58.27362 523
58.29373 518
58.31385 469
58.33396 496
58.35407 502
58.37419 439
58.3943 478
58.41441 515
58.43453 492
58.45464 493
58.47475 507
58.49487 455
58.51498 490
58.5351 510
58.55521 478
58.57532 488
58.59544 504
58.61555 504
58.63566 500
58.65578 465
58.67589 490
58.69601 468
58.71612 512
58.73623 460
58.75635 484
58.77646 538
58.79657 448
58.81669 479
58.8368 477
58.85691 492
58.87703 492
58.89714 502
58.91726 457
58.93737 471
58.95748 507
58.9776 488
58.99771 475
59.01782 499
59.03794 451
59.05805 482
59.07817 486
59.09828 478
59.11839 466
59.13851 454
59.15862 502
59.17873 454
59.19885 474
59.21896 471
59.23908 480
59.25919 486
59.2793 491
59.29942 512
59.31953 479
59.33964 491
59.35976 483
59.37987 488
59.39998 492
59.4201 495
59.44021 467
59.46033 525
59.48044 526
59.50055 506
59.52067 500
59.54078 511
59.56089 503
59.58101 541
59.60112 514
59.62124 530
59.64135 567
59.66146 573
59.68158 603
59.70169 635
59.7218 639
59.74192 702
59.76203 713
59.78215 776
59.80226 833
59.82237 840
59.84249 912
59.8626 988
59.88271 1009
59.90283 924
59.92294 911
59.94305 874
59.96317 801
59.98328 779
60.0034 764
60.02351 750
60.04362 741
60.06374 744
60.08385 672
60.10396 628
60.12408 616
60.14419 567
60.16431 498
60.18442 530
60.20453 479
60.22465 512
60.24476 512
60.26487 482
60.28499 492
60.3051 458
60.32522 497
60.34533 474
60.36544 472
60.38556 472
60.40567 499
60.42578 460
60.4459 477
60.46601 477
60.48612 482
60.50624 485
60.52635 470
60.54647 475
60.56658 455
60.58669 495
60.60681 438
60.62692 507
60.64703 476
60.66715 487
60.68726 454
60.70738 518
60.72749 487
60.7476 470
60.76772 485
60.78783 477
60.80794 499
60.82806 500
60.84817 511
60.86828 488
60.8884 493
60.90851 507
60.92863 490
60.94874 517
60.96885 474
60.98897 460
61.00908 468
61.02919 477
61.04931 485
61.06942 501
61.08954 518
61.10965 507
61.12976 475
61.14988 440
61.16999 487
61.1901 482
61.21022 504
61.23033 481
61.25045 500
61.27056 440
61.29067 493
61.31079 515
61.3309 522
61.35101 540
61.37113 523
61.39124 519
61.41135 489
61.43147 489
61.45158 494
61.4717 519
61.49181 530
61.51192 520
61.53204 554
61.55215 534
61.57226 545
61.59238 499
61.61249 533
61.63261 547
61.65272 527
61.67283 498
61.69295 520
61.71306 545
61.73317 539
61.75329 537
61.7734 529
61.79352 535
61.81363 534
61.83374 556
61.85386 519
61.87397 565
61.89408 513
61.9142 531
61.93431 565
61.95442 543
61.97454 582
61.99465 581
62.01477 584
62.03488 585
62.05499 609
62.07511 620
62.09522 647
62.11533 673
62.13545 649
62.15556 687
62.17568 634
62.19579 692
62.2159 649
62.23602 677
62.25613 669
62.27624 705
62.29636 728
62.31647 670
62.33659 660
62.3567 706
62.37681 724
62.39693 693
62.41704 707
62.43715 676
62.45727 677
62.47738 635
62.49749 689
62.51761 630
62.53772 580
62.55784 631
62.57795 611
62.59806 591
62.61818 586
62.63829 593
62.6584 605
62.67852 620
62.69863 623
62.71875 594
62.73886 568
62.75897 563
62.77909 588
62.7992 554
62.81931 587
62.83943 557
62.85954 575
62.87965 525
62.89977 574
62.91988 574
62.94 547
62.96011 555
62.98022 527
63.00034 554
63.02045 530
63.04056 556
63.06068 571
63.08079 563
63.10091 597
63.12102 580
63.14113 584
63.16125 562
63.18136 589
63.20147 569
63.22159 567
63.2417 593
63.26182 574
63.28193 591
63.30204 592
63.32216 597
63.34227 588
63.36238 532
63.3825 577
63.40261 563
63.42272 523
63.44284 571
63.46295 556
63.48307 526
63.50318 546
63.52329 531
63.54341 540
63.56352 529
63.58363 532
63.60375 536
63.62386 535
63.64398 523
63.66409 535
63.6842 506
63.70432 524
63.72443 557
63.74454 556
63.76466 570
63.78477 582
63.80489 585
63.825 636
63.84511 599
63.86523 616
63.88534 631
63.90545 693
63.92557 663
63.94568 693
63.96579 626
63.98591 685
64.00602 688
64.02614 639
64.04625 633
64.06636 677
64.08648 680
64.10659 685
64.1267 627
64.14682 634
64.16693 619
64.18705 590
64.20716 677
64.22727 617
64.24739 582
64.2675 568
64.28761 563
64.30773 572
64.32784 574
64.34796 561
64.36807 542
64.38818 538
64.4083 560
64.42841 497
64.44852 530
64.46864 518
64.48875 446
64.50886 497
64.52898 502
64.54909 554
64.56921 508
64.58932 479
64.60943 499
64.62955 495
64.64966 532
64.66977 499
64.68989 500
64.71 481
64.73012 479
64.75023 456
64.77034 517
64.79046 496
64.81057 473
64.83068 449
64.8508 468
64.87091 471
64.89102 474
64.91114 492
64.93125 482
64.95137 474
64.97148 466
64.99159 468
65.01171 479
65.03182 451
65.05193 437
65.07205 446
65.09216 527
65.11228 462
65.13239 462
65.1525 434
65.17262 465
65.19273 411
65.21284 500
65.23296 445
65.25307 453
65.27319 423
65.2933 459
65.31341 456
65.33353 466
65.35364 489
65.37375 457
65.39387 486
65.41398 432
65.43409 457
65.45421 451
65.47432 488
65.49444 454
65.51455 486
65.53466 464
65.55478 505
65.57489 499
65.595 498
65.61512 462
65.63523 483
65.65535 472
65.67546 490
65.69557 507
65.71569 514
65.7358 491
65.75591 441
65.77603 473
65.79614 470
65.81626 493
65.83637 455
65.85648 489
65.8766 456
65.89671 473
65.91682 463
65.93694 473
65.95705 462
65.97716 469
65.99728 456
66.01739 448
66.03751 476
66.05762 451
66.07773 434
66.09785 430
66.11796 475
66.13807 485
66.15819 457
66.1783 489
66.19842 452
66.21853 427
66.23864 447
66.25876 457
66.27887 432
66.29898 430
66.3191 433
66.33921 510
66.35933 488
66.37944 483
66.39955 453
66.41967 459
66.43978 457
66.45989 448
66.48001 426
66.50012 439
66.52023 439
66.54035 497
66.56046 450
66.58058 467
66.60069 479
66.6208 485
66.64092 473
66.66103 465
66.68114 462
66.70126 467
66.72137 465
66.74149 458
66.7616 466
66.78171 439
66.80183 467
66.82194 464
66.84205 454
66.86217 452
66.88228 446
66.90239 443
66.92251 464
66.94262 495
66.96274 464
66.98285 460
67.00296 465
67.02308 506
67.04319 477
67.0633 453
67.08342 470
67.10353 443
67.12365 494
67.14376 465
67.16387 480
67.18399 461
67.2041 469
67.22421 456
67.24433 492
67.26444 471
67.28456 486
67.30467 478
67.32478 483
67.3449 476
67.36501 496
67.38512 494
67.40524 489
67.42535 510
67.44546 506
67.46558 527
67.48569 500
67.50581 561
67.52592 619
67.54603 605
67.56615 639
67.58626 642
67.60637 693
67.62649 733
67.6466 761
67.66672 766
67.68683 736
67.70694 742
67.72706 773
67.74717 701
67.76728 686
67.7874 669
67.80751 647
67.82763 667
67.84774 684
67.86785 680
67.88797 710
67.90808 765
67.92819 644
67.94831 717
67.96842 702
67.98853 764
68.00865 784
68.02876 819
68.04888 844
68.06899 870
68.0891 886
68.10922 856
68.12933 816
68.14944 785
68.16956 848
68.18967 781
68.20979 857
68.2299 841
68.25001 792
68.27013 834
68.29024 782
68.31035 715
68.33047 649
68.35058 654
68.3707 603
68.39081 581
68.41092 640
68.43104 584
68.45115 585
68.47126 554
68.49138 533
68.51149 522
68.5316 526
68.55172 508
68.57183 460
68.59195 475
68.61206 476
68.63217 484
68.65229 494
68.6724 434
68.69251 436
68.71263 466
68.73274 460
68.75286 447
68.77297 447
68.79308 485
68.8132 442
68.83331 453
68.85342 476
68.87354 455
68.89365 459
68.91376 476
68.93388 441
68.95399 471
68.97411 440
68.99422 475
69.01433 457
69.03445 462
69.05456 439
69.07467 451
69.09479 462
69.1149 443
69.13502 475
69.15513 457
69.17524 447
69.19536 432
69.21547 450
69.23558 485
69.2557 460
69.27581 452
69.29593 442
69.31604 451
69.33615 484
69.35627 457
69.37638 459
69.39649 469
69.41661 436
69.43672 425
69.45683 432
69.47695 464
69.49706 454
69.51718 472
69.53729 456
69.5574 470
69.57752 429
69.59763 395
69.61774 469
69.63786 451
69.65797 452
69.67809 430
69.6982 456
69.71831 433
69.73843 418
69.75854 453
69.77865 459
69.79877 464
69.81888 473
69.839 459
69.85911 449
69.87922 470
69.89934 471
69.91945 429
69.93956 498
69.95968 434
69.97979 402
69.9999 466
70.02002 498
70.04013 460
70.06025 451
70.08036 431
70.10047 452
70.12059 464
70.1407 443
70.16081 446
70.18093 480
70.20104 432
70.22116 474
70.24127 468
70.26138 432
70.2815 488
70.30161 449
70.32172 463
70.34184 432
70.36195 445
70.38207 448
70.40218 479
70.42229 443
70.44241 467
70.46252 403
70.48263 444
70.50275 456
70.52286 410
70.54297 450
70.56309 438
70.5832 442
70.60332 437
70.62343 445
70.64354 458
70.66366 446
70.68377 470
70.70388 449
70.724 458
70.74411 474
70.76423 438
70.78434 476
70.80445 428
70.82457 462
70.84468 450
70.86479 432
70.88491 439
70.90502 450
70.92513 465
70.94525 457
70.96536 424
70.98548 467
71.00559 456
71.0257 475
71.04582 473
71.06593 468
71.08604 467
71.10616 417
71.12627 427
71.14639 418
71.1665 465
71.18661 479
71.20673 496
71.22684 452
71.24695 485
71.26707 450
71.28718 461
71.3073 450
71.32741 457
71.34752 457
71.36764 437
71.38775 460
71.40786 426
71.42798 447
71.44809 444
71.4682 438
71.48832 451
71.50843 443
71.52855 488
71.54866 471
71.56877 434
71.58889 429
71.609 435
71.62911 416
71.64923 401
71.66934 442
71.68946 476
71.70957 455
71.72968 479
71.7498 464
71.76991 467
71.79002 483
71.81014 475
71.83025 449
71.85037 465
71.87048 497
71.89059 501
71.91071 450
71.93082 489
71.95093 472
71.97105 482
71.99116 431
72.01127 485
72.03139 483
72.0515 476
72.07162 459
72.09173 460
72.11184 476
72.13196 436
72.15207 444
72.17218 460
72.1923 429
72.21241 475
72.23253 474
72.25264 440
72.27275 494
72.29287 456
72.31298 482
72.33309 507
72.35321 466
72.37332 475
72.39344 486
72.41355 481
72.43366 441
72.45378 462
72.47389 453
72.494 431
72.51412 424
72.53423 453
72.55434 424
72.57446 456
72.59457 405
72.61469 424
72.6348 419
72.65491 408
72.67503 447
72.69514 445
72.71525 409
72.73537 411
72.75548 427
72.7756 466
72.79571 494
72.81582 458
72.83594 464
72.85605 465
72.87616 429
72.89628 412
72.91639 445
72.9365 456
72.95662 457
72.97673 439
72.99685 448
73.01696 448
73.03707 462
73.05719 470
73.0773 449
73.09741 467
73.11753 451
73.13764 404
73.15776 431
73.17787 482
73.19798 472
73.2181 463
73.23821 501
73.25832 481
73.27844 512
73.29855 503
73.31867 484
73.33878 530
73.35889 546
73.37901 535
73.39912 547
73.41923 522
73.43935 564
73.45946 504
73.47957 565
73.49969 461
73.5198 522
73.53992 483
73.56003 537
73.58014 511
73.60026 523
73.62037 485
73.64048 506
73.6606 480
73.68071 475
73.70083 475
73.72094 438
73.74105 487
73.76117 446
73.78128 457
73.80139 487
73.82151 441
73.84162 474
73.86174 469
73.88185 473
73.90196 414
73.92208 499
73.94219 458
73.9623 436
73.98242 446
74.00253 464
74.02264 435
74.04276 421
74.06287 486
74.08299 467
74.1031 451
74.12321 448
74.14333 437
74.16344 433
74.18355 417
74.20367 439
74.22378 422
74.2439 446
74.26401 454
74.28412 450
74.30424 427
74.32435 439
74.34446 452
74.36458 406
74.38469 441
74.40481 440
74.42492 459
74.44503 437
74.46515 400
74.48526 477
74.50537 438
74.52549 416
74.5456 451
74.56571 455
74.58583 442
74.60594 416
74.62606 436
74.64617 469
74.66628 478
74.6864 448
74.70651 456
74.72662 436
74.74674 462
74.76685 414
74.78697 452
74.80708 445
74.82719 433
74.84731 445
74.86742 439
74.88753 431
74.90765 438
74.92776 443
74.94787 462
74.96799 453
74.9881 414
75.00822 407
