3.00117 21667
3.02128 21070
3.0414 20424
3.06151 20060
3.08162 19434
3.10174 18966
3.12185 18344
3.14197 17872
3.16208 17504
3.18219 16660
3.20231 16546
3.22242 16012
3.24253 15476
3.26265 15056
3.28276 14665
3.30288 14268
3.32299 13809
3.3431 13419
3.36322 13036
3.38333 12220
3.40344 12287
3.42356 11820
3.44367 11224
3.46379 11186
3.4839 10601
3.50401 10407
3.52413 10184
3.54424 9545
3.56435 9252
3.58447 8952
3.60458 8995
3.62469 8533
3.64481 7974
3.66492 7803
3.68504 7567
3.70515 7575
3.72526 7296
3.74538 6759
3.76549 6554
3.7856 6295
3.80572 6291
3.82583 6043
3.84595 5566
3.86606 5494
3.88617 5088
3.90629 5100
3.9264 4918
3.94651 4624
3.96663 4603
3.98674 4096
4.00686 4243
4.02697 4014
4.04708 3714
4.0672 3662
4.08731 3588
4.10742 3479
4.12754 3547
4.14765 3125
4.16776 3107
4.18788 3031
4.20799 2938
4.22811 2815
4.24822 2661
4.26833 2739
4.28845 2510
4.30856 2486
4.32867 2548
4.34879 2334
4.3689 2215
4.38902 2189
4.40913 2298
4.42924 2253
4.44936 2028
4.46947 2120
4.48958 2065
4.5097 1990
4.52981 2007
4.54992 1928
4.57004 1845
4.59015 1775
4.61027 1880
4.63038 1852
4.65049 1678
4.67061 1703
4.69072 1744
4.71083 1684
4.73095 1737
4.75106 1704
4.77118 1625
4.79129 1531
4.8114 1566
4.83152 1562
4.85163 1432
4.87174 1423
4.89186 1472
4.91197 1418
4.93209 1492
4.9522 1415
4.97231 1375
4.99243 1417
5.01254 1367
5.03265 1297
5.05277 1262
5.07288 1227
5.09299 1322
5.11311 1248
5.13322 1293
5.15334 1252
5.17345 1175
5.19356 1250
5.21368 1264
5.23379 1213
5.2539 1181
5.27402 1123
5.29413 1155
5.31425 1199
5.33436 1213
5.35447 1091
5.37459 1091
5.3947 1110
5.41481 1114
5.43493 1103
5.45504 1102
5.47516 1020
5.49527 1110
5.51538 1042
5.5355 1118
5.55561 1013
5.57572 1007
5.59584 1084
5.61595 950
5.63606 981
5.65618 984
5.67629 1006
5.69641 1011
5.71652 962
5.73663 998
5.75675 931
5.77686 938
5.79697 892
5.81709 962
5.8372 914
5.85732 855
5.87743 940
5.89754 926
5.91766 842
5.93777 925
5.95788 965
5.978 903
5.99811 890
6.01823 860
6.03834 904
6.05845 895
6.07857 875
6.09868 873
6.11879 893
6.13891 890
6.15902 832
6.17913 902
6.19925 885
6.21936 967
6.23948 870
6.25959 843
6.2797 893
6.29982 843
6.31993 868
6.34004 898
6.36016 838
6.38027 861
6.40039 829
6.4205 866
6.44061 827
6.46073 834
6.48084 775
6.50095 860
6.52107 830
6.54118 807
6.56129 831
6.58141 854
6.60152 794
6.62164 777
6.64175 816
6.66186 814
6.68198 809
6.70209 856
6.7222 777
6.74232 819
6.76243 823
6.78255 775
6.80266 823
6.82277 795
6.84289 771
6.863 775
6.88311 785
6.90323 777
6.92334 798
6.94346 743
6.96357 736
6.98368 727
7.0038 787
7.02391 779
7.04402 773
7.06414 710
7.08425 764
7.10436 771
7.12448 774
7.14459 772
7.16471 783
7.18482 728
7.20493 726
7.22505 737
7.24516 720
7.26527 772
7.28539 704
7.3055 786
7.32562 787
7.34573 744
7.36584 699
7.38596 705
7.40607 750
7.42618 736
7.4463 741
7.46641 734
7.48653 776
7.50664 772
7.52675 741
7.54687 719
7.56698 707
7.58709 733
7.60721 699
7.62732 719
7.64743 778
7.66755 747
7.68766 751
7.70778 668
7.72789 753
7.748 656
7.76812 755
7.78823 696
7.80834 712
7.82846 664
7.84857 701
7.86869 676
7.8888 712
7.90891 732
7.92903 704
7.94914 723
7.96925 632
7.98937 657
8.00948 668
8.0296 715
8.04971 663
8.06982 666
8.08994 664
8.11005 680
8.13016 639
8.15028 733
8.17039 643
8.1905 642
8.21062 689
8.23073 666
8.25085 705
8.27096 741
8.29107 647
8.31119 629
8.3313 660
8.35141 642
8.37153 711
8.39164 641
8.41176 672
8.43187 750
8.45198 686
8.4721 713
8.49221 666
8.51232 719
8.53244 692
8.55255 772
8.57266 748
8.59278 664
8.61289 728
8.63301 743
8.65312 720
8.67323 715
8.69335 766
8.71346 780
8.73357 782
8.75369 765
8.7738 766
8.79392 841
8.81403 793
8.83414 804
8.85426 792
8.87437 841
8.89448 753
8.9146 680
8.93471 703
8.95483 599
8.97494 676
8.99505 665
9.01517 674
9.03528 646
9.05539 627
9.07551 614
9.09562 590
9.11573 633
9.13585 611
9.15596 548
9.17608 585
9.19619 576
9.2163 564
9.23642 592
9.25653 531
9.27664 531
9.29676 533
9.31687 568
9.33699 552
9.3571 543
9.37721 499
9.39733 535
9.41744 541
9.43755 538
9.45767 551
9.47778 534
9.4979 535
9.51801 559
9.53812 513
9.55824 537
9.57835 548
9.59846 478
9.61858 463
9.63869 511
9.6588 524
9.67892 499
9.69903 470
9.71915 480
9.73926 500
9.75937 532
9.77949 474
9.7996 504
9.81971 484
9.83983 482
9.85994 453
9.88006 500
9.90017 511
9.92028 489
9.9404 471
9.96051 447
9.98062 470
10.00074 484
10.02085 486
10.04097 469
10.06108 527
10.08119 497
10.10131 508
10.12142 442
10.14153 492
10.16165 460
10.18176 493
10.20187 470
10.22199 442
10.2421 519
10.26222 485
10.28233 470
10.30244 447
10.32256 445
10.34267 475
10.36278 465
10.3829 510
10.40301 504
10.42313 458
10.44324 508
10.46335 494
10.48347 505
10.50358 497
10.52369 445
10.54381 488
10.56392 476
10.58403 483
10.60415 445
10.62426 482
10.64438 492
10.66449 427
10.6846 450
10.70472 472
10.72483 448
10.74494 451
10.76506 519
10.78517 460
10.80529 469
10.8254 465
10.84551 467
10.86563 492
10.88574 468
10.90585 478
10.92597 478
10.94608 449
10.9662 439
10.98631 483
11.00642 508
11.02654 444
11.04665 426
11.06676 441
11.08688 402
11.10699 445
11.1271 484
11.14722 438
11.16733 466
11.18745 495
11.20756 461
11.22767 443
11.24779 455
11.2679 465
11.28801 458
11.30813 439
11.32824 497
11.34836 427
11.36847 461
11.38858 463
11.4087 441
11.42881 444
11.44892 469
11.46904 469
11.48915 452
11.50927 471
11.52938 478
11.54949 430
11.56961 491
11.58972 511
11.60983 459
11.62995 490
11.65006 450
11.67017 501
11.69029 514
11.7104 517
11.73052 430
11.75063 512
11.77074 455
11.79086 493
11.81097 475
11.83108 458
11.8512 540
11.87131 460
11.89143 518
11.91154 459
11.93165 480
11.95177 525
11.97188 541
11.99199 493
12.01211 512
12.03222 491
12.05234 535
12.07245 511
12.09256 525
12.11268 565
12.13279 537
12.1529 518
12.17302 523
12.19313 525
12.21324 529
12.23336 560
12.25347 539
12.27359 599
12.2937 530
12.31381 590
12.33393 519
12.35404 561
12.37415 536
12.39427 597
12.41438 535
12.4345 493
12.45461 528
12.47472 518
12.49484 518
12.51495 489
12.53506 494
12.55518 479
12.57529 485
12.5954 494
12.61552 458
12.63563 424
12.65575 452
12.67586 454
12.69597 449
12.71609 438
12.7362 437
12.75631 450
12.77643 416
12.79654 434
12.81666 423
12.83677 454
12.85688 425
12.877 432
12.89711 470
12.91722 441
12.93734 441
12.95745 412
12.97757 409
12.99768 445
13.01779 432
13.03791 395
13.05802 419
13.07813 448
13.09825 441
13.11836 430
13.13847 421
13.15859 439
13.1787 468
13.19882 425
13.21893 366
13.23904 434
13.25916 463
13.27927 434
13.29938 435
13.3195 427
13.33961 439
13.35973 406
13.37984 458
13.39995 411
13.42007 416
13.44018 422
13.46029 447
13.48041 417
13.50052 417
13.52064 411
13.54075 428
13.56086 420
13.58098 427
13.60109 471
13.6212 424
13.64132 464
13.66143 450
13.68154 393
13.70166 420
13.72177 417
13.74189 414
13.762 453
13.78211 463
13.80223 434
13.82234 489
13.84245 450
13.86257 439
13.88268 430
13.9028 388
13.92291 455
13.94302 404
13.96314 405
13.98325 376
14.00336 430
14.02348 408
14.04359 410
14.06371 431
14.08382 437
14.10393 388
14.12405 400
14.14416 415
14.16427 400
14.18439 442
14.2045 411
14.22461 415
14.24473 429
14.26484 383
14.28496 387
14.30507 399
14.32518 457
14.3453 402
14.36541 406
14.38552 410
14.40564 436
14.42575 408
14.44587 437
14.46598 433
14.48609 424
14.50621 435
14.52632 425
14.54643 406
14.56655 388
14.58666 400
14.60677 419
14.62689 414
14.647 389
14.66712 397
14.68723 384
14.70734 387
14.72746 392
14.74757 433
14.76768 401
14.7878 390
14.80791 385
14.82803 408
14.84814 381
14.86825 427
14.88837 434
14.90848 393
14.92859 433
14.94871 437
14.96882 415
14.98894 463
15.00905 472
15.02916 433
15.04928 400
15.06939 455
15.0895 362
15.10962 392
15.12973 391
15.14984 435
15.16996 393
15.19007 401
15.21019 418
15.2303 427
15.25041 415
15.27053 374
15.29064 417
15.31075 407
15.33087 370
15.35098 420
15.3711 419
15.39121 396
15.41132 400
15.43144 407
15.45155 412
15.47166 389
15.49178 420
15.51189 453
15.53201 388
15.55212 396
15.57223 410
15.59235 447
15.61246 401
15.63257 385
15.65269 424
15.6728 392
15.69291 423
15.71303 376
15.73314 416
15.75326 465
15.77337 427
15.79348 391
15.8136 432
15.83371 416
15.85382 379
15.87394 416
15.89405 381
15.91417 421
15.93428 403
15.95439 382
15.97451 371
15.99462 419
16.01473 416
16.03485 365
16.05496 445
16.07508 442
16.09519 436
16.1153 377
16.13542 409
16.15553 382
16.17564 387
16.19576 387
16.21587 405
16.23598 379
16.2561 417
16.27621 465
16.29633 434
16.31644 392
16.33655 395
16.35667 437
16.37678 403
16.39689 414
16.41701 389
16.43712 411
16.45724 434
16.47735 405
16.49746 401
16.51758 383
16.53769 378
16.5578 434
16.57792 412
16.59803 401
16.61814 417
16.63826 431
16.65837 414
16.67849 430
16.6986 388
16.71871 425
16.73883 448
16.75894 398
16.77905 418
16.79917 446
16.81928 418
16.8394 422
16.85951 377
16.87962 452
16.89974 431
16.91985 430
16.93996 416
16.96008 414
16.98019 445
17.00031 425
17.02042 412
17.04053 409
17.06065 424
17.08076 426
17.10087 416
17.12099 457
17.1411 432
17.16121 411
17.18133 434
17.20144 413
17.22156 423
17.24167 442
17.26178 395
17.2819 442
17.30201 428
17.32212 444
17.34224 423
17.36235 442
17.38247 419
17.40258 438
17.42269 426
17.44281 410
17.46292 453
17.48303 440
17.50315 457
17.52326 430
17.54338 453
17.56349 487
17.5836 453
17.60372 416
17.62383 494
17.64394 440
17.66406 509
17.68417 440
17.70428 417
17.7244 484
17.74451 502
17.76463 492
17.78474 447
17.80485 436
17.82497 453
17.84508 470
17.86519 479
17.88531 461
17.90542 427
17.92554 486
17.94565 478
17.96576 421
17.98588 446
18.00599 469
18.0261 457
18.04622 450
18.06633 444
18.08645 482
18.10656 434
18.12667 457
18.14679 460
18.1669 470
18.18701 418
18.20713 441
18.22724 497
18.24735 458
18.26747 411
18.28758 443
18.3077 464
18.32781 472
18.34792 366
18.36804 417
18.38815 481
18.40826 467
18.42838 439
18.44849 452
18.46861 466
18.48872 440
18.50883 474
18.52895 437
18.54906 435
18.56917 412
18.58929 432
18.6094 470
18.62951 495
18.64963 463
18.66974 416
18.68986 436
18.70997 470
18.73008 457
18.7502 458
18.77031 437
18.79042 438
18.81054 412
18.83065 472
18.85077 493
18.87088 443
18.89099 486
18.91111 465
18.93122 459
18.95133 513
18.97145 511
18.99156 484
19.01168 469
19.03179 494
19.0519 456
19.07202 532
19.09213 512
19.11224 497
19.13236 504
19.15247 523
19.17258 492
19.1927 547
19.21281 578
19.23293 538
19.25304 537
19.27315 593
19.29327 570
19.31338 584
19.33349 613
19.35361 665
19.37372 598
19.39384 646
19.41395 678
19.43406 735
19.45418 713
19.47429 704
19.4944 786
19.51452 808
19.53463 828
19.55475 849
19.57486 943
19.59497 920
19.61509 965
19.6352 1062
19.65531 1033
19.67543 1048
19.69554 1119
19.71565 1084
19.73577 1146
19.75588 1202
19.776 1190
19.79611 1191
19.81622 1137
19.83634 1180
19.85645 1193
19.87656 1105
19.89668 1162
19.91679 1028
19.93691 1062
19.95702 980
19.97713 1064
19.99725 924
20.01736 952
20.03747 924
20.05759 960
20.0777 921
20.09782 895
20.11793 934
20.13804 930
20.15816 908
20.17827 910
20.19838 872
20.2185 914
20.23861 904
20.25872 888
20.27884 839
20.29895 834
20.31907 836
20.33918 842
20.35929 824
20.37941 859
20.39952 835
20.41963 834
20.43975 840
20.45986 838
20.47998 831
20.50009 827
20.5202 812
20.54032 845
20.56043 860
20.58054 824
20.60066 824
20.62077 888
20.64088 825
20.661 941
20.68111 965
20.70123 1021
20.72134 1132
20.74145 1290
20.76157 1317
20.78168 1529
20.80179 1537
20.82191 1497
20.84202 1402
20.86214 1328
20.88225 1217
20.90236 1125
20.92248 1109
20.94259 990
20.9627 931
20.98282 853
21.00293 902
21.02305 871
21.04316 894
21.06327 862
21.08339 864
21.1035 829
21.12361 859
21.14373 834
21.16384 826
21.18395 857
21.20407 852
21.22418 840
21.2443 828
21.26441 833
21.28452 817
21.30464 804
21.32475 758
21.34486 755
21.36498 729
21.38509 771
21.40521 768
21.42532 757
21.44543 766
21.46555 716
21.48566 742
21.50577 679
21.52589 723
21.546 708
21.56612 673
21.58623 702
21.60634 703
21.62646 667
21.64657 681
21.66668 646
21.6868 659
21.70691 720
21.72702 655
21.74714 651
21.76725 695
21.78737 679
21.80748 689
21.82759 719
21.84771 719
21.86782 705
21.88793 716
21.90805 741
21.92816 838
21.94828 802
21.96839 832
21.9885 841
22.00862 822
22.02873 776
22.04884 782
22.06896 722
22.08907 711
22.10919 687
22.1293 658
22.14941 693
22.16953 666
22.18964 657
22.20975 672
22.22987 642
22.24998 690
22.27009 650
22.29021 677
22.31032 660
22.33044 639
22.35055 668
22.37066 676
22.39078 626
22.41089 652
22.431 646
22.45112 632
22.47123 677
22.49135 598
22.51146 680
22.53157 621
22.55169 622
22.5718 682
22.59191 654
22.61203 671
22.63214 715
22.65225 666
22.67237 691
22.69248 626
22.7126 679
22.73271 723
22.75282 661
22.77294 617
22.79305 673
22.81316 648
22.83328 697
22.85339 629
22.87351 627
22.89362 674
22.91373 646
22.93385 682
22.95396 671
22.97407 710
22.99419 667
23.0143 669
23.03442 673
23.05453 686
23.07464 725
23.09476 610
23.11487 658
23.13498 658
23.1551 673
23.17521 672
23.19532 645
23.21544 644
23.23555 639
23.25567 605
23.27578 633
23.29589 595
23.31601 640
23.33612 682
23.35623 677
23.37635 669
23.39646 732
23.41658 652
23.43669 625
23.4568 717
23.47692 700
23.49703 743
23.51714 749
23.53726 701
23.55737 784
23.57749 730
23.5976 739
23.61771 696
23.63783 710
23.65794 689
23.67805 691
23.69817 623
23.71828 709
23.73839 656
23.75851 669
23.77862 614
23.79874 689
23.81885 697
23.83896 659
23.85908 661
23.87919 644
23.8993 658
23.91942 658
23.93953 685
23.95965 697
23.97976 679
23.99987 701
24.01999 687
24.0401 670
24.06021 635
24.08033 665
24.10044 675
24.12056 692
24.14067 727
24.16078 766
24.1809 686
24.20101 697
24.22112 718
24.24124 746
24.26135 716
24.28146 748
24.30158 705
24.32169 696
24.34181 674
24.36192 691
24.38203 700
24.40215 704
24.42226 645
24.44237 715
24.46249 680
24.4826 699
24.50272 623
24.52283 601
24.54294 675
24.56306 663
24.58317 636
24.60328 672
24.6234 687
24.64351 710
24.66362 635
24.68374 701
24.70385 672
24.72397 681
24.74408 704
24.76419 634
24.78431 756
24.80442 691
24.82453 739
24.84465 680
24.86476 703
24.88488 726
24.90499 682
24.9251 701
24.94522 731
24.96533 704
24.98544 689
25.00556 728
25.02567 781
25.04579 719
25.0659 696
25.08601 689
25.10613 750
25.12624 749
25.14635 721
25.16647 703
25.18658 717
25.20669 744
25.22681 717
25.24692 841
25.26704 789
25.28715 810
25.30726 762
25.32738 789
25.34749 707
25.3676 799
25.38772 766
25.40783 797
25.42795 757
25.44806 730
25.46817 772
25.48829 783
25.5084 771
25.52851 732
25.54863 716
25.56874 719
25.58886 745
25.60897 741
25.62908 739
25.6492 688
25.66931 682
25.68942 715
25.70954 694
25.72965 658
25.74976 686
25.76988 653
25.78999 687
25.81011 655
25.83022 690
25.85033 669
25.87045 699
25.89056 650
25.91067 630
25.93079 743
25.9509 728
25.97102 700
25.99113 728
26.01124 684
26.03136 728
26.05147 725
26.07158 700
26.0917 739
26.11181 725
26.13193 725
26.15204 782
26.17215 748
26.19227 775
26.21238 770
26.23249 821
26.25261 856
26.27272 922
26.29283 957
26.31295 931
26.33306 1108
26.35318 1128
26.37329 1210
26.3934 1335
26.41352 1451
26.43363 1617
26.45374 1893
26.47386 2190
26.49397 2581
26.51409 3153
26.5342 3569
26.55431 4016
26.57443 4232
26.59454 4223
26.61465 4006
26.63477 3432
26.65488 2941
26.67499 2396
26.69511 2058
26.71522 1589
26.73534 1317
26.75545 1161
26.77556 1056
26.79568 949
26.81579 966
26.8359 958
26.85602 829
26.87613 860
26.89625 842
26.91636 889
26.93647 850
26.95659 831
26.9767 825
26.99681 844
27.01693 841
27.03704 820
27.05716 835
27.07727 872
27.09738 753
27.1175 737
27.13761 770
27.15772 692
27.17784 714
27.19795 742
27.21806 728
27.23818 708
27.25829 757
27.27841 759
27.29852 778
27.31863 750
27.33875 766
27.35886 819
27.37897 807
27.39909 878
27.4192 878
27.43932 877
27.45943 817
27.47954 793
27.49966 824
27.51977 813
27.53988 804
27.56 845
27.58011 806
27.60023 751
27.62034 809
27.64045 808
27.66057 876
27.68068 900
27.70079 885
27.72091 940
27.74102 924
27.76113 932
27.78125 912
27.80136 941
27.82148 930
27.84159 905
27.8617 1007
27.88182 923
27.90193 929
27.92204 854
27.94216 919
27.96227 829
27.98239 818
28.0025 776
28.02261 762
28.04273 673
28.06284 686
28.08295 641
28.10307 670
28.12318 722
28.1433 678
28.16341 651
28.18352 665
28.20364 682
28.22375 642
28.24386 643
28.26398 680
28.28409 650
28.3042 609
28.32432 656
28.34443 639
28.36455 587
28.38466 586
28.40477 532
28.42489 584
28.445 622
28.46511 584
28.48523 573
28.50534 603
28.52546 554
28.54557 568
28.56568 584
28.5858 600
28.60591 527
28.62602 513
28.64614 564
28.66625 529
28.68636 586
28.70648 551
28.72659 506
28.74671 557
28.76682 541
28.78693 579
28.80705 539
28.82716 564
28.84727 483
28.86739 522
28.8875 492
28.90762 516
28.92773 536
28.94784 583
28.96796 517
28.98807 521
29.00818 549
29.0283 544
29.04841 528
29.06853 589
29.08864 497
29.10875 533
29.12887 546
29.14898 542
29.16909 582
29.18921 502
29.20932 528
29.22943 543
29.24955 541
29.26966 546
29.28978 536
29.30989 541
29.33 506
29.35012 555
29.37023 535
29.39034 510
29.41046 566
29.43057 546
29.45069 578
29.4708 566
29.49091 537
29.51103 538
29.53114 555
29.55125 539
29.57137 552
29.59148 557
29.6116 535
29.63171 557
29.65182 564
29.67194 520
29.69205 587
29.71216 567
29.73228 581
29.75239 594
29.7725 538
29.79262 550
29.81273 574
29.83285 578
29.85296 586
29.87307 601
29.89319 539
29.9133 557
29.93341 572
29.95353 548
29.97364 565
29.99376 596
30.01387 603
30.03398 578
30.0541 577
30.07421 563
30.09432 559
30.11444 593
30.13455 564
30.15467 567
30.17478 536
30.19489 528
30.21501 565
30.23512 575
30.25523 563
30.27535 567
30.29546 538
30.31557 613
30.33569 596
30.3558 544
30.37592 562
30.39603 601
30.41614 604
30.43626 564
30.45637 633
30.47648 558
30.4966 605
30.51671 517
30.53683 509
30.55694 548
30.57705 560
30.59717 534
30.61728 568
30.63739 557
30.65751 506
30.67762 576
30.69773 535
30.71785 557
30.73796 574
30.75808 571
30.77819 557
30.7983 551
30.81842 572
30.83853 534
30.85864 556
30.87876 481
30.89887 514
30.91899 465
30.9391 489
30.95921 497
30.97933 528
30.99944 518
31.01955 482
31.03967 534
31.05978 477
31.0799 493
31.10001 527
31.12012 507
31.14024 496
31.16035 521
31.18046 528
31.20058 487
31.22069 516
31.2408 489
31.26092 492
31.28103 501
31.30115 503
31.32126 519
31.34137 478
31.36149 505
31.3816 525
31.40171 489
31.42183 483
31.44194 471
31.46206 472
31.48217 511
31.50228 505
31.5224 469
31.54251 439
31.56262 539
31.58274 504
31.60285 476
31.62297 495
31.64308 455
31.66319 499
31.68331 467
31.70342 449
31.72353 465
31.74365 494
31.76376 482
31.78387 484
31.80399 418
31.8241 493
31.84422 475
31.86433 439
31.88444 468
31.90456 438
31.92467 484
31.94478 490
31.9649 493
31.98501 480
32.00513 512
32.02524 461
32.04535 487
32.06547 458
32.08558 443
32.10569 462
32.12581 478
32.14592 506
32.16604 471
32.18615 485
32.20626 444
32.22638 494
32.24649 485
32.2666 428
32.28672 477
32.30683 475
32.32694 481
32.34706 460
32.36717 412
32.38729 457
32.4074 493
32.42751 433
32.44763 488
32.46774 458
32.48785 456
32.50797 449
32.52808 438
32.5482 474
32.56831 472
32.58842 460
32.60854 470
32.62865 473
32.64876 438
32.66888 483
32.68899 430
32.7091 456
32.72922 480
32.74933 482
32.76945 487
32.78956 445
32.80967 462
32.82979 438
32.8499 488
32.87001 486
32.89013 483
32.91024 467
32.93036 453
32.95047 477
32.97058 469
32.9907 457
33.01081 466
33.03092 482
33.05104 447
33.07115 450
33.09127 485
33.11138 444
33.13149 468
33.15161 484
33.17172 521
33.19183 481
33.21195 452
33.23206 442
33.25217 487
33.27229 475
33.2924 457
33.31252 458
33.33263 492
33.35274 468
33.37286 492
33.39297 458
33.41308 489
33.4332 436
33.45331 447
33.47343 442
33.49354 455
33.51365 471
33.53377 420
33.55388 446
33.57399 450
33.59411 452
33.61422 494
33.63434 441
33.65445 461
33.67456 475
33.69468 468
33.71479 485
33.7349 456
33.75502 513
33.77513 534
33.79524 485
33.81536 473
33.83547 477
33.85559 504
33.8757 467
33.89581 488
33.91593 515
33.93604 484
33.95615 547
33.97627 523
33.99638 490
34.0165 517
34.03661 537
34.05672 523
34.07684 580
34.09695 588
34.11706 632
34.13718 634
34.15729 609
34.17741 649
34.19752 672
34.21763 671
34.23775 684
34.25786 732
34.27797 693
34.29809 722
34.3182 706
34.33831 711
34.35843 720
34.37854 667
34.39866 703
34.41877 720
34.43888 756
34.459 685
34.47911 726
34.49922 694
34.51934 718
34.53945 747
34.55957 769
34.57968 738
34.59979 720
34.61991 726
34.64002 759
34.66013 797
34.68025 834
34.70036 794
34.72047 793
34.74059 813
34.7607 800
34.78082 849
34.80093 796
34.82104 805
34.84116 859
34.86127 793
34.88138 798
34.9015 850
34.92161 827
34.94173 812
34.96184 784
34.98195 803
35.00207 800
35.02218 778
35.04229 796
35.06241 740
35.08252 686
35.10264 696
35.12275 680
35.14286 703
35.16298 702
35.18309 743
35.2032 686
35.22332 712
35.24343 617
35.26354 634
35.28366 681
35.30377 685
35.32389 699
35.344 693
35.36411 650
35.38423 702
35.40434 641
35.42445 631
35.44457 658
35.46468 681
35.4848 641
35.50491 662
35.52502 619
35.54514 632
35.56525 607
35.58536 650
35.60548 679
35.62559 650
35.64571 677
35.66582 626
35.68593 668
35.70605 649
35.72616 688
35.74627 639
35.76639 600
35.7865 607
35.80661 588
35.82673 636
35.84684 676
35.86696 657
35.88707 657
35.90718 594
35.9273 606
35.94741 626
35.96752 630
35.98764 623
36.00775 599
36.02787 591
36.04798 613
36.06809 579
36.08821 609
36.10832 651
36.12843 613
36.14855 585
36.16866 612
36.18878 620
36.20889 637
36.229 636
36.24912 583
36.26923 679
36.28934 691
36.30946 676
36.32957 659
36.34968 700
36.3698 642
36.38991 760
36.41003 757
36.43014 800
36.45025 822
36.47037 865
36.49048 779
36.51059 789
36.53071 778
36.55082 795
36.57094 807
36.59105 698
36.61116 713
36.63128 709
36.65139 656
36.6715 663
36.69162 645
36.71173 670
36.73184 660
36.75196 691
36.77207 683
36.79219 685
36.8123 705
36.83241 699
36.85253 648
36.87264 689
36.89275 696
36.91287 693
36.93298 707
36.9531 706
36.97321 665
36.99332 664
37.01344 678
37.03355 633
37.05366 651
37.07378 594
37.09389 628
37.11401 556
37.13412 631
37.15423 622
37.17435 611
37.19446 615
37.21457 631
37.23469 631
37.2548 574
37.27491 607
37.29503 586
37.31514 608
37.33526 554
37.35537 596
37.37548 608
37.3956 576
37.41571 605
37.43582 603
37.45594 570
37.47605 549
37.49617 582
37.51628 605
37.53639 595
37.55651 588
37.57662 611
37.59673 645
37.61685 569
37.63696 603
37.65708 585
37.67719 573
37.6973 586
37.71742 586
37.73753 543
37.75764 595
37.77776 547
37.79787 558
37.81798 510
37.8381 571
37.85821 511
37.87833 555
37.89844 563
37.91855 513
37.93867 524
37.95878 536
37.97889 537
37.99901 516
38.01912 584
38.03924 536
38.05935 566
38.07946 574
38.09958 559
38.11969 485
38.1398 584
38.15992 567
38.18003 559
38.20015 566
38.22026 571
38.24037 544
38.26049 554
38.2806 565
38.30071 521
38.32083 556
38.34094 543
38.36105 542
38.38117 573
38.40128 548
38.4214 544
38.44151 562
38.46162 513
38.48174 549
38.50185 544
38.52196 581
38.54208 553
38.56219 534
38.58231 496
38.60242 525
38.62253 520
38.64265 549
38.66276 547
38.68287 528
38.70299 518
38.7231 479
38.74321 484
38.76333 513
38.78344 514
38.80356 474
38.82367 488
38.84378 493
38.8639 510
38.88401 479
38.90412 520
38.92424 510
38.94435 480
38.96447 471
38.98458 497
39.00469 557
39.02481 530
39.04492 483
39.06503 528
39.08515 514
39.10526 526
39.12538 512
39.14549 541
39.1656 553
39.18572 568
39.20583 544
39.22594 564
39.24606 573
39.26617 623
39.28628 586
39.3064 607
39.32651 658
39.34663 637
39.36674 668
39.38685 659
39.40697 676
39.42708 664
39.44719 612
39.46731 617
39.48742 582
39.50754 556
39.52765 572
39.54776 500
39.56788 536
39.58799 534
39.6081 529
39.62822 504
39.64833 529
39.66845 495
39.68856 499
39.70867 513
39.72879 497
39.7489 556
39.76901 472
39.78913 542
39.80924 493
39.82935 513
39.84947 490
39.86958 485
39.8897 498
39.90981 530
39.92992 505
39.95004 508
39.97015 529
39.99026 515
40.01038 539
40.03049 490
40.05061 533
40.07072 545
40.09083 595
40.11095 540
40.13106 596
40.15117 587
40.17129 594
40.1914 615
40.21152 549
40.23163 617
40.25174 546
40.27186 546
40.29197 565
40.31208 568
40.3322 560
40.35231 571
40.37242 475
40.39254 539
40.41265 524
40.43277 466
40.45288 497
40.47299 444
40.49311 435
40.51322 489
40.53333 470
40.55345 484
40.57356 466
40.59368 471
40.61379 472
40.6339 504
40.65402 473
40.67413 468
40.69424 489
40.71436 480
40.73447 485
40.75458 486
40.7747 476
40.79481 469
40.81493 474
40.83504 487
40.85515 501
40.87527 530
40.89538 443
40.91549 525
40.93561 474
40.95572 489
40.97584 501
40.99595 499
41.01606 497
41.03618 474
41.05629 495
41.0764 488
41.09652 471
41.11663 505
41.13675 495
41.15686 491
41.17697 557
41.19709 481
41.2172 499
41.23731 525
41.25743 500
41.27754 482
41.29765 472
41.31777 459
41.33788 526
41.358 507
41.37811 514
41.39822 477
41.41834 517
41.43845 530
41.45856 492
41.47868 484
41.49879 528
41.51891 507
41.53902 486
41.55913 489
41.57925 527
41.59936 565
41.61947 512
41.63959 527
41.6597 526
41.67982 531
41.69993 516
41.72004 550
41.74016 512
41.76027 513
41.78038 509
41.8005 529
41.82061 533
41.84072 462
41.86084 469
41.88095 452
41.90107 457
41.92118 498
41.94129 454
41.96141 525
41.98152 446
42.00163 473
42.02175 483
42.04186 456
42.06198 498
42.08209 478
42.1022 508
42.12232 483
42.14243 494
42.16254 478
42.18266 479
42.20277 527
42.22289 520
42.243 521
42.26311 500
42.28323 560
42.30334 566
42.32345 557
42.34357 620
42.36368 585
42.38379 588
42.40391 643
42.42402 608
42.44414 569
42.46425 573
42.48436 525
42.50448 531
42.52459 525
42.5447 526
42.56482 496
42.58493 462
42.60505 426
42.62516 467
42.64527 442
42.66539 460
42.6855 406
42.70561 436
42.72573 457
42.74584 455
42.76595 444
42.78607 494
42.80618 429
42.8263 471
42.84641 485
42.86652 452
42.88664 451
42.90675 440
42.92686 430
42.94698 433
42.96709 427
42.98721 430
43.00732 449
43.02743 438
43.04755 444
43.06766 420
43.08777 414
43.10789 445
43.128 412
43.14812 410
43.16823 418
43.18834 432
43.20846 463
43.22857 430
43.24868 433
43.2688 436
43.28891 412
43.30902 443
43.32914 401
43.34925 437
43.36937 429
43.38948 460
43.40959 441
43.42971 436
43.44982 417
43.46993 408
43.49005 407
43.51016 454
43.53028 441
43.55039 421
43.5705 434
43.59062 440
43.61073 386
43.63084 438
43.65096 486
43.67107 455
43.69119 433
43.7113 404
43.73141 440
43.75153 425
43.77164 424
43.79175 427
43.81187 408
43.83198 446
43.85209 446
43.87221 440
43.89232 440
43.91244 442
43.93255 455
43.95266 412
43.97278 419
43.99289 424
44.013 439
44.03312 469
44.05323 439
44.07335 446
44.09346 415
44.11357 398
44.13369 397
44.1538 419
44.17391 440
44.19403 427
44.21414 436
44.23426 438
44.25437 431
44.27448 442
44.2946 408
44.31471 407
44.33482 377
44.35494 441
44.37505 436
44.39516 437
44.41528 404
44.43539 446
44.45551 389
44.47562 417
44.49573 392
44.51585 431
44.53596 373
44.55607 400
44.57619 433
44.5963 399
44.61642 459
44.63653 421
44.65664 441
44.67676 424
44.69687 456
44.71698 432
44.7371 418
44.75721 451
44.77732 417
44.79744 463
44.81755 498
44.83767 463
44.85778 444
44.87789 420
44.89801 439
44.91812 466
44.93823 417
44.95835 442
44.97846 477
44.99858 426
45.01869 429
45.0388 471
45.05892 434
45.07903 450
45.09914 485
45.11926 451
45.13937 471
45.15949 484
45.1796 462
45.19971 468
45.21983 460
45.23994 466
45.26005 475
45.28017 500
45.30028 479
45.32039 482
45.34051 494
45.36062 498
45.38074 445
45.40085 470
45.42096 500
45.44108 523
45.46119 444
45.4813 450
45.50142 477
45.52153 479
45.54165 500
45.56176 447
45.58187 508
45.60199 505
45.6221 501
45.64221 550
45.66233 525
45.68244 509
45.70256 525
45.72267 541
45.74278 501
45.7629 503
45.78301 510
45.80312 522
45.82324 500
45.84335 459
45.86346 484
45.88358 474
45.90369 474
45.92381 433
45.94392 447
45.96403 445
45.98415 412
46.00426 396
46.02437 440
46.04449 439
46.0646 394
46.08472 432
46.10483 412
46.12494 429
46.14506 412
46.16517 409
46.18528 404
46.2054 416
46.22551 398
46.24563 444
46.26574 408
46.28585 420
46.30597 445
46.32608 413
46.34619 420
46.36631 423
46.38642 451
46.40653 413
46.42665 431
46.44676 444
46.46688 387
46.48699 373
46.5071 416
46.52722 394
46.54733 413
46.56744 411
46.58756 429
46.60767 394
46.62779 446
46.6479 429
46.66801 464
46.68813 424
46.70824 417
46.72835 380
46.74847 407
46.76858 441
46.78869 408
46.80881 467
46.82892 413
46.84904 408
46.86915 432
46.88926 411
46.90938 429
46.92949 447
46.9496 421
46.96972 404
46.98983 365
47.00995 400
47.03006 404
47.05017 413
47.07029 399
47.0904 399
47.11051 450
47.13063 404
47.15074 420
47.17086 440
47.19097 415
47.21108 385
47.2312 397
47.25131 403
47.27142 419
47.29154 394
47.31165 410
47.33176 429
47.35188 412
47.37199 388
47.39211 438
47.41222 443
47.43233 400
47.45245 391
47.47256 395
47.49267 404
47.51279 424
47.5329 374
47.55302 435
47.57313 379
47.59324 405
47.61336 420
47.63347 389
47.65358 393
47.6737 441
47.69381 406
47.71393 408
47.73404 422
47.75415 456
47.77427 419
47.79438 440
47.81449 402
47.83461 416
47.85472 386
47.87483 425
47.89495 454
47.91506 448
47.93518 430
47.95529 452
47.9754 400
47.99552 420
48.01563 411
48.03574 436
48.05586 397
48.07597 393
48.09609 433
48.1162 427
48.13631 439
48.15643 404
48.17654 401
48.19665 393
48.21677 395
48.23688 408
48.257 377
48.27711 365
48.29722 360
48.31734 422
48.33745 390
48.35756 381
48.37768 380
48.39779 408
48.4179 406
48.43802 386
48.45813 361
48.47825 388
48.49836 408
48.51847 387
48.53859 413
48.5587 394
48.57881 366
48.59893 378
48.61904 367
48.63916 410
48.65927 387
48.67938 427
48.6995 368
48.71961 392
48.73972 396
48.75984 382
48.77995 395
48.80006 380
48.82018 414
48.84029 355
48.86041 421
48.88052 403
48.90063 399
48.92075 395
48.94086 424
48.96097 418
48.98109 412
49.0012 397
49.02132 399
49.04143 388
49.06154 411
49.08166 382
49.10177 403
49.12188 434
49.142 394
49.16211 413
49.18223 421
49.20234 424
49.22245 410
49.24257 415
49.26268 389
49.28279 396
49.30291 404
49.32302 381
49.34313 398
49.36325 403
49.38336 423
49.40348 412
49.42359 385
49.4437 414
49.46382 410
49.48393 407
49.50404 411
49.52416 442
49.54427 405
49.56439 388
49.5845 421
49.60461 430
49.62473 415
49.64484 427
49.66495 429
49.68507 403
49.70518 406
49.7253 498
49.74541 437
49.76552 427
49.78564 394
49.80575 442
49.82586 437
49.84598 472
49.86609 486
49.8862 528
49.90632 538
49.92643 514
49.94655 609
49.96666 602
49.98677 592
50.00689 592
50.027 708
50.04711 675
50.06723 722
50.08734 696
50.10746 630
50.12757 634
50.14768 613
50.1678 594
50.18791 527
50.20802 546
50.22814 524
50.24825 493
50.26837 516
50.28848 442
50.30859 423
50.32871 421
50.34882 400
50.36893 409
50.38905 428
50.40916 431
50.42927 383
50.44939 447
50.4695 447
50.48962 431
50.50973 407
50.52984 459
50.54996 416
50.57007 421
50.59018 432
50.6103 445
50.63041 422
50.65053 418
50.67064 443
50.69075 413
50.71087 392
50.73098 441
50.75109 442
50.77121 423
50.79132 388
50.81143 437
50.83155 394
50.85166 370
50.87178 422
50.89189 359
50.912 403
50.93212 405
50.95223 405
50.97234 394
50.99246 363
51.01257 376
51.03269 384
51.0528 424
51.07291 371
51.09303 388
51.11314 385
51.13325 391
51.15337 402
51.17348 408
51.1936 412
51.21371 420
51.23382 386
51.25394 390
51.27405 377
51.29416 393
51.31428 371
51.33439 350
51.3545 395
51.37462 361
51.39473 402
51.41485 361
51.43496 405
51.45507 350
51.47519 346
51.4953 378
51.51541 380
51.53553 381
51.55564 370
51.57576 332
51.59587 367
51.61598 383
51.6361 387
51.65621 358
51.67632 381
51.69644 342
51.71655 367
51.73667 371
51.75678 364
51.77689 357
51.79701 344
51.81712 381
51.83723 376
51.85735 372
51.87746 357
51.89757 339
51.91769 355
51.9378 337
51.95792 348
51.97803 352
51.99814 395
52.01826 354
52.03837 359
52.05848 378
52.0786 356
52.09871 373
52.11883 378
52.13894 408
52.15905 398
52.17917 359
52.19928 358
52.21939 352
52.23951 371
52.25962 379
52.27974 400
52.29985 356
52.31996 369
52.34008 399
52.36019 432
52.3803 401
52.40042 371
52.42053 398
52.44064 428
52.46076 431
52.48087 395
52.50099 398
52.5211 368
52.54121 382
52.56133 356
52.58144 391
52.60155 370
52.62167 378
52.64178 405
52.6619 405
52.68201 417
52.70212 374
52.72224 398
52.74235 399
52.76246 373
52.78258 388
52.80269 380
52.8228 390
52.84292 416
52.86303 428
52.88315 385
52.90326 394
52.92337 379
52.94349 402
52.9636 376
52.98371 431
53.00383 380
53.02394 410
53.04406 414
53.06417 391
53.08428 394
53.1044 423
53.12451 404
53.14462 442
53.16474 426
53.18485 421
53.20497 428
53.22508 446
53.24519 431
53.26531 447
53.28542 417
53.30553 468
53.32565 445
53.34576 443
53.36587 412
53.38599 454
53.4061 494
53.42622 429
53.44633 461
53.46644 433
53.48656 438
53.50667 472
53.52678 440
53.5469 470
53.56701 467
53.58713 441
53.60724 407
53.62735 440
53.64747 460
53.66758 466
53.68769 432
53.70781 469
53.72792 442
53.74804 427
53.76815 444
53.78826 440
53.80838 458
53.82849 450
53.8486 504
53.86872 452
53.88883 423
53.90894 439
53.92906 429
53.94917 459
53.96929 452
53.9894 460
54.00951 466
54.02963 475
54.04974 486
54.06985 498
54.08997 480
54.11008 483
54.1302 469
54.15031 447
54.17042 465
54.19054 482
54.21065 458
54.23076 449
54.25088 491
54.27099 488
54.29111 443
54.31122 489
54.33133 426
54.35145 446
54.37156 461
54.39167 467
54.41179 435
54.4319 498
54.45201 457
54.47213 438
54.49224 472
54.51236 469
54.53247 493
54.55258 521
54.5727 461
54.59281 472
54.61292 514
54.63304 533
54.65315 542
54.67327 527
54.69338 514
54.71349 532
54.73361 549
54.75372 557
54.77383 558
54.79395 542
54.81406 515
54.83417 567
54.85429 522
54.8744 541
54.89452 490
54.91463 506
54.93474 539
54.95486 485
54.97497 502
54.99508 566
55.0152 480
55.03531 486
55.05543 505
55.07554 513
55.09565 460
55.11577 500
55.13588 503
55.15599 517
55.17611 445
55.19622 506
55.21634 489
55.23645 493
55.25656 505
55.27668 500
55.29679 479
55.3169 520
55.33702 526
55.35713 508
55.37724 477
55.39736 494
55.41747 516
55.43759 465
55.4577 447
55.47781 452
55.49793 483
55.51804 468
55.53815 458
55.55827 457
55.57838 434
55.5985 458
55.61861 440
55.63872 438
55.65884 443
55.67895 434
55.69906 479
55.71918 464
55.73929 466
55.75941 435
55.77952 435
55.79963 435
55.81975 441
55.83986 417
55.85997 419
55.88009 418
55.9002 415
55.92031 424
55.94043 453
55.96054 454
55.98066 452
56.00077 449
56.02088 424
56.041 433
56.06111 413
56.08122 423
56.10134 408
56.12145 455
56.14157 429
56.16168 412
56.18179 423
56.20191 379
56.22202 433
56.24213 465
56.26225 426
56.28236 412
56.30248 418
56.32259 419
56.3427 411
56.36282 418
56.38293 385
56.40304 432
56.42316 411
56.44327 379
56.46338 427
56.4835 472
56.50361 398
56.52373 438
56.54384 445
56.56395 445
56.58407 400
56.60418 450
56.62429 378
56.64441 412
56.66452 407
56.68464 436
56.70475 415
56.72486 409
56.74498 399
56.76509 411
56.7852 407
56.80532 404
56.82543 413
56.84554 382
56.86566 410
56.88577 424
56.90589 392
56.926 399
56.94611 415
56.96623 400
56.98634 437
57.00645 413
57.02657 366
57.04668 370
57.0668 367
57.08691 416
57.10702 387
57.12714 425
57.14725 420
57.16736 420
57.18748 435
57.20759 373
57.22771 390
57.24782 397
57.26793 406
57.28805 437
57.30816 415
57.32827 406
57.34839 395
57.3685 398
57.38861 410
57.40873 426
57.42884 398
57.44896 408
57.46907 374
57.48918 421
57.5093 388
57.52941 418
57.54952 400
57.56964 402
57.58975 407
57.60987 431
57.62998 410
57.65009 379
57.67021 398
57.69032 428
57.71043 385
57.73055 365
57.75066 407
57.77078 396
57.79089 425
57.811 399
57.83112 406
57.85123 388
57.87134 402
57.89146 386
57.91157 399
57.93168 389
57.9518 375
57.97191 430
57.99203 378
58.01214 367
58.03225 360
58.05237 354
58.07248 419
58.09259 392
58.11271 408
58.13282 371
58.15294 365
58.17305 385
58.19316 388
58.21328 389
58.23339 375
58.2535 382
58.27362 375
58.29373 330
58.31385 363
58.33396 354
58.35407 396
58.37419 382
58.3943 408
58.41441 434
58.43453 417
58.45464 368
58.47475 390
58.49487 381
58.51498 385
58.5351 400
58.55521 367
58.57532 396
58.59544 398
58.61555 410
58.63566 398
58.65578 359
58.67589 399
58.69601 371
58.71612 421
58.73623 420
58.75635 377
58.77646 415
58.79657 379
58.81669 389
58.8368 386
58.85691 393
58.87703 395
58.89714 386
58.91726 387
58.93737 353
58.95748 404
58.9776 382
58.99771 363
59.01782 386
59.03794 415
59.05805 361
59.07817 376
59.09828 366
59.11839 397
59.13851 383
59.15862 402
59.17873 386
59.19885 381
59.21896 386
59.23908 433
59.25919 381
59.2793 404
59.29942 377
59.31953 437
59.33964 409
59.35976 373
59.37987 417
59.39998 404
59.4201 424
59.44021 397
59.46033 391
59.48044 396
59.50055 409
59.52067 425
59.54078 374
59.56089 437
59.58101 401
59.60112 469
59.62124 450
59.64135 396
59.66146 480
59.68158 481
59.70169 489
59.7218 492
59.74192 540
59.76203 502
59.78215 552
59.80226 540
59.82237 574
59.84249 571
59.8626 600
59.88271 589
59.90283 621
59.92294 571
59.94305 544
59.96317 530
59.98328 549
60.0034 514
60.02351 515
60.04362 501
60.06374 520
60.08385 508
60.10396 464
60.12408 456
60.14419 424
60.16431 483
60.18442 453
60.20453 442
60.22465 485
60.24476 438
60.26487 454
60.28499 457
60.3051 464
60.32522 445
60.34533 409
60.36544 473
60.38556 439
60.40567 425
60.42578 421
60.4459 462
60.46601 459
60.48612 437
60.50624 421
60.52635 457
60.54647 427
60.56658 416
60.58669 417
60.60681 392
60.62692 393
60.64703 463
60.66715 445
60.68726 427
60.70738 468
60.72749 430
60.7476 413
60.76772 416
60.78783 434
60.80794 372
60.82806 444
60.84817 407
60.86828 408
60.8884 441
60.90851 422
60.92863 447
60.94874 434
60.96885 437
60.98897 424
61.00908 445
61.02919 463
61.04931 475
61.06942 441
61.08954 417
61.10965 460
61.12976 511
61.14988 441
61.16999 493
61.1901 479
61.21022 487
61.23033 468
61.25045 449
61.27056 465
61.29067 495
61.31079 486
61.3309 478
61.35101 499
61.37113 471
61.39124 531
61.41135 489
61.43147 513
61.45158 472
61.4717 493
61.49181 483
61.51192 480
61.53204 552
61.55215 552
61.57226 502
61.59238 482
61.61249 486
61.63261 547
61.65272 482
61.67283 502
61.69295 548
61.71306 505
61.73317 479
61.75329 509
61.7734 473
61.79352 526
61.81363 470
61.83374 491
61.85386 510
61.87397 496
61.89408 509
61.9142 530
61.93431 448
61.95442 505
61.97454 500
61.99465 515
62.01477 530
62.03488 494
62.05499 521
62.07511 492
62.09522 514
62.11533 470
62.13545 482
62.15556 506
62.17568 466
62.19579 496
62.2159 465
62.23602 457
62.25613 449
62.27624 425
62.29636 428
62.31647 475
62.33659 459
62.3567 499
62.37681 445
62.39693 442
62.41704 443
62.43715 434
62.45727 438
62.47738 443
62.49749 446
62.51761 441
62.53772 384
62.55784 426
62.57795 482
62.59806 396
62.61818 427
62.63829 402
62.6584 404
62.67852 411
62.69863 386
62.71875 415
62.73886 402
62.75897 394
62.77909 375
62.7992 355
62.81931 417
62.83943 375
62.85954 405
62.87965 406
62.89977 385
62.91988 390
62.94 406
62.96011 402
62.98022 396
63.00034 396
63.02045 418
63.04056 384
63.06068 425
63.08079 396
63.10091 354
63.12102 379
63.14113 422
63.16125 435
63.18136 387
63.20147 366
63.22159 390
63.2417 377
63.26182 381
63.28193 379
63.30204 408
63.32216 371
63.34227 400
63.36238 379
63.3825 382
63.40261 368
63.42272 380
63.44284 381
63.46295 392
63.48307 392
63.50318 381
63.52329 364
63.54341 377
63.56352 382
63.58363 421
63.60375 355
63.62386 362
63.64398 390
63.66409 387
63.6842 411
63.70432 356
63.72443 391
63.74454 397
63.76466 406
63.78477 415
63.80489 398
63.825 393
63.84511 360
63.86523 423
63.88534 427
63.90545 458
63.92557 394
63.94568 416
63.96579 407
63.98591 407
64.00602 410
64.02614 394
64.04625 364
64.06636 373
64.08648 396
64.10659 390
64.1267 404
64.14682 370
64.16693 389
64.18705 365
64.20716 349
64.22727 382
64.24739 396
64.2675 372
64.28761 364
64.30773 355
64.32784 369
64.34796 306
64.36807 353
64.38818 375
64.4083 352
64.42841 359
64.44852 350
64.46864 398
64.48875 355
64.50886 361
64.52898 373
64.54909 392
64.56921 345
64.58932 359
64.60943 357
64.62955 351
64.64966 372
64.66977 347
64.68989 373
64.71 359
64.73012 356
64.75023 340
64.77034 357
64.79046 315
64.81057 383
64.83068 347
64.8508 347
64.87091 361
64.89102 330
64.91114 366
64.93125 336
64.95137 366
64.97148 367
64.99159 373
65.01171 358
65.03182 356
65.05193 359
65.07205 387
65.09216 362
65.11228 331
65.13239 360
65.1525 361
65.17262 365
65.19273 339
65.21284 351
65.23296 341
65.25307 356
65.27319 343
65.2933 344
65.31341 371
65.33353 383
65.35364 392
65.37375 380
65.39387 375
65.41398 374
65.43409 339
65.45421 338
65.47432 360
65.49444 343
65.51455 353
65.53466 354
65.55478 356
65.57489 359
65.595 365
65.61512 352
65.63523 393
65.65535 369
65.67546 362
65.69557 353
65.71569 321
65.7358 359
65.75591 363
65.77603 345
65.79614 338
65.81626 322
65.83637 370
65.85648 325
65.8766 343
65.89671 356
65.91682 336
65.93694 357
65.95705 362
65.97716 332
65.99728 344
66.01739 369
66.03751 368
66.05762 360
66.07773 370
66.09785 349
66.11796 332
66.13807 334
66.15819 357
66.1783 375
66.19842 338
66.21853 340
66.23864 333
66.25876 352
66.27887 365
66.29898 393
66.3191 361
66.33921 351
66.35933 361
66.37944 382
66.39955 343
66.41967 366
66.43978 308
66.45989 325
66.48001 313
66.50012 333
66.52023 327
66.54035 332
66.56046 352
66.58058 361
66.60069 332
66.6208 346
66.64092 353
66.66103 372
66.68114 342
66.70126 347
66.72137 354
66.74149 351
66.7616 351
66.78171 354
66.80183 348
66.82194 357
66.84205 368
66.86217 363
66.88228 356
66.90239 368
66.92251 371
66.94262 370
66.96274 344
66.98285 341
67.00296 359
67.02308 354
67.04319 358
67.0633 333
67.08342 351
67.10353 339
67.12365 388
67.14376 383
67.16387 360
67.18399 351
67.2041 330
67.22421 370
67.24433 412
67.26444 354
67.28456 383
67.30467 400
67.32478 358
67.3449 366
67.36501 377
67.38512 355
67.40524 395
67.42535 395
67.44546 423
67.46558 374
67.48569 400
67.50581 425
67.52592 380
67.54603 427
67.56615 464
67.58626 424
67.60637 464
67.62649 449
67.6466 471
67.66672 463
67.68683 462
67.70694 459
67.72706 459
67.74717 440
67.76728 433
67.7874 453
67.80751 405
67.82763 411
67.84774 471
67.86785 453
67.88797 469
67.90808 432
67.92819 471
67.94831 458
67.96842 489
67.98853 478
68.00865 470
68.02876 459
68.04888 541
68.06899 510
68.0891 531
68.10922 514
68.12933 527
68.14944 512
68.16956 506
68.18967 471
68.20979 486
68.2299 472
68.25001 472
68.27013 437
68.29024 460
68.31035 446
68.33047 438
68.35058 406
68.3707 433
68.39081 408
68.41092 407
68.43104 409
68.45115 437
68.47126 416
68.49138 397
68.51149 378
68.5316 356
68.55172 333
68.57183 366
68.59195 337
68.61206 370
68.63217 356
68.65229 354
68.6724 370
68.69251 345
68.71263 348
68.73274 375
68.75286 355
68.77297 344
68.79308 345
68.8132 344
68.83331 378
68.85342 360
68.87354 406
68.89365 354
68.91376 421
68.93388 357
68.95399 349
68.97411 372
68.99422 338
69.01433 354
69.03445 371
69.05456 362
69.07467 347
69.09479 389
69.1149 393
69.13502 345
69.15513 376
69.17524 373
69.19536 363
69.21547 353
69.23558 361
69.2557 355
69.27581 397
69.29593 385
69.31604 377
69.33615 366
69.35627 371
69.37638 396
69.39649 386
69.41661 355
69.43672 339
69.45683 342
69.47695 373
69.49706 324
69.51718 360
69.53729 384
69.5574 346
69.57752 349
69.59763 341
69.61774 375
69.63786 356
69.65797 369
69.67809 344
69.6982 345
69.71831 333
69.73843 359
69.75854 381
69.77865 377
69.79877 346
69.81888 371
69.839 345
69.85911 357
69.87922 323
69.89934 360
69.91945 321
69.93956 341
69.95968 352
69.97979 359
69.9999 342
70.02002 358
70.04013 345
70.06025 354
70.08036 334
70.10047 381
70.12059 336
70.1407 330
70.16081 368
70.18093 341
70.20104 320
70.22116 371
70.24127 321
70.26138 343
70.2815 313
70.30161 351
70.32172 320
70.34184 322
70.36195 325
70.38207 358
70.40218 317
70.42229 342
70.44241 311
70.46252 369
70.48263 329
70.50275 304
70.52286 320
70.54297 371
70.56309 334
70.5832 336
70.60332 353
70.62343 331
70.64354 353
70.66366 324
70.68377 345
70.70388 309
70.724 315
70.74411 308
70.76423 360
70.78434 312
70.80445 335
70.82457 323
70.84468 368
70.86479 345
70.88491 320
70.90502 334
70.92513 339
70.94525 322
70.96536 307
70.98548 319
71.00559 359
71.0257 328
71.04582 364
71.06593 357
71.08604 375
71.10616 320
71.12627 334
71.14639 355
71.1665 328
71.18661 371
71.20673 345
71.22684 378
71.24695 348
71.26707 352
71.28718 338
71.3073 299
71.32741 316
71.34752 340
71.36764 371
71.38775 336
71.40786 351
71.42798 354
71.44809 343
71.4682 321
71.48832 355
71.50843 343
71.52855 353
71.54866 351
71.56877 336
71.58889 337
71.609 340
71.62911 360
71.64923 356
71.66934 323
71.68946 319
71.70957 361
71.72968 334
71.7498 363
71.76991 337
71.79002 347
71.81014 318
71.83025 347
71.85037 345
71.87048 365
71.89059 341
71.91071 345
71.93082 315
71.95093 332
71.97105 403
71.99116 328
72.01127 367
72.03139 348
72.0515 347
72.07162 360
72.09173 369
72.11184 397
72.13196 328
72.15207 326
72.17218 356
72.1923 359
72.21241 374
72.23253 363
72.25264 368
72.27275 368
72.29287 348
72.31298 346
72.33309 350
72.35321 369
72.37332 354
72.39344 344
72.41355 403
72.43366 370
72.45378 367
72.47389 353
72.494 367
72.51412 367
72.53423 362
72.55434 346
72.57446 362
72.59457 342
72.61469 357
72.6348 381
72.65491 347
72.67503 379
72.69514 403
72.71525 396
72.73537 380
72.75548 376
72.7756 359
72.79571 377
72.81582 377
72.83594 358
72.85605 384
72.87616 417
72.89628 348
72.91639 386
72.9365 365
72.95662 350
72.97673 391
72.99685 349
73.01696 368
73.03707 354
73.05719 351
73.0773 413
73.09741 386
73.11753 381
73.13764 363
73.15776 396
73.17787 392
73.19798 398
73.2181 365
73.23821 390
73.25832 413
73.27844 379
73.29855 395
73.31867 381
73.33878 376
73.35889 402
73.37901 408
73.39912 396
73.41923 401
73.43935 383
73.45946 381
73.47957 384
73.49969 352
73.5198 371
73.53992 387
73.56003 373
73.58014 399
73.60026 365
73.62037 359
73.64048 380
73.6606 373
73.68071 396
73.70083 375
73.72094 349
73.74105 365
73.76117 354
73.78128 344
73.80139 349
73.82151 375
73.84162 355
73.86174 342
73.88185 340
73.90196 332
73.92208 337
73.94219 386
73.9623 374
73.98242 361
74.00253 381
74.02264 370
74.04276 360
74.06287 364
74.08299 339
74.1031 332
74.12321 331
74.14333 316
74.16344 313
74.18355 349
74.20367 353
74.22378 362
74.2439 365
74.26401 361
74.28412 348
74.30424 306
74.32435 360
74.34446 345
74.36458 346
74.38469 360
74.40481 351
74.42492 341
74.44503 318
74.46515 371
74.48526 358
74.50537 365
74.52549 347
74.5456 324
74.56571 352
74.58583 340
74.60594 366
74.62606 358
74.64617 330
74.66628 377
74.6864 338
74.70651 343
74.72662 344
74.74674 348
74.76685 353
74.78697 357
74.80708 362
74.82719 346
74.84731 329
74.86742 316
74.88753 344
74.90765 352
74.92776 326
74.94787 359
74.96799 346
74.9881 321
75.00822 330
