3.00117 21090
3.02128 20657
3.0414 20130
3.06151 19569
3.08162 19009
3.10174 18654
3.12185 18129
3.14197 17230
3.16208 17105
3.18219 16391
3.20231 16033
3.22242 15705
3.24253 14808
3.26265 14810
3.28276 13879
3.30288 13690
3.32299 13321
3.3431 12800
3.36322 12762
3.38333 12190
3.40344 11753
3.42356 11372
3.44367 10886
3.46379 10922
3.4839 10310
3.50401 9823
3.52413 9506
3.54424 9097
3.56435 9007
3.58447 8680
3.60458 8367
3.62469 8039
3.64481 7836
3.66492 7363
3.68504 7157
3.70515 6906
3.72526 6687
3.74538 6152
3.76549 6253
3.7856 5995
3.80572 5860
3.82583 5501
3.84595 4961
3.86606 5077
3.88617 4922
3.90629 4620
3.9264 4329
3.94651 4080
3.96663 4242
3.98674 3920
4.00686 3765
4.02697 3639
4.04708 3451
4.0672 3425
4.08731 3081
4.10742 3059
4.12754 2974
4.14765 2779
4.16776 2714
4.18788 2676
4.20799 2378
4.22811 2369
4.24822 2335
4.26833 2341
4.28845 2249
4.30856 1999
4.32867 1966
4.34879 1978
4.3689 1916
4.38902 1975
4.40913 1861
4.42924 1759
4.44936 1703
4.46947 1728
4.48958 1804
4.5097 1671
4.52981 1632
4.54992 1538
4.57004 1622
4.59015 1533
4.61027 1458
4.63038 1476
4.65049 1470
4.67061 1416
4.69072 1411
4.71083 1334
4.73095 1292
4.75106 1287
4.77118 1378
4.79129 1260
4.8114 1236
4.83152 1220
4.85163 1153
4.87174 1185
4.89186 1143
4.91197 1090
4.93209 1193
4.9522 1048
4.97231 1044
4.99243 1122
5.01254 1056
5.03265 1031
5.05277 1043
5.07288 1035
5.09299 1054
5.11311 994
5.13322 953
5.15334 937
5.17345 969
5.19356 954
5.21368 841
5.23379 904
5.2539 940
5.27402 837
5.29413 879
5.31425 805
5.33436 892
5.35447 824
5.37459 839
5.3947 794
5.41481 739
5.43493 820
5.45504 817
5.47516 712
5.49527 755
5.51538 759
5.5355 762
5.55561 756
5.57572 721
5.59584 739
5.61595 686
5.63606 691
5.65618 675
5.67629 628
5.69641 698
5.71652 638
5.73663 637
5.75675 728
5.77686 725
5.79697 652
5.81709 635
5.8372 679
5.85732 681
5.87743 672
5.89754 647
5.91766 664
5.93777 610
5.95788 613
5.978 659
5.99811 636
6.01823 620
6.03834 691
6.05845 592
6.07857 615
6.09868 630
6.11879 626
6.13891 672
6.15902 604
6.17913 669
6.19925 666
6.21936 585
6.23948 626
6.25959 599
6.2797 649
6.29982 592
6.31993 610
6.34004 630
6.36016 622
6.38027 628
6.40039 598
6.4205 613
6.44061 571
6.46073 605
6.48084 552
6.50095 646
6.52107 584
6.54118 610
6.56129 598
6.58141 590
6.60152 628
6.62164 594
6.64175 554
6.66186 592
6.68198 632
6.70209 580
6.7222 586
6.74232 530
6.76243 598
6.78255 540
6.80266 621
6.82277 646
6.84289 608
6.863 624
6.88311 590
6.90323 562
6.92334 526
6.94346 608
6.96357 618
6.98368 625
7.0038 567
7.02391 605
7.04402 665
7.06414 631
7.08425 565
7.10436 584
7.12448 559
7.14459 582
7.16471 573
7.18482 576
7.20493 601
7.22505 574
7.24516 579
7.26527 572
7.28539 571
7.3055 562
7.32562 612
7.34573 569
7.36584 599
7.38596 573
7.40607 625
7.42618 592
7.4463 575
7.46641 593
7.48653 570
7.50664 590
7.52675 581
7.54687 612
7.56698 580
7.58709 550
7.60721 601
7.62732 600
7.64743 594
7.66755 619
7.68766 551
7.70778 591
7.72789 573
7.748 571
7.76812 597
7.78823 560
7.80834 516
7.82846 597
7.84857 609
7.86869 594
7.8888 612
7.90891 549
7.92903 652
7.94914 576
7.96925 598
7.98937 599
8.00948 592
8.0296 547
8.04971 588
8.06982 592
8.08994 563
8.11005 553
8.13016 570
8.15028 579
8.17039 596
8.1905 544
8.21062 592
8.23073 654
8.25085 606
8.27096 623
8.29107 615
8.31119 595
8.3313 578
8.35141 554
8.37153 546
8.39164 600
8.41176 572
8.43187 599
8.45198 616
8.4721 592
8.49221 532
8.51232 582
8.53244 592
8.55255 591
8.57266 575
8.59278 627
8.61289 594
8.63301 562
8.65312 600
8.67323 567
8.69335 573
8.71346 583
8.73357 620
8.75369 642
8.7738 603
8.79392 614
8.81403 558
8.83414 586
8.85426 611
8.87437 607
8.89448 564
8.9146 552
8.93471 609
8.95483 614
8.97494 618
8.99505 562
9.01517 606
9.03528 601
9.05539 578
9.07551 588
9.09562 642
9.11573 592
9.13585 548
9.15596 565
9.17608 608
9.19619 604
9.2163 581
9.23642 595
9.25653 622
9.27664 555
9.29676 583
9.31687 629
9.33699 603
9.3571 592
9.37721 595
9.39733 644
9.41744 637
9.43755 573
9.45767 559
9.47778 628
9.4979 616
9.51801 601
9.53812 608
9.55824 579
9.57835 575
9.59846 541
9.61858 597
9.63869 559
9.6588 599
9.67892 610
9.69903 579
9.71915 577
9.73926 594
9.75937 564
9.77949 595
9.7996 634
9.81971 629
9.83983 616
9.85994 631
9.88006 601
9.90017 531
9.92028 544
9.9404 577
9.96051 593
9.98062 623
10.00074 546
10.02085 592
10.04097 619
10.06108 623
10.08119 610
10.10131 557
10.12142 571
10.14153 573
10.16165 622
10.18176 537
10.20187 607
10.22199 570
10.2421 587
10.26222 583
10.28233 591
10.30244 646
10.32256 617
10.34267 618
10.36278 632
10.3829 561
10.40301 588
10.42313 583
10.44324 610
10.46335 595
10.48347 564
10.50358 591
10.52369 584
10.54381 628
10.56392 609
10.58403 624
10.60415 618
10.62426 565
10.64438 608
10.66449 600
10.6846 623
10.70472 574
10.72483 585
10.74494 598
10.76506 604
10.78517 560
10.80529 596
10.8254 609
10.84551 628
10.86563 563
10.88574 577
10.90585 591
10.92597 586
10.94608 557
10.9662 559
10.98631 591
11.00642 627
11.02654 584
11.04665 673
11.06676 662
11.08688 595
11.10699 647
11.1271 627
11.14722 653
11.16733 629
11.18745 629
11.20756 625
11.22767 636
11.24779 584
11.2679 590
11.28801 659
11.30813 588
11.32824 671
11.34836 595
11.36847 648
11.38858 650
11.4087 573
11.42881 644
11.44892 641
11.46904 623
11.48915 622
11.50927 592
11.52938 613
11.54949 651
11.56961 656
11.58972 643
11.60983 667
11.62995 651
11.65006 653
11.67017 641
11.69029 654
11.7104 662
11.73052 714
11.75063 702
11.77074 656
11.79086 736
11.81097 755
11.83108 665
11.8512 740
11.87131 715
11.89143 744
11.91154 776
11.93165 707
11.95177 740
11.97188 814
11.99199 789
12.01211 770
12.03222 783
12.05234 730
12.07245 797
12.09256 879
12.11268 843
12.13279 807
12.1529 812
12.17302 865
12.19313 877
12.21324 872
12.23336 859
12.25347 914
12.27359 909
12.2937 850
12.31381 821
12.33393 785
12.35404 776
12.37415 787
12.39427 758
12.41438 776
12.4345 739
12.45461 749
12.47472 679
12.49484 672
12.51495 674
12.53506 647
12.55518 664
12.57529 699
12.5954 594
12.61552 707
12.63563 701
12.65575 613
12.67586 619
12.69597 667
12.71609 594
12.7362 624
12.75631 608
12.77643 628
12.79654 607
12.81666 576
12.83677 615
12.85688 586
12.877 582
12.89711 555
12.91722 587
12.93734 609
12.95745 622
12.97757 600
12.99768 650
13.01779 632
13.03791 598
13.05802 603
13.07813 585
13.09825 572
13.11836 590
13.13847 595
13.15859 629
13.1787 579
13.19882 546
13.21893 584
13.23904 643
13.25916 597
13.27927 576
13.29938 589
13.3195 617
13.33961 579
13.35973 638
13.37984 593
13.39995 569
13.42007 594
13.44018 556
13.46029 554
13.48041 630
13.50052 597
13.52064 643
13.54075 554
13.56086 612
13.58098 582
13.60109 590
13.6212 616
13.64132 636
13.66143 615
13.68154 592
13.70166 571
13.72177 594
13.74189 655
13.762 561
13.78211 554
13.80223 572
13.82234 570
13.84245 565
13.86257 550
13.88268 512
13.9028 557
13.92291 601
13.94302 595
13.96314 540
13.98325 562
14.00336 568
14.02348 576
14.04359 559
14.06371 599
14.08382 569
14.10393 580
14.12405 566
14.14416 544
14.16427 583
14.18439 574
14.2045 584
14.22461 553
14.24473 542
14.26484 584
14.28496 585
14.30507 558
14.32518 561
14.3453 586
14.36541 532
14.38552 584
14.40564 599
14.42575 568
14.44587 532
14.46598 545
14.48609 559
14.50621 595
14.52632 614
14.54643 549
14.56655 597
14.58666 572
14.60677 540
14.62689 613
14.647 606
14.66712 533
14.68723 541
14.70734 544
14.72746 538
14.74757 602
14.76768 512
14.7878 570
14.80791 571
14.82803 603
14.84814 604
14.86825 550
14.88837 566
14.90848 571
14.92859 567
14.94871 580
14.96882 592
14.98894 609
15.00905 578
15.02916 592
15.04928 587
15.06939 574
15.0895 586
15.10962 608
15.12973 568
15.14984 557
15.16996 590
15.19007 561
15.21019 556
15.2303 538
15.25041 615
15.27053 560
15.29064 607
15.31075 573
15.33087 600
15.35098 570
15.3711 572
15.39121 582
15.41132 597
15.43144 584
15.45155 595
15.47166 590
15.49178 544
15.51189 561
15.53201 543
15.55212 550
15.57223 579
15.59235 608
15.61246 636
15.63257 568
15.65269 571
15.6728 526
15.69291 578
15.71303 596
15.73314 566
15.75326 593
15.77337 580
15.79348 558
15.8136 581
15.83371 580
15.85382 569
15.87394 585
15.89405 533
15.91417 592
15.93428 539
15.95439 610
15.97451 584
15.99462 582
16.01473 549
16.03485 556
16.05496 552
16.07508 579
16.09519 597
16.1153 566
16.13542 576
16.15553 599
16.17564 577
16.19576 611
16.21587 563
16.23598 600
16.2561 574
16.27621 596
16.29633 548
16.31644 593
16.33655 546
16.35667 555
16.37678 609
16.39689 591
16.41701 578
16.43712 590
16.45724 593
16.47735 535
16.49746 586
16.51758 537
16.53769 557
16.5578 567
16.57792 586
16.59803 541
16.61814 605
16.63826 558
16.65837 548
16.67849 563
16.6986 608
16.71871 614
16.73883 576
16.75894 619
16.77905 511
16.79917 584
16.81928 537
16.8394 568
16.85951 567
16.87962 535
16.89974 582
16.91985 567
16.93996 588
16.96008 580
16.98019 560
17.00031 545
17.02042 622
17.04053 587
17.06065 562
17.08076 592
17.10087 588
17.12099 577
17.1411 577
17.16121 605
17.18133 546
17.20144 584
17.22156 599
17.24167 586
17.26178 615
17.2819 599
17.30201 600
17.32212 590
17.34224 567
17.36235 590
17.38247 583
17.40258 635
17.42269 588
17.44281 546
17.46292 601
17.48303 600
17.50315 578
17.52326 585
17.54338 561
17.56349 619
17.5836 565
17.60372 573
17.62383 616
17.64394 621
17.66406 632
17.68417 623
17.70428 623
17.7244 609
17.74451 647
17.76463 637
17.78474 630
17.80485 616
17.82497 631
17.84508 667
17.86519 648
17.88531 610
17.90542 658
17.92554 671
17.94565 664
17.96576 677
17.98588 680
18.00599 748
18.0261 796
18.04622 766
18.06633 894
18.08645 1002
18.10656 1038
18.12667 1128
18.14679 1196
18.1669 1258
18.18701 1330
18.20713 1231
18.22724 1134
18.24735 1084
18.26747 972
18.28758 938
18.3077 888
18.32781 807
18.34792 770
18.36804 740
18.38815 688
18.40826 644
18.42838 701
18.44849 667
18.46861 677
18.48872 615
18.50883 656
18.52895 634
18.54906 627
18.56917 625
18.58929 631
18.6094 569
18.62951 581
18.64963 594
18.66974 638
18.68986 598
18.70997 576
18.73008 580
18.7502 652
18.77031 615
18.79042 590
18.81054 623
18.83065 587
18.85077 597
18.87088 614
18.89099 569
18.91111 639
18.93122 631
18.95133 613
18.97145 623
18.99156 662
19.01168 606
19.03179 598
19.0519 627
19.07202 588
19.09213 575
19.11224 611
19.13236 627
19.15247 674
19.17258 635
19.1927 615
19.21281 605
19.23293 605
19.25304 640
19.27315 654
19.29327 682
19.31338 612
19.33349 635
19.35361 607
19.37372 633
19.39384 632
19.41395 661
19.43406 675
19.45418 671
19.47429 658
19.4944 710
19.51452 667
19.53463 654
19.55475 718
19.57486 709
19.59497 721
19.61509 714
19.6352 724
19.65531 750
19.67543 824
19.69554 821
19.71565 866
19.73577 902
19.75588 850
19.776 935
19.79611 906
19.81622 851
19.83634 881
19.85645 920
19.87656 839
19.89668 944
19.91679 902
19.93691 915
19.95702 928
19.97713 851
19.99725 930
20.01736 964
20.03747 1018
20.05759 971
20.0777 993
20.09782 1045
20.11793 1025
20.13804 1126
20.15816 1114
20.17827 1100
20.19838 1087
20.2185 1043
20.23861 1031
20.25872 1035
20.27884 1025
20.29895 990
20.31907 1029
20.33918 949
20.35929 1012
20.37941 1004
20.39952 984
20.41963 988
20.43975 934
20.45986 992
20.47998 891
20.50009 897
20.5202 955
20.54032 913
20.56043 849
20.58054 934
20.60066 910
20.62077 1005
20.64088 1062
20.661 1145
20.68111 1182
20.70123 1157
20.72134 1259
20.74145 1260
20.76157 1157
20.78168 1152
20.80179 1108
20.82191 1040
20.84202 993
20.86214 978
20.88225 884
20.90236 962
20.92248 870
20.94259 872
20.9627 877
20.98282 853
21.00293 918
21.02305 849
21.04316 887
21.06327 878
21.08339 905
21.1035 863
21.12361 878
21.14373 898
21.16384 870
21.18395 882
21.20407 840
21.22418 887
21.2443 898
21.26441 824
21.28452 890
21.30464 868
21.32475 806
21.34486 920
21.36498 895
21.38509 871
21.40521 800
21.42532 867
21.44543 818
21.46555 857
21.48566 812
21.50577 769
21.52589 805
21.546 858
21.56612 784
21.58623 779
21.60634 737
21.62646 758
21.64657 778
21.66668 812
21.6868 828
21.70691 778
21.72702 770
21.74714 764
21.76725 780
21.78737 812
21.80748 784
21.82759 782
21.84771 734
21.86782 721
21.88793 743
21.90805 747
21.92816 737
21.94828 733
21.96839 706
21.9885 740
22.00862 736
22.02873 733
22.04884 711
22.06896 712
22.08907 693
22.10919 725
22.1293 739
22.14941 735
22.16953 688
22.18964 737
22.20975 712
22.22987 721
22.24998 716
22.27009 684
22.29021 730
22.31032 736
22.33044 739
22.35055 723
22.37066 681
22.39078 759
22.41089 736
22.431 699
22.45112 721
22.47123 700
22.49135 710
22.51146 659
22.53157 661
22.55169 710
22.5718 639
22.59191 679
22.61203 687
22.63214 678
22.65225 691
22.67237 676
22.69248 705
22.7126 752
22.73271 738
22.75282 693
22.77294 722
22.79305 686
22.81316 697
22.83328 731
22.85339 665
22.87351 651
22.89362 673
22.91373 674
22.93385 709
22.95396 711
22.97407 637
22.99419 700
23.0143 681
23.03442 699
23.05453 695
23.07464 729
23.09476 701
23.11487 693
23.13498 697
23.1551 702
23.17521 725
23.19532 633
23.21544 643
23.23555 693
23.25567 679
23.27578 732
23.29589 702
23.31601 685
23.33612 702
23.35623 731
23.37635 715
23.39646 672
23.41658 670
23.43669 690
23.4568 706
23.47692 730
23.49703 747
23.51714 666
23.53726 703
23.55737 743
23.57749 705
23.5976 691
23.61771 706
23.63783 692
23.65794 743
23.67805 749
23.69817 674
23.71828 713
23.73839 783
23.75851 739
23.77862 771
23.79874 756
23.81885 774
23.83896 748
23.85908 759
23.87919 759
23.8993 781
23.91942 799
23.93953 771
23.95965 843
23.97976 791
23.99987 756
24.01999 795
24.0401 779
24.06021 803
24.08033 814
24.10044 776
24.12056 830
24.14067 813
24.16078 801
24.1809 802
24.20101 797
24.22112 788
24.24124 780
24.26135 820
24.28146 830
24.30158 835
24.32169 764
24.34181 744
24.36192 773
24.38203 821
24.40215 815
24.42226 825
24.44237 844
24.46249 757
24.4826 857
24.50272 827
24.52283 885
24.54294 865
24.56306 854
24.58317 818
24.60328 847
24.6234 862
24.64351 892
24.66362 937
24.68374 864
24.70385 932
24.72397 945
24.74408 918
24.76419 982
24.78431 931
24.80442 944
24.82453 936
24.84465 924
24.86476 922
24.88488 916
24.90499 938
24.9251 898
24.94522 883
24.96533 928
24.98544 955
25.00556 970
25.02567 959
25.04579 959
25.0659 989
25.08601 1035
25.10613 1049
25.12624 1049
25.14635 984
25.16647 1007
25.18658 980
25.20669 917
25.22681 922
25.24692 980
25.26704 842
25.28715 852
25.30726 855
25.32738 775
25.34749 823
25.3676 805
25.38772 807
25.40783 804
25.42795 789
25.44806 759
25.46817 776
25.48829 761
25.5084 759
25.52851 696
25.54863 738
25.56874 721
25.58886 745
25.60897 753
25.62908 692
25.6492 726
25.66931 732
25.68942 722
25.70954 721
25.72965 708
25.74976 741
25.76988 726
25.78999 749
25.81011 704
25.83022 724
25.85033 717
25.87045 746
25.89056 733
25.91067 675
25.93079 664
25.9509 707
25.97102 697
25.99113 748
26.01124 678
26.03136 721
26.05147 745
26.07158 697
26.0917 744
26.11181 786
26.13193 709
26.15204 756
26.17215 760
26.19227 764
26.21238 791
26.23249 814
26.25261 843
26.27272 792
26.29283 820
26.31295 882
26.33306 1026
26.35318 1049
26.37329 1253
26.3934 1475
26.41352 1782
26.43363 2131
26.45374 2409
26.47386 2620
26.49397 2848
26.51409 2776
26.5342 2696
26.55431 2329
26.57443 2004
26.59454 1716
26.61465 1486
26.63477 1255
26.65488 1095
26.67499 947
26.69511 913
26.71522 875
26.73534 823
26.75545 814
26.77556 827
26.79568 833
26.81579 807
26.8359 783
26.85602 779
26.87613 744
26.89625 774
26.91636 741
26.93647 739
26.95659 721
26.9767 785
26.99681 691
27.01693 684
27.03704 729
27.05716 693
27.07727 680
27.09738 712
27.1175 698
27.13761 676
27.15772 679
27.17784 663
27.19795 723
27.21806 705
27.23818 705
27.25829 731
27.27841 691
27.29852 714
27.31863 677
27.33875 747
27.35886 712
27.37897 754
27.39909 680
27.4192 696
27.43932 689
27.45943 659
27.47954 648
27.49966 727
27.51977 668
27.53988 685
27.56 675
27.58011 665
27.60023 634
27.62034 660
27.64045 648
27.66057 637
27.68068 693
27.70079 688
27.72091 658
27.74102 671
27.76113 702
27.78125 698
27.80136 728
27.82148 700
27.84159 708
27.8617 699
27.88182 717
27.90193 702
27.92204 614
27.94216 693
27.96227 640
27.98239 676
28.0025 698
28.02261 643
28.04273 718
28.06284 662
28.08295 626
28.10307 631
28.12318 642
28.1433 630
28.16341 622
28.18352 628
28.20364 650
28.22375 666
28.24386 652
28.26398 651
28.28409 607
28.3042 622
28.32432 656
28.34443 676
28.36455 613
28.38466 593
28.40477 642
28.42489 587
28.445 670
28.46511 614
28.48523 675
28.50534 659
28.52546 687
28.54557 640
28.56568 578
28.5858 619
28.60591 672
28.62602 661
28.64614 716
28.66625 636
28.68636 671
28.70648 652
28.72659 635
28.74671 652
28.76682 615
28.78693 635
28.80705 641
28.82716 611
28.84727 625
28.86739 647
28.8875 655
28.90762 675
28.92773 625
28.94784 614
28.96796 646
28.98807 628
29.00818 687
29.0283 619
29.04841 667
29.06853 611
29.08864 620
29.10875 662
29.12887 638
29.14898 658
29.16909 670
29.18921 629
29.20932 606
29.22943 635
29.24955 602
29.26966 630
29.28978 669
29.30989 648
29.33 654
29.35012 635
29.37023 662
29.39034 621
29.41046 641
29.43057 665
29.45069 660
29.4708 660
29.49091 696
29.51103 596
29.53114 657
29.55125 698
29.57137 611
29.59148 620
29.6116 649
29.63171 690
29.65182 665
29.67194 647
29.69205 690
29.71216 682
29.73228 666
29.75239 658
29.7725 715
29.79262 661
29.81273 673
29.83285 674
29.85296 705
29.87307 650
29.89319 724
29.9133 659
29.93341 652
29.95353 655
29.97364 680
29.99376 694
30.01387 681
30.03398 701
30.0541 665
30.07421 688
30.09432 671
30.11444 677
30.13455 741
30.15467 666
30.17478 709
30.19489 650
30.21501 671
30.23512 685
30.25523 650
30.27535 664
30.29546 637
30.31557 630
30.33569 718
30.3558 635
30.37592 623
30.39603 643
30.41614 651
30.43626 662
30.45637 687
30.47648 656
30.4966 663
30.51671 626
30.53683 629
30.55694 621
30.57705 677
30.59717 645
30.61728 661
30.63739 611
30.65751 612
30.67762 637
30.69773 631
30.71785 597
30.73796 651
30.75808 608
30.77819 592
30.7983 667
30.81842 614
30.83853 647
30.85864 651
30.87876 619
30.89887 645
30.91899 662
30.9391 644
30.95921 621
30.97933 639
30.99944 607
31.01955 658
31.03967 657
31.05978 589
31.0799 636
31.10001 623
31.12012 650
31.14024 660
31.16035 633
31.18046 653
31.20058 624
31.22069 666
31.2408 656
31.26092 610
31.28103 640
31.30115 633
31.32126 610
31.34137 632
31.36149 616
31.3816 600
31.40171 637
31.42183 677
31.44194 660
31.46206 614
31.48217 639
31.50228 674
31.5224 656
31.54251 614
31.56262 631
31.58274 639
31.60285 591
31.62297 633
31.64308 596
31.66319 612
31.68331 607
31.70342 632
31.72353 619
31.74365 623
31.76376 660
31.78387 720
31.80399 612
31.8241 644
31.84422 674
31.86433 627
31.88444 603
31.90456 656
31.92467 672
31.94478 642
31.9649 613
31.98501 655
32.00513 646
32.02524 683
32.04535 665
32.06547 662
32.08558 694
32.10569 648
32.12581 676
32.14592 662
32.16604 622
32.18615 679
32.20626 643
32.22638 677
32.24649 660
32.2666 666
32.28672 665
32.30683 655
32.32694 688
32.34706 634
32.36717 705
32.38729 685
32.4074 688
32.42751 691
32.44763 662
32.46774 764
32.48785 683
32.50797 728
32.52808 746
32.5482 756
32.56831 686
32.58842 760
32.60854 736
32.62865 679
32.64876 793
32.66888 769
32.68899 732
32.7091 760
32.72922 758
32.74933 797
32.76945 821
32.78956 765
32.80967 805
32.82979 749
32.8499 805
32.87001 855
32.89013 869
32.91024 873
32.93036 922
32.95047 901
32.97058 885
32.9907 938
33.01081 854
33.03092 889
33.05104 929
33.07115 924
33.09127 917
33.11138 870
33.13149 975
33.15161 870
33.17172 927
33.19183 855
33.21195 865
33.23206 895
33.25217 818
33.27229 806
33.2924 825
33.31252 802
33.33263 808
33.35274 821
33.37286 817
33.39297 795
33.41308 779
33.4332 788
33.45331 737
33.47343 793
33.49354 727
33.51365 731
33.53377 826
33.55388 724
33.57399 758
33.59411 693
33.61422 713
33.63434 741
33.65445 718
33.67456 737
33.69468 674
33.71479 678
33.7349 676
33.75502 744
33.77513 692
33.79524 649
33.81536 678
33.83547 712
33.85559 722
33.8757 751
33.89581 700
33.91593 691
33.93604 653
33.95615 689
33.97627 686
33.99638 669
34.0165 704
34.03661 644
34.05672 693
34.07684 664
34.09695 643
34.11706 682
34.13718 630
34.15729 684
34.17741 656
34.19752 729
34.21763 676
34.23775 690
34.25786 708
34.27797 685
34.29809 687
34.3182 637
34.33831 650
34.35843 605
34.37854 697
34.39866 671
34.41877 654
34.43888 687
34.459 707
34.47911 723
34.49922 693
34.51934 755
34.53945 681
34.55957 707
34.57968 682
34.59979 765
34.61991 724
34.64002 716
34.66013 783
34.68025 801
34.70036 806
34.72047 802
34.74059 815
34.7607 846
34.78082 814
34.80093 832
34.82104 874
34.84116 813
34.86127 878
34.88138 914
34.9015 843
34.92161 862
34.94173 951
34.96184 883
34.98195 874
35.00207 884
35.02218 895
35.04229 859
35.06241 944
35.08252 982
35.10264 900
35.12275 885
35.14286 973
35.16298 935
35.18309 882
35.2032 910
35.22332 890
35.24343 947
35.26354 951
35.28366 945
35.30377 935
35.32389 990
35.344 969
35.36411 1019
35.38423 1018
35.40434 1017
35.42445 1074
35.44457 1091
35.46468 1153
35.4848 1132
35.50491 1045
35.52502 1099
35.54514 1124
35.56525 1110
35.58536 1062
35.60548 1095
35.62559 1123
35.64571 1062
35.66582 1162
35.68593 1057
35.70605 1063
35.72616 1017
35.74627 1054
35.76639 1000
35.7865 1006
35.80661 946
35.82673 994
35.84684 986
35.86696 989
35.88707 953
35.90718 933
35.9273 886
35.94741 909
35.96752 830
35.98764 922
36.00775 864
36.02787 929
36.04798 834
36.06809 846
36.08821 812
36.10832 798
36.12843 784
36.14855 847
36.16866 782
36.18878 796
36.20889 849
36.229 854
36.24912 825
36.26923 856
36.28934 874
36.30946 958
36.32957 929
36.34968 985
36.3698 941
36.38991 940
36.41003 980
36.43014 994
36.45025 953
36.47037 911
36.49048 876
36.51059 865
36.53071 896
36.55082 848
36.57094 902
36.59105 816
36.61116 766
36.63128 820
36.65139 819
36.6715 790
36.69162 766
36.71173 770
36.73184 748
36.75196 746
36.77207 796
36.79219 789
36.8123 766
36.83241 776
36.85253 812
36.87264 799
36.89275 811
36.91287 757
36.93298 837
36.9531 801
36.97321 775
36.99332 839
37.01344 792
37.03355 761
37.05366 789
37.07378 771
37.09389 757
37.11401 749
37.13412 771
37.15423 765
37.17435 757
37.19446 771
37.21457 745
37.23469 764
37.2548 739
37.27491 758
37.29503 778
37.31514 762
37.33526 763
37.35537 807
37.37548 784
37.3956 761
37.41571 773
37.43582 810
37.45594 790
37.47605 839
37.49617 837
37.51628 809
37.53639 870
37.55651 797
37.57662 838
37.59673 823
37.61685 776
37.63696 818
37.65708 757
37.67719 861
37.6973 790
37.71742 810
37.73753 776
37.75764 759
37.77776 788
37.79787 803
37.81798 740
37.8381 764
37.85821 805
37.87833 761
37.89844 772
37.91855 727
37.93867 736
37.95878 800
37.97889 763
37.99901 770
38.01912 724
38.03924 790
38.05935 691
38.07946 765
38.09958 726
38.11969 761
38.1398 739
38.15992 766
38.18003 782
38.20015 748
38.22026 819
38.24037 750
38.26049 822
38.2806 831
38.30071 804
38.32083 791
38.34094 798
38.36105 760
38.38117 853
38.40128 787
38.4214 770
38.44151 728
38.46162 783
38.48174 779
38.50185 779
38.52196 746
38.54208 775
38.56219 786
38.58231 702
38.60242 720
38.62253 722
38.64265 739
38.66276 697
38.68287 711
38.70299 737
38.7231 723
38.74321 734
38.76333 673
38.78344 669
38.80356 682
38.82367 692
38.84378 723
38.8639 704
38.88401 720
38.90412 748
38.92424 711
38.94435 688
38.96447 685
38.98458 714
39.00469 706
39.02481 709
39.04492 690
39.06503 711
39.08515 728
39.10526 741
39.12538 755
39.14549 797
39.1656 702
39.18572 804
39.20583 792
39.22594 746
39.24606 805
39.26617 832
39.28628 810
39.3064 860
39.32651 821
39.34663 813
39.36674 795
39.38685 794
39.40697 761
39.42708 749
39.44719 676
39.46731 711
39.48742 696
39.50754 689
39.52765 653
39.54776 655
39.56788 655
39.58799 652
39.6081 656
39.62822 673
39.64833 688
39.66845 648
39.68856 672
39.70867 705
39.72879 691
39.7489 650
39.76901 692
39.78913 667
39.80924 624
39.82935 646
39.84947 718
39.86958 667
39.8897 761
39.90981 738
39.92992 685
39.95004 718
39.97015 756
39.99026 703
40.01038 753
40.03049 693
40.05061 739
40.07072 750
40.09083 710
40.11095 738
40.13106 772
40.15117 766
40.17129 741
40.1914 735
40.21152 721
40.23163 755
40.25174 727
40.27186 722
40.29197 716
40.31208 724
40.3322 732
40.35231 655
40.37242 715
40.39254 668
40.41265 693
40.43277 689
40.45288 689
40.47299 669
40.49311 716
40.51322 716
40.53333 650
40.55345 699
40.57356 715
40.59368 712
40.61379 731
40.6339 733
40.65402 709
40.67413 735
40.69424 786
40.71436 726
40.73447 695
40.75458 725
40.7747 760
40.79481 706
40.81493 764
40.83504 780
40.85515 790
40.87527 712
40.89538 788
40.91549 715
40.93561 782
40.95572 767
40.97584 744
40.99595 722
41.01606 694
41.03618 713
41.05629 817
41.0764 746
41.09652 706
41.11663 682
41.13675 759
41.15686 730
41.17697 757
41.19709 735
41.2172 702
41.23731 635
41.25743 721
41.27754 701
41.29765 735
41.31777 698
41.33788 705
41.358 694
41.37811 675
41.39822 675
41.41834 726
41.43845 681
41.45856 672
41.47868 742
41.49879 699
41.51891 780
41.53902 706
41.55913 699
41.57925 749
41.59936 733
41.61947 711
41.63959 702
41.6597 672
41.67982 685
41.69993 700
41.72004 684
41.74016 663
41.76027 677
41.78038 671
41.8005 673
41.82061 595
41.84072 661
41.86084 684
41.88095 610
41.90107 675
41.92118 651
41.94129 669
41.96141 632
41.98152 652
42.00163 640
42.02175 675
42.04186 643
42.06198 638
42.08209 647
42.1022 631
42.12232 630
42.14243 629
42.16254 670
42.18266 642
42.20277 652
42.22289 720
42.243 664
42.26311 747
42.28323 701
42.30334 699
42.32345 765
42.34357 679
42.36368 709
42.38379 708
42.40391 705
42.42402 704
42.44414 650
42.46425 659
42.48436 665
42.50448 690
42.52459 629
42.5447 681
42.56482 652
42.58493 670
42.60505 709
42.62516 669
42.64527 658
42.66539 700
42.6855 611
42.70561 599
42.72573 609
42.74584 617
42.76595 671
42.78607 675
42.80618 642
42.8263 665
42.84641 635
42.86652 661
42.88664 628
42.90675 632
42.92686 666
42.94698 608
42.96709 620
42.98721 634
43.00732 645
43.02743 658
43.04755 662
43.06766 669
43.08777 639
43.10789 671
43.128 617
43.14812 566
43.16823 651
43.18834 671
43.20846 710
43.22857 660
43.24868 633
43.2688 651
43.28891 680
43.30902 631
43.32914 635
43.34925 662
43.36937 618
43.38948 652
43.40959 626
43.42971 642
43.44982 613
43.46993 644
43.49005 621
43.51016 633
43.53028 657
43.55039 624
43.5705 663
43.59062 642
43.61073 668
43.63084 646
43.65096 662
43.67107 645
43.69119 590
43.7113 656
43.73141 601
43.75153 649
43.77164 608
43.79175 642
43.81187 634
43.83198 640
43.85209 613
43.87221 653
43.89232 640
43.91244 649
43.93255 640
43.95266 706
43.97278 682
43.99289 650
44.013 690
44.03312 680
44.05323 656
44.07335 615
44.09346 654
44.11357 710
44.13369 708
44.1538 665
44.17391 671
44.19403 718
44.21414 659
44.23426 673
44.25437 693
44.27448 631
44.2946 638
44.31471 594
44.33482 635
44.35494 590
44.37505 632
44.39516 619
44.41528 641
44.43539 604
44.45551 576
44.47562 661
44.49573 646
44.51585 587
44.53596 611
44.55607 661
44.57619 624
44.5963 689
44.61642 675
44.63653 629
44.65664 621
44.67676 625
44.69687 633
44.71698 657
44.7371 648
44.75721 676
44.77732 578
44.79744 605
44.81755 601
44.83767 630
44.85778 621
44.87789 612
44.89801 611
44.91812 592
44.93823 612
44.95835 589
44.97846 632
44.99858 658
45.01869 652
45.0388 611
45.05892 623
45.07903 613
45.09914 645
45.11926 638
45.13937 635
45.15949 631
45.1796 709
45.19971 631
45.21983 664
45.23994 710
45.26005 721
45.28017 675
45.30028 702
45.32039 667
45.34051 640
45.36062 731
45.38074 635
45.40085 676
45.42096 703
45.44108 654
45.46119 616
45.4813 690
45.50142 666
45.52153 667
45.54165 726
45.56176 688
45.58187 714
45.60199 734
45.6221 675
45.64221 694
45.66233 736
45.68244 748
45.70256 705
45.72267 660
45.74278 658
45.7629 615
45.78301 727
45.80312 655
45.82324 704
45.84335 699
45.86346 648
45.88358 612
45.90369 588
45.92381 621
45.94392 603
45.96403 648
45.98415 653
46.00426 647
46.02437 602
46.04449 628
46.0646 635
46.08472 677
46.10483 665
46.12494 621
46.14506 620
46.16517 571
46.18528 614
46.2054 580
46.22551 689
46.24563 617
46.26574 646
46.28585 628
46.30597 617
46.32608 675
46.34619 605
46.36631 651
46.38642 625
46.40653 608
46.42665 607
46.44676 669
46.46688 626
46.48699 602
46.5071 601
46.52722 672
46.54733 616
46.56744 597
46.58756 602
46.60767 609
46.62779 571
46.6479 622
46.66801 557
46.68813 620
46.70824 644
46.72835 621
46.74847 625
46.76858 667
46.78869 664
46.80881 641
46.82892 631
46.84904 658
46.86915 582
46.88926 625
46.90938 659
46.92949 587
46.9496 626
46.96972 677
46.98983 640
47.00995 658
47.03006 641
47.05017 615
47.07029 676
47.0904 600
47.11051 675
47.13063 640
47.15074 628
47.17086 635
47.19097 636
47.21108 658
47.2312 681
47.25131 674
47.27142 638
47.29154 678
47.31165 629
47.33176 655
47.35188 675
47.37199 660
47.39211 620
47.41222 641
47.43233 630
47.45245 640
47.47256 640
47.49267 683
47.51279 641
47.5329 650
47.55302 704
47.57313 604
47.59324 694
47.61336 619
47.63347 675
47.65358 684
47.6737 669
47.69381 700
47.71393 681
47.73404 668
47.75415 673
47.77427 698
47.79438 657
47.81449 706
47.83461 699
47.85472 683
47.87483 678
47.89495 661
47.91506 647
47.93518 626
47.95529 666
47.9754 657
47.99552 647
48.01563 667
48.03574 647
48.05586 628
48.07597 628
48.09609 597
48.1162 628
48.13631 629
48.15643 651
48.17654 640
48.19665 637
48.21677 611
48.23688 649
48.257 619
48.27711 624
48.29722 619
48.31734 609
48.33745 617
48.35756 583
48.37768 633
48.39779 610
48.4179 612
48.43802 651
48.45813 621
48.47825 631
48.49836 591
48.51847 604
48.53859 673
48.5587 608
48.57881 617
48.59893 648
48.61904 622
48.63916 626
48.65927 656
48.67938 676
48.6995 632
48.71961 587
48.73972 643
48.75984 622
48.77995 647
48.80006 693
48.82018 621
48.84029 634
48.86041 600
48.88052 631
48.90063 659
48.92075 660
48.94086 650
48.96097 667
48.98109 647
49.0012 632
49.02132 593
49.04143 676
49.06154 698
49.08166 662
49.10177 646
49.12188 688
49.142 660
49.16211 656
49.18223 686
49.20234 648
49.22245 645
49.24257 697
49.26268 721
49.28279 678
49.30291 707
49.32302 759
49.34313 705
49.36325 706
49.38336 731
49.40348 645
49.42359 697
49.4437 738
49.46382 711
49.48393 664
49.50404 678
49.52416 730
49.54427 688
49.56439 728
49.5845 724
49.60461 651
49.62473 678
49.64484 636
49.66495 684
49.68507 672
49.70518 651
49.7253 675
49.74541 655
49.76552 632
49.78564 648
49.80575 702
49.82586 685
49.84598 685
49.86609 679
49.8862 745
49.90632 758
49.92643 777
49.94655 877
49.96666 829
49.98677 869
50.00689 802
50.027 906
50.04711 855
50.06723 792
50.08734 745
50.10746 787
50.12757 750
50.14768 745
50.1678 671
50.18791 686
50.20802 688
50.22814 657
50.24825 644
50.26837 646
50.28848 649
50.30859 659
50.32871 683
50.34882 650
50.36893 676
50.38905 662
50.40916 655
50.42927 686
50.44939 669
50.4695 681
50.48962 664
50.50973 682
50.52984 670
50.54996 652
50.57007 638
50.59018 630
50.6103 694
50.63041 632
50.65053 661
50.67064 643
50.69075 649
50.71087 627
50.73098 638
50.75109 652
50.77121 597
50.79132 663
50.81143 644
50.83155 634
50.85166 669
50.87178 613
50.89189 648
50.912 597
50.93212 648
50.95223 618
50.97234 639
50.99246 656
51.01257 620
51.03269 644
51.0528 630
51.07291 627
51.09303 633
51.11314 637
51.13325 604
51.15337 602
51.17348 655
51.1936 615
51.21371 624
51.23382 626
51.25394 618
51.27405 600
51.29416 632
51.31428 636
51.33439 606
51.3545 624
51.37462 563
51.39473 591
51.41485 598
51.43496 591
51.45507 631
51.47519 587
51.4953 619
51.51541 600
51.53553 607
51.55564 627
51.57576 652
51.59587 623
51.61598 626
51.6361 610
51.65621 623
51.67632 556
51.69644 638
51.71655 659
51.73667 599
51.75678 634
51.77689 624
51.79701 586
51.81712 587
51.83723 610
51.85735 656
51.87746 618
51.89757 621
51.91769 633
51.9378 599
51.95792 633
51.97803 626
51.99814 617
52.01826 612
52.03837 687
52.05848 648
52.0786 718
52.09871 697
52.11883 644
52.13894 655
52.15905 602
52.17917 680
52.19928 657
52.21939 646
52.23951 660
52.25962 661
52.27974 614
52.29985 612
52.31996 625
52.34008 583
52.36019 624
52.3803 657
52.40042 599
52.42053 624
52.44064 600
52.46076 610
52.48087 595
52.50099 604
52.5211 643
52.54121 610
52.56133 605
52.58144 642
52.60155 586
52.62167 604
52.64178 643
52.6619 613
52.68201 602
52.70212 591
52.72224 628
52.74235 596
52.76246 619
52.78258 647
52.80269 634
52.8228 635
52.84292 648
52.86303 608
52.88315 632
52.90326 654
52.92337 602
52.94349 663
52.9636 656
52.98371 625
53.00383 614
53.02394 675
53.04406 602
53.06417 660
53.08428 677
53.1044 673
53.12451 660
53.14462 624
53.16474 632
53.18485 672
53.20497 611
53.22508 672
53.24519 682
53.26531 660
53.28542 672
53.30553 692
53.32565 707
53.34576 679
53.36587 688
53.38599 736
53.4061 656
53.42622 710
53.44633 692
53.46644 738
53.48656 655
53.50667 705
53.52678 706
53.5469 753
53.56701 740
53.58713 727
53.60724 793
53.62735 755
53.64747 775
53.66758 755
53.68769 749
53.70781 767
53.72792 748
53.74804 811
53.76815 787
53.78826 807
53.80838 894
53.82849 854
53.8486 829
53.86872 846
53.88883 843
53.90894 852
53.92906 814
53.94917 854
53.96929 833
53.9894 815
54.00951 866
54.02963 892
54.04974 803
54.06985 815
54.08997 827
54.11008 848
54.1302 830
54.15031 876
54.17042 873
54.19054 877
54.21065 839
54.23076 864
54.25088 920
54.27099 864
54.29111 821
54.31122 851
54.33133 841
54.35145 842
54.37156 796
54.39167 796
54.41179 787
54.4319 800
54.45201 747
54.47213 803
54.49224 772
54.51236 791
54.53247 788
54.55258 779
54.5727 745
54.59281 772
54.61292 778
54.63304 717
54.65315 743
54.67327 777
54.69338 855
54.71349 779
54.73361 810
54.75372 822
54.77383 747
54.79395 739
54.81406 777
54.83417 756
54.85429 756
54.8744 763
54.89452 720
54.91463 710
54.93474 690
54.95486 741
54.97497 704
54.99508 730
55.0152 715
55.03531 685
55.05543 702
55.07554 745
55.09565 672
55.11577 691
55.13588 745
55.15599 728
55.17611 720
55.19622 709
55.21634 719
55.23645 730
55.25656 684
55.27668 665
55.29679 652
55.3169 747
55.33702 666
55.35713 714
55.37724 692
55.39736 730
55.41747 677
55.43759 687
55.4577 704
55.47781 677
55.49793 677
55.51804 622
55.53815 686
55.55827 654
55.57838 662
55.5985 653
55.61861 704
55.63872 599
55.65884 626
55.67895 658
55.69906 683
55.71918 704
55.73929 638
55.75941 651
55.77952 672
55.79963 644
55.81975 626
55.83986 689
55.85997 653
55.88009 643
55.9002 660
55.92031 665
55.94043 672
55.96054 631
55.98066 682
56.00077 652
56.02088 670
56.041 658
56.06111 663
56.08122 683
56.10134 660
56.12145 684
56.14157 683
56.16168 674
56.18179 620
56.20191 608
56.22202 694
56.24213 651
56.26225 675
56.28236 671
56.30248 653
56.32259 644
56.3427 703
56.36282 680
56.38293 679
56.40304 680
56.42316 647
56.44327 651
56.46338 683
56.4835 622
56.50361 661
56.52373 661
56.54384 671
56.56395 693
56.58407 630
56.60418 675
56.62429 691
56.64441 644
56.66452 654
56.68464 617
56.70475 630
56.72486 671
56.74498 634
56.76509 650
56.7852 707
56.80532 607
56.82543 656
56.84554 655
56.86566 619
56.88577 668
56.90589 629
56.926 645
56.94611 659
56.96623 695
56.98634 621
57.00645 695
57.02657 665
57.04668 642
57.0668 648
57.08691 714
57.10702 661
57.12714 645
57.14725 658
57.16736 634
57.18748 650
57.20759 697
57.22771 656
57.24782 613
57.26793 625
57.28805 633
57.30816 652
57.32827 588
57.34839 671
57.3685 604
57.38861 652
57.40873 657
57.42884 689
57.44896 676
57.46907 675
57.48918 650
57.5093 667
57.52941 654
57.54952 686
57.56964 629
57.58975 670
57.60987 654
57.62998 659
57.65009 650
57.67021 650
57.69032 638
57.71043 626
57.73055 653
57.75066 643
57.77078 687
57.79089 612
57.811 655
57.83112 620
57.85123 634
57.87134 660
57.89146 651
57.91157 642
57.93168 704
57.9518 632
57.97191 650
57.99203 650
58.01214 649
58.03225 670
58.05237 620
58.07248 655
58.09259 634
58.11271 604
58.13282 612
58.15294 621
58.17305 612
58.19316 634
58.21328 657
58.23339 599
58.2535 674
58.27362 625
58.29373 592
58.31385 588
58.33396 620
58.35407 667
58.37419 686
58.3943 658
58.41441 678
58.43453 643
58.45464 574
58.47475 644
58.49487 597
58.51498 665
58.5351 604
58.55521 626
58.57532 611
58.59544 681
58.61555 589
58.63566 594
58.65578 586
58.67589 630
58.69601 608
58.71612 643
58.73623 597
58.75635 598
58.77646 670
58.79657 628
58.81669 569
58.8368 646
58.85691 605
58.87703 608
58.89714 615
58.91726 614
58.93737 604
58.95748 606
58.9776 641
58.99771 599
59.01782 641
59.03794 632
59.05805 651
59.07817 597
59.09828 616
59.11839 586
59.13851 623
59.15862 611
59.17873 602
59.19885 636
59.21896 610
59.23908 654
59.25919 627
59.2793 641
59.29942 631
59.31953 615
59.33964 602
59.35976 600
59.37987 635
59.39998 606
59.4201 627
59.44021 633
59.46033 636
59.48044 631
59.50055 656
59.52067 656
59.54078 648
59.56089 654
59.58101 624
59.60112 631
59.62124 652
59.64135 648
59.66146 692
59.68158 670
59.70169 673
59.7218 730
59.74192 690
59.76203 734
59.78215 751
59.80226 814
59.82237 742
59.84249 789
59.8626 743
59.88271 735
59.90283 700
59.92294 705
59.94305 760
59.96317 662
59.98328 676
60.0034 705
60.02351 692
60.04362 649
60.06374 631
60.08385 638
60.10396 650
60.12408 618
60.14419 651
60.16431 581
60.18442 657
60.20453 636
60.22465 629
60.24476 666
60.26487 622
60.28499 626
60.3051 615
60.32522 633
60.34533 600
60.36544 615
60.38556 589
60.40567 625
60.42578 630
60.4459 609
60.46601 618
60.48612 646
60.50624 613
60.52635 599
60.54647 654
60.56658 592
60.58669 637
60.60681 607
60.62692 610
60.64703 583
60.66715 598
60.68726 629
60.70738 601
60.72749 600
60.7476 594
60.76772 607
60.78783 617
60.80794 633
60.82806 588
60.84817 667
60.86828 592
60.8884 639
60.90851 633
60.92863 627
60.94874 592
60.96885 585
60.98897 615
61.00908 608
61.02919 650
61.04931 594
61.06942 616
61.08954 665
61.10965 643
61.12976 609
61.14988 588
61.16999 606
61.1901 587
61.21022 621
61.23033 603
61.25045 643
61.27056 603
61.29067 667
61.31079 632
61.3309 624
61.35101 641
61.37113 579
61.39124 607
61.41135 612
61.43147 615
61.45158 594
61.4717 671
61.49181 641
61.51192 656
61.53204 674
61.55215 652
61.57226 629
61.59238 669
61.61249 631
61.63261 680
61.65272 690
61.67283 684
61.69295 701
61.71306 668
61.73317 688
61.75329 637
61.7734 699
61.79352 708
61.81363 718
61.83374 729
61.85386 713
61.87397 691
61.89408 712
61.9142 773
61.93431 757
61.95442 719
61.97454 768
61.99465 716
62.01477 765
62.03488 761
62.05499 762
62.07511 791
62.09522 844
62.11533 797
62.13545 780
62.15556 790
62.17568 829
62.19579 813
62.2159 826
62.23602 786
62.25613 824
62.27624 783
62.29636 796
62.31647 782
62.33659 777
62.3567 813
62.37681 815
62.39693 757
62.41704 755
62.43715 785
62.45727 801
62.47738 795
62.49749 742
62.51761 749
62.53772 790
62.55784 759
62.57795 769
62.59806 778
62.61818 754
62.63829 762
62.6584 784
62.67852 776
62.69863 735
62.71875 766
62.73886 731
62.75897 766
62.77909 708
62.7992 696
62.81931 740
62.83943 689
62.85954 773
62.87965 715
62.89977 691
62.91988 704
62.94 727
62.96011 689
62.98022 711
63.00034 714
63.02045 696
63.04056 678
63.06068 658
63.08079 657
63.10091 691
63.12102 669
63.14113 749
63.16125 707
63.18136 696
63.20147 698
63.22159 722
63.2417 665
63.26182 686
63.28193 690
63.30204 674
63.32216 652
63.34227 683
63.36238 696
63.3825 724
63.40261 696
63.42272 670
63.44284 632
63.46295 659
63.48307 689
63.50318 683
63.52329 710
63.54341 745
63.56352 744
63.58363 724
63.60375 691
63.62386 745
63.64398 706
63.66409 735
63.6842 738
63.70432 754
63.72443 698
63.74454 732
63.76466 706
63.78477 734
63.80489 721
63.825 773
63.84511 764
63.86523 736
63.88534 743
63.90545 745
63.92557 721
63.94568 704
63.96579 682
63.98591 748
64.00602 746
64.02614 740
64.04625 710
64.06636 719
64.08648 737
64.10659 739
64.1267 733
64.14682 706
64.16693 741
64.18705 685
64.20716 763
64.22727 729
64.24739 678
64.2675 704
64.28761 708
64.30773 718
64.32784 703
64.34796 689
64.36807 674
64.38818 699
64.4083 673
64.42841 671
64.44852 671
64.46864 700
64.48875 707
64.50886 709
64.52898 635
64.54909 676
64.56921 667
64.58932 665
64.60943 611
64.62955 675
64.64966 633
64.66977 618
64.68989 657
64.71 673
64.73012 641
64.75023 640
64.77034 657
64.79046 647
64.81057 646
64.83068 636
64.8508 617
64.87091 684
64.89102 576
64.91114 614
64.93125 615
64.95137 633
64.97148 673
64.99159 622
65.01171 603
65.03182 651
65.05193 599
65.07205 609
65.09216 631
65.11228 653
65.13239 650
65.1525 533
65.17262 617
65.19273 598
65.21284 573
65.23296 612
65.25307 623
65.27319 579
65.2933 589
65.31341 607
65.33353 583
65.35364 617
65.37375 553
65.39387 613
65.41398 614
65.43409 601
65.45421 617
65.47432 600
65.49444 584
65.51455 590
65.53466 615
65.55478 609
65.57489 617
65.595 595
65.61512 572
65.63523 620
65.65535 627
65.67546 601
65.69557 622
65.71569 598
65.7358 577
65.75591 580
65.77603 617
65.79614 602
65.81626 621
65.83637 600
65.85648 585
65.8766 638
65.89671 585
65.91682 635
65.93694 554
65.95705 658
65.97716 608
65.99728 660
66.01739 616
66.03751 623
66.05762 667
66.07773 646
66.09785 589
66.11796 610
66.13807 641
66.15819 641
66.1783 615
66.19842 621
66.21853 613
66.23864 613
66.25876 630
66.27887 626
66.29898 633
66.3191 609
66.33921 635
66.35933 623
66.37944 623
66.39955 614
66.41967 649
66.43978 623
66.45989 583
66.48001 613
66.50012 654
66.52023 610
66.54035 598
66.56046 603
66.58058 585
66.60069 626
66.6208 573
66.64092 607
66.66103 613
66.68114 607
66.70126 590
66.72137 548
66.74149 611
66.7616 604
66.78171 598
66.80183 631
66.82194 621
66.84205 632
66.86217 619
66.88228 606
66.90239 638
66.92251 614
66.94262 583
66.96274 580
66.98285 571
67.00296 597
67.02308 625
67.04319 613
67.0633 624
67.08342 605
67.10353 622
67.12365 629
67.14376 615
67.16387 545
67.18399 599
67.2041 568
67.22421 555
67.24433 647
67.26444 586
67.28456 607
67.30467 611
67.32478 591
67.3449 587
67.36501 640
67.38512 616
67.40524 650
67.42535 605
67.44546 614
67.46558 640
67.48569 616
67.50581 639
67.52592 668
67.54603 693
67.56615 711
67.58626 680
67.60637 658
67.62649 685
67.6466 671
67.66672 681
67.68683 652
67.70694 626
67.72706 642
67.74717 642
67.76728 659
67.7874 662
67.80751 665
67.82763 659
67.84774 671
67.86785 656
67.88797 669
67.90808 669
67.92819 671
67.94831 699
67.96842 731
67.98853 736
68.00865 691
68.02876 732
68.04888 738
68.06899 664
68.0891 675
68.10922 713
68.12933 736
68.14944 680
68.16956 744
68.18967 719
68.20979 697
68.2299 659
68.25001 674
68.27013 687
68.29024 620
68.31035 644
68.33047 640
68.35058 629
68.3707 609
68.39081 641
68.41092 617
68.43104 624
68.45115 611
68.47126 610
68.49138 595
68.51149 592
68.5316 586
68.55172 606
68.57183 600
68.59195 598
68.61206 613
68.63217 597
68.65229 602
68.6724 614
68.69251 621
68.71263 617
68.73274 614
68.75286 614
68.77297 640
68.79308 661
68.8132 592
68.83331 625
68.85342 601
68.87354 577
68.89365 611
68.91376 604
68.93388 600
68.95399 618
68.97411 612
68.99422 620
69.01433 608
69.03445 613
69.05456 604
69.07467 611
69.09479 617
69.1149 594
69.13502 616
69.15513 602
69.17524 564
69.19536 603
69.21547 627
69.23558 610
69.2557 629
69.27581 606
69.29593 653
69.31604 589
69.33615 596
69.35627 592
69.37638 588
69.39649 596
69.41661 617
69.43672 581
69.45683 597
69.47695 597
69.49706 595
69.51718 605
69.53729 592
69.5574 582
69.57752 611
69.59763 611
69.61774 642
69.63786 574
69.65797 616
69.67809 592
69.6982 560
69.71831 598
69.73843 589
69.75854 584
69.77865 632
69.79877 615
69.81888 616
69.839 595
69.85911 619
69.87922 621
69.89934 625
69.91945 637
69.93956 600
69.95968 591
69.97979 629
69.9999 629
70.02002 652
70.04013 630
70.06025 547
70.08036 596
70.10047 619
70.12059 599
70.1407 588
70.16081 602
70.18093 585
70.20104 603
70.22116 633
70.24127 598
70.26138 631
70.2815 588
70.30161 613
70.32172 532
70.34184 629
70.36195 544
70.38207 619
70.40218 568
70.42229 581
70.44241 619
70.46252 557
70.48263 597
70.50275 595
70.52286 557
70.54297 620
70.56309 588
70.5832 608
70.60332 583
70.62343 609
70.64354 605
70.66366 630
70.68377 584
70.70388 594
70.724 563
70.74411 605
70.76423 588
70.78434 582
70.80445 562
70.82457 589
70.84468 609
70.86479 583
70.88491 557
70.90502 594
70.92513 562
70.94525 543
70.96536 615
70.98548 550
71.00559 631
71.0257 581
71.04582 592
71.06593 602
71.08604 600
71.10616 570
71.12627 592
71.14639 598
71.1665 605
71.18661 583
71.20673 563
71.22684 571
71.24695 568
71.26707 589
71.28718 597
71.3073 571
71.32741 584
71.34752 581
71.36764 643
71.38775 594
71.40786 628
71.42798 567
71.44809 619
71.4682 615
71.48832 603
71.50843 613
71.52855 579
71.54866 615
71.56877 628
71.58889 591
71.609 582
71.62911 563
71.64923 612
71.66934 615
71.68946 631
71.70957 620
71.72968 562
71.7498 595
71.76991 640
71.79002 631
71.81014 570
71.83025 647
71.85037 657
71.87048 562
71.89059 598
71.91071 611
71.93082 611
71.95093 644
71.97105 614
71.99116 647
72.01127 629
72.03139 634
72.0515 573
72.07162 599
72.09173 605
72.11184 627
72.13196 602
72.15207 591
72.17218 625
72.1923 609
72.21241 590
72.23253 591
72.25264 612
72.27275 577
72.29287 618
72.31298 580
72.33309 547
72.35321 566
72.37332 613
72.39344 597
72.41355 579
72.43366 615
72.45378 581
72.47389 595
72.494 606
72.51412 588
72.53423 580
72.55434 614
72.57446 610
72.59457 582
72.61469 571
72.6348 591
72.65491 575
72.67503 591
72.69514 587
72.71525 563
72.73537 574
72.75548 583
72.7756 577
72.79571 615
72.81582 632
72.83594 592
72.85605 578
72.87616 582
72.89628 605
72.91639 570
72.9365 588
72.95662 618
72.97673 569
72.99685 568
73.01696 584
73.03707 602
73.05719 572
73.0773 592
73.09741 544
73.11753 596
73.13764 584
73.15776 600
73.17787 604
73.19798 590
73.2181 647
73.23821 608
73.25832 603
73.27844 644
73.29855 606
73.31867 624
73.33878 617
73.35889 558
73.37901 610
73.39912 574
73.41923 597
73.43935 617
73.45946 641
73.47957 636
73.49969 597
73.5198 613
73.53992 588
73.56003 631
73.58014 635
73.60026 604
73.62037 619
73.64048 582
73.6606 599
73.68071 588
73.70083 587
73.72094 587
73.74105 609
73.76117 619
73.78128 565
73.80139 560
73.82151 598
73.84162 594
73.86174 556
73.88185 609
73.90196 532
73.92208 595
73.94219 639
73.9623 580
73.98242 591
74.00253 563
74.02264 598
74.04276 602
74.06287 587
74.08299 628
74.1031 592
74.12321 604
74.14333 579
74.16344 596
74.18355 625
74.20367 597
74.22378 583
74.2439 535
74.26401 564
74.28412 594
74.30424 618
74.32435 585
74.34446 535
74.36458 581
74.38469 607
74.40481 619
74.42492 534
74.44503 587
74.46515 593
74.48526 576
74.50537 544
74.52549 585
74.5456 612
74.56571 568
74.58583 595
74.60594 598
74.62606 615
74.64617 575
74.66628 576
74.6864 567
74.70651 636
74.72662 588
74.74674 570
74.76685 593
74.78697 587
74.80708 639
74.82719 628
74.84731 631
74.86742 552
74.88753 555
74.90765 535
74.92776 615
74.94787 599
74.96799 583
74.9881 563
75.00822 572
