3.00117 19600
3.02128 18874
3.0414 18451
3.06151 17632
3.08162 17471
3.10174 17167
3.12185 16451
3.14197 16248
3.16208 15376
3.18219 15273
3.20231 14695
3.22242 13990
3.24253 13723
3.26265 13281
3.28276 12766
3.30288 12895
3.32299 11985
3.3431 11868
3.36322 11154
3.38333 11011
3.40344 10766
3.42356 10351
3.44367 9887
3.46379 9611
3.4839 9010
3.50401 9161
3.52413 8723
3.54424 8321
3.56435 8121
3.58447 7600
3.60458 7431
3.62469 7176
3.64481 7015
3.66492 6458
3.68504 6472
3.70515 6389
3.72526 5658
3.74538 5745
3.76549 5304
3.7856 5168
3.80572 5056
3.82583 4674
3.84595 4658
3.86606 4449
3.88617 4139
3.90629 4020
3.9264 3726
3.94651 3787
3.96663 3484
3.98674 3350
4.00686 3339
4.02697 2933
4.04708 2951
4.0672 2780
4.08731 2734
4.10742 2629
4.12754 2343
4.14765 2384
4.16776 2272
4.18788 2164
4.20799 2266
4.22811 1961
4.24822 2015
4.26833 1848
4.28845 1932
4.30856 1835
4.32867 1586
4.34879 1750
4.3689 1617
4.38902 1558
4.40913 1594
4.42924 1433
4.44936 1402
4.46947 1479
4.48958 1416
4.5097 1387
4.52981 1222
4.54992 1315
4.57004 1193
4.59015 1211
4.61027 1247
4.63038 1041
4.65049 1137
4.67061 1059
4.69072 1072
4.71083 1081
4.73095 1031
4.75106 971
4.77118 950
4.79129 962
4.8114 957
4.83152 892
4.85163 924
4.87174 912
4.89186 834
4.91197 897
4.93209 793
4.9522 825
4.97231 817
4.99243 811
5.01254 847
5.03265 720
5.05277 712
5.07288 723
5.09299 750
5.11311 673
5.13322 652
5.15334 694
5.17345 683
5.19356 593
5.21368 662
5.23379 597
5.2539 554
5.27402 603
5.29413 576
5.31425 520
5.33436 543
5.35447 545
5.37459 567
5.3947 515
5.41481 513
5.43493 490
5.45504 448
5.47516 479
5.49527 414
5.51538 448
5.5355 433
5.55561 446
5.57572 387
5.59584 450
5.61595 400
5.63606 393
5.65618 391
5.67629 355
5.69641 376
5.71652 376
5.73663 352
5.75675 362
5.77686 335
5.79697 385
5.81709 356
5.8372 317
5.85732 339
5.87743 320
5.89754 361
5.91766 328
5.93777 289
5.95788 317
5.978 302
5.99811 308
6.01823 288
6.03834 304
6.05845 357
6.07857 331
6.09868 327
6.11879 316
6.13891 269
6.15902 314
6.17913 314
6.19925 284
6.21936 263
6.23948 239
6.25959 273
6.2797 286
6.29982 317
6.31993 264
6.34004 283
6.36016 276
6.38027 261
6.40039 262
6.4205 274
6.44061 272
6.46073 297
6.48084 263
6.50095 252
6.52107 261
6.54118 276
6.56129 246
6.58141 230
6.60152 278
6.62164 259
6.64175 276
6.66186 248
6.68198 248
6.70209 238
6.7222 260
6.74232 263
6.76243 254
6.78255 220
6.80266 246
6.82277 270
6.84289 256
6.863 243
6.88311 259
6.90323 268
6.92334 249
6.94346 258
6.96357 245
6.98368 247
7.0038 286
7.02391 235
7.04402 240
7.06414 245
7.08425 280
7.10436 274
7.12448 291
7.14459 233
7.16471 288
7.18482 250
7.20493 216
7.22505 259
7.24516 255
7.26527 246
7.28539 256
7.3055 292
7.32562 272
7.34573 254
7.36584 254
7.38596 235
7.40607 242
7.42618 252
7.4463 246
7.46641 239
7.48653 263
7.50664 232
7.52675 249
7.54687 241
7.56698 209
7.58709 275
7.60721 256
7.62732 236
7.64743 249
7.66755 277
7.68766 209
7.70778 237
7.72789 270
7.748 237
7.76812 241
7.78823 229
7.80834 251
7.82846 260
7.84857 254
7.86869 227
7.8888 256
7.90891 257
7.92903 229
7.94914 252
7.96925 222
7.98937 248
8.00948 289
8.0296 275
8.04971 234
8.06982 245
8.08994 247
8.11005 232
8.13016 245
8.15028 275
8.17039 241
8.1905 265
8.21062 296
8.23073 250
8.25085 259
8.27096 303
8.29107 257
8.31119 226
8.3313 276
8.35141 254
8.37153 269
8.39164 258
8.41176 240
8.43187 273
8.45198 284
8.4721 275
8.49221 255
8.51232 274
8.53244 239
8.55255 243
8.57266 262
8.59278 294
8.61289 278
8.63301 256
8.65312 247
8.67323 242
8.69335 250
8.71346 259
8.73357 272
8.75369 316
8.7738 319
8.79392 269
8.81403 268
8.83414 310
8.85426 340
8.87437 272
8.89448 263
8.9146 276
8.93471 258
8.95483 273
8.97494 249
8.99505 290
9.01517 255
9.03528 254
9.05539 264
9.07551 297
9.09562 257
9.11573 265
9.13585 252
9.15596 262
9.17608 252
9.19619 261
9.2163 258
9.23642 265
9.25653 273
9.27664 268
9.29676 253
9.31687 241
9.33699 267
9.3571 236
9.37721 255
9.39733 250
9.41744 234
9.43755 231
9.45767 278
9.47778 259
9.4979 249
9.51801 222
9.53812 222
9.55824 248
9.57835 268
9.59846 264
9.61858 242
9.63869 231
9.6588 233
9.67892 258
9.69903 245
9.71915 263
9.73926 229
9.75937 269
9.77949 251
9.7996 241
9.81971 249
9.83983 276
9.85994 244
9.88006 265
9.90017 261
9.92028 258
9.9404 282
9.96051 263
9.98062 263
10.00074 234
10.02085 271
10.04097 268
10.06108 270
10.08119 230
10.10131 245
10.12142 239
10.14153 240
10.16165 245
10.18176 230
10.20187 229
10.22199 237
10.2421 262
10.26222 265
10.28233 254
10.30244 243
10.32256 236
10.34267 236
10.36278 282
10.3829 236
10.40301 254
10.42313 244
10.44324 262
10.46335 226
10.48347 249
10.50358 232
10.52369 242
10.54381 241
10.56392 246
10.58403 247
10.60415 280
10.62426 247
10.64438 239
10.66449 229
10.6846 238
10.70472 269
10.72483 221
10.74494 271
10.76506 254
10.78517 233
10.80529 230
10.8254 233
10.84551 257
10.86563 253
10.88574 244
10.90585 283
10.92597 259
10.94608 263
10.9662 229
10.98631 259
11.00642 232
11.02654 275
11.04665 248
11.06676 252
11.08688 241
11.10699 259
11.1271 251
11.14722 254
11.16733 277
11.18745 264
11.20756 280
11.22767 281
11.24779 265
11.2679 249
11.28801 245
11.30813 252
11.32824 256
11.34836 264
11.36847 227
11.38858 272
11.4087 285
11.42881 280
11.44892 249
11.46904 273
11.48915 273
11.50927 228
11.52938 263
11.54949 221
11.56961 272
11.58972 246
11.60983 276
11.62995 255
11.65006 255
11.67017 240
11.69029 293
11.7104 261
11.73052 251
11.75063 252
11.77074 289
11.79086 272
11.81097 255
11.83108 268
11.8512 241
11.87131 264
11.89143 291
11.91154 279
11.93165 288
11.95177 266
11.97188 261
11.99199 274
12.01211 301
12.03222 284
12.05234 245
12.07245 271
12.09256 246
12.11268 309
12.13279 272
12.1529 281
12.17302 263
12.19313 290
12.21324 303
12.23336 267
12.25347 313
12.27359 295
12.2937 317
12.31381 265
12.33393 281
12.35404 267
12.37415 270
12.39427 242
12.41438 262
12.4345 270
12.45461 274
12.47472 275
12.49484 236
12.51495 289
12.53506 256
12.55518 285
12.57529 245
12.5954 249
12.61552 220
12.63563 229
12.65575 247
12.67586 235
12.69597 239
12.71609 245
12.7362 236
12.75631 195
12.77643 219
12.79654 210
12.81666 228
12.83677 215
12.85688 258
12.877 251
12.89711 204
12.91722 249
12.93734 245
12.95745 235
12.97757 259
12.99768 227
13.01779 230
13.03791 224
13.05802 215
13.07813 252
13.09825 238
13.11836 277
13.13847 255
13.15859 228
13.1787 246
13.19882 238
13.21893 240
13.23904 272
13.25916 217
13.27927 238
13.29938 238
13.3195 234
13.33961 225
13.35973 240
13.37984 264
13.39995 226
13.42007 221
13.44018 240
13.46029 238
13.48041 239
13.50052 227
13.52064 232
13.54075 279
13.56086 284
13.58098 273
13.60109 342
13.6212 319
13.64132 322
13.66143 289
13.68154 295
13.70166 247
13.72177 245
13.74189 231
13.762 245
13.78211 222
13.80223 237
13.82234 256
13.84245 233
13.86257 224
13.88268 219
13.9028 236
13.92291 220
13.94302 233
13.96314 194
13.98325 199
14.00336 240
14.02348 212
14.04359 202
14.06371 201
14.08382 191
14.10393 219
14.12405 195
14.14416 228
14.16427 232
14.18439 190
14.2045 188
14.22461 212
14.24473 227
14.26484 206
14.28496 216
14.30507 194
14.32518 210
14.3453 187
14.36541 195
14.38552 245
14.40564 243
14.42575 208
14.44587 200
14.46598 178
14.48609 236
14.50621 222
14.52632 214
14.54643 201
14.56655 192
14.58666 196
14.60677 238
14.62689 218
14.647 230
14.66712 198
14.68723 196
14.70734 206
14.72746 217
14.74757 212
14.76768 192
14.7878 210
14.80791 234
14.82803 235
14.84814 224
14.86825 245
14.88837 243
14.90848 251
14.92859 253
14.94871 251
14.96882 228
14.98894 264
15.00905 255
15.02916 189
15.04928 228
15.06939 264
15.0895 226
15.10962 242
15.12973 211
15.14984 232
15.16996 236
15.19007 227
15.21019 218
15.2303 224
15.25041 225
15.27053 236
15.29064 197
15.31075 205
15.33087 221
15.35098 190
15.3711 177
15.39121 216
15.41132 201
15.43144 219
15.45155 208
15.47166 197
15.49178 183
15.51189 217
15.53201 197
15.55212 188
15.57223 194
15.59235 191
15.61246 168
15.63257 196
15.65269 209
15.6728 211
15.69291 226
15.71303 189
15.73314 202
15.75326 183
15.77337 187
15.79348 192
15.8136 161
15.83371 202
15.85382 182
15.87394 211
15.89405 208
15.91417 175
15.93428 196
15.95439 191
15.97451 208
15.99462 197
16.01473 211
16.03485 183
16.05496 166
16.07508 190
16.09519 191
16.1153 189
16.13542 189
16.15553 207
16.17564 185
16.19576 201
16.21587 190
16.23598 204
16.2561 211
16.27621 175
16.29633 206
16.31644 223
16.33655 197
16.35667 204
16.37678 188
16.39689 187
16.41701 190
16.43712 190
16.45724 180
16.47735 183
16.49746 193
16.51758 167
16.53769 195
16.5578 192
16.57792 214
16.59803 198
16.61814 199
16.63826 180
16.65837 193
16.67849 184
16.6986 169
16.71871 164
16.73883 208
16.75894 192
16.77905 198
16.79917 193
16.81928 204
16.8394 206
16.85951 172
16.87962 199
16.89974 182
16.91985 198
16.93996 201
16.96008 181
16.98019 180
17.00031 192
17.02042 180
17.04053 212
17.06065 187
17.08076 186
17.10087 182
17.12099 199
17.1411 152
17.16121 181
17.18133 161
17.20144 174
17.22156 210
17.24167 204
17.26178 196
17.2819 207
17.30201 203
17.32212 201
17.34224 166
17.36235 198
17.38247 183
17.40258 173
17.42269 194
17.44281 173
17.46292 176
17.48303 183
17.50315 193
17.52326 203
17.54338 177
17.56349 222
17.5836 234
17.60372 200
17.62383 198
17.64394 196
17.66406 213
17.68417 177
17.70428 188
17.7244 178
17.74451 173
17.76463 175
17.78474 184
17.80485 191
17.82497 174
17.84508 192
17.86519 197
17.88531 202
17.90542 170
17.92554 184
17.94565 221
17.96576 184
17.98588 181
18.00599 215
18.0261 210
18.04622 192
18.06633 174
18.08645 182
18.10656 177
18.12667 195
18.14679 183
18.1669 200
18.18701 190
18.20713 212
18.22724 181
18.24735 186
18.26747 210
18.28758 205
18.3077 193
18.32781 231
18.34792 167
18.36804 199
18.38815 177
18.40826 194
18.42838 189
18.44849 174
18.46861 190
18.48872 185
18.50883 184
18.52895 172
18.54906 181
18.56917 194
18.58929 183
18.6094 226
18.62951 193
18.64963 198
18.66974 189
18.68986 182
18.70997 179
18.73008 211
18.7502 196
18.77031 212
18.79042 209
18.81054 204
18.83065 185
18.85077 216
18.87088 198
18.89099 187
18.91111 198
18.93122 198
18.95133 205
18.97145 171
18.99156 206
19.01168 226
19.03179 195
19.0519 214
19.07202 191
19.09213 210
19.11224 200
19.13236 219
19.15247 228
19.17258 213
19.1927 201
19.21281 237
19.23293 227
19.25304 216
19.27315 238
19.29327 231
19.31338 223
19.33349 218
19.35361 236
19.37372 207
19.39384 265
19.41395 221
19.43406 202
19.45418 239
19.47429 273
19.4944 213
19.51452 251
19.53463 230
19.55475 228
19.57486 249
19.59497 292
19.61509 315
19.6352 266
19.65531 288
19.67543 310
19.69554 306
19.71565 340
19.73577 331
19.75588 359
19.776 366
19.79611 364
19.81622 343
19.83634 343
19.85645 381
19.87656 409
19.89668 384
19.91679 404
19.93691 368
19.95702 362
19.97713 355
19.99725 363
20.01736 424
20.03747 335
20.05759 330
20.0777 346
20.09782 379
20.11793 385
20.13804 359
20.15816 363
20.17827 359
20.19838 354
20.2185 351
20.23861 342
20.25872 376
20.27884 344
20.29895 370
20.31907 367
20.33918 349
20.35929 399
20.37941 396
20.39952 401
20.41963 409
20.43975 406
20.45986 461
20.47998 382
20.50009 412
20.5202 433
20.54032 441
20.56043 447
20.58054 492
20.60066 488
20.62077 510
20.64088 619
20.661 761
20.68111 915
20.70123 1207
20.72134 1640
20.74145 2179
20.76157 2875
20.78168 3654
20.80179 4372
20.82191 4986
20.84202 4934
20.86214 4614
20.88225 4064
20.90236 3379
20.92248 2662
20.94259 2103
20.9627 1666
20.98282 1379
21.00293 1156
21.02305 1044
21.04316 867
21.06327 774
21.08339 704
21.1035 609
21.12361 555
21.14373 516
21.16384 442
21.18395 412
21.20407 388
21.22418 384
21.2443 417
21.26441 364
21.28452 325
21.30464 336
21.32475 308
21.34486 350
21.36498 334
21.38509 325
21.40521 328
21.42532 299
21.44543 306
21.46555 326
21.48566 325
21.50577 325
21.52589 297
21.546 307
21.56612 320
21.58623 313
21.60634 305
21.62646 305
21.64657 301
21.66668 299
21.6868 307
21.70691 285
21.72702 264
21.74714 286
21.76725 293
21.78737 272
21.80748 265
21.82759 304
21.84771 296
21.86782 306
21.88793 303
21.90805 292
21.92816 337
21.94828 299
21.96839 346
21.9885 337
22.00862 367
22.02873 375
22.04884 354
22.06896 344
22.08907 337
22.10919 345
22.1293 334
22.14941 283
22.16953 299
22.18964 303
22.20975 352
22.22987 312
22.24998 321
22.27009 356
22.29021 429
22.31032 364
22.33044 365
22.35055 351
22.37066 360
22.39078 369
22.41089 322
22.431 318
22.45112 343
22.47123 329
22.49135 297
22.51146 322
22.53157 308
22.55169 296
22.5718 276
22.59191 291
22.61203 310
22.63214 300
22.65225 306
22.67237 278
22.69248 284
22.7126 273
22.73271 280
22.75282 252
22.77294 271
22.79305 269
22.81316 274
22.83328 290
22.85339 280
22.87351 303
22.89362 271
22.91373 330
22.93385 296
22.95396 309
22.97407 328
22.99419 334
23.0143 312
23.03442 368
23.05453 333
23.07464 378
23.09476 369
23.11487 396
23.13498 430
23.1551 446
23.17521 472
23.19532 470
23.21544 447
23.23555 426
23.25567 415
23.27578 408
23.29589 353
23.31601 402
23.33612 349
23.35623 386
23.37635 341
23.39646 334
23.41658 355
23.43669 358
23.4568 357
23.47692 368
23.49703 339
23.51714 390
23.53726 374
23.55737 345
23.57749 341
23.5976 358
23.61771 325
23.63783 338
23.65794 351
23.67805 374
23.69817 356
23.71828 329
23.73839 408
23.75851 388
23.77862 396
23.79874 362
23.81885 387
23.83896 407
23.85908 419
23.87919 413
23.8993 450
23.91942 469
23.93953 476
23.95965 489
23.97976 501
23.99987 515
24.01999 490
24.0401 447
24.06021 404
24.08033 376
24.10044 379
24.12056 325
24.14067 333
24.16078 325
24.1809 300
24.20101 395
24.22112 342
24.24124 372
24.26135 382
24.28146 399
24.30158 400
24.32169 369
24.34181 364
24.36192 333
24.38203 339
24.40215 362
24.42226 310
24.44237 337
24.46249 346
24.4826 315
24.50272 320
24.52283 316
24.54294 320
24.56306 319
24.58317 318
24.60328 353
24.6234 323
24.64351 347
24.66362 356
24.68374 379
24.70385 378
24.72397 378
24.74408 332
24.76419 330
24.78431 358
24.80442 332
24.82453 341
24.84465 333
24.86476 359
24.88488 351
24.90499 368
24.9251 353
24.94522 333
24.96533 310
24.98544 338
25.00556 310
25.02567 360
25.04579 307
25.0659 340
25.08601 336
25.10613 288
25.12624 333
25.14635 306
25.16647 301
25.18658 303
25.20669 294
25.22681 338
25.24692 336
25.26704 341
25.28715 370
25.30726 342
25.32738 390
25.34749 353
25.3676 366
25.38772 346
25.40783 395
25.42795 427
25.44806 437
25.46817 491
25.48829 549
25.5084 573
25.52851 568
25.54863 631
25.56874 664
25.58886 658
25.60897 664
25.62908 670
25.6492 687
25.66931 612
25.68942 579
25.70954 572
25.72965 525
25.74976 488
25.76988 446
25.78999 450
25.81011 450
25.83022 425
25.85033 461
25.87045 487
25.89056 433
25.91067 426
25.93079 429
25.9509 475
25.97102 467
25.99113 444
26.01124 494
26.03136 499
26.05147 508
26.07158 459
26.0917 531
26.11181 523
26.13193 563
26.15204 642
26.17215 616
26.19227 681
26.21238 738
26.23249 813
26.25261 800
26.27272 936
26.29283 989
26.31295 1084
26.33306 1254
26.35318 1375
26.37329 1699
26.3934 1988
26.41352 2370
26.43363 2955
26.45374 3859
26.47386 5180
26.49397 7202
26.51409 9956
26.5342 13279
26.55431 17084
26.57443 20003
26.59454 22238
26.61465 22324
26.63477 21042
26.65488 18507
26.67499 15288
26.69511 12148
26.71522 8968
26.73534 6432
26.75545 4413
26.77556 3032
26.79568 2280
26.81579 1799
26.8359 1347
26.85602 1251
26.87613 1158
26.89625 1045
26.91636 1048
26.93647 1049
26.95659 1056
26.9767 1024
26.99681 1064
27.01693 1100
27.03704 969
27.05716 1053
27.07727 954
27.09738 909
27.1175 836
27.13761 815
27.15772 704
27.17784 749
27.19795 702
27.21806 714
27.23818 704
27.25829 743
27.27841 703
27.29852 853
27.31863 941
27.33875 979
27.35886 1136
27.37897 1262
27.39909 1248
27.4192 1415
27.43932 1365
27.45943 1389
27.47954 1295
27.49966 1240
27.51977 1124
27.53988 949
27.56 857
27.58011 656
27.60023 630
27.62034 606
27.64045 549
27.66057 471
27.68068 459
27.70079 445
27.72091 445
27.74102 437
27.76113 464
27.78125 424
27.80136 448
27.82148 429
27.84159 487
27.8617 439
27.88182 450
27.90193 449
27.92204 430
27.94216 409
27.96227 422
27.98239 395
28.0025 379
28.02261 354
28.04273 366
28.06284 350
28.08295 346
28.10307 324
28.12318 340
28.1433 383
28.16341 310
28.18352 331
28.20364 305
28.22375 300
28.24386 298
28.26398 297
28.28409 282
28.3042 294
28.32432 308
28.34443 287
28.36455 255
28.38466 283
28.40477 290
28.42489 230
28.445 297
28.46511 259
28.48523 297
28.50534 309
28.52546 244
28.54557 251
28.56568 253
28.5858 268
28.60591 260
28.62602 252
28.64614 264
28.66625 244
28.68636 257
28.70648 254
28.72659 234
28.74671 270
28.76682 243
28.78693 250
28.80705 257
28.82716 248
28.84727 266
28.86739 245
28.8875 258
28.90762 249
28.92773 237
28.94784 273
28.96796 270
28.98807 259
29.00818 281
29.0283 225
29.04841 256
29.06853 261
29.08864 236
29.10875 273
29.12887 296
29.14898 256
29.16909 275
29.18921 266
29.20932 242
29.22943 282
29.24955 294
29.26966 286
29.28978 309
29.30989 292
29.33 341
29.35012 343
29.37023 331
29.39034 364
29.41046 378
29.43057 377
29.45069 418
29.4708 351
29.49091 363
29.51103 393
29.53114 343
29.55125 319
29.57137 347
29.59148 311
29.6116 306
29.63171 349
29.65182 314
29.67194 334
29.69205 317
29.71216 299
29.73228 313
29.75239 317
29.7725 288
29.79262 297
29.81273 294
29.83285 325
29.85296 329
29.87307 306
29.89319 315
29.9133 333
29.93341 339
29.95353 315
29.97364 340
29.99376 358
30.01387 359
30.03398 383
30.0541 417
30.07421 405
30.09432 452
30.11444 439
30.13455 454
30.15467 455
30.17478 437
30.19489 429
30.21501 417
30.23512 369
30.25523 408
30.27535 379
30.29546 354
30.31557 347
30.33569 333
30.3558 292
30.37592 285
30.39603 274
30.41614 299
30.43626 295
30.45637 294
30.47648 299
30.4966 299
30.51671 282
30.53683 299
30.55694 301
30.57705 305
30.59717 315
30.61728 326
30.63739 383
30.65751 385
30.67762 413
30.69773 428
30.71785 421
30.73796 439
30.75808 468
30.77819 460
30.7983 425
30.81842 453
30.83853 381
30.85864 403
30.87876 409
30.89887 329
30.91899 344
30.9391 268
30.95921 284
30.97933 301
30.99944 286
31.01955 281
31.03967 263
31.05978 253
31.0799 259
31.10001 229
31.12012 240
31.14024 219
31.16035 230
31.18046 235
31.20058 239
31.22069 233
31.2408 255
31.26092 223
31.28103 231
31.30115 247
31.32126 220
31.34137 242
31.36149 209
31.3816 217
31.40171 255
31.42183 242
31.44194 219
31.46206 232
31.48217 191
31.50228 201
31.5224 174
31.54251 228
31.56262 245
31.58274 204
31.60285 197
31.62297 210
31.64308 211
31.66319 213
31.68331 207
31.70342 195
31.72353 197
31.74365 231
31.76376 211
31.78387 227
31.80399 219
31.8241 175
31.84422 200
31.86433 215
31.88444 215
31.90456 242
31.92467 250
31.94478 219
31.9649 228
31.98501 249
32.00513 215
32.02524 230
32.04535 239
32.06547 237
32.08558 260
32.10569 269
32.12581 262
32.14592 294
32.16604 262
32.18615 289
32.20626 265
32.22638 263
32.24649 302
32.2666 274
32.28672 284
32.30683 289
32.32694 319
32.34706 284
32.36717 300
32.38729 312
32.4074 326
32.42751 328
32.44763 309
32.46774 303
32.48785 286
32.50797 288
32.52808 263
32.5482 248
32.56831 223
32.58842 253
32.60854 238
32.62865 237
32.64876 231
32.66888 213
32.68899 219
32.7091 216
32.72922 227
32.74933 242
32.76945 233
32.78956 195
32.80967 223
32.82979 215
32.8499 230
32.87001 216
32.89013 222
32.91024 242
32.93036 189
32.95047 187
32.97058 207
32.9907 230
33.01081 238
33.03092 199
33.05104 250
33.07115 218
33.09127 226
33.11138 241
33.13149 220
33.15161 211
33.17172 227
33.19183 219
33.21195 234
33.23206 202
33.25217 221
33.27229 211
33.2924 222
33.31252 211
33.33263 230
33.35274 222
33.37286 196
33.39297 200
33.41308 209
33.4332 224
33.45331 213
33.47343 223
33.49354 203
33.51365 231
33.53377 232
33.55388 219
33.57399 195
33.59411 213
33.61422 204
33.63434 185
33.65445 190
33.67456 181
33.69468 194
33.71479 221
33.7349 197
33.75502 197
33.77513 225
33.79524 185
33.81536 181
33.83547 223
33.85559 190
33.8757 210
33.89581 206
33.91593 220
33.93604 224
33.95615 229
33.97627 206
33.99638 237
34.0165 221
34.03661 274
34.05672 266
34.07684 244
34.09695 284
34.11706 290
34.13718 306
34.15729 324
34.17741 309
34.19752 357
34.21763 319
34.23775 365
34.25786 299
34.27797 300
34.29809 322
34.3182 300
34.33831 290
34.35843 318
34.37854 274
34.39866 309
34.41877 325
34.43888 260
34.459 320
34.47911 262
34.49922 331
34.51934 286
34.53945 310
34.55957 333
34.57968 319
34.59979 295
34.61991 323
34.64002 302
34.66013 324
34.68025 291
34.70036 312
34.72047 331
34.74059 326
34.7607 351
34.78082 293
34.80093 369
34.82104 380
34.84116 368
34.86127 354
34.88138 376
34.9015 377
34.92161 377
34.94173 394
34.96184 381
34.98195 362
35.00207 379
35.02218 406
35.04229 398
35.06241 325
35.08252 342
35.10264 379
35.12275 366
35.14286 362
35.16298 374
35.18309 326
35.2032 358
35.22332 365
35.24343 342
35.26354 369
35.28366 325
35.30377 347
35.32389 338
35.344 355
35.36411 361
35.38423 329
35.40434 333
35.42445 335
35.44457 319
35.46468 392
35.4848 334
35.50491 393
35.52502 351
35.54514 316
35.56525 356
35.58536 339
35.60548 364
35.62559 320
35.64571 304
35.66582 288
35.68593 285
35.70605 287
35.72616 319
35.74627 292
35.76639 306
35.7865 286
35.80661 295
35.82673 299
35.84684 293
35.86696 295
35.88707 303
35.90718 300
35.9273 277
35.94741 285
35.96752 283
35.98764 276
36.00775 250
36.02787 256
36.04798 287
36.06809 279
36.08821 216
36.10832 263
36.12843 277
36.14855 264
36.16866 281
36.18878 303
36.20889 314
36.229 303
36.24912 342
36.26923 342
36.28934 371
36.30946 441
36.32957 418
36.34968 551
36.3698 663
36.38991 828
36.41003 950
36.43014 1192
36.45025 1382
36.47037 1555
36.49048 1664
36.51059 1657
36.53071 1476
36.55082 1392
36.57094 1333
36.59105 1095
36.61116 932
36.63128 829
36.65139 621
36.6715 481
36.69162 424
36.71173 390
36.73184 364
36.75196 348
36.77207 304
36.79219 327
36.8123 292
36.83241 304
36.85253 336
36.87264 309
36.89275 297
36.91287 302
36.93298 318
36.9531 335
36.97321 276
36.99332 331
37.01344 291
37.03355 266
37.05366 324
37.07378 264
37.09389 256
37.11401 289
37.13412 288
37.15423 259
37.17435 245
37.19446 235
37.21457 249
37.23469 252
37.2548 260
37.27491 248
37.29503 269
37.31514 250
37.33526 251
37.35537 259
37.37548 243
37.3956 249
37.41571 250
37.43582 266
37.45594 241
37.47605 243
37.49617 252
37.51628 287
37.53639 257
37.55651 232
37.57662 253
37.59673 270
37.61685 249
37.63696 266
37.65708 266
37.67719 251
37.6973 254
37.71742 257
37.73753 207
37.75764 230
37.77776 228
37.79787 218
37.81798 236
37.8381 268
37.85821 234
37.87833 248
37.89844 233
37.91855 223
37.93867 234
37.95878 226
37.97889 255
37.99901 209
38.01912 250
38.03924 234
38.05935 228
38.07946 241
38.09958 240
38.11969 222
38.1398 230
38.15992 231
38.18003 234
38.20015 247
38.22026 238
38.24037 231
38.26049 251
38.2806 249
38.30071 244
38.32083 227
38.34094 272
38.36105 247
38.38117 268
38.40128 267
38.4214 256
38.44151 263
38.46162 253
38.48174 246
38.50185 281
38.52196 273
38.54208 305
38.56219 303
38.58231 267
38.60242 266
38.62253 300
38.64265 256
38.66276 243
38.68287 229
38.70299 256
38.7231 250
38.74321 254
38.76333 264
38.78344 250
38.80356 249
38.82367 217
38.84378 255
38.8639 250
38.88401 241
38.90412 215
38.92424 215
38.94435 218
38.96447 213
38.98458 256
39.00469 230
39.02481 257
39.04492 279
39.06503 246
39.08515 276
39.10526 281
39.12538 277
39.14549 288
39.1656 288
39.18572 319
39.20583 352
39.22594 364
39.24606 402
39.26617 504
39.28628 551
39.3064 732
39.32651 870
39.34663 1030
39.36674 1241
39.38685 1353
39.40697 1470
39.42708 1659
39.44719 1392
39.46731 1316
39.48742 1210
39.50754 1117
39.52765 914
39.54776 808
39.56788 668
39.58799 548
39.6081 430
39.62822 346
39.64833 312
39.66845 286
39.68856 288
39.70867 264
39.72879 249
39.7489 264
39.76901 237
39.78913 263
39.80924 238
39.82935 225
39.84947 228
39.86958 222
39.8897 243
39.90981 230
39.92992 235
39.95004 230
39.97015 238
39.99026 275
40.01038 273
40.03049 281
40.05061 301
40.07072 301
40.09083 345
40.11095 405
40.13106 444
40.15117 574
40.17129 640
40.1914 736
40.21152 802
40.23163 851
40.25174 831
40.27186 795
40.29197 748
40.31208 682
40.3322 670
40.35231 617
40.37242 518
40.39254 453
40.41265 367
40.43277 291
40.45288 308
40.47299 261
40.49311 257
40.51322 248
40.53333 244
40.55345 247
40.57356 228
40.59368 236
40.61379 221
40.6339 236
40.65402 238
40.67413 222
40.69424 183
40.71436 213
40.73447 233
40.75458 214
40.7747 200
40.79481 219
40.81493 203
40.83504 222
40.85515 205
40.87527 214
40.89538 233
40.91549 220
40.93561 199
40.95572 211
40.97584 222
40.99595 235
41.01606 191
41.03618 206
41.05629 241
41.0764 229
41.09652 225
41.11663 226
41.13675 220
41.15686 191
41.17697 267
41.19709 225
41.2172 226
41.23731 207
41.25743 210
41.27754 214
41.29765 216
41.31777 237
41.33788 250
41.358 210
41.37811 198
41.39822 212
41.41834 226
41.43845 205
41.45856 229
41.47868 231
41.49879 236
41.51891 252
41.53902 240
41.55913 270
41.57925 256
41.59936 289
41.61947 275
41.63959 310
41.6597 366
41.67982 331
41.69993 377
41.72004 381
41.74016 417
41.76027 377
41.78038 397
41.8005 385
41.82061 366
41.84072 348
41.86084 368
41.88095 288
41.90107 291
41.92118 295
41.94129 286
41.96141 287
41.98152 256
42.00163 218
42.02175 253
42.04186 245
42.06198 224
42.08209 265
42.1022 273
42.12232 248
42.14243 246
42.16254 298
42.18266 275
42.20277 329
42.22289 370
42.243 399
42.26311 466
42.28323 547
42.30334 640
42.32345 785
42.34357 914
42.36368 1073
42.38379 1084
42.40391 1110
42.42402 1096
42.44414 1014
42.46425 932
42.48436 861
42.50448 773
42.52459 632
42.5447 578
42.56482 489
42.58493 423
42.60505 401
42.62516 350
42.64527 296
42.66539 281
42.6855 273
42.70561 276
42.72573 267
42.74584 267
42.76595 244
42.78607 244
42.80618 239
42.8263 234
42.84641 215
42.86652 221
42.88664 219
42.90675 202
42.92686 208
42.94698 223
42.96709 208
42.98721 207
43.00732 208
43.02743 211
43.04755 236
43.06766 230
43.08777 242
43.10789 222
43.128 216
43.14812 204
43.16823 212
43.18834 216
43.20846 212
43.22857 213
43.24868 188
43.2688 181
43.28891 207
43.30902 179
43.32914 214
43.34925 188
43.36937 199
43.38948 227
43.40959 188
43.42971 189
43.44982 214
43.46993 232
43.49005 261
43.51016 202
43.53028 201
43.55039 213
43.5705 226
43.59062 214
43.61073 239
43.63084 204
43.65096 216
43.67107 196
43.69119 178
43.7113 220
43.73141 201
43.75153 191
43.77164 186
43.79175 206
43.81187 189
43.83198 189
43.85209 164
43.87221 191
43.89232 204
43.91244 234
43.93255 207
43.95266 209
43.97278 203
43.99289 194
44.013 222
44.03312 192
44.05323 218
44.07335 235
44.09346 216
44.11357 192
44.13369 200
44.1538 217
44.17391 228
44.19403 201
44.21414 202
44.23426 204
44.25437 185
44.27448 215
44.2946 191
44.31471 222
44.33482 200
44.35494 184
44.37505 196
44.39516 225
44.41528 202
44.43539 189
44.45551 168
44.47562 200
44.49573 214
44.51585 207
44.53596 193
44.55607 187
44.57619 172
44.5963 199
44.61642 204
44.63653 187
44.65664 214
44.67676 205
44.69687 200
44.71698 209
44.7371 195
44.75721 197
44.77732 176
44.79744 201
44.81755 209
44.83767 199
44.85778 216
44.87789 198
44.89801 195
44.91812 210
44.93823 185
44.95835 198
44.97846 194
44.99858 203
45.01869 205
45.0388 195
45.05892 204
45.07903 208
45.09914 198
45.11926 200
45.13937 196
45.15949 220
45.1796 203
45.19971 199
45.21983 224
45.23994 208
45.26005 242
45.28017 237
45.30028 212
45.32039 242
45.34051 233
45.36062 232
45.38074 255
45.40085 267
45.42096 253
45.44108 245
45.46119 288
45.4813 261
45.50142 297
45.52153 314
45.54165 313
45.56176 346
45.58187 389
45.60199 428
45.6221 470
45.64221 559
45.66233 607
45.68244 707
45.70256 801
45.72267 829
45.74278 803
45.7629 818
45.78301 797
45.80312 675
45.82324 674
45.84335 594
45.86346 572
45.88358 465
45.90369 428
45.92381 376
45.94392 332
45.96403 283
45.98415 260
46.00426 262
46.02437 228
46.04449 251
46.0646 244
46.08472 218
46.10483 207
46.12494 229
46.14506 242
46.16517 219
46.18528 212
46.2054 223
46.22551 221
46.24563 221
46.26574 203
46.28585 184
46.30597 196
46.32608 229
46.34619 175
46.36631 201
46.38642 209
46.40653 204
46.42665 175
46.44676 210
46.46688 193
46.48699 200
46.5071 168
46.52722 182
46.54733 196
46.56744 178
46.58756 178
46.60767 192
46.62779 174
46.6479 189
46.66801 202
46.68813 179
46.70824 204
46.72835 190
46.74847 201
46.76858 192
46.78869 181
46.80881 217
46.82892 192
46.84904 192
46.86915 191
46.88926 204
46.90938 247
46.92949 196
46.9496 191
46.96972 222
46.98983 226
47.00995 223
47.03006 231
47.05017 242
47.07029 220
47.0904 226
47.11051 237
47.13063 211
47.15074 250
47.17086 223
47.19097 222
47.21108 230
47.2312 217
47.25131 205
47.27142 211
47.29154 215
47.31165 189
47.33176 233
47.35188 233
47.37199 215
47.39211 212
47.41222 210
47.43233 214
47.45245 214
47.47256 214
47.49267 222
47.51279 201
47.5329 212
47.55302 194
47.57313 195
47.59324 217
47.61336 202
47.63347 227
47.65358 162
47.6737 205
47.69381 181
47.71393 182
47.73404 195
47.75415 194
47.77427 202
47.79438 190
47.81449 184
47.83461 203
47.85472 186
47.87483 198
47.89495 184
47.91506 173
47.93518 197
47.95529 186
47.9754 162
47.99552 175
48.01563 204
48.03574 190
48.05586 202
48.07597 203
48.09609 189
48.1162 191
48.13631 177
48.15643 180
48.17654 186
48.19665 198
48.21677 192
48.23688 154
48.257 172
48.27711 200
48.29722 187
48.31734 195
48.33745 184
48.35756 181
48.37768 213
48.39779 200
48.4179 179
48.43802 192
48.45813 200
48.47825 201
48.49836 180
48.51847 191
48.53859 185
48.5587 203
48.57881 218
48.59893 201
48.61904 198
48.63916 224
48.65927 212
48.67938 212
48.6995 217
48.71961 219
48.73972 240
48.75984 225
48.77995 253
48.80006 226
48.82018 226
48.84029 223
48.86041 222
48.88052 235
48.90063 255
48.92075 232
48.94086 228
48.96097 259
48.98109 244
49.0012 263
49.02132 232
49.04143 225
49.06154 227
49.08166 222
49.10177 224
49.12188 247
49.142 237
49.16211 200
49.18223 211
49.20234 222
49.22245 190
49.24257 206
49.26268 224
49.28279 207
49.30291 203
49.32302 202
49.34313 191
49.36325 184
49.38336 219
49.40348 218
49.42359 213
49.4437 226
49.46382 213
49.48393 209
49.50404 223
49.52416 210
49.54427 225
49.56439 228
49.5845 221
49.60461 227
49.62473 230
49.64484 229
49.66495 250
49.68507 266
49.70518 265
49.7253 292
49.74541 273
49.76552 320
49.78564 305
49.80575 358
49.82586 388
49.84598 415
49.86609 458
49.8862 574
49.90632 645
49.92643 725
49.94655 846
49.96666 1082
49.98677 1276
50.00689 1583
50.027 1963
50.04711 2195
50.06723 2344
50.08734 2373
50.10746 2370
50.12757 2147
50.14768 1853
50.1678 1715
50.18791 1533
50.20802 1445
50.22814 1310
50.24825 1113
50.26837 1004
50.28848 785
50.30859 561
50.32871 517
50.34882 433
50.36893 425
50.38905 378
50.40916 407
50.42927 458
50.44939 410
50.4695 469
50.48962 442
50.50973 477
50.52984 441
50.54996 450
50.57007 432
50.59018 402
50.6103 395
50.63041 400
50.65053 381
50.67064 352
50.69075 374
50.71087 347
50.73098 301
50.75109 299
50.77121 313
50.79132 294
50.81143 306
50.83155 262
50.85166 300
50.87178 295
50.89189 249
50.912 253
50.93212 269
50.95223 231
50.97234 221
50.99246 221
51.01257 234
51.03269 213
51.0528 209
51.07291 232
51.09303 211
51.11314 213
51.13325 200
51.15337 185
51.17348 165
51.1936 199
51.21371 200
51.23382 210
51.25394 173
51.27405 176
51.29416 200
51.31428 192
51.33439 193
51.3545 182
51.37462 159
51.39473 175
51.41485 178
51.43496 196
51.45507 172
51.47519 180
51.4953 167
51.51541 188
51.53553 169
51.55564 171
51.57576 188
51.59587 174
51.61598 188
51.6361 166
51.65621 187
51.67632 158
51.69644 183
51.71655 175
51.73667 175
51.75678 166
51.77689 187
51.79701 190
51.81712 185
51.83723 162
51.85735 159
51.87746 167
51.89757 153
51.91769 192
51.9378 158
51.95792 181
51.97803 183
51.99814 175
52.01826 167
52.03837 191
52.05848 189
52.0786 164
52.09871 164
52.11883 188
52.13894 196
52.15905 189
52.17917 152
52.19928 179
52.21939 173
52.23951 181
52.25962 186
52.27974 156
52.29985 171
52.31996 180
52.34008 168
52.36019 183
52.3803 178
52.40042 159
52.42053 176
52.44064 191
52.46076 183
52.48087 177
52.50099 198
52.5211 163
52.54121 162
52.56133 207
52.58144 147
52.60155 199
52.62167 207
52.64178 187
52.6619 187
52.68201 186
52.70212 178
52.72224 182
52.74235 206
52.76246 184
52.78258 201
52.80269 178
52.8228 181
52.84292 159
52.86303 210
52.88315 193
52.90326 188
52.92337 194
52.94349 169
52.9636 185
52.98371 186
53.00383 202
53.02394 199
53.04406 189
53.06417 169
53.08428 183
53.1044 200
53.12451 202
53.14462 204
53.16474 198
53.18485 163
53.20497 190
53.22508 179
53.24519 178
53.26531 183
53.28542 193
53.30553 190
53.32565 185
53.34576 188
53.36587 209
53.38599 177
53.4061 180
53.42622 218
53.44633 201
53.46644 216
53.48656 188
53.50667 203
53.52678 186
53.5469 176
53.56701 195
53.58713 196
53.60724 199
53.62735 197
53.64747 201
53.66758 185
53.68769 211
53.70781 194
53.72792 211
53.74804 187
53.76815 192
53.78826 217
53.80838 174
53.82849 217
53.8486 220
53.86872 214
53.88883 222
53.90894 207
53.92906 197
53.94917 217
53.96929 205
53.9894 203
54.00951 233
54.02963 192
54.04974 202
54.06985 206
54.08997 205
54.11008 200
54.1302 217
54.15031 227
54.17042 221
54.19054 214
54.21065 228
54.23076 213
54.25088 238
54.27099 241
54.29111 211
54.31122 228
54.33133 239
54.35145 248
54.37156 238
54.39167 214
54.41179 229
54.4319 199
54.45201 205
54.47213 238
54.49224 235
54.51236 249
54.53247 221
54.55258 240
54.5727 257
54.59281 283
54.61292 330
54.63304 320
54.65315 367
54.67327 423
54.69338 471
54.71349 534
54.73361 635
54.75372 666
54.77383 753
54.79395 787
54.81406 881
54.83417 833
54.85429 775
54.8744 687
54.89452 669
54.91463 624
54.93474 606
54.95486 571
54.97497 495
54.99508 494
55.0152 434
55.03531 391
55.05543 332
55.07554 309
55.09565 297
55.11577 313
55.13588 334
55.15599 354
55.17611 357
55.19622 428
55.21634 461
55.23645 455
55.25656 522
55.27668 509
55.29679 456
55.3169 431
55.33702 408
55.35713 392
55.37724 376
55.39736 367
55.41747 347
55.43759 348
55.4577 334
55.47781 281
55.49793 294
55.51804 304
55.53815 266
55.55827 236
55.57838 238
55.5985 210
55.61861 254
55.63872 211
55.65884 213
55.67895 199
55.69906 207
55.71918 210
55.73929 215
55.75941 226
55.77952 200
55.79963 189
55.81975 196
55.83986 197
55.85997 194
55.88009 185
55.9002 194
55.92031 188
55.94043 193
55.96054 195
55.98066 187
56.00077 174
56.02088 173
56.041 213
56.06111 185
56.08122 190
56.10134 185
56.12145 199
56.14157 180
56.16168 183
56.18179 191
56.20191 204
56.22202 192
56.24213 194
56.26225 188
56.28236 196
56.30248 195
56.32259 176
56.3427 201
56.36282 186
56.38293 221
56.40304 174
56.42316 208
56.44327 178
56.46338 189
56.4835 193
56.50361 182
56.52373 197
56.54384 198
56.56395 200
56.58407 181
56.60418 195
56.62429 244
56.64441 209
56.66452 197
56.68464 217
56.70475 225
56.72486 204
56.74498 204
56.76509 195
56.7852 218
56.80532 203
56.82543 209
56.84554 195
56.86566 198
56.88577 204
56.90589 192
56.926 177
56.94611 204
56.96623 204
56.98634 197
57.00645 194
57.02657 201
57.04668 177
57.0668 191
57.08691 190
57.10702 228
57.12714 205
57.14725 222
57.16736 228
57.18748 211
57.20759 204
57.22771 198
57.24782 188
57.26793 185
57.28805 208
57.30816 218
57.32827 208
57.34839 226
57.3685 228
57.38861 205
57.40873 195
57.42884 205
57.44896 217
57.46907 194
57.48918 190
57.5093 203
57.52941 173
57.54952 189
57.56964 189
57.58975 179
57.60987 158
57.62998 190
57.65009 195
57.67021 190
57.69032 175
57.71043 203
57.73055 167
57.75066 192
57.77078 206
57.79089 158
57.811 177
57.83112 174
57.85123 172
57.87134 199
57.89146 192
57.91157 177
57.93168 171
57.9518 211
57.97191 187
57.99203 183
58.01214 219
58.03225 158
58.05237 175
58.07248 183
58.09259 194
58.11271 202
58.13282 196
58.15294 176
58.17305 177
58.19316 184
58.21328 182
58.23339 196
58.2535 168
58.27362 194
58.29373 195
58.31385 194
58.33396 169
58.35407 193
58.37419 214
58.3943 199
58.41441 186
58.43453 212
58.45464 206
58.47475 192
58.49487 199
58.51498 212
58.5351 206
58.55521 222
58.57532 226
58.59544 209
58.61555 209
58.63566 223
58.65578 195
58.67589 206
58.69601 210
58.71612 193
58.73623 201
58.75635 188
58.77646 209
58.79657 201
58.81669 198
58.8368 189
58.85691 186
58.87703 184
58.89714 191
58.91726 213
58.93737 192
58.95748 174
58.9776 206
58.99771 179
59.01782 169
59.03794 180
59.05805 155
59.07817 202
59.09828 182
59.11839 182
59.13851 163
59.15862 203
59.17873 173
59.19885 193
59.21896 194
59.23908 215
59.25919 199
59.2793 200
59.29942 205
59.31953 207
59.33964 217
59.35976 218
59.37987 219
59.39998 214
59.4201 208
59.44021 235
59.46033 199
59.48044 222
59.50055 243
59.52067 259
59.54078 236
59.56089 281
59.58101 258
59.60112 288
59.62124 311
59.64135 359
59.66146 351
59.68158 422
59.70169 446
59.7218 489
59.74192 611
59.76203 712
59.78215 814
59.80226 1016
59.82237 1187
59.84249 1308
59.8626 1525
59.88271 1580
59.90283 1625
59.92294 1485
59.94305 1423
59.96317 1218
59.98328 1063
60.0034 963
60.02351 1022
60.04362 991
60.06374 924
60.08385 844
60.10396 731
60.12408 573
60.14419 499
60.16431 433
60.18442 311
60.20453 307
60.22465 253
60.24476 280
60.26487 256
60.28499 256
60.3051 226
60.32522 225
60.34533 227
60.36544 184
60.38556 199
60.40567 240
60.42578 225
60.4459 205
60.46601 204
60.48612 211
60.50624 200
60.52635 200
60.54647 215
60.56658 192
60.58669 211
60.60681 187
60.62692 177
60.64703 216
60.66715 189
60.68726 224
60.70738 208
60.72749 211
60.7476 205
60.76772 176
60.78783 218
60.80794 221
60.82806 226
60.84817 202
60.86828 209
60.8884 198
60.90851 172
60.92863 198
60.94874 202
60.96885 190
60.98897 233
61.00908 216
61.02919 223
61.04931 226
61.06942 226
61.08954 217
61.10965 225
61.12976 228
61.14988 229
61.16999 235
61.1901 223
61.21022 258
61.23033 226
61.25045 216
61.27056 230
61.29067 252
61.31079 214
61.3309 203
61.35101 210
61.37113 217
61.39124 215
61.41135 204
61.43147 210
61.45158 213
61.4717 214
61.49181 209
61.51192 205
61.53204 229
61.55215 218
61.57226 234
61.59238 221
61.61249 205
61.63261 200
61.65272 206
61.67283 215
61.69295 226
61.71306 207
61.73317 237
61.75329 199
61.7734 233
61.79352 230
61.81363 191
61.83374 204
61.85386 211
61.87397 220
61.89408 231
61.9142 206
61.93431 236
61.95442 203
61.97454 229
61.99465 220
62.01477 213
62.03488 235
62.05499 231
62.07511 242
62.09522 220
62.11533 220
62.13545 214
62.15556 226
62.17568 243
62.19579 253
62.2159 228
62.23602 214
62.25613 214
62.27624 226
62.29636 233
62.31647 224
62.33659 214
62.3567 210
62.37681 241
62.39693 209
62.41704 200
62.43715 242
62.45727 219
62.47738 237
62.49749 224
62.51761 184
62.53772 207
62.55784 219
62.57795 211
62.59806 218
62.61818 218
62.63829 212
62.6584 206
62.67852 203
62.69863 205
62.71875 210
62.73886 222
62.75897 217
62.77909 237
62.7992 195
62.81931 214
62.83943 197
62.85954 206
62.87965 208
62.89977 210
62.91988 202
62.94 204
62.96011 213
62.98022 213
63.00034 184
63.02045 226
63.04056 218
63.06068 237
63.08079 183
63.10091 232
63.12102 222
63.14113 205
63.16125 220
63.18136 200
63.20147 212
63.22159 202
63.2417 210
63.26182 200
63.28193 193
63.30204 181
63.32216 186
63.34227 181
63.36238 196
63.3825 187
63.40261 191
63.42272 176
63.44284 221
63.46295 182
63.48307 224
63.50318 219
63.52329 209
63.54341 212
63.56352 205
63.58363 168
63.60375 217
63.62386 232
63.64398 224
63.66409 205
63.6842 217
63.70432 231
63.72443 256
63.74454 250
63.76466 244
63.78477 263
63.80489 271
63.825 314
63.84511 347
63.86523 348
63.88534 377
63.90545 425
63.92557 446
63.94568 464
63.96579 519
63.98591 470
64.00602 485
64.02614 446
64.04625 427
64.06636 397
64.08648 321
64.10659 351
64.1267 357
64.14682 334
64.16693 309
64.18705 334
64.20716 268
64.22727 275
64.24739 226
64.2675 230
64.28761 223
64.30773 213
64.32784 206
64.34796 187
64.36807 206
64.38818 195
64.4083 190
64.42841 212
64.44852 183
64.46864 202
64.48875 185
64.50886 193
64.52898 198
64.54909 171
64.56921 181
64.58932 179
64.60943 199
64.62955 174
64.64966 179
64.66977 162
64.68989 171
64.71 186
64.73012 191
64.75023 190
64.77034 181
64.79046 186
64.81057 207
64.83068 183
64.8508 171
64.87091 199
64.89102 202
64.91114 195
64.93125 166
64.95137 179
64.97148 214
64.99159 158
65.01171 195
65.03182 193
65.05193 194
65.07205 210
65.09216 202
65.11228 196
65.13239 197
65.1525 214
65.17262 198
65.19273 216
65.21284 206
65.23296 251
65.25307 216
65.27319 211
65.2933 223
65.31341 230
65.33353 213
65.35364 209
65.37375 197
65.39387 198
65.41398 185
65.43409 181
65.45421 194
65.47432 203
65.49444 183
65.51455 211
65.53466 196
65.55478 192
65.57489 194
65.595 225
65.61512 230
65.63523 246
65.65535 239
65.67546 251
65.69557 254
65.71569 272
65.7358 233
65.75591 235
65.77603 228
65.79614 248
65.81626 218
65.83637 212
65.85648 162
65.8766 229
65.89671 219
65.91682 219
65.93694 213
65.95705 214
65.97716 191
65.99728 199
66.01739 198
66.03751 174
66.05762 195
66.07773 207
66.09785 211
66.11796 210
66.13807 202
66.15819 186
66.1783 202
66.19842 203
66.21853 188
66.23864 207
66.25876 220
66.27887 207
66.29898 217
66.3191 203
66.33921 194
66.35933 207
66.37944 212
66.39955 209
66.41967 195
66.43978 212
66.45989 191
66.48001 220
66.50012 190
66.52023 194
66.54035 202
66.56046 174
66.58058 199
66.60069 195
66.6208 179
66.64092 191
66.66103 173
66.68114 196
66.70126 186
66.72137 187
66.74149 192
66.7616 189
66.78171 160
66.80183 187
66.82194 181
66.84205 184
66.86217 186
66.88228 206
66.90239 194
66.92251 212
66.94262 185
66.96274 182
66.98285 181
67.00296 216
67.02308 183
67.04319 190
67.0633 182
67.08342 206
67.10353 220
67.12365 218
67.14376 214
67.16387 185
67.18399 188
67.2041 215
67.22421 203
67.24433 194
67.26444 211
67.28456 212
67.30467 251
67.32478 237
67.3449 251
67.36501 271
67.38512 252
67.40524 280
67.42535 276
67.44546 296
67.46558 344
67.48569 372
67.50581 433
67.52592 440
67.54603 518
67.56615 591
67.58626 666
67.60637 764
67.62649 811
67.6466 945
67.66672 1093
67.68683 1052
67.70694 1017
67.72706 911
67.74717 814
67.76728 767
67.7874 703
67.80751 704
67.82763 729
67.84774 729
67.86785 827
67.88797 813
67.90808 793
67.92819 766
67.94831 801
67.96842 880
67.98853 950
68.00865 1055
68.02876 1150
68.04888 1306
68.06899 1387
68.0891 1446
68.10922 1384
68.12933 1322
68.14944 1193
68.16956 1223
68.18967 1259
68.20979 1279
68.2299 1314
68.25001 1293
68.27013 1294
68.29024 1221
68.31035 1016
68.33047 982
68.35058 759
68.3707 639
68.39081 654
68.41092 631
68.43104 557
68.45115 534
68.47126 478
68.49138 478
68.51149 395
68.5316 352
68.55172 302
68.57183 275
68.59195 261
68.61206 230
68.63217 245
68.65229 244
68.6724 211
68.69251 220
68.71263 212
68.73274 207
68.75286 243
68.77297 208
68.79308 192
68.8132 202
68.83331 205
68.85342 193
68.87354 182
68.89365 160
68.91376 175
68.93388 175
68.95399 178
68.97411 207
68.99422 182
69.01433 200
69.03445 181
69.05456 168
69.07467 197
69.09479 188
69.1149 186
69.13502 185
69.15513 186
69.17524 172
69.19536 203
69.21547 170
69.23558 197
69.2557 199
69.27581 182
69.29593 157
69.31604 184
69.33615 186
69.35627 173
69.37638 174
69.39649 193
69.41661 182
69.43672 158
69.45683 180
69.47695 186
69.49706 184
69.51718 185
69.53729 167
69.5574 187
69.57752 186
69.59763 183
69.61774 191
69.63786 168
69.65797 196
69.67809 165
69.6982 151
69.71831 182
69.73843 171
69.75854 178
69.77865 171
69.79877 176
69.81888 157
69.839 177
69.85911 176
69.87922 183
69.89934 180
69.91945 176
69.93956 171
69.95968 176
69.97979 178
69.9999 180
70.02002 197
70.04013 186
70.06025 191
70.08036 192
70.10047 174
70.12059 178
70.1407 189
70.16081 199
70.18093 157
70.20104 194
70.22116 169
70.24127 179
70.26138 178
70.2815 200
70.30161 174
70.32172 153
70.34184 160
70.36195 197
70.38207 166
70.40218 169
70.42229 175
70.44241 162
70.46252 186
70.48263 157
70.50275 178
70.52286 173
70.54297 193
70.56309 181
70.5832 159
70.60332 176
70.62343 160
70.64354 177
70.66366 175
70.68377 188
70.70388 190
70.724 169
70.74411 182
70.76423 175
70.78434 187
70.80445 164
70.82457 197
70.84468 177
70.86479 189
70.88491 167
70.90502 203
70.92513 172
70.94525 174
70.96536 157
70.98548 164
71.00559 171
71.0257 217
71.04582 164
71.06593 154
71.08604 148
71.10616 155
71.12627 184
71.14639 173
71.1665 160
71.18661 177
71.20673 178
71.22684 169
71.24695 176
71.26707 186
71.28718 185
71.3073 175
71.32741 188
71.34752 170
71.36764 182
71.38775 172
71.40786 173
71.42798 214
71.44809 168
71.4682 179
71.48832 188
71.50843 177
71.52855 192
71.54866 188
71.56877 174
71.58889 173
71.609 196
71.62911 170
71.64923 198
71.66934 190
71.68946 164
71.70957 185
71.72968 202
71.7498 191
71.76991 207
71.79002 179
71.81014 175
71.83025 183
71.85037 184
71.87048 189
71.89059 193
71.91071 182
71.93082 171
71.95093 218
71.97105 187
71.99116 200
72.01127 210
72.03139 189
72.0515 191
72.07162 196
72.09173 187
72.11184 179
72.13196 193
72.15207 192
72.17218 190
72.1923 219
72.21241 193
72.23253 224
72.25264 192
72.27275 212
72.29287 168
72.31298 184
72.33309 198
72.35321 191
72.37332 194
72.39344 193
72.41355 186
72.43366 197
72.45378 167
72.47389 193
72.494 176
72.51412 190
72.53423 178
72.55434 204
72.57446 184
72.59457 183
72.61469 191
72.6348 176
72.65491 184
72.67503 196
72.69514 183
72.71525 187
72.73537 201
72.75548 182
72.7756 184
72.79571 219
72.81582 180
72.83594 196
72.85605 200
72.87616 204
72.89628 204
72.91639 207
72.9365 195
72.95662 198
72.97673 194
72.99685 203
73.01696 203
73.03707 209
73.05719 223
73.0773 215
73.09741 221
73.11753 237
73.13764 241
73.15776 266
73.17787 260
73.19798 265
73.2181 263
73.23821 281
73.25832 303
73.27844 311
73.29855 355
73.31867 371
73.33878 406
73.35889 413
73.37901 496
73.39912 490
73.41923 483
73.43935 454
73.45946 433
73.47957 366
73.49969 342
73.5198 371
73.53992 325
73.56003 328
73.58014 370
73.60026 340
73.62037 333
73.64048 320
73.6606 309
73.68071 292
73.70083 258
73.72094 245
73.74105 234
73.76117 217
73.78128 220
73.80139 194
73.82151 214
73.84162 192
73.86174 196
73.88185 194
73.90196 191
73.92208 190
73.94219 182
73.9623 191
73.98242 199
74.00253 195
74.02264 206
74.04276 184
74.06287 149
74.08299 163
74.1031 179
74.12321 181
74.14333 187
74.16344 188
74.18355 182
74.20367 172
74.22378 179
74.2439 179
74.26401 184
74.28412 209
74.30424 167
74.32435 218
74.34446 191
74.36458 183
74.38469 190
74.40481 177
74.42492 198
74.44503 172
74.46515 184
74.48526 183
74.50537 180
74.52549 190
74.5456 189
74.56571 209
74.58583 190
74.60594 165
74.62606 173
74.64617 196
74.66628 172
74.6864 182
74.70651 214
74.72662 222
74.74674 202
74.76685 195
74.78697 171
74.80708 167
74.82719 168
74.84731 180
74.86742 198
74.88753 212
74.90765 198
74.92776 172
74.94787 186
74.96799 191
74.9881 203
75.00822 211
