3.00117 25994.5803980805
3.02128 25001.8541951323
3.0414 24349
3.06151 23886.6399429791
3.08162 22975.2192694983
3.10174 22523.552217103
3.12185 22158.9015984177
3.14197 21242.8291903667
3.16208 20972.5681586552
3.18219 20129.2476066308
3.20231 19967.7752580112
3.22242 19082.16899675
3.24253 18616.6135707845
3.26265 18207.1299782254
3.28276 17383.851989301
3.30288 17304.2404971299
3.32299 16683.3503519278
3.3431 16108
3.36322 15523.3471693745
3.38333 14895.2800583741
3.40344 14625.7875435241
3.42356 14345.4730488053
3.44367 13584.0804790966
3.46379 13905.1827443214
3.4839 12821
3.50401 12737.9625565091
3.52413 12188.7627774526
3.54424 11546.6390445869
3.56435 11463.5505134785
3.58447 10482.7668100365
3.60458 10616.8614734749
3.62469 10302.2897779261
3.64481 9821.9037946677
3.66492 9695.54048456494
3.68504 9028.32463556365
3.70515 9039.64115394646
3.72526 8559.97244837129
3.74538 8280.17567180438
3.76549 7990.25501971112
3.7856 7460
3.80572 7452.83175707362
3.82583 7041.48228754008
3.84595 6913.8532621421
3.86606 6679.00458519611
3.88617 6130.40343706109
3.90629 6102.07194150768
3.9264 5756
3.94651 5688.99937718629
3.96663 5555.51899789284
3.98674 5149.34787987478
4.00686 4938.43226714942
4.02697 4689.2726687325
4.04708 4625.98884289866
4.0672 4537
4.08731 4125.88212748128
4.10742 4111.99192609728
4.12754 3907.23269674946
4.14765 3603.92844444699
4.16776 3743.44085347406
4.18788 3201.34544446842
4.20799 3218.98148720171
4.22811 3065.8971707452
4.24822 2975.05775526933
4.26833 2997.65757693891
4.28845 2614.44829467614
4.30856 2637.92376881653
4.32867 2538.24028096648
4.34879 2453.97319410948
4.3689 2517
4.38902 2227.74134471395
4.40913 2127.98759611253
4.42924 2123.96316503082
4.44936 2108.94954326698
4.46947 2095.25309620781
4.48958 1850.12229074857
4.5097 1898
4.52981 1881.97080324152
4.54992 1849.01840911371
4.57004 1866.87995681553
4.59015 1730.33028161922
4.61027 1687.91705920073
4.63038 1732.08367922981
4.65049 1573.03158912544
4.67061 1636.02473271531
4.69072 1569.85588587833
4.71083 1445.93970385105
4.73095 1465.98752261874
4.75106 1416.05829735463
4.77118 1403.06613920402
4.79129 1289.04256615008
4.8114 1277
4.83152 1306.0139414045
4.85163 1310.01830698337
4.87174 1287.76665945549
4.89186 1143.08552755468
4.91197 1231.81728192471
4.93209 1265.04015338473
4.9522 1133
4.97231 1113.00479282208
4.99243 1096.92475239117
5.01254 1064.08963103336
5.03265 1137.02487624307
5.05277 1041.11057221567
5.07288 1030.01481555857
5.09299 980.024521421015
5.11311 964.006991535201
5.13322 991.025966795409
5.15334 994.949138027921
5.17345 948.875269907687
5.19356 927.94965514148
5.21368 965.002792519256
5.23379 921.017345206282
5.2539 886
5.27402 795.035964778877
5.29413 907.020561494432
5.31425 798.800541921334
5.33436 815.931746332949
5.35447 800.079995705149
5.37459 763.987903400546
5.3947 821
5.41481 774.96614613938
5.43493 738.006164546926
5.45504 754.983511383446
5.47516 727.007599860175
5.49527 741.027204844556
5.51538 692.027848440061
5.5355 710
5.55561 713.973049286972
5.57572 638.966776351011
5.59584 648.985966538406
5.61595 606.092061887897
5.63606 611.911900440037
5.65618 649.011312343843
5.67629 594.026134039619
5.69641 583.01168795652
5.71652 602.985595766957
5.73663 569.992951803152
5.75675 595.023874061742
5.77686 566.090418271387
5.79697 549.944339207903
5.81709 585.023446631107
5.8372 504
5.85732 604.05007317853
5.87743 548.880035844287
5.89754 518.026665826149
5.91766 539.006418743942
5.93777 515.014387795012
5.95788 509.048071607975
5.978 435
5.99811 457.019764574014
6.01823 489.059576121345
6.03834 519.979286009785
6.05845 481.054825704814
6.07857 497.951186934855
6.09868 518.994894213901
6.11879 502.020460665314
6.13891 472.009197576042
6.15902 501.967388028503
6.17913 438.015491398262
6.19925 517.091577892895
6.21936 479.069098974608
6.23948 479.011863266184
6.25959 446.008230167134
6.2797 462
6.29982 456.941557534973
6.31993 405.054999696735
6.34004 502.093452677199
6.36016 463.100411364345
6.38027 457.965781468928
6.40039 481.992252594672
6.4205 482
6.44061 466.99613302751
6.46073 457.958603869822
6.48084 441.08102334056
6.50095 497.045501168694
6.52107 416.063538654597
6.54118 451.947072656065
6.56129 466.010057409555
6.58141 452.013835903106
6.60152 498.005018633771
6.62164 459.951832541743
6.64175 460.952916510543
6.66186 414.074947542056
6.68198 413.971192562655
6.70209 440.998653931349
6.7222 422
6.74232 430.027002287139
6.76243 457.018158201799
6.78255 447.945337712289
6.80266 437.962741450238
6.82277 455.047418334389
6.84289 406.992154254724
6.863 464
6.88311 396.986088441172
6.90323 438.057418814241
6.92334 444.029469378392
6.94346 465.033463617146
6.96357 427.993537234659
6.98368 472.97698809743
7.0038 426
7.02391 348.006297301374
7.04402 442.099769505447
7.06414 471.916272894693
7.08425 407.090783775141
7.10436 418.941280629581
7.12448 434.000601975176
7.14459 427.001492817774
7.16471 440.015226285608
7.18482 465.997572496007
7.20493 440.973149490839
7.22505 429.91650749625
7.24516 385.030702118944
7.26527 403.973639251661
7.28539 416.979685101581
7.3055 463
7.32562 408.95167209889
7.34573 417.090522691107
7.36584 458.912466982836
7.38596 387.943250953962
7.40607 479.014336555987
7.42618 371.039999699092
7.4463 432
7.46641 376.971411938034
7.48653 386.094328617043
7.50664 456.083232563274
7.52675 442.155008743606
7.54687 401.93209900493
7.56698 482.000253126884
7.58709 397.029348243387
7.60721 421.026429928155
7.62732 442.984410382149
7.64743 407.955825811406
7.66755 410.087752109718
7.68766 437.048767054091
7.70778 388.003386670516
7.72789 429.991594723625
7.748 398
7.76812 397.020459524475
7.78823 418.01770806034
7.80834 425.03168999254
7.82846 444.989557480643
7.84857 433.019535880312
7.86869 424.007913340377
7.8888 415
7.90891 450.001480043366
7.92903 418.966117220773
7.94914 423.014036179537
7.96925 428.939503048257
7.98937 456.008281687982
8.00948 421.025732623551
8.0296 420
8.04971 419.008064949836
8.06982 445.009235579987
8.08994 451.084896454392
8.11005 491.903605845776
8.13016 408.032627910867
8.15028 451.018073056327
8.17039 371.010782765655
8.1905 433
8.21062 414.951105509185
8.23073 391.029839271602
8.25085 436.080660432034
8.27096 430.065135043358
8.29107 410.965075556036
8.31119 449.00209609827
8.3313 409
8.35141 436.00749007783
8.37153 420.982334429266
8.39164 435.058674298406
8.41176 447.055889588193
8.43187 399.03765021832
8.45198 416.961470564494
8.4721 443
8.49221 418.979248821818
8.51232 398.029507490703
8.53244 449.026294708624
8.55255 419.048329718488
8.57266 430.979093915799
8.59278 439.959743942209
8.61289 477.017141019284
8.63301 417.01426402777
8.65312 519.045830082327
8.67323 483.981560553996
8.69335 513.971685003756
8.71346 465.992259133015
8.73357 530.92991707411
8.75369 521.013145403584
8.7738 521
8.79392 534.953215097786
8.81403 474.026977961954
8.83414 573.177984535766
8.85426 591.049959411855
8.87437 565.020120131914
8.89448 571.978218119623
8.9146 580
8.93471 518.968033457714
8.95483 473.952583257805
8.97494 458.016817244022
8.99505 472.019924898203
9.01517 446.018471713211
9.03528 458.981710054586
9.05539 464.003559015635
9.07551 436.972264011629
9.09562 393.01710588896
9.11573 456.066089919567
9.13585 441.88129162698
9.15596 408.988456149309
9.17608 433.999137460927
9.19619 408.006045234305
9.2163 424
9.23642 429.004331807334
9.25653 428.969974060176
9.27664 407.019989450791
9.29676 435.004338505004
9.31687 412.975406020808
9.33699 465.985628236019
9.3571 439
9.37721 401.997607146311
9.39733 406.966027661408
9.41744 365.975403402211
9.43755 401.85868441627
9.45767 434.016623271706
9.47778 394.035732999299
9.4979 389
9.51801 419.015898294145
9.53812 429.975508606349
9.55824 399.012852148573
9.57835 433.02034622404
9.59846 403.053825115768
9.61858 404.983950938356
9.63869 420.991818339253
9.6588 422
9.67892 387.005256900783
9.69903 425.02837207267
9.71915 416.013641140342
9.73926 432.039487777124
9.75937 389.010608298141
9.77949 419.994076222963
9.7996 406
9.81971 436.998570220367
9.83983 390.934178489548
9.85994 376.999014603643
9.88006 378.979931004992
9.90017 397.965551020415
9.92028 408.015316697393
9.9404 380
9.96051 397.021824196123
9.98062 426.980943699167
10.00074 385.99924261854
10.02085 436.874954253239
10.04097 438.067049680666
10.06108 388.017174099173
10.08119 410.983703274796
10.10131 422.995619326833
10.12142 406.990500463146
10.14153 392.935795608219
10.16165 344.988915333492
10.18176 389.897275182635
10.20187 410.010926459377
10.22199 397.999076189194
10.2421 416
10.26222 408.959832610619
10.28233 365.990382112286
10.30244 406.114488785459
10.32256 435.033643910182
10.34267 391.052596020946
10.36278 389.977404045585
10.3829 413
10.40301 403.989123286465
10.42313 388.003279357961
10.44324 401.00834943888
10.46335 401.943158930185
10.48347 429.017579395794
10.50358 384.029283413025
10.52369 403.972958246223
10.54381 442.99446238869
10.56392 393.960244468147
10.58403 389.013608907736
10.60415 402.068557473745
10.62426 423.034660742659
10.64438 379.026859208425
10.66449 388.988410774431
10.6846 403
10.70472 403.998611801923
10.72483 399.986257307833
10.74494 386.974502358335
10.76506 395.904054612633
10.78517 449.986848092465
10.80529 403.030850975462
10.8254 382
10.84551 426.996343338154
10.86563 384.000045653292
10.88574 427.015262601753
10.90585 378.120099765937
10.92597 372.964706118342
10.94608 396.989560290695
10.9662 404
10.98631 435.998310900064
11.00642 398.971150947798
11.02654 394.99299570357
11.04665 385.989788383304
11.06676 398.007746007673
11.08688 380.006303685941
11.10699 393.991457573178
11.1271 401
11.14722 392.977350569844
11.16733 373.009548694574
11.18745 402.060622392108
11.20756 409.986286589842
11.22767 423.97934836123
11.24779 424.010053888995
11.2679 410
11.28801 447.995983341059
11.30813 383.894159886919
11.32824 371.121596697126
11.34836 438.023559366386
11.36847 374.007960468373
11.38858 436.970529146262
11.4087 404
11.42881 424.011401780381
11.44892 417.973232135557
11.46904 396.001393022907
11.48915 410.992336842118
11.50927 403.983649522116
11.52938 433.978154381993
11.54949 440.993888455867
11.56961 465.010887859721
11.58972 457.951321893374
11.60983 400.972690403159
11.62995 424.050871717781
11.65006 419.01903500559
11.67017 417.00487203069
11.69029 412.99769109802
11.7104 431
11.73052 436.960757198039
11.75063 392.020867678774
11.77074 451.051658926573
11.79086 423.049086755973
11.81097 435.958605998591
11.83108 448.011254503413
11.8512 438
11.87131 481.007824578048
11.89143 463.987123540383
11.91154 481.037803505096
11.93165 481.040584261212
11.95177 462.016031015792
11.97188 461.997807556311
11.99199 460.002028072335
12.01211 469.017476593402
12.03222 512.01949070083
12.05234 513.036671821642
12.07245 547.029658645557
12.09256 519.095308133731
12.11268 500.958382413453
12.13279 555.005819120552
12.1529 507
12.17302 602.059703256522
12.19313 600.023011426549
12.21324 652.056911686668
12.23336 635.049195788558
12.25347 644.926540490936
12.27359 694.99623368441
12.2937 665
12.31381 688.024404827916
12.33393 740.071914696287
12.35404 763.972247413259
12.37415 744.944042278595
12.39427 783.028502631316
12.41438 700.080218657108
12.4345 672
12.45461 658.961946569922
12.47472 580.021338560557
12.49484 670.047889079283
12.51495 576.320440427364
12.53506 519.916968081438
12.55518 594.982118031101
12.57529 530.041438298596
12.5954 477
12.61552 452.004302821261
12.63563 477.032228199302
12.65575 478.975559438754
12.67586 467.024235461265
12.69597 444.069022175463
12.71609 413.980941283401
12.7362 483
12.75631 422.974810959938
12.77643 421.010184001739
12.79654 418.016438636591
12.81666 422.073077477045
12.83677 370.007914543235
12.85688 419.948767754589
12.877 428
12.89711 386.978104099483
12.91722 369.025598059894
12.93734 410.020302955722
12.95745 379.090340439785
12.97757 379.932616180502
12.99768 419.024410002946
13.01779 353.013767370923
13.03791 380.008990616723
13.05802 357.970357637789
13.07813 359.057040960375
13.09825 414.112223685493
13.11836 422.059367499055
13.13847 378.050644127984
13.15859 372.990835342055
13.1787 389
13.19882 372.005953037407
13.21893 385.96119388187
13.23904 345.033449806786
13.25916 410.933793951376
13.27927 381.063168551803
13.29938 366.996007807392
13.3195 376
13.33961 381.998123931697
13.35973 372.99237079751
13.37984 370.982596058344
13.39995 362.974888938192
13.42007 375.029291528707
13.44018 339.003356324901
13.46029 374.983625492428
13.48041 379.997380603347
13.50052 379.00018165061
13.52064 375.985113212686
13.54075 361.946945659954
13.56086 346.988271828835
13.58098 369.978237533656
13.60109 376.003167790091
13.6212 365
13.64132 363.012789238083
13.66143 375.989512691911
13.68154 347.940433394227
13.70166 335.986296862816
13.72177 358.946971353407
13.74189 392.989096604198
13.762 384
13.78211 337.001387016083
13.80223 382.046418963626
13.82234 378.997045080178
13.84245 383.054904213346
13.86257 343.026897380278
13.88268 354.990085401321
13.9028 349
13.92291 363.014549878607
13.94302 381.985851484456
13.96314 350.983159366952
13.98325 368.977514462795
14.00336 345.090744845487
14.02348 320.970681580878
14.04359 376.988325735167
14.06371 354.98944999258
14.08382 354.995488277521
14.10393 345.013897505078
14.12405 366.000970981455
14.14416 350.985997071365
14.16427 384.957558255009
14.18439 382.013762288193
14.2045 352
14.22461 361.015651372775
14.24473 379.962362442597
14.26484 330.95845935973
14.28496 351.951054311566
14.30507 349.035130087935
14.32518 331.990391526679
14.3453 363
14.36541 365.992692074465
14.38552 344.978101362479
14.40564 336.025459329567
14.42575 358.968497152995
14.44587 360.983019566224
14.46598 382.986312709904
14.48609 382.001662092138
14.50621 374.987860194847
14.52632 349.001925391155
14.54643 378.038543127528
14.56655 379.96919187788
14.58666 357.077560147003
14.60677 328.976774856309
14.62689 380.975950281656
14.647 393
14.66712 359.95668355283
14.68723 331.007671247318
14.70734 360.046205906085
14.72746 355.05161728681
14.74757 330.014131316869
14.76768 339.981434042139
14.7878 344
14.80791 327.017516148481
14.82803 389.025965116069
14.84814 349.927735855006
14.86825 348.980288615111
14.88837 349.992806618935
14.90848 359.994260586545
14.92859 359.000429317475
14.94871 359.998845250956
14.96882 348.980216625323
14.98894 337.025657578397
15.00905 360.00373613311
15.02916 342.007775590816
15.04928 350.015740440419
15.06939 319.000850915279
15.0895 355
15.10962 357.968504786954
15.12973 321.985050346121
15.14984 339.029764593673
15.16996 340.985860869983
15.19007 352.006693731899
15.21019 341.993049823446
15.2303 362
15.25041 316.998434034737
15.27053 360.041999287369
15.29064 347.966670834696
15.31075 346.007705538713
15.33087 339.992126326492
15.35098 353.994118213879
15.3711 336
15.39121 300.999293666267
15.41132 339.055378813075
15.43144 377.013377078746
15.45155 365.011407198426
15.47166 373.994832283987
15.49178 366.999700103926
15.51189 380.991463902163
15.53201 376.980614297491
15.55212 335.000694540894
15.57223 369.018486857068
15.59235 344.948997090618
15.61246 347.986637142944
15.63257 347.000386691877
15.65269 343.010291818454
15.6728 328
15.69291 371.000222999727
15.71303 329.9672717812
15.73314 349.043015839069
15.75326 344.044639098638
15.77337 330.978999535146
15.79348 355.001036212897
15.8136 336
15.83371 354.990042904058
15.85382 310.999717402682
15.87394 354.036543727812
15.89405 332.025285677263
15.91417 346.002677673291
15.93428 327.994574982921
15.95439 352.999576538899
15.97451 326.994150693193
15.99462 343.016212879576
16.01473 349.018709872446
16.03485 366.006451160483
16.05496 358.986088063294
16.07508 370.018490992457
16.09519 323.020149547719
16.1153 318
16.13542 346.011122202079
16.15553 347.026328179045
16.17564 378.028640958671
16.19576 353.113157940748
16.21587 311.977219091974
16.23598 355.995634586092
16.2561 318
16.27621 351.019308639428
16.29633 358.973407833939
16.31644 339.998786715412
16.33655 348.031487226088
16.35667 315.035243788037
16.37678 320.974137814498
16.39689 352.983309021758
16.41701 373.999399288678
16.43712 354.97734244182
16.45724 346.01663117153
16.47735 348.928793128317
16.49746 310.003362150163
16.51758 347.967544425429
16.53769 350.004355222037
16.5578 344
16.57792 339.013992037443
16.59803 356.988616267148
16.61814 339.032453449037
16.63826 372.02532994243
16.65837 320.033663026896
16.67849 344.989253541773
16.6986 334
16.71871 316.991028117801
16.73883 310.032949267671
16.75894 342.009709424067
16.77905 323.006394514689
16.79917 346.969659132578
16.81928 340.027529797796
16.8394 319
16.85951 346.009886684244
16.87962 334.962160102766
16.89974 306.024438979017
16.91985 350.90906626038
16.93996 353.035365674008
16.96008 348.971501264134
16.98019 385.000471783213
17.00031 347.98621364405
17.02042 358.030789680318
17.04053 372.968501415374
17.06065 335.968412450728
17.08076 361.922842316866
17.10087 380.015705544686
17.12099 349.017633694128
17.1411 325
17.16121 337.024949119119
17.18133 389.006025764153
17.20144 345.920902496545
17.22156 341.972096082994
17.24167 351.997249104951
17.26178 353.985418833111
17.2819 362
17.30201 312.992302534172
17.32212 337.017459452452
17.34224 339.046237291383
17.36235 374.991804223358
17.38247 345.0276579692
17.40258 351.001268180194
17.42269 339.99568352796
17.44281 363.001235713018
17.46292 342.99034542751
17.48303 352.005114604558
17.50315 340.974878119472
17.52326 351.926803436558
17.54338 385.005142335464
17.56349 351.009408081102
17.5836 361
17.60372 360.01080451164
17.62383 375.989340823474
17.64394 352.993122876271
17.66406 374.964594299313
17.68417 383.962520643116
17.70428 413.004322337882
17.7244 391
17.74451 440.015642432146
17.76463 430.97110355574
17.78474 427.014123580799
17.80485 434.992711182345
17.82497 431.010254221298
17.84508 417.02925865183
17.86519 385.006685069145
17.88531 388.999544229879
17.90542 371.978142871634
17.92554 367.045511340317
17.94565 393.991644607763
17.96576 369.006834867574
17.98588 389.994854026552
18.00599 366.013019792976
18.0261 364
18.04622 382.991093563644
18.06633 354.980823228633
18.08645 374.083529101577
18.10656 386.056652099096
18.12667 353.969967220233
18.14679 403.999245622733
18.1669 359
18.18701 396.009397280525
18.20713 367.94390371239
18.22724 354.011151667345
18.24735 374.910674548257
18.26747 403.003751903627
18.28758 376.022493251122
18.3077 370
18.32781 355.993553457723
18.34792 354.00992948578
18.36804 374.053941858202
18.38815 385.063184351044
18.40826 341.048745067773
18.42838 338.017800512334
18.44849 316.988012322021
18.46861 382.026538283988
18.48872 379.951567448309
18.50883 328.973547445824
18.52895 347.051903940424
18.54906 349.011583743238
18.56917 347.992100844483
18.58929 352.003180246773
18.6094 346
18.62951 372.004559094582
18.64963 348.937226881924
18.66974 326.042084886043
18.68986 375.924328582746
18.70997 367.075586879471
18.73008 322.994251912209
18.7502 369
18.77031 365.995154783535
18.79042 360.98184033351
18.81054 350.069243861704
18.83065 403.98068909503
18.85077 351.094017379813
18.87088 334.963006872437
18.89099 386.989045279489
18.91111 370.991469281985
18.93122 376.013603310946
18.95133 375.966288316869
18.97145 351.004033885944
18.99156 372.98586878669
19.01168 355.018000634301
19.03179 351.998873519237
19.0519 342
19.07202 327.042552884762
19.09213 396.03154771888
19.11224 356.924745108239
19.13236 361.944180753947
19.15247 381.003419359253
19.17258 361.021597350245
19.1927 351
19.21281 360.011082854747
19.23293 384.016088541119
19.25304 373.953103216395
19.27315 358.978730580836
19.29327 386.957593842494
19.31338 386.040927904561
19.33349 337.006811160065
19.35361 373.028251127389
19.37372 414.017378295337
19.39384 408.962619318938
19.41395 387.949271932224
19.43406 376.991079582646
19.45418 385.006365178854
19.47429 375.990963543181
19.4944 413
19.51452 391.95935965719
19.53463 368.016098254414
19.55475 395.017097203884
19.57486 390.93945796427
19.59497 445.963808356246
19.61509 434.997559080857
19.6352 471
19.65531 488.014722705438
19.67543 524.014175187599
19.69554 513.014322075448
19.71565 559.8281452944
19.73577 610.985154705883
19.75588 615.940909004659
19.776 710
19.79611 699.997976478373
19.81622 743.065929321266
19.83634 805.10754486221
19.85645 857.846503004683
19.87656 920.907862853136
19.89668 940.000657337511
19.91679 926.014194615012
19.93691 889.982504115807
19.95702 867.995268865683
19.97713 851.910688542556
19.99725 766.852901504281
20.01736 749.023948439196
20.03747 711.089786368677
20.05759 664.999606415968
20.0777 679
20.09782 619.017808112187
20.11793 709.086639205316
20.13804 681.877226710445
20.15816 644.011828824781
20.17827 653.997023307414
20.19838 640.013868692536
20.2185 633
20.23861 633.014916231098
20.25872 664.985411167781
20.27884 624.003050411782
20.29895 660.016101357796
20.31907 618.985921208911
20.33918 685.953902977136
20.35929 673.016199764687
20.37941 656.99849831043
20.39952 669.032507394936
20.41963 701.006517235543
20.43975 675.92690594399
20.45986 656.042762545589
20.47998 642.983411201125
20.50009 678.988235970928
20.5202 674
20.54032 664.004245548106
20.56043 678.019722882873
20.58054 692.053488986326
20.60066 724.960391696527
20.62077 749.899932641965
20.64088 821.000344960367
20.661 783
20.68111 900.05084888136
20.70123 953.100386500009
20.72134 1085.36665315524
20.74145 1284.52955956374
20.76157 1516.4742196879
20.78168 1985.49876415178
20.80179 2505.70170186152
20.82191 3163.31275943466
20.84202 3651.3187499752
20.86214 3777.86819213338
20.88225 3530.96885385114
20.90236 3000.20568458129
20.92248 2390.57759313202
20.94259 1833.28376342084
20.9627 1310
20.98282 1058.76156232578
21.00293 826.832045967523
21.02305 821.949445827184
21.04316 743.114519605528
21.06327 738.001336073988
21.08339 718.006878099078
21.1035 719
21.12361 711.999514541326
21.14373 720.011532229086
21.16384 704.898355932287
21.18395 652.017479519743
21.20407 691.939584050148
21.22418 699.013768321006
21.2443 703
21.26441 766.011399083726
21.28452 743.983329049054
21.30464 755.022335705451
21.32475 743.076994139502
21.34486 717.002602962828
21.36498 745.955358770104
21.38509 756.030443244375
21.40521 683.005572826603
21.42532 757.019528991466
21.44543 702.955046165775
21.46555 719.975504021385
21.48566 675.028520307647
21.50577 695.011283643311
21.52589 664.992607436575
21.546 716
21.56612 655.914395145959
21.58623 607.009376124264
21.60634 644.050255374243
21.62646 636.04028992535
21.64657 615.046650133827
21.66668 588.995707765187
21.6868 624
21.70691 629.977790654765
21.72702 561.951923988392
21.74714 561.062002096481
21.76725 591.9665919807
21.78737 587.010675411
21.80748 575.035597464025
21.82759 541.992359828427
21.84771 564.972199929519
21.86782 470.995019933324
21.88793 557.078266627308
21.90805 513.809936850605
21.92816 491.884163581194
21.94828 573.976320932098
21.96839 524.028397602578
21.9885 517
22.00862 538.967952524621
22.02873 493.034525762107
22.04884 560.006262867103
22.06896 483.129482741517
22.08907 492.915548073068
22.10919 531.008723756143
22.1293 473
22.14941 474.015789195926
22.16953 503.013904023287
22.18964 501.0236168449
22.20975 511.081258000654
22.22987 454.032839772631
22.24998 485.954878138397
22.27009 511.992745308362
22.29021 521.000673650472
22.31032 509.974096326806
22.33044 497.061395992238
22.35055 540.989876463239
22.37066 480.129661223797
22.39078 464.963056917447
22.41089 509.996828553385
22.431 484
22.45112 510.015581419648
22.47123 497.977160754262
22.49135 493.994038512896
22.51146 484.033749528982
22.53157 470.997994446784
22.55169 482.995792051554
22.5718 487
22.59191 496.991161219539
22.61203 466.99737106117
22.63214 501.073901507177
22.65225 505.081407710798
22.67237 472.985483110236
22.69248 504.009424943416
22.7126 462
22.73271 505.015301957339
22.75282 492.974526659295
22.77294 489.047241918844
22.79305 518.979013969274
22.81316 517.941809515301
22.83328 557.011665689945
22.85339 500.017952509909
22.87351 520.022386383361
22.89362 543.98805177476
22.91373 500.919168201868
22.93385 478.076685749522
22.95396 528.970820444942
22.97407 493.066898195344
22.99419 483.985278208672
23.0143 516
23.03442 484.992191539558
23.05453 506.009349962602
23.07464 480.941410722811
23.09476 470.986862829046
23.11487 479.999675002256
23.13498 466.022266235276
23.1551 459
23.17521 495.001996590766
23.19532 458.957706762759
23.21544 446.038100117473
23.23555 478.936235874117
23.25567 488.989513514173
23.27578 494.008655935477
23.29589 471.013008129683
23.31601 455.99965305282
23.33612 470.025846457968
23.35623 475.93540756793
23.37635 410.925125500397
23.39646 425.972374134819
23.41658 428.971488650026
23.43669 469.998312251481
23.4568 446
23.47692 486.008958086415
23.49703 442.919065644452
23.51714 428.067864596911
23.53726 477.955355058748
23.55737 470.993035278911
23.57749 492.998133205603
23.5976 465
23.61771 447.004417726217
23.63783 477.056998856668
23.65794 504.018515576425
23.67805 498.030849239447
23.69817 488.011451819142
23.71828 495.963153806629
23.73839 537.995316649385
23.75851 518.997233954954
23.77862 547.039761788379
23.79874 566.979354470963
23.81885 532.898580999324
23.83896 525.89976196986
23.85908 596.968875507439
23.87919 563.031967565041
23.8993 533
23.91942 585.997817245345
23.93953 510.863418365447
23.95965 472.06600890042
23.97976 529.916264183652
23.99987 523.063124547975
24.01999 473.021721180872
24.0401 460
24.06021 505.013895269051
24.08033 494.948118576902
24.10044 474.036112187572
24.12056 500.045429217035
24.14067 441.038704134128
24.16078 472.955039997978
24.1809 489
24.20101 466.990146450574
24.22112 456.994116297137
24.24124 461.050795984606
24.26135 497.934228851676
24.28146 491.08266331527
24.30158 445.018885366123
24.32169 454.995367648161
24.34181 469.02675371652
24.36192 527.994646659221
24.38203 468.951356805784
24.40215 487.032574688226
24.42226 474.009593556252
24.44237 487.98634627709
24.46249 487.99487566731
24.4826 497
24.50272 465.014171834925
24.52283 509.00392159938
24.54294 470.985833274316
24.56306 511.931351426899
24.58317 510.021057638104
24.60328 500.013931812743
24.6234 503
24.64351 571.015118682348
24.66362 543.952368018269
24.68374 544.159862526114
24.70385 645.920943818884
24.72397 600.059821598649
24.74408 623.937915979054
24.76419 670.998331438966
24.78431 633.977279650187
24.80442 633.065161092755
24.82453 693.945969658782
24.84465 611.031996340665
24.86476 716.893604553797
24.88488 670.049959035225
24.90499 680.980401904427
24.9251 694
24.94522 650.009455542081
24.96533 696.005539969339
24.98544 640.896861977659
25.00556 628.000340718909
25.02567 613.046418144252
25.04579 571.023034033084
25.0659 558
25.08601 608.977582483724
25.10613 494.9101537534
25.12624 528.086884953352
25.14635 532.008741442063
25.16647 552.932781849067
25.18658 597.978891806267
25.20669 588.012307440897
25.22681 561.984964430804
25.24692 525.959806835071
25.26704 516.107414407789
25.28715 596.086997977557
25.30726 575.033958762393
25.32738 576.026674341385
25.34749 516.02615037468
25.3676 515
25.38772 575.013235780604
25.40783 545.978312426005
25.42795 562.014978587938
25.44806 553.971534357232
25.46817 596.937867157292
25.48829 605.013796160472
25.5084 577
25.52851 611.004006738198
25.54863 578.946668587877
25.56874 569.018020314404
25.58886 584.965439542599
25.60897 576.085995588083
25.62908 492.065203290979
25.6492 493
25.66931 573.012962434349
25.68942 539.966186297312
25.70954 548.069789310053
25.72965 570.040723091942
25.74976 538.993512873313
25.76988 573.985176059452
25.78999 555.007339632738
25.81011 564.00701149229
25.83022 563.985390167293
25.85033 544.981488309269
25.87045 544.010899816274
25.89056 553.95678675477
25.91067 577.984179825926
25.93079 564.016898970549
25.9509 543
25.97102 584.012466045646
25.99113 558.966117751861
26.01124 570.072605370813
26.03136 606.959414050876
26.05147 606.015645018757
26.07158 608.972586452233
26.0917 631
26.11181 575.986527329852
26.13193 611.10952043005
26.15204 658.965145611466
26.17215 620.933878166
26.19227 718.864280082784
26.21238 751.997183352894
26.23249 753.998566664948
26.25261 765.012264768717
26.27272 800.03635809443
26.29283 839.076420220865
26.31295 887.048867945891
26.33306 902.877490556062
26.35318 1009.89799767059
26.37329 1078.97193401381
26.3934 1169
26.41352 1346.14825984671
26.43363 1502.37920647703
26.45374 1855.72161076251
26.47386 2240.98638338944
26.49397 2964.61767469208
26.51409 4058.38538349015
26.5342 5531
26.55431 7692.1708297316
26.57443 10155.9151527793
26.59454 12870.3273939296
26.61465 15126.0912355952
26.63477 15768.4197523134
26.65488 14680.7821063581
26.67499 12440.2626281879
26.69511 9855.74503395152
26.71522 7475.75652899728
26.73534 5318.90032296594
26.75545 3422.87969824469
26.77556 2151.61952186872
26.79568 1651.39613338006
26.81579 1274.1106863565
26.8359 1198
26.85602 1072.90563874751
26.87613 1010.83585399951
26.89625 872.837112507893
26.91636 881.034442408713
26.93647 799.12939317121
26.95659 736.03531418668
26.9767 670
26.99681 684.991786229334
27.01693 634.966218382361
27.03704 638.938969533931
27.05716 587.990748734853
27.07727 638.981440856328
27.09738 586.059663231765
27.1175 560
27.13761 560.01012954374
27.15772 578.985236899492
27.17784 536.939980563713
27.19795 533.00577732911
27.21806 520.022496253296
27.23818 519.991562710644
27.25829 520.011266581717
27.27841 498.008064237638
27.29852 541.020803745579
27.31863 534.011942874472
27.33875 548.928172176798
27.35886 494.024453173661
27.37897 536.936772297328
27.39909 532.021408779099
27.4192 500
27.43932 536.982385149945
27.45943 470.947108744081
27.47954 490.037548137195
27.49966 489.966445581322
27.51977 522.981331705623
27.53988 508.012624448891
27.56 503
27.58011 472.997454723148
27.60023 500.049776377034
27.62034 503.929413332817
27.64045 456.057430809775
27.66057 485.889441297388
27.68068 549.991516382838
27.70079 506.023806751957
27.72091 488.99994684432
27.74102 504.042091297741
27.76113 544.998410178891
27.78125 512.971851768486
27.80136 539.937870882449
27.82148 555.98478770841
27.84159 561.01459708271
27.8617 526
27.88182 575.022468754608
27.90193 551.962996143951
27.92204 544.973512871907
27.94216 525.005532589712
27.96227 532.021456894033
27.98239 484.031087102431
28.0025 452
28.02261 496.000441344268
28.04273 447.940226704671
28.06284 448.031086250312
28.08295 453.018419196611
28.10307 443.99710396948
28.12318 446.021308808152
28.1433 422
28.16341 461.998964250406
28.18352 421.99038937286
28.20364 454.033657662943
28.22375 434.951796729304
28.24386 445.927510769344
28.26398 467.03022490472
28.28409 412.008291058469
28.3042 445
28.32432 441.983018969754
28.34443 436.01551861924
28.36455 455.036238045403
28.38466 457.011435779853
28.40477 440.054633349515
28.42489 406.998853949356
28.445 440
28.46511 449.007205632564
28.48523 462.975726853778
28.50534 420.932955599818
28.52546 425.920551423369
28.54557 466.982084529899
28.56568 451.012616568835
28.5858 450
28.60591 409.969639200544
28.62602 381.04928410526
28.64614 454.996105110899
28.66625 384.08061620983
28.68636 429.887194664238
28.70648 448.999245291435
28.72659 431.028149662838
28.74671 375.001860258998
28.76682 420.008733079856
28.78693 374.941580427473
28.80705 385.107231578723
28.82716 429.937745918142
28.84727 438.0145677944
28.86739 427.000557592088
28.8875 427
28.90762 396.986341660723
28.92773 417.065494022366
28.94784 446.976499569771
28.96796 407.052430505158
28.98807 414.967914118896
29.00818 423.011625989077
29.0283 408
29.04841 423.998643696536
29.06853 394.951466963207
29.08864 396.097529767424
29.10875 449.9970968065
29.12887 400.062552175324
29.14898 404.968816928885
29.16909 422.008727609287
29.18921 399.010438082213
29.20932 443.999720803378
29.22943 397.965476597988
29.24955 410.985201288987
29.26966 390.948686613717
29.28978 446.989323964866
29.30989 396.026596979576
29.33 386
29.35012 413.023829496324
29.37023 423.997040213442
29.39034 405.926068138969
29.41046 376.980508356503
29.43057 408.989162989448
29.45069 382.011725031385
29.4708 386
29.49091 405.010155566078
29.51103 416.98996417714
29.53114 406.01870834739
29.55125 430.972767890748
29.57137 423.998964955061
29.59148 426.028606557276
29.6116 385
29.63171 427.020780303233
29.65182 424.955512782231
29.67194 384.01605918249
29.69205 435.106943915998
29.71216 451.953176538843
29.73228 477.011490696083
29.75239 452.987150919535
29.7725 522
29.79262 515.990835090931
29.81273 525.004290030225
29.83285 515.994121080098
29.85296 525.981023435706
29.87307 515.057871919581
29.89319 472.008075502482
29.9133 489
29.93341 499.998826910996
29.95353 491.98922326505
29.97364 475.918797125033
29.99376 442.953015423817
30.01387 508.931960393159
30.03398 493.055373293119
30.0541 434
30.07421 417.009378353249
30.09432 452.026305324832
30.11444 464.032509480814
30.13455 477.041789068814
30.15467 435.053825653448
30.17478 431.97418340263
30.19489 455.003902871829
30.21501 425.993807205562
30.23512 429.982799258939
30.25523 393.97832663989
30.27535 414.068736470744
30.29546 423.018129592763
30.31557 410.005008701696
30.33569 415.000775990351
30.3558 397
30.37592 384.02609003757
30.39603 421.999447334745
30.41614 379.926164118716
30.43626 372.996158664022
30.45637 374.978228678997
30.47648 398.982468413432
30.4966 403
30.51671 401.997737069969
30.53683 407.046651843309
30.55694 434.957381117676
30.57705 371.131891307062
30.59717 371.932997726501
30.61728 423.968020615189
30.63739 419.016071779679
30.65751 395.005069245828
30.67762 422.000603513928
30.69773 390.962990548301
30.71785 392.021756884859
30.73796 391.020184455187
30.75808 387.980297705494
30.77819 419.991132663586
30.7983 407
30.81842 384.010407508419
30.83853 401.966124035967
30.85864 365.046012006332
30.87876 433.948823402034
30.89887 393.06335497793
30.91899 390.99255734219
30.9391 404
30.95921 418.001954019876
30.97933 405.96225403246
30.99944 381.978525195537
31.01955 384.986342709138
31.03967 383.012110275937
31.05978 385.970176120326
31.0799 424
31.10001 409.998893185603
31.12012 421.991923419649
31.14024 401.015202936918
31.16035 439.922265708169
31.18046 452.954075200169
31.20058 480.00366503758
31.22069 447.013025653479
31.2408 447
31.26092 449.997610967739
31.28103 437.959951268432
31.30115 410.981855501546
31.32126 429.936530618668
31.34137 444.031915994698
31.36149 406.008989815059
31.3816 417
31.40171 412.994292416766
31.42183 416.045258770379
31.44194 439.94272979966
31.46206 374.080871009796
31.48217 377.991172508721
31.50228 382.956247371689
31.5224 439
31.54251 380.973232279505
31.56262 368.00138079817
31.58274 380.090246719252
31.60285 437.933596409437
31.62297 427.017255323882
31.64308 420.034252042119
31.66319 376.001795270913
31.68331 406.003331721223
31.70342 386.006663371058
31.72353 420.012953319414
31.74365 392.948566316988
31.76376 400.966065504347
31.78387 399.043949455326
31.80399 367.999037552925
31.8241 410
31.84422 432.974583832698
31.86433 392.994649978131
31.88444 421.008315812715
31.90456 391.03761477553
31.92467 406.955880131703
31.94478 425.994417150877
31.9649 419
31.98501 416.013999407292
32.00513 459.034909835242
32.02524 447.948287320555
32.04535 426.045262820854
32.06547 421.96860622062
32.08558 451.988176739377
32.10569 432.019121679549
32.12581 413.012410427163
32.14592 454.00468186979
32.16604 423.978229328372
32.18615 437.97853052327
32.20626 404.028582797704
32.22638 412.011658092936
32.24649 387.993381469211
32.2666 429
32.28672 406.003154146952
32.30683 428.967315892322
32.32694 381.018176042133
32.34706 437.976032442519
32.36717 398.009919472424
32.38729 442.985499691236
32.4074 445
32.42751 493.999815793185
32.44763 459.018491911719
32.46774 519.052329817021
32.48785 489.068228978084
32.50797 484.03221843096
32.52808 448.009069316371
32.5482 470
32.56831 459.990858386119
32.58842 443.97975043734
32.60854 424.98963268271
32.62865 436.950049679804
32.64876 442.048051980549
32.66888 411.001208224968
32.68899 441.98565014757
32.7091 444
32.72922 430.998810392172
32.74933 429.967099317276
32.76945 397.975806030402
32.78956 410.99195755031
32.80967 393.031939803321
32.82979 395.981827844889
32.8499 439
32.87001 414.983936031742
32.89013 409.038900916533
32.91024 436.988320753813
32.93036 407.016768448219
32.95047 421.012266111302
32.97058 393.997524216801
32.9907 431
33.01081 434.002599704138
33.03092 452.014010561786
33.05104 449.972877132646
33.07115 446.937002173517
33.09127 470.0413747752
33.11138 415.010029031208
33.13149 460.979724984371
33.15161 456.986608593086
33.17172 436.994992883287
33.19183 437.985216037133
33.21195 425.021455260763
33.23206 451.965639209905
33.25217 450.004314943657
33.27229 447.010305576243
33.2924 414
33.31252 425.043378161904
33.33263 459.978837392523
33.35274 409.935840725502
33.37286 411.007387922545
33.39297 402.960843674448
33.41308 450.981588119633
33.4332 428
33.45331 427.004838922009
33.47343 437.019606887626
33.49354 446.995461239355
33.51365 447.928390700804
33.53377 494.953893858563
33.55388 482.049900671038
33.57399 435.005039167079
33.59411 458.009220927852
33.61422 446.97200908967
33.63434 427.002023859862
33.65445 440.008081436801
33.67456 427.027733068135
33.69468 413.028262571133
33.71479 393.98577369567
33.7349 440
33.75502 403.01888188501
33.77513 470.02921027213
33.79524 414.876921817393
33.81536 398.970166809204
33.83547 413.005604428742
33.85559 390.013334398593
33.8757 380
33.89581 406.013344288834
33.91593 411.96513277144
33.93604 381.98905670262
33.95615 398.984273905076
33.97627 389.9936961177
33.99638 416.969494166934
34.0165 428
34.03661 409.999905130842
34.05672 419.989702732338
34.07684 383.927268915044
34.09695 376.931425761956
34.11706 412.97344527217
34.13718 397.020528896854
34.15729 389.999895762405
34.17741 396.008348159387
34.19752 410.995687161554
34.21763 397.005202376426
34.23775 410.976315170904
34.25786 392.955279718327
34.27797 440.985603513448
34.29809 408.007790903911
34.3182 433
34.33831 424.975437718595
34.35843 375.996321676252
34.37854 418.076925875396
34.39866 419.046099017052
34.41877 416.924189960179
34.43888 479.000353133785
34.459 425
34.47911 454.012583258737
34.49922 459.02560009481
34.51934 508.067470738074
34.53945 518.954474578279
34.55957 548.976872708601
34.57968 544.005127585863
34.59979 548.997461143422
34.61991 552.004351884742
34.64002 568.016850094966
34.66013 574.988764542641
34.68025 565.010282861038
34.70036 578.000015427096
34.72047 567.99279940537
34.74059 587.994746579257
34.7607 575
34.78082 563.018624990028
34.80093 600.039268645195
34.82104 613.051602867792
34.84116 644.990706674857
34.86127 632.977513375938
34.88138 686.939514373786
34.9015 727
34.92161 745.009021718814
34.94173 767.035373295786
34.96184 800.103728354717
34.98195 857.900171853609
35.00207 864.031668995237
35.02218 841.006039662808
35.04229 853.992341601293
35.06241 844.978341798939
35.08252 789.966876954233
35.10264 766.886024460995
35.12275 704.01033869028
35.14286 763.937282062265
35.16298 719.085000737986
35.18309 672.981410445685
35.2032 744
35.22332 686.961999100097
35.24343 691.979619655938
35.26354 641.915497432728
35.28366 633.980784852276
35.30377 638.011811868366
35.32389 622.006914662383
35.344 612
35.36411 597.999932071988
35.38423 613.026979506866
35.40434 616.969637785795
35.42445 580.138172258106
35.44457 544.967345333088
35.46468 596.981483582097
35.4848 574
35.50491 592.001359355406
35.52502 565.974182406773
35.54514 550.956400662158
35.56525 525.022811422418
35.58536 552.871306595621
35.60548 609.99481669109
35.62559 552.043879149739
35.64571 493.999856524507
35.66582 541.056209496334
35.68593 577.034699295362
35.70605 578.911253008319
35.72616 526.065955313529
35.74627 535.940734631428
35.76639 567.00142758625
35.7865 554
35.80661 612.017118202513
35.82673 602.97521045389
35.84684 597.980327249457
35.86696 577.042940649849
35.88707 568.985962410105
35.90718 582.998169878625
35.9273 572
35.94741 570.996465640141
35.96752 555.988130952371
35.98764 545.959840710762
36.00775 543.859747483243
36.02787 614.002411405761
36.04798 526.102768477201
36.06809 476.998143156429
36.08821 516.0289539504
36.10832 549.982467921793
36.12843 502.959810164364
36.14855 518.073712668142
36.16866 530.021265845393
36.18878 509.013970209278
36.20889 517.984679385073
36.229 550
36.24912 536.971145472124
36.26923 523.031731200005
36.28934 551.978330016204
36.30946 540.84887962249
36.32957 677.873348459724
36.34968 656.069386774748
36.3698 621
36.38991 696.048057208211
36.41003 797.176667675256
36.43014 927.244897987073
36.45025 1048.6432050695
36.47037 1211.76690691219
36.49048 1355.84782750169
36.51059 1497.95518883995
36.53071 1507.97159857349
36.55082 1403.8568987271
36.57094 1270.84356476243
36.59105 1204.65573496963
36.61116 1023.21902741734
36.63128 987.073083699801
36.65139 853.052724255038
36.6715 782
36.69162 619.878575095631
36.71173 585.022945164364
36.73184 605.031277431721
36.75196 604.042185357434
36.77207 573.040137372589
36.79219 570.985230507575
36.8123 605
36.83241 578.989127465352
36.85253 571.976719322444
36.87264 545.970426322171
36.89275 561.888591446017
36.91287 595.026055972535
36.93298 558.983694434907
36.9531 603
36.97321 524.989735431146
36.99332 575.023071445816
37.01344 540.951494855952
37.03355 557.942210972992
37.05366 547.100338412371
37.07378 506.974371259085
37.09389 579.977089698797
37.11401 560.976183324013
37.13412 523.977630970585
37.15423 517.008785104083
37.17435 519.967521407179
37.19446 498.02094633946
37.21457 503.989045397635
37.23469 504.00040599356
37.2548 497
37.27491 476.008514195331
37.29503 492.917224018205
37.31514 408.000592029541
37.33526 495.875393679723
37.35537 481.048241454509
37.37548 469.014213876926
37.3956 451
37.41571 478.021554940453
37.43582 497.968290541022
37.45594 450.000104121574
37.47605 487.995966596028
37.49617 449.014151396657
37.51628 489.958177139092
37.53639 487.022180979658
37.55651 437.990277963664
37.57662 463.050647742607
37.59673 510.047699334557
37.61685 526.025190563483
37.63696 526.048569876076
37.65708 494.008388072025
37.67719 506.000990292941
37.6973 491
37.71742 539.070930631231
37.73753 570.921276393824
37.75764 484.95471126953
37.77776 546.858178450251
37.79787 557.069604824316
37.81798 492.049086017763
37.8381 482
37.85821 499.998953827549
37.87833 488.011290454797
37.89844 516.039889253361
37.91855 505.090954471539
37.93867 465.039765496496
37.95878 456.003967272012
37.97889 441.014634170804
37.99901 432.024744824669
38.01912 500.007492367419
38.03924 447.935991435671
38.05935 466.048904862779
38.07946 463.997089472492
38.09958 479.98374909531
38.11969 486.000393735429
38.1398 471
38.15992 446.041288570282
38.18003 521.036468122947
38.20015 500.055754448175
38.22026 553.035977880107
38.24037 473.046691417411
38.26049 516.982761452976
38.2806 517
38.30071 565.005379018416
38.32083 532.970184676702
38.34094 552.060518259496
38.36105 555.088397302595
38.38117 514.003316368257
38.40128 556.950167494985
38.4214 566
38.44151 521.00518785604
38.46162 563.994519918974
38.48174 506.939006514897
38.50185 529.935171398446
38.52196 513.110304183924
38.54208 464.999055823822
38.56219 497.996824830634
38.58231 468.99285294055
38.60242 485.012152650411
38.62253 486.024561120293
38.64265 495.887858993526
38.66276 432.989952328999
38.68287 493.971169928241
38.70299 446.021306001764
38.7231 448
38.74321 446.994842591155
38.76333 439.000659779768
38.78344 447.017254407092
38.80356 448.016147885446
38.82367 427.05400408631
38.84378 402.982189431171
38.8639 454
38.88401 464.993393895985
38.90412 455.010744049466
38.92424 472.988305156955
38.94435 442.064780736229
38.96447 438.987724655951
38.98458 439.015836528543
39.00469 427.988804819722
39.02481 460.99590059894
39.04492 427.007312387654
39.06503 489.094254581432
39.08515 510.979594359733
39.10526 497.012626107137
39.12538 498.005273979471
39.14549 485.004191358895
39.1656 490
39.18572 503.002444306769
39.20583 493.980773730245
39.22594 496.056014178826
39.24606 527.995900753172
39.26617 524.925024102161
39.28628 613.945700491289
39.3064 634
39.32651 746.052999604161
39.34663 827.140430972298
39.36674 931.143773515088
39.38685 1027.45820143952
39.40697 1280.84422694494
39.42708 1235.0129817361
39.44719 1302.99325882832
39.46731 1221.96022809575
39.48742 1167.90187898564
39.50754 1014.70768292932
39.52765 892.655322165294
39.54776 773.046931928523
39.56788 795.05947578914
39.58799 643.06313710765
39.6081 589
39.62822 506.921981592668
39.64833 471.015734091244
39.66845 493.993589436832
39.68856 452.113169258987
39.70867 414.01428428637
39.72879 429.985620131197
39.7489 436
39.76901 385.999778644951
39.78913 429.031294471032
39.80924 408.970569334068
39.82935 413.024213001841
39.84947 391.995660674943
39.86958 421.975220414609
39.8897 430
39.90981 442.995998490897
39.92992 426.008563771155
39.95004 461.055229506774
39.97015 446.147618308341
39.99026 400.940858222808
40.01038 478.961561520427
40.03049 455.010964581168
40.05061 475.018664238648
40.07072 513.045718098103
40.09083 554.023414722424
40.11095 551.012765984687
40.13106 566.000504728864
40.15117 558.970483781769
40.17129 631.940870366285
40.1914 729
40.21152 700.0265315227
40.23163 818.218285947711
40.25174 915.065909528789
40.27186 898.077164064841
40.29197 861.059597243438
40.31208 817.044253428814
40.3322 763
40.35231 671.957299654518
40.37242 631.023499137066
40.39254 675.000986650603
40.41265 612.203882635258
40.43277 546.088133304904
40.45288 493.03872003342
40.47299 477.994723865702
40.49311 491.996713877172
40.51322 464.976856585216
40.53333 467.03695569015
40.55345 473.878441452746
40.57356 406.023834275113
40.59368 448.97785149511
40.61379 421.01589895685
40.6339 423
40.65402 437.972680354442
40.67413 392.988200453175
40.69424 433.088509233031
40.71436 451.986591227012
40.73447 450.030966875989
40.75458 426.001616844181
40.7747 449
40.79481 451.991627057522
40.81493 432.992877232074
40.83504 443.018026950155
40.85515 441.018499156168
40.87527 435.004958123918
40.89538 430.012225490164
40.91549 418.997761620791
40.93561 444.018032208828
40.95572 470.003459237468
40.97584 450.94172298771
40.99595 430.991793164362
41.01606 440.975180779642
41.03618 449.989709464141
41.05629 451.011854534674
41.0764 426
41.09652 458.995605054569
41.11663 415.961728205595
41.13675 437.102767780856
41.15686 461.009566234166
41.17697 437.033389153789
41.19709 432.994910208261
41.2172 448
41.23731 458.003573676465
41.25743 450.948970499779
41.27754 410.977036313123
41.29765 433.927397685659
41.31777 439.031748457352
41.33788 413.006884007245
41.358 421
41.37811 407.004794002879
41.39822 435.008650948879
41.41834 423.006947715694
41.43845 442.996830650328
41.45856 411.088620091481
41.47868 390.979239222002
41.49879 429.991114847228
41.51891 405.976497341765
41.53902 374.003161942998
41.55913 413.083197431877
41.57925 444.966985899062
41.59936 407.04087985037
41.61947 423.951235104543
41.63959 441.004085519236
41.6597 412
41.67982 395.013191172263
41.69993 424.028104748808
41.72004 417.960683593099
41.74016 406.981621683579
41.76027 417.029893664565
41.78038 384.994930330026
41.8005 423
41.82061 406.995650233605
41.84072 423.017561713307
41.86084 424.984229292905
41.88095 414.03188796218
41.90107 415.951804714608
41.92118 446.020416075696
41.94129 396.004949183691
41.96141 428.003056409538
41.98152 399.997231607215
42.00163 429.012187539294
42.02175 404.962413056817
42.04186 419.949834125319
42.06198 433.998785898021
42.08209 430.000009601227
42.1022 430
42.12232 416.01062891813
42.14243 442.00976901431
42.16254 432.021850791968
42.18266 459.993347670063
42.20277 439.00528840788
42.22289 455.002170375713
42.243 442
42.26311 521.040932051059
42.28323 573.050430418416
42.30334 604.062732773858
42.32345 659.750922608457
42.34357 767.911979653515
42.36368 814.871370310032
42.38379 997.943539238777
42.40391 1027.02639613427
42.42402 1092.95962554246
42.44414 955.792513748421
42.46425 946.043746169434
42.48436 909.211421394802
42.50448 777.098524413494
42.52459 740.002433353437
42.5447 724
42.56482 657.92134106046
42.58493 565.824873188608
42.60505 462.909105870115
42.62516 463.089009374001
42.64527 382.040445280146
42.66539 421.985296231012
42.6855 406
42.70561 405.999562148392
42.72573 395.989045588727
42.74584 400.024525269594
42.76595 409.007467251758
42.78607 401.991614056666
42.80618 408.022426669847
42.8263 372
42.84641 399.008299685431
42.86652 374.947688781757
42.88664 348.081064387841
42.90675 416.962057128843
42.92686 365.101536610329
42.94698 361.976501451478
42.96709 373.009739603026
42.98721 347.004885795912
43.00732 389.028273747384
43.02743 377.954212280086
43.04755 352.965869513595
43.06766 353.972920138359
43.08777 371.975675771335
43.10789 372.012315584255
43.128 345
43.14812 369.008484226756
43.16823 347.959567783434
43.18834 340.025726480316
43.20846 364.948019369284
43.22857 378.005487154607
43.24868 362.020177433915
43.2688 352
43.28891 366.002508289585
43.30902 363.005974312904
43.32914 368.960058316648
43.34925 336.016225396944
43.36937 361.962278142144
43.38948 360.022406667993
43.40959 341.99756901026
43.42971 363.005914496638
43.44982 357.995512606015
43.46993 362.004761301884
43.49005 369.061655552102
43.51016 402.959450573385
43.53028 396.025471974042
43.55039 360.02331445866
43.5705 329
43.59062 362.004447958085
43.61073 341.008727548935
43.63084 382.064537445872
43.65096 381.031042978259
43.67107 372.995755707074
43.69119 375.006892114922
43.7113 353
43.73141 371.015637917844
43.75153 378.939635228509
43.77164 320.960388510834
43.79175 354.881113899719
43.81187 372.02745493752
43.83198 342.012889720803
43.85209 358.984532131008
43.87221 376.996782412118
43.89232 363.006723679078
43.91244 379.977078211323
43.93255 341.940213657219
43.95266 350.958853024018
43.97278 358.010567200393
43.99289 345.996572374484
44.013 369
44.03312 363.983150402221
44.05323 347.983180953411
44.07335 351.057515055603
44.09346 384.941374719601
44.11357 387.049665862246
44.13369 345.008003907937
44.1538 365
44.17391 379.997392673449
44.19403 370.006557636795
44.21414 378.969649055378
44.23426 347.024143273583
44.25437 365.962670195534
44.27448 383.977041614279
44.2946 396
44.31471 352.996680529736
44.33482 378.000126131973
44.35494 342.952236460335
44.37505 343.022211759022
44.39516 321.012040942007
44.41528 342.967279920323
44.43539 369.989326588448
44.45551 381.999159068337
44.47562 361.961448245076
44.49573 343.059296533786
44.51585 399.985168006709
44.53596 335.078989516661
44.55607 354.955108437973
44.57619 359.004278108171
44.5963 350
44.61642 339.994132367936
44.63653 351.055664589472
44.65664 383.977649224506
44.67676 340.049856015017
44.69687 355.958587860215
44.71698 366.007909472784
44.7371 358
44.75721 384.010627282162
44.77732 384.9854202899
44.79744 364.960607285593
44.81755 355.982785947137
44.83767 377.953505986543
44.85778 392.023420791342
44.87789 360.993940347965
44.89801 407.009774285602
44.91812 373.948289477044
44.93823 349.021376794055
44.95835 378.017052824028
44.97846 370.952247811839
44.99858 411.003981252521
45.01869 363.015803783016
45.0388 381
45.05892 403.99066786526
45.07903 381.999100127204
45.09914 394.970021280593
45.11926 372.932681431623
45.13937 443.960032843476
45.15949 406.020623560829
45.1796 398
45.19971 395.001990665379
45.21983 406.010299028933
45.23994 414.050512730843
45.26005 442.994139477185
45.28017 408.078943200029
45.30028 390.947025205616
45.32039 467.990257139473
45.34051 426.98838153744
45.36062 441.996032695622
45.38074 410.982462888146
45.40085 436.053796927083
45.42096 440.975897118055
45.44108 456.010235765067
45.46119 430.001911698649
45.4813 449
45.50142 433.997506256235
45.52153 458.048652448928
45.54165 477.002614520074
45.56176 461.055074416298
45.58187 444.979434597654
45.60199 481.982438181683
45.6221 495
45.64221 499.017770843299
45.66233 582.183991920813
45.68244 682.040072613396
45.70256 661.928716066634
45.72267 760.890553118072
45.74278 771.00178643971
45.7629 794
45.78301 820.00860180758
45.80312 801.922259567197
45.82324 691.822947179963
45.84335 644.097231546088
45.86346 598.071162408507
45.88358 575.024894014248
45.90369 549.005557233903
45.92381 546.992854474533
45.94392 501.927873980593
45.96403 440.979581279722
45.98415 453.958873212741
46.00426 397.102967776695
46.02437 389.952338394729
46.04449 426.993166693942
46.0646 417
46.08472 422.997555021937
46.10483 397.938088726979
46.12494 373.036673865617
46.14506 412.97509210664
46.16517 393.01314023472
46.18528 403.007386511355
46.2054 380
46.22551 401.001458131158
46.24563 384.00091795042
46.26574 403.001592052584
46.28585 375.075965119466
46.30597 371.957477462994
46.32608 411.972792453515
46.34619 403.022265422441
46.36631 366.006877517953
46.38642 412.016489512563
46.40653 386.974116594625
46.42665 392.989891463532
46.44676 369.040261706658
46.46688 369.983931819474
46.48699 387.993754558151
46.5071 390
46.52722 370.961999920316
46.54733 333.986695047145
46.56744 370.141690275787
46.58756 426.994799310844
46.60767 381.073481752083
46.62779 364.995897743957
46.6479 379
46.66801 374.990601745139
46.68813 355.994656093421
46.70824 376.072451172773
46.72835 397.047574437951
46.74847 355.034285275031
46.76858 376.949459042755
46.78869 401.021041028989
46.80881 325.982900898658
46.82892 351.029850029249
46.84904 363.050389898805
46.86915 400.039523085713
46.88926 384.051420285801
46.90938 376.98158928762
46.92949 395.007607870283
46.9496 356
46.96972 368.015167459231
46.98983 368.997273746318
47.00995 363.950304741506
47.03006 341.004237751907
47.05017 363.95722539121
47.07029 372.009699366006
47.0904 343
47.11051 353.008386350096
47.13063 364.01364846442
47.15074 372.007080720154
47.17086 366.034390988129
47.19097 354.978189027269
47.21108 385.981466497253
47.2312 378
47.25131 359.991791799786
47.27142 348.999036725765
47.29154 351.992826122274
47.31165 345.984146827971
47.33176 366.954120397423
47.35188 382.987636637826
47.37199 394.994394721645
47.39211 390.983327781213
47.41222 358.011721396873
47.43233 409.060647319783
47.45245 404.916369336544
47.47256 369.051394954101
47.49267 367.960729228445
47.51279 398.994835657244
47.5329 383
47.55302 367.987845193685
47.57313 367.035367630389
47.59324 386.949218063976
47.61336 345.969098711546
47.63347 405.969186201
47.65358 370.025576799681
47.6737 387
47.69381 383.983786691419
47.71393 352.000504674534
47.73404 368.973030502809
47.75415 342.933261957149
47.77427 408.961101144018
47.79438 379.022617110359
47.81449 387.999115176307
47.83461 361.982409133815
47.85472 348.019640566136
47.87483 384.03362059482
47.89495 382.987524776909
47.91506 384.004860424894
47.93518 374.012096233741
47.95529 364.004436786872
47.9754 356
47.99552 357.01257003519
48.01563 378.032383087305
48.03574 383.963161825484
48.05586 363.979277978573
48.07597 397.97166210472
48.09609 380.018985079654
48.1162 339
48.13631 328.027487405011
48.15643 397.998847116681
48.17654 339.966641019818
48.19665 373.017814423613
48.21677 324.003525773802
48.23688 380.959981087167
48.257 367
48.27711 354.999631545266
48.29722 363.020233164624
48.31734 383.006773976012
48.33745 364.92987085527
48.35756 351.967341057632
48.37768 378.995354281263
48.39779 363.000983859984
48.4179 375
48.43802 340.971334558316
48.45813 343.042103156853
48.47825 381.089806382833
48.49836 391.057115160186
48.51847 347.034947852347
48.53859 356.989984340429
48.5587 366
48.57881 362.999280857827
48.59893 368.017871670426
48.61904 392.080873660004
48.63916 423.019451988599
48.65927 383.043021827028
48.67938 381.001068342647
48.6995 374
48.71961 387.998765005352
48.73972 378.015688266339
48.75984 404.981020210688
48.77995 363.055626817012
48.80006 374.981754994279
48.82018 369.993240928797
48.84029 380.010635538705
48.86041 348.006398237276
48.88052 391.003043323124
48.90063 348.966632576467
48.92075 365.021461750931
48.94086 346.04190207271
48.96097 340.994515181946
48.98109 343.999848565124
49.0012 349
49.02132 372.007166905753
49.04143 361.986509966574
49.06154 366.021952816205
49.08166 373.004241485435
49.10177 369.985976413179
49.12188 382.008491227557
49.142 357
49.16211 369.012975192672
49.18223 386.999651877068
49.20234 368.949634506794
49.22245 359.94909592785
49.24257 392.976932813838
49.26268 381.019022768807
49.28279 371.002470272879
49.30291 370.00296956024
49.32302 374.993121039889
49.34313 376.05925698482
49.36325 428.018018168467
49.38336 389.05895399448
49.40348 390.999578060888
49.42359 383.993574935153
49.4437 410
49.46382 380.958841349161
49.48393 359.011484612322
49.50404 392.087214701075
49.52416 414.036137776669
49.54427 376.029006716968
49.56439 389.988219087293
49.5845 398
49.60461 376.987409814553
49.62473 369.0352846381
49.64484 398.993779908566
49.66495 374.982919117144
49.68507 407.996129566455
49.70518 370.031818223083
49.7253 378
49.74541 413.009932287366
49.76552 422.01679111035
49.78564 447.028994378237
49.80575 450.021641495996
49.82586 462.008795652462
49.84598 439.023931542116
49.86609 455.958912486576
49.8862 552
49.90632 528.00341581401
49.92643 600.146529357738
49.94655 689.216154506265
49.96666 765.898137284729
49.98677 840.756532191897
50.00689 1061.90867901015
50.027 1208
50.04711 1486.13617032743
50.06723 1694.2377415467
50.08734 1833.25855660968
50.10746 1904.09894754665
50.12757 1767.19358516792
50.14768 1630.25223119801
50.1678 1297
50.18791 1192.00102924872
50.20802 1190.9395990517
50.22814 1088.86372619726
50.24825 1060.14305690928
50.26837 945.197602147659
50.28848 812.155983656833
50.30859 655.054947938033
50.32871 575.945452671173
50.34882 452.943203403722
50.36893 473.043889847305
50.38905 463.930982315323
50.40916 432.081600556274
50.42927 397.013115104669
50.44939 414.98760705039
50.4695 417
50.48962 381.999754577236
50.50973 409.01205651497
50.52984 395.013426438361
50.54996 424.974735361705
50.57007 405.041347617589
50.59018 401.971056342501
50.6103 431
50.63041 389.989174809224
50.65053 402.016345292473
50.67064 387.943815016359
50.69075 376.932997162017
50.71087 416.988843049497
50.73098 380.047301313834
50.75109 364.986728999617
50.77121 396.995856634616
50.79132 364.003521249215
50.81143 401.009518341923
50.83155 372.994272454433
50.85166 392.047669714629
50.87178 338.006723079266
50.89189 386.982219417561
50.912 373
50.93212 359.004935741557
50.95223 371.008014926056
50.97234 371.0189207514
50.99246 385.002977920884
51.01257 365.032237906962
51.03269 359.993600231132
51.0528 374
51.07291 361.000900144969
51.09303 367.966660338196
51.11314 327.976772608303
51.13325 357.903572208428
51.15337 370.026143403641
51.17348 347.001487818115
51.1936 371
51.21371 370.98408889851
51.23382 341.011521089668
51.25394 378.01353249186
51.27405 349.036521615117
51.29416 366.96232759728
51.31428 366.009907033337
51.33439 359.001518999719
51.3545 358
51.37462 351.989468227202
51.39473 348.021200952704
51.41485 360.952193719997
51.43496 327.994583746255
51.45507 356.009621726229
51.47519 314.009245076656
51.4953 337
51.51541 337.997777318229
51.53553 345.02709877515
51.55564 362.007688334512
51.57576 353.019020180927
51.59587 351.993413372184
51.61598 353.008076264301
51.6361 342
51.65621 340.989888100449
51.67632 316.005150725792
51.69644 344.017385087722
51.71655 334.958398034338
51.73667 369.99677258459
51.75678 338.016029470944
51.77689 349.998923941112
51.79701 333.997765175
51.81712 349.012822987803
51.83723 346.987871253193
51.85735 344.011530509269
51.87746 350.002821722429
51.89757 341.011931310141
51.91769 336.004291649101
51.9378 332
51.95792 360.018488095162
51.97803 359.991132134245
51.99814 356.992408327133
52.01826 350.017310022635
52.03837 338.027287099523
52.05848 323.996166696245
52.0786 341
52.09871 342.001531898563
52.11883 352.013341159895
52.13894 346.952383711986
52.15905 330.940929393715
52.17917 371.994157940231
52.19928 337.020995893552
52.21939 359.977929781454
52.23951 383.992320154566
52.25962 347.981416934072
52.27974 370.096227522831
52.29985 398.94578283529
52.31996 350.041774841661
52.34008 365.992939443162
52.36019 353.997693584784
52.3803 371
52.40042 329.966307536983
52.42053 334.052756423706
52.44064 367.007071218478
52.46076 352.98527853124
52.48087 378.995716064407
52.50099 354.007778090944
52.5211 368
52.54121 377.990502905768
52.56133 350.998048525379
52.58144 378.048926310726
52.60155 379.032459206209
52.62167 367.008160324419
52.64178 362.0160396798
52.6619 345
52.68201 373.016446745465
52.70212 389.998707277165
52.72224 381.998192536243
52.74235 383.039681959313
52.76246 355.032139228283
52.78258 362.979745489907
52.80269 376.00116183148
52.8228 385
52.84292 447.99809511865
52.86303 391.960070231121
52.88315 416.033037255768
52.90326 400.998916419199
52.92337 427.969451273211
52.94349 423.008108759542
52.9636 408
52.98371 402.007060832616
53.00383 427.02308697185
53.02394 415.931806264256
53.04406 381.031957198753
53.06417 384.991205518718
53.08428 383.998508899878
53.1044 394
53.12451 403.999064049423
53.14462 392.989460102759
53.16474 393.022498750455
53.18485 404.004193884824
53.20497 393.006881644927
53.22508 396.003900259686
53.24519 388.995858023342
53.26531 399.991314865281
53.28542 374.016378829741
53.30553 419.013142640899
53.32565 394.020040697104
53.34576 437.968474574699
53.36587 415.012920019797
53.38599 437.990754330603
53.4061 434
53.42622 425.98030687964
53.44633 403.99676319098
53.46644 429.075000311805
53.48656 451.015454067328
53.50667 428.014757874599
53.52678 441.979933154693
53.5469 441
53.56701 407.001029561456
53.58713 441.035206950105
53.60724 447.046572719229
53.62735 473.052906941231
53.64747 414.055598862433
53.66758 427.965135596089
53.68769 450.996009881471
53.70781 449.999467581501
53.72792 453.002270249083
53.74804 457.02578779504
53.76815 472.007320900035
53.78826 465.99559947435
53.80838 469.020687377188
53.82849 443.992511278378
53.8486 485
53.86872 455.987191642469
53.88883 474.015276770586
53.90894 456.949740848803
53.92906 436.045617981604
53.94917 422.977259624008
53.96929 450.996644486101
53.9894 437
54.00951 460.010430657226
54.02963 452.946587215953
54.04974 411.956372436376
54.06985 417.954027442705
54.08997 424.023795229927
54.11008 412.969743319788
54.1302 471
54.15031 453.976278090131
54.17042 420.002703722182
54.19054 443.007818606643
54.21065 416.075139078794
54.23076 416.922446547274
54.25088 461.988082390336
54.27099 432.020741873598
54.29111 421.015845603741
54.31122 468.022217503971
54.33133 455.975590025157
54.35145 447.957995475924
54.37156 425.017748910265
54.39167 435.975000792933
54.41179 439.008002242739
54.4319 422
54.45201 443.002723792875
54.47213 433.008101060196
54.49224 459.041803528485
54.51236 454.052472269852
54.53247 434.98142754786
54.55258 463.993675676163
54.5727 458
54.59281 508.000230747847
54.61292 460.975828011546
54.63304 499.139345826376
54.65315 540.047461330902
54.67327 487.0447444721
54.69338 504.96640900496
54.71349 545.964247920359
54.73361 626.020726361107
54.75372 634.025244460382
54.77383 705.140429290704
54.79395 790.164873915675
54.81406 824.005509945365
54.83417 812.980213406999
54.85429 838.004218077215
54.8744 790
54.89452 750.940850941384
54.91463 686.965642821886
54.93474 684.908000037365
54.95486 608.056448907077
54.97497 649.917453624221
54.99508 666.018727181237
55.0152 618
55.03531 541.975235565611
55.05543 525.99856962553
55.07554 522.993266607066
55.09565 520.008610329731
55.11577 513.018963395616
55.13588 506.984778112343
55.15599 536.988360139186
55.17611 529.980159052153
55.19622 489.99516276574
55.21634 533.136506335771
55.23645 593.098256238757
55.25656 602.039451904128
55.27668 599.939742373377
55.29679 676.000348760085
55.3169 597
55.33702 576.969971663409
55.35713 516.920954545819
55.37724 512.094184425021
55.39736 556.038858063884
55.41747 498.01730447055
55.43759 541.988352748313
55.4577 518
55.47781 511.987474822093
55.49793 464.945839133891
55.51804 443.933287881889
55.53815 418.91932359795
55.55827 480.97799199823
55.57838 436.039806392322
55.5985 428
55.61861 399.993642138891
55.63872 413.019910261583
55.65884 436.081154096402
55.67895 475.986246047856
55.69906 446.065966537392
55.71918 429.013920457938
55.73929 414.003441767946
55.75941 429.020723043703
55.77952 475.02319318486
55.79963 467.973045385203
55.81975 451.950008647506
55.83986 431.024510421005
55.85997 436.96333239537
55.88009 460.998050549366
55.9002 443
55.92031 431.998938186939
55.94043 420.947285339928
55.96054 391.040528221668
55.98066 447.931551088872
56.00077 443.999156567594
56.02088 458.006689979916
56.041 421
56.06111 389.98650304352
56.08122 380.027950615838
56.10134 422.021589869609
56.12145 398.043322818818
56.14157 413.948095006203
56.16168 423.046515894974
56.18179 353.015173136881
56.20191 382.022691256194
56.22202 409.015874480496
56.24213 416.993318005642
56.26225 407.997262837506
56.28236 413.006122800475
56.30248 399.01349497519
56.32259 401.987905058642
56.3427 426
56.36282 401.986762764551
56.38293 409.007599389841
56.40304 400.979807274555
56.42316 396.006836815784
56.44327 396.98214824535
56.46338 421.966678210242
56.4835 443
56.50361 419.996196708076
56.52373 431.003840021492
56.54384 406.916710072695
56.56395 375.999765336525
56.58407 402.955675258171
56.60418 417.99291759592
56.62429 421.002053445961
56.64441 410.994236083119
56.66452 413.026382987211
56.68464 441.997099096293
56.70475 421.007502590462
56.72486 436.056566874048
56.74498 377.021078700999
56.76509 414.975148063443
56.7852 431
56.80532 404.98680994879
56.82543 402.978761492638
56.84554 383.008167622426
56.86566 415.927417555114
56.88577 425.03620243441
56.90589 383.018998014932
56.926 368
56.94611 387.013006476366
56.96623 409.01850795731
56.98634 405.96245651721
57.00645 385.021796352035
57.02657 386.008808595995
57.04668 370.01250997305
57.0668 374
57.08691 400.010900691252
57.10702 403.982234228412
57.12714 384.002961257587
57.14725 394.04472133589
57.16736 369.943356963443
57.18748 430.985546477349
57.20759 383.023542240001
57.22771 370.997383504798
57.24782 359.999311063803
57.26793 372.016568603065
57.28805 387.092858589754
57.30816 425.997344158049
57.32827 389.055187257505
57.34839 373.006220095386
57.3685 366
57.38861 393.000326492941
57.40873 377.018516357148
57.42884 404.971997161527
57.44896 358.025490466347
57.46907 389.96924056702
57.48918 371.030288544399
57.5093 363
57.52941 390.003311985986
57.54952 381.007103614368
57.56964 397.977755123062
57.58975 363.040316962955
57.60987 374.989327962002
57.62998 367.997365818569
57.65009 382.996916115673
57.67021 376.99979908081
57.69032 386.004437593012
57.71043 381.996298577137
57.73055 390.043610108204
57.75066 389.092393273208
57.77078 337.987761299369
57.79089 397.988104909025
57.811 365
57.83112 371.002412861945
57.85123 360.003028196009
57.87134 380.033046299109
57.89146 387.969417336111
57.91157 397.040620827346
57.93168 356.99925318472
57.9518 394
57.97191 367.986281556587
57.99203 367.021553220544
58.01214 380.011602241653
58.03225 376.026678123115
58.05237 369.989420446421
58.07248 381.999720995244
58.09259 363.014491844848
58.11271 348.007107632714
58.13282 369.993041640213
58.15294 347.021119173431
58.17305 389.054629071653
58.19316 368.070370113155
58.21328 349.000442320507
58.23339 360.99202462717
58.2535 374
58.27362 365.953903250008
58.29373 318.00885647182
58.31385 377.139404415787
58.33396 393.010861921894
58.35407 382.029204396143
58.37419 363.003090597687
58.3943 367
58.41441 357.996853108733
58.43453 353.980470004695
58.45464 343.027152500258
58.47475 373.954569335037
58.49487 372.995364073456
58.51498 381.009657241868
58.5351 355
58.55521 355.002188343871
58.57532 350.988602033902
58.59544 351.05867626855
58.61555 379.05601881022
58.63566 337.957257118781
58.65578 407.977261855795
58.67589 356.02917111807
58.69601 340.003833844889
58.71612 350.009737421855
58.73623 361.024111397224
58.75635 376.008938200028
58.77646 372.989298487477
58.79657 388.97934230394
58.81669 401.986920933168
58.8368 417
58.85691 349.979031145551
58.87703 361.053395739041
58.89714 380.98405169603
58.91726 361.007233913089
58.93737 373.001936836982
58.95748 356.006017816787
58.9776 373
58.99771 389.0016874707
59.01782 395.026903255191
59.03794 423.98698746897
59.05805 385.076124512643
59.07817 375.026576720169
59.09828 352.994166479572
59.11839 386.984980709465
59.13851 394.999699557758
59.15862 391.987300912318
59.17873 379.005430671907
59.19885 393.00323947448
59.21896 379.017546922923
59.23908 380.004943067271
59.25919 379.984231265033
59.2793 430
59.29942 418.973047542858
59.31953 405.007943127565
59.33964 416.999795437418
59.35976 404.015556708711
59.37987 412.971001792618
59.39998 429.99199300638
59.4201 422
59.44021 400.000116765858
59.46033 419.021888113612
59.48044 417.990005624809
59.50055 417.001422070353
59.52067 422.966692958895
59.54078 447.995816022753
59.56089 434.002992515103
59.58101 440.999411170086
59.60112 437.019625578769
59.62124 481.084416401048
59.64135 490.931157612542
59.66146 465.953832168398
59.68158 525.960257517701
59.70169 522.007390534758
59.7218 528
59.74192 573.065494253355
59.76203 640.070491653138
59.78215 676.134721636018
59.80226 758.816718321076
59.82237 845.871114577079
59.84249 944.940065088991
59.8626 1095
59.88271 1260.05455285216
59.90283 1332.1397290429
59.92294 1415.96802021951
59.94305 1296.33874667525
59.96317 1167.27610429053
59.98328 949.163647618038
60.0034 879
60.02351 843.967865174359
60.04362 807.063654277114
60.06374 918.061611579755
60.08385 849.153015829213
60.10396 839.043210481428
60.12408 753.138587402314
60.14419 615.046214675538
60.16431 560.967503011374
60.18442 480.952317524236
60.20453 464.954020089743
60.22465 413.925405518948
60.24476 418.974259741269
60.26487 423.987516672872
60.28499 434.000709961899
60.3051 421
60.32522 406.967083776714
60.34533 375.008837676773
60.36544 395.953431231759
60.38556 345.998062559327
60.40567 407.916757833483
60.42578 413.022759975369
60.4459 393
60.46601 388.993759732666
60.48612 385.035168656647
60.50624 432.000445526923
60.52635 381.119070772641
60.54647 375.964943940424
60.56658 396.001265331771
60.58669 373.013568771815
60.60681 358.999693547022
60.62692 369.017673903835
60.64703 386.015783624604
60.66715 378.924874011265
60.68726 354.965625559334
60.70738 396.984830949676
60.72749 367.020946785551
60.7476 350
60.76772 372.00820120234
60.78783 353.950258503889
60.80794 338.04601541808
60.82806 388.909792790193
60.84817 406.996947016871
60.86828 388.056072706099
60.8884 328
60.90851 375.035347998881
60.92863 410.967268233088
60.94874 359.942947758506
60.96885 367.980900491977
60.98897 359.007265852102
61.00908 366.991293718813
61.02919 369.998570085374
61.04931 372.998879977765
61.06942 365.994143204006
61.08954 352.931836798308
61.10965 332.101727379046
61.12976 397.989137171321
61.14988 339.041891273226
61.16999 363.969731083697
61.1901 405
61.21022 366.961854792242
61.23033 358.023697348634
61.25045 383.05708749246
61.27056 390.023424086582
61.29067 372.013396793159
61.31079 376.995733807094
61.3309 388
61.35101 401.987951710769
61.37113 361.994345998622
61.39124 399.061204278478
61.41135 398.028041789154
61.43147 396.987795097989
61.45158 401.012422095395
61.4717 380
61.49181 394.013963627343
61.51192 419.013792202827
61.53204 415.964955702998
61.55215 404.963742697274
61.57226 433.973497102992
61.59238 422.016525323549
61.61249 424.987000898382
61.63261 447.995022329581
61.65272 421.00181909432
61.67283 468.093936895914
61.69295 497.943373055021
61.71306 451.045184379238
61.73317 470.950875465948
61.75329 487.000489409733
61.7734 490
61.79352 525.002586403691
61.81363 490.946696926509
61.83374 483.028683285653
61.85386 508.936770184781
61.87397 529.005679123845
61.89408 508.019263117776
61.9142 512
61.93431 533.988277570345
61.95442 492.003958383547
61.97454 540.051485673542
61.99465 516.087879480738
62.01477 513.94415183425
62.03488 545.027437930921
62.05499 485.006869134804
62.07511 529.017227316262
62.09522 517.97422982401
62.11533 508.008982358174
62.13545 516.997215120165
62.15556 509.991211429924
62.17568 523.995577766447
62.19579 509.012505470299
62.2159 500
62.23602 537.012493122312
62.25613 520.982773712517
62.27624 528.013402802809
62.29636 518.048212934388
62.31647 491.03090138907
62.33659 481.002003068053
62.3567 484
62.37681 494.991476349099
62.39693 462.984673874148
62.41704 484.05071384608
62.43715 484.071063568901
62.45727 442.055425702031
62.47738 431.979090386725
62.49749 457.999536214418
62.51761 428.983254787302
62.53772 422.025677909806
62.55784 445.9630496002
62.57795 400.962827980103
62.59806 419.999080982455
62.61818 400.986909963233
62.63829 437.001107876749
62.6584 397
62.67852 411.991775911561
62.69863 375.979094336842
62.71875 397.04862773675
62.73886 394.020376512754
62.75897 386.017389161752
62.77909 375.998571610541
62.7992 383
62.81931 354.984872111995
62.83943 352.056125218824
62.85954 411.095986605414
62.87965 421.058859463104
62.89977 391.020500523949
62.91988 402.975678224945
62.94 418
62.96011 392.979066546374
62.98022 364.009390130026
63.00034 398.03874389948
63.02045 390.02326074891
63.04056 382.059870269213
63.06068 348.993125147067
63.08079 392.98246946752
63.10091 391.99063273879
63.12102 374.986178134877
63.14113 374.030529015124
63.16125 396.995339885505
63.18136 374.025700851156
63.20147 384.9736745673
63.22159 398.991373684043
63.2417 409
63.26182 377.979787601619
63.28193 379.009529666828
63.30204 383.019454227404
63.32216 394.001149326735
63.34227 381.020218104383
63.36238 384.972424923693
63.3825 411
63.40261 372.98310618303
63.42272 369.01727113307
63.44284 383.995088274635
63.46295 372.988814354852
63.48307 391.987405886001
63.50318 388.990220062418
63.52329 407.001404537723
63.54341 379.987333037554
63.56352 370.996755674464
63.58363 366.999265744019
63.60375 379.072945938156
63.62386 401.029611864769
63.64398 366.008906963585
63.66409 396.980824666544
63.6842 411
63.70432 388.978552308185
63.72443 381.009751746185
63.74454 397.038846070371
63.76466 409.99554669739
63.78477 406.002449963704
63.80489 416.987420769397
63.825 439
63.84511 427.003436229734
63.86523 468.089582152631
63.88534 496.926089793621
63.90545 438.995622559371
63.92557 501.932517867126
63.94568 496.011365199699
63.96579 511.984846614094
63.98591 540.010716653985
64.00602 547.991381692697
64.02614 529.966256778634
64.04625 508.899177954062
64.06636 452.107996107509
64.08648 434.963949555384
64.10659 482.998965802192
64.1267 445
64.14682 472.022444485254
64.16693 459.953696777715
64.18705 450.088654746945
64.20716 483.084356619109
64.22727 383.100213930337
64.24739 384.991771107579
64.2675 377
64.28761 371.004963345862
64.30773 388.015264227225
64.32784 380.95817336384
64.34796 363.002013169979
64.36807 374.989175278231
64.38818 368.012863426623
64.4083 364
64.42841 382.004469090464
64.44852 361.946765591777
64.46864 315.008051254939
64.48875 350.989391396772
64.50886 330.946692462205
64.52898 391.989036794526
64.54909 344.015724186138
64.56921 360.009619420081
64.58932 361.005139357154
64.60943 375.007538158078
64.62955 364.966467930113
64.64966 359.992188490725
64.66977 374.95847216728
64.68989 390.012583056415
64.71 346
64.73012 376.037282072576
64.75023 390.997820504514
64.77034 370.906891144753
64.79046 331.976350973315
64.81057 379.960295103783
64.83068 362.027892365094
64.8508 354
64.87091 359.995926464304
64.89102 350.013134591806
64.91114 370.97695585488
64.93125 338.999464184591
64.95137 377.952672983366
64.97148 384.989031230573
64.99159 401.003397557529
65.01171 370.987252150347
65.03182 359.986458399086
65.05193 340.985122917378
65.07205 345.02136296615
65.09216 352.977128352333
65.11228 363.9977082007
65.13239 355.007290556597
65.1525 340
65.17262 340.03222286654
65.19273 382.018248238211
65.21284 351.909193401846
65.23296 324.006807798358
65.25307 339.964678814373
65.27319 363.985712512509
65.2933 387
65.31341 371.992776902996
65.33353 349.917269779346
65.35364 298.028153076887
65.37375 360.921701465021
65.39387 345.994484988517
65.41398 373.010330779706
65.43409 331.00345797833
65.45421 355.993545385972
65.47432 312.001693800952
65.49444 362.048557400359
65.51455 338.953154653509
65.53466 348.976303881288
65.55478 343.016646618506
65.57489 332.99648633299
65.595 355
65.61512 365.994216719126
65.63523 358.011626645091
65.65535 375.004316745935
65.67546 364.987693937942
65.69557 384.994748388842
65.71569 373.996562830395
65.7358 401
65.75591 391.989951611008
65.77603 382.010470119229
65.79614 398.020378259413
65.81626 394.023757419198
65.83637 377.037979410143
65.85648 356.000238668075
65.8766 369
65.89671 361.003044530238
65.91682 384.018205740489
65.93694 383.979309826042
65.95705 369.053479676611
65.97716 351.998822719037
65.99728 366.987136838366
66.01739 357.01854391475
66.03751 320.999144509343
66.05762 354.035095398143
66.07773 357.957461761124
66.09785 330.01659594153
66.11796 361.972634528376
66.13807 350.002786566892
66.15819 364.998713825689
66.1783 354
66.19842 372.004211062943
66.21853 356.982691291636
66.23864 363.030388948313
66.25876 366.044600439291
66.27887 340.987545156978
66.29898 375.981339285874
66.3191 354
66.33921 329.008583764394
66.35933 367.02125932046
66.37944 344.947167877427
66.39955 338.980101807882
66.41967 342.021339287366
66.43978 323.995720488306
66.45989 351.98658786825
66.48001 355.9919701939
66.50012 342.00758250849
66.52023 364.014559592955
66.54035 345.913320260824
66.56046 327.956849159551
66.58058 366.988803903921
66.60069 342.012210976904
66.6208 342
66.64092 352.006796216849
66.66103 350.981667213107
66.68114 350.072309028866
66.70126 392.020493918042
66.72137 343.024580964661
66.74149 366.999593570384
66.7616 329
66.78171 335.009126353211
66.80183 346.009525316795
66.82194 361.068001654162
66.84205 394.99088533316
66.86217 361.073114265954
66.88228 331.99667480524
66.90239 352.99430444514
66.92251 346.99796269948
66.94262 356.013919619804
66.96274 361.986270591514
66.98285 349.988837352885
67.00296 350.021959043619
67.02308 338.98437727438
67.04319 367.998952857524
67.0633 341
67.08342 354.027946003898
67.10353 382.04282876003
67.12365 392.935327864276
67.14376 346.064435427031
67.16387 353.941951562229
67.18399 374.019586471015
67.2041 313
67.22421 373.026558506469
67.24433 376.973994076172
67.26444 371.020609024613
67.28456 381.023859776915
67.30467 358.997701693697
67.32478 385.979489086471
67.3449 394
67.36501 424.004530989563
67.38512 405.978524241683
67.40524 404.034461753353
67.42535 424.977247120823
67.44546 419.018032246941
67.46558 427.964121226891
67.48569 468.992688806568
67.50581 471.017053127337
67.52592 516.992299627614
67.54603 480.035025803976
67.56615 572.197545039166
67.58626 591.017221134487
67.60637 616.866369600134
67.62649 733.960690860712
67.6466 753
67.66672 808.132522155183
67.68683 953.09690696535
67.70694 925.921027582586
67.72706 898.140580467055
67.74717 775.193983196266
67.76728 688.039373122494
67.7874 677
67.80751 661.992828650803
67.82763 656.00104605389
67.84774 671.077037470834
67.86785 720.903238062945
67.88797 741.972890999744
67.90808 768.967705069018
67.92819 769.03331573963
67.94831 666.965000493924
67.96842 670.051373389294
67.98853 738.114886382007
68.00865 807.127960375595
68.02876 859.836353071621
68.04888 983.851150122645
68.06899 1095.98641605867
68.0891 1083
68.10922 1175.0555832709
68.12933 1125.80077084174
68.14944 982.804505459009
68.16956 938.072897625614
68.18967 895.027384442298
68.20979 915.978229010641
68.2299 961
68.25001 1012.03950638353
68.27013 1104.10472419167
68.29024 1121.93936544148
68.31035 1049.27942737436
68.33047 914.213494420881
68.35058 774.139748891805
68.3707 652
68.39081 608.98512166673
68.41092 578.981874376484
68.43104 584.055528706788
68.45115 615.036610472603
68.47126 613.993904593092
68.49138 600.071656730587
68.51149 503.023740041691
68.5316 515
68.55172 464.903152890757
68.57183 379.965083787919
68.59195 408.050658424972
68.61206 399.996430494244
68.63217 416.005445410402
68.65229 393.003980235668
68.6724 397
68.69251 351.985312312818
68.71263 356.024706973483
68.73274 368.022469056944
68.75286 379.979879319705
68.77297 375.046026416287
68.79308 343.994631853869
68.8132 380
68.83331 368.98678940224
68.85342 356.010180844981
68.87354 374.00134295614
68.89365 360.002282115686
68.91376 374.988090876228
68.93388 360.022742390592
68.95399 352.99031421225
68.97411 382.005413230426
68.99422 369.98798246207
69.01433 373.015667642634
69.03445 370.932879668308
69.05456 336.026535502575
69.07467 351.964752991152
69.09479 372.985151971225
69.1149 390
69.13502 340.990344001218
69.15513 378.047966513415
69.17524 385.025849325442
69.19536 404.012416025563
69.21547 378.013662784181
69.23558 395.981419279716
69.2557 385
69.27581 343.000230730626
69.29593 387.072799708401
69.31604 405.98652422297
69.33615 378.120247560411
69.35627 333.027571947388
69.37638 358.935372080275
69.39649 407.009691652779
69.41661 355.000617122906
69.43672 406.011667686486
69.45683 366.981446990563
69.47695 388.968233231183
69.49706 349.975172458407
69.51718 400.004029234286
69.53729 341.011451710038
69.5574 372
69.57752 350.0019722039
69.59763 387.037756168995
69.61774 371.925484239143
69.63786 351.961084441381
69.65797 387.988896654814
69.67809 364.006478164936
69.6982 371
69.71831 352.001207158284
69.73843 376.017443366757
69.75854 356.93149813874
69.77865 334.992123924354
69.79877 357.962804255442
69.81888 368.003817327936
69.839 349
69.85911 315.996953849397
69.87922 345.04885245018
69.89934 378.997354873353
69.91945 351.942457209785
69.93956 354.956524951156
69.95968 375.992261960016
69.97979 373.997952764321
69.9999 372
70.02002 325.997003248026
70.04013 361.023234780492
70.06025 352.046211677756
70.08036 394.976246518045
70.10047 367.032217380213
70.12059 377.988424441091
70.1407 390
70.16081 380.997971968434
70.18093 382.996807507633
70.20104 371.971261302793
70.22116 349.083009372116
70.24127 318.966294379337
70.26138 380.953284170388
70.2815 379
70.30161 352.995078719166
70.32172 365.027737419381
70.34184 372.916980672576
70.36195 318.004259494599
70.38207 366.954083021058
70.40218 350.02502767984
70.42229 340.005541944171
70.44241 340.019774852948
70.46252 390.002177971811
70.48263 348.967510686562
70.50275 356.965376592866
70.52286 318.030574372219
70.54297 334.985632069372
70.56309 318.011448576859
70.5832 318
70.60332 363.031960250637
70.62343 374.011827926621
70.64354 374.944538573019
70.66366 337.014234467791
70.68377 358.986843218664
70.70388 334.036743925485
70.724 321
70.74411 350.994088310803
70.76423 306.970948042745
70.78434 327.036009577054
70.80445 319.041851778729
70.82457 318.962471388174
70.84468 342.014826038146
70.86479 308.997684910408
70.88491 349.008524411815
70.90502 329.989707420639
70.92513 336.9825862509
70.94525 306.96983696022
70.96536 329.922348762253
70.98548 347.023972956613
71.00559 308.004199374993
71.0257 332
71.04582 319.993413169771
71.06593 334.029615288573
71.08604 330.920660473124
71.10616 292.966532116291
71.12627 355.928572782032
71.14639 344.027356480978
71.1665 301
71.18661 344.012905590645
71.20673 330.968474396489
71.22684 329.027210067365
71.24695 344.979339109804
71.26707 341.01644741275
71.28718 332.003166195764
71.3073 339
71.32741 349.993185248905
71.34752 320.983117052546
71.36764 318.977384063562
71.38775 300.99374618444
71.40786 319.991314363448
71.42798 315.974917674415
71.44809 355.998669517064
71.4682 317
71.48832 323.029404568672
71.50843 347.006821396315
71.52855 337.992638564469
71.54866 346.985589790698
71.56877 340.029868562523
71.58889 315.011490759772
71.609 307
71.62911 336.01616734303
71.64923 356.005327308949
71.66934 342.948423451532
71.68946 327.967834452657
71.70957 353.012790862697
71.72968 321.999618118816
71.7498 356
71.76991 346.004142320541
71.79002 371.99894476712
71.81014 341.967709144078
71.83025 349.00730212384
71.85037 329.016213523533
71.87048 342.971860461485
71.89059 361.003137552166
71.91071 338.992553756573
71.93082 340.003224933308
71.95093 334.985028599144
71.97105 334.047105527455
71.99116 361.96997531698
72.01127 352.038080534951
72.03139 338.991020689246
72.0515 364
72.07162 320.971208447364
72.09173 330.036927521226
72.11184 348.021843645113
72.13196 349.023209944433
72.15207 341.973693701961
72.17218 368.00199996476
72.1923 331
72.21241 324.019743955697
72.23253 381.050260096669
72.25264 377.974726537145
72.27275 368.053991373207
72.29287 344.998867972791
72.31298 362.996527009465
72.33309 339.016225775635
72.35321 327.009458280106
72.37332 364.031460585195
72.39344 364.937024934499
72.41355 328.974621271633
72.43366 353.921784061617
72.45378 375.009138262797
72.47389 349.008658844368
72.494 346
72.51412 326.984381264075
72.53423 337.065886981335
72.55434 375.972519325528
72.57446 327.037023989723
72.59457 349.984221757062
72.61469 334.001244232611
72.6348 352
72.65491 341.000893472182
72.67503 357.003602411615
72.69514 341.982854123809
72.71525 343.024525564873
72.73537 330.977359448491
72.75548 369.970184357844
72.7756 373
72.79571 366.998438528187
72.81582 362.991539755971
72.83594 358.020240623662
72.85605 366.057412301079
72.87616 329.009505134196
72.89628 359.976358740124
72.91639 355.006082135762
72.9365 353
72.95662 360.010519951136
72.97673 373.020242566393
72.99685 383.010332646048
73.01696 378.030095945686
73.03707 367.98302949166
73.05719 393.991315823457
73.0773 392
73.09741 385.99766026111
73.11753 376.974592693506
73.13764 371.055396131934
73.15776 404.026804187771
73.17787 363.992866925001
73.19798 413.976169171702
73.2181 391
73.23821 397.001289523347
73.25832 401.038807611097
73.27844 455.030796876669
73.29855 434.004928134677
73.31867 465.962267998363
73.33878 470.988136107715
73.35889 491.997521355854
73.37901 495.020017086844
73.39912 572.073841603696
73.41923 594.944311761433
73.43935 536.924795307405
73.45946 533.054292119777
73.47957 479.051155546916
73.49969 467.016835066195
73.5198 410
73.53992 414.024107658287
73.56003 441.049907723113
73.58014 469.013941986299
73.60026 460.008897355767
73.62037 462.015058758352
73.64048 442.009024651257
73.6606 438
73.68071 399.992993462998
73.70083 407.988185131211
73.72094 373.935350905277
73.74105 361.007315585773
73.76117 366.964985787672
73.78128 395.986087867656
73.80139 367.039430276026
73.82151 296.001620634714
73.84162 357.036244936219
73.86174 338.959765328185
73.88185 337.969234339064
73.90196 318.980624486314
73.92208 356.969697212774
73.94219 362.999758585247
73.9623 356
73.98242 320.012059326694
74.00253 366.025594827666
74.02264 338.952112265818
74.04276 344.968061792055
74.06287 355.983730990079
74.08299 364.999826543801
74.1031 354
74.12321 332.988429683477
74.14333 319.009462559095
74.16344 339.031920072724
74.18355 338.033537924114
74.20367 326.0016861655
74.22378 336.985170143564
74.2439 341
74.26401 317.99109851236
74.28412 319.019028703818
74.30424 332.972887553625
74.32435 312.95687275915
74.34446 352.991523373102
74.36458 314.030731577732
74.38469 323.98396477857
74.40481 348.001930257248
74.42492 335.988259392117
74.44503 342.037906593673
74.46515 358.948219662519
74.48526 329.956660206494
74.50537 378.013654374203
74.52549 314.016229353329
74.5456 338
74.56571 324.99360443306
74.58583 335.034151555498
74.60594 354.016572743045
74.62606 346.045957900919
74.64617 328.986411307344
74.66628 350.998525620227
74.6864 332
74.70651 338.993078382712
74.72662 314.007465004215
74.74674 355.063833373125
74.76685 348.083941937814
74.78697 325.976297389243
74.80708 363.982152602856
74.82719 345.015165292474
74.84731 328.999519553088
74.86742 327.983420935152
74.88753 304.993375753289
74.90765 330.101111738395
74.92776 346.069970732811
74.94787 288.039011662621
74.96799 310.982904704093
74.9881 325
75.00822 318.991236455399
