3.00117 20414
3.02128 19874
3.0414 19529
3.06151 18930
3.08162 18560
3.10174 18068
3.12185 17288
3.14197 16882
3.16208 16353
3.18219 16152
3.20231 15326
3.22242 15020
3.24253 14834
3.26265 13929
3.28276 14028
3.30288 13263
3.32299 12977
3.3431 12524
3.36322 12152
3.38333 11716
3.40344 11366
3.42356 11017
3.44367 10803
3.46379 10181
3.4839 9970
3.50401 9535
3.52413 9107
3.54424 8878
3.56435 8586
3.58447 8474
3.60458 7792
3.62469 7689
3.64481 7493
3.66492 7167
3.68504 7014
3.70515 6466
3.72526 6247
3.74538 6180
3.76549 5748
3.7856 5745
3.80572 5258
3.82583 5133
3.84595 5021
3.86606 4748
3.88617 4769
3.90629 4414
3.9264 4217
3.94651 4123
3.96663 3880
3.98674 3721
4.00686 3462
4.02697 3357
4.04708 3263
4.0672 3103
4.08731 3106
4.10742 2846
4.12754 2736
4.14765 2701
4.16776 2517
4.18788 2551
4.20799 2299
4.22811 2254
4.24822 2265
4.26833 2171
4.28845 2095
4.30856 1997
4.32867 1861
4.34879 1974
4.3689 1805
4.38902 1797
4.40913 1682
4.42924 1679
4.44936 1693
4.46947 1730
4.48958 1613
4.5097 1517
4.52981 1457
4.54992 1468
4.57004 1424
4.59015 1381
4.61027 1321
4.63038 1323
4.65049 1410
4.67061 1336
4.69072 1289
4.71083 1260
4.73095 1243
4.75106 1244
4.77118 1188
4.79129 1177
4.8114 1105
4.83152 1057
4.85163 1095
4.87174 1105
4.89186 1044
4.91197 997
4.93209 1032
4.9522 981
4.97231 1039
4.99243 920
5.01254 873
5.03265 805
5.05277 924
5.07288 957
5.09299 871
5.11311 841
5.13322 774
5.15334 835
5.17345 829
5.19356 742
5.21368 693
5.23379 727
5.2539 817
5.27402 753
5.29413 708
5.31425 681
5.33436 724
5.35447 676
5.37459 711
5.3947 660
5.41481 636
5.43493 619
5.45504 665
5.47516 643
5.49527 600
5.51538 626
5.5355 618
5.55561 631
5.57572 640
5.59584 573
5.61595 574
5.63606 549
5.65618 589
5.67629 627
5.69641 552
5.71652 579
5.73663 574
5.75675 531
5.77686 569
5.79697 542
5.81709 516
5.8372 530
5.85732 509
5.87743 542
5.89754 529
5.91766 490
5.93777 514
5.95788 520
5.978 544
5.99811 542
6.01823 484
6.03834 529
6.05845 497
6.07857 485
6.09868 509
6.11879 502
6.13891 476
6.15902 472
6.17913 484
6.19925 456
6.21936 474
6.23948 482
6.25959 529
6.2797 482
6.29982 484
6.31993 459
6.34004 461
6.36016 448
6.38027 503
6.40039 428
6.4205 459
6.44061 416
6.46073 423
6.48084 432
6.50095 427
6.52107 465
6.54118 415
6.56129 428
6.58141 415
6.60152 396
6.62164 403
6.64175 377
6.66186 427
6.68198 414
6.70209 368
6.7222 396
6.74232 381
6.76243 382
6.78255 395
6.80266 390
6.82277 373
6.84289 412
6.863 356
6.88311 403
6.90323 366
6.92334 388
6.94346 364
6.96357 322
6.98368 405
7.0038 371
7.02391 415
7.04402 342
7.06414 371
7.08425 378
7.10436 369
7.12448 338
7.14459 366
7.16471 388
7.18482 343
7.20493 370
7.22505 342
7.24516 383
7.26527 362
7.28539 369
7.3055 332
7.32562 370
7.34573 352
7.36584 322
7.38596 357
7.40607 332
7.42618 330
7.4463 369
7.46641 328
7.48653 357
7.50664 350
7.52675 306
7.54687 368
7.56698 343
7.58709 334
7.60721 322
7.62732 342
7.64743 360
7.66755 369
7.68766 334
7.70778 328
7.72789 374
7.748 322
7.76812 347
7.78823 352
7.80834 349
7.82846 341
7.84857 343
7.86869 329
7.8888 396
7.90891 328
7.92903 341
7.94914 384
7.96925 350
7.98937 348
8.00948 362
8.0296 335
8.04971 365
8.06982 342
8.08994 356
8.11005 300
8.13016 337
8.15028 327
8.17039 373
8.1905 318
8.21062 345
8.23073 327
8.25085 353
8.27096 390
8.29107 365
8.31119 363
8.3313 349
8.35141 345
8.37153 326
8.39164 355
8.41176 335
8.43187 362
8.45198 368
8.4721 351
8.49221 362
8.51232 385
8.53244 354
8.55255 368
8.57266 358
8.59278 386
8.61289 362
8.63301 352
8.65312 365
8.67323 416
8.69335 405
8.71346 413
8.73357 399
8.75369 409
8.7738 405
8.79392 478
8.81403 421
8.83414 460
8.85426 426
8.87437 454
8.89448 413
8.9146 430
8.93471 423
8.95483 418
8.97494 371
8.99505 362
9.01517 383
9.03528 382
9.05539 350
9.07551 399
9.09562 357
9.11573 324
9.13585 363
9.15596 363
9.17608 331
9.19619 367
9.2163 344
9.23642 319
9.25653 323
9.27664 326
9.29676 325
9.31687 322
9.33699 327
9.3571 319
9.37721 332
9.39733 324
9.41744 345
9.43755 303
9.45767 334
9.47778 303
9.4979 371
9.51801 315
9.53812 316
9.55824 332
9.57835 311
9.59846 335
9.61858 336
9.63869 319
9.6588 337
9.67892 346
9.69903 339
9.71915 326
9.73926 336
9.75937 331
9.77949 322
9.7996 316
9.81971 310
9.83983 316
9.85994 326
9.88006 367
9.90017 365
9.92028 322
9.9404 299
9.96051 325
9.98062 345
10.00074 319
10.02085 324
10.04097 332
10.06108 316
10.08119 337
10.10131 347
10.12142 312
10.14153 308
10.16165 338
10.18176 330
10.20187 376
10.22199 333
10.2421 317
10.26222 329
10.28233 320
10.30244 321
10.32256 320
10.34267 329
10.36278 289
10.3829 338
10.40301 305
10.42313 329
10.44324 339
10.46335 326
10.48347 336
10.50358 305
10.52369 293
10.54381 324
10.56392 344
10.58403 327
10.60415 301
10.62426 339
10.64438 329
10.66449 314
10.6846 338
10.70472 304
10.72483 325
10.74494 314
10.76506 338
10.78517 330
10.80529 339
10.8254 340
10.84551 333
10.86563 291
10.88574 365
10.90585 319
10.92597 330
10.94608 310
10.9662 335
10.98631 341
11.00642 311
11.02654 333
11.04665 348
11.06676 334
11.08688 308
11.10699 339
11.1271 330
11.14722 366
11.16733 310
11.18745 340
11.20756 316
11.22767 333
11.24779 344
11.2679 311
11.28801 342
11.30813 368
11.32824 363
11.34836 321
11.36847 336
11.38858 351
11.4087 320
11.42881 308
11.44892 337
11.46904 321
11.48915 367
11.50927 324
11.52938 334
11.54949 316
11.56961 361
11.58972 360
11.60983 363
11.62995 343
11.65006 357
11.67017 319
11.69029 344
11.7104 360
11.73052 376
11.75063 307
11.77074 348
11.79086 351
11.81097 341
11.83108 350
11.8512 330
11.87131 348
11.89143 357
11.91154 359
11.93165 355
11.95177 355
11.97188 384
11.99199 374
12.01211 322
12.03222 356
12.05234 364
12.07245 374
12.09256 324
12.11268 373
12.13279 326
12.1529 361
12.17302 354
12.19313 371
12.21324 346
12.23336 302
12.25347 328
12.27359 355
12.2937 336
12.31381 325
12.33393 321
12.35404 324
12.37415 300
12.39427 351
12.41438 306
12.4345 275
12.45461 313
12.47472 312
12.49484 319
12.51495 303
12.53506 323
12.55518 326
12.57529 317
12.5954 310
12.61552 299
12.63563 327
12.65575 312
12.67586 272
12.69597 304
12.71609 289
12.7362 294
12.75631 270
12.77643 291
12.79654 295
12.81666 282
12.83677 335
12.85688 296
12.877 308
12.89711 323
12.91722 300
12.93734 303
12.95745 281
12.97757 277
12.99768 277
13.01779 283
13.03791 296
13.05802 310
13.07813 241
13.09825 275
13.11836 309
13.13847 280
13.15859 314
13.1787 290
13.19882 319
13.21893 282
13.23904 281
13.25916 312
13.27927 259
13.29938 232
13.3195 263
13.33961 275
13.35973 289
13.37984 279
13.39995 261
13.42007 271
13.44018 277
13.46029 251
13.48041 272
13.50052 302
13.52064 312
13.54075 269
13.56086 295
13.58098 311
13.60109 289
13.6212 286
13.64132 262
13.66143 298
13.68154 309
13.70166 261
13.72177 256
13.74189 281
13.762 279
13.78211 295
13.80223 245
13.82234 283
13.84245 254
13.86257 251
13.88268 230
13.9028 260
13.92291 255
13.94302 295
13.96314 270
13.98325 260
14.00336 300
14.02348 282
14.04359 247
14.06371 253
14.08382 275
14.10393 297
14.12405 280
14.14416 241
14.16427 262
14.18439 261
14.2045 274
14.22461 264
14.24473 242
14.26484 249
14.28496 258
14.30507 255
14.32518 279
14.3453 252
14.36541 245
14.38552 253
14.40564 283
14.42575 245
14.44587 278
14.46598 261
14.48609 233
14.50621 272
14.52632 247
14.54643 252
14.56655 243
14.58666 289
14.60677 255
14.62689 241
14.647 266
14.66712 234
14.68723 242
14.70734 232
14.72746 267
14.74757 263
14.76768 231
14.7878 270
14.80791 272
14.82803 276
14.84814 251
14.86825 290
14.88837 262
14.90848 241
14.92859 264
14.94871 256
14.96882 261
14.98894 266
15.00905 267
15.02916 251
15.04928 224
15.06939 242
15.0895 241
15.10962 247
15.12973 251
15.14984 270
15.16996 235
15.19007 258
15.21019 266
15.2303 262
15.25041 284
15.27053 289
15.29064 248
15.31075 264
15.33087 256
15.35098 269
15.3711 254
15.39121 248
15.41132 276
15.43144 241
15.45155 263
15.47166 227
15.49178 259
15.51189 236
15.53201 269
15.55212 233
15.57223 267
15.59235 247
15.61246 266
15.63257 257
15.65269 258
15.6728 264
15.69291 237
15.71303 233
15.73314 254
15.75326 236
15.77337 262
15.79348 251
15.8136 246
15.83371 231
15.85382 237
15.87394 229
15.89405 276
15.91417 270
15.93428 259
15.95439 247
15.97451 255
15.99462 247
16.01473 222
16.03485 267
16.05496 232
16.07508 269
16.09519 242
16.1153 262
16.13542 234
16.15553 250
16.17564 256
16.19576 239
16.21587 248
16.23598 221
16.2561 246
16.27621 257
16.29633 240
16.31644 220
16.33655 237
16.35667 235
16.37678 241
16.39689 248
16.41701 265
16.43712 221
16.45724 248
16.47735 234
16.49746 221
16.51758 245
16.53769 227
16.5578 252
16.57792 229
16.59803 239
16.61814 221
16.63826 260
16.65837 251
16.67849 249
16.6986 278
16.71871 263
16.73883 258
16.75894 238
16.77905 254
16.79917 223
16.81928 228
16.8394 248
16.85951 247
16.87962 242
16.89974 243
16.91985 238
16.93996 251
16.96008 258
16.98019 234
17.00031 254
17.02042 230
17.04053 236
17.06065 246
17.08076 236
17.10087 263
17.12099 247
17.1411 234
17.16121 240
17.18133 236
17.20144 236
17.22156 252
17.24167 236
17.26178 278
17.2819 235
17.30201 228
17.32212 279
17.34224 260
17.36235 260
17.38247 231
17.40258 244
17.42269 249
17.44281 262
17.46292 222
17.48303 264
17.50315 283
17.52326 240
17.54338 286
17.56349 257
17.5836 289
17.60372 248
17.62383 251
17.64394 255
17.66406 280
17.68417 271
17.70428 344
17.7244 276
17.74451 273
17.76463 301
17.78474 281
17.80485 282
17.82497 283
17.84508 295
17.86519 268
17.88531 284
17.90542 273
17.92554 260
17.94565 283
17.96576 267
17.98588 242
18.00599 258
18.0261 263
18.04622 247
18.06633 290
18.08645 251
18.10656 274
18.12667 267
18.14679 276
18.1669 233
18.18701 264
18.20713 248
18.22724 254
18.24735 270
18.26747 243
18.28758 261
18.3077 253
18.32781 231
18.34792 239
18.36804 275
18.38815 254
18.40826 268
18.42838 244
18.44849 285
18.46861 258
18.48872 250
18.50883 255
18.52895 244
18.54906 222
18.56917 242
18.58929 227
18.6094 247
18.62951 283
18.64963 228
18.66974 258
18.68986 242
18.70997 256
18.73008 266
18.7502 244
18.77031 243
18.79042 263
18.81054 249
18.83065 292
18.85077 275
18.87088 260
18.89099 276
18.91111 246
18.93122 247
18.95133 263
18.97145 257
18.99156 258
19.01168 255
19.03179 255
19.0519 211
19.07202 266
19.09213 270
19.11224 272
19.13236 260
19.15247 265
19.17258 249
19.1927 261
19.21281 248
19.23293 251
19.25304 278
19.27315 280
19.29327 309
19.31338 282
19.33349 275
19.35361 267
19.37372 278
19.39384 316
19.41395 278
19.43406 307
19.45418 308
19.47429 349
19.4944 353
19.51452 344
19.53463 366
19.55475 374
19.57486 439
19.59497 494
19.61509 536
19.6352 597
19.65531 595
19.67543 644
19.69554 620
19.71565 657
19.73577 689
19.75588 666
19.776 803
19.79611 773
19.81622 768
19.83634 736
19.85645 739
19.87656 649
19.89668 698
19.91679 640
19.93691 653
19.95702 640
19.97713 657
19.99725 650
20.01736 618
20.03747 600
20.05759 543
20.0777 608
20.09782 543
20.11793 569
20.13804 543
20.15816 574
20.17827 560
20.19838 536
20.2185 492
20.23861 543
20.25872 498
20.27884 569
20.29895 577
20.31907 531
20.33918 520
20.35929 556
20.37941 596
20.39952 626
20.41963 633
20.43975 579
20.45986 589
20.47998 632
20.50009 598
20.5202 641
20.54032 598
20.56043 671
20.58054 753
20.60066 815
20.62077 893
20.64088 1028
20.661 1166
20.68111 1466
20.70123 1938
20.72134 2371
20.74145 3036
20.76157 3812
20.78168 4534
20.80179 4895
20.82191 4840
20.84202 4735
20.86214 4107
20.88225 3214
20.90236 2315
20.92248 1816
20.94259 1161
20.9627 946
20.98282 825
21.00293 736
21.02305 679
21.04316 707
21.06327 631
21.08339 618
21.1035 593
21.12361 580
21.14373 523
21.16384 542
21.18395 481
21.20407 521
21.22418 504
21.2443 516
21.26441 505
21.28452 508
21.30464 518
21.32475 468
21.34486 503
21.36498 540
21.38509 469
21.40521 477
21.42532 485
21.44543 448
21.46555 477
21.48566 455
21.50577 486
21.52589 468
21.546 443
21.56612 425
21.58623 464
21.60634 449
21.62646 429
21.64657 399
21.66668 403
21.6868 415
21.70691 404
21.72702 412
21.74714 407
21.76725 381
21.78737 384
21.80748 412
21.82759 386
21.84771 391
21.86782 400
21.88793 382
21.90805 385
21.92816 421
21.94828 388
21.96839 404
21.9885 363
22.00862 425
22.02873 378
22.04884 369
22.06896 434
22.08907 423
22.10919 393
22.1293 387
22.14941 361
22.16953 348
22.18964 385
22.20975 352
22.22987 386
22.24998 400
22.27009 397
22.29021 385
22.31032 430
22.33044 382
22.35055 426
22.37066 400
22.39078 355
22.41089 360
22.431 374
22.45112 350
22.47123 368
22.49135 370
22.51146 390
22.53157 409
22.55169 395
22.5718 404
22.59191 352
22.61203 376
22.63214 383
22.65225 358
22.67237 374
22.69248 363
22.7126 385
22.73271 354
22.75282 376
22.77294 386
22.79305 387
22.81316 368
22.83328 353
22.85339 361
22.87351 397
22.89362 389
22.91373 410
22.93385 383
22.95396 384
22.97407 386
22.99419 373
23.0143 362
23.03442 347
23.05453 360
23.07464 353
23.09476 351
23.11487 357
23.13498 376
23.1551 333
23.17521 388
23.19532 387
23.21544 365
23.23555 381
23.25567 327
23.27578 357
23.29589 367
23.31601 395
23.33612 381
23.35623 377
23.37635 340
23.39646 361
23.41658 369
23.43669 330
23.4568 349
23.47692 362
23.49703 349
23.51714 382
23.53726 383
23.55737 349
23.57749 382
23.5976 386
23.61771 358
23.63783 383
23.65794 405
23.67805 400
23.69817 442
23.71828 404
23.73839 377
23.75851 417
23.77862 410
23.79874 360
23.81885 415
23.83896 408
23.85908 439
23.87919 446
23.8993 441
23.91942 404
23.93953 430
23.95965 441
23.97976 475
23.99987 471
24.01999 435
24.0401 411
24.06021 426
24.08033 422
24.10044 369
24.12056 417
24.14067 380
24.16078 439
24.1809 396
24.20101 391
24.22112 381
24.24124 398
24.26135 404
24.28146 404
24.30158 413
24.32169 417
24.34181 384
24.36192 360
24.38203 376
24.40215 410
24.42226 384
24.44237 368
24.46249 397
24.4826 372
24.50272 395
24.52283 383
24.54294 394
24.56306 374
24.58317 396
24.60328 437
24.6234 380
24.64351 414
24.66362 392
24.68374 438
24.70385 406
24.72397 407
24.74408 414
24.76419 386
24.78431 429
24.80442 361
24.82453 419
24.84465 431
24.86476 399
24.88488 410
24.90499 428
24.9251 395
24.94522 425
24.96533 409
24.98544 390
25.00556 405
25.02567 393
25.04579 401
25.0659 423
25.08601 393
25.10613 440
25.12624 441
25.14635 444
25.16647 547
25.18658 511
25.20669 482
25.22681 519
25.24692 530
25.26704 542
25.28715 524
25.30726 460
25.32738 460
25.34749 500
25.3676 441
25.38772 479
25.40783 485
25.42795 472
25.44806 474
25.46817 493
25.48829 507
25.5084 476
25.52851 490
25.54863 487
25.56874 520
25.58886 484
25.60897 527
25.62908 516
25.6492 500
25.66931 484
25.68942 478
25.70954 514
25.72965 513
25.74976 504
25.76988 531
25.78999 514
25.81011 518
25.83022 518
25.85033 554
25.87045 553
25.89056 499
25.91067 569
25.93079 528
25.9509 563
25.97102 574
25.99113 555
26.01124 574
26.03136 566
26.05147 612
26.07158 620
26.0917 646
26.11181 706
26.13193 701
26.15204 764
26.17215 820
26.19227 904
26.21238 926
26.23249 912
26.25261 1057
26.27272 1104
26.29283 1269
26.31295 1366
26.33306 1639
26.35318 1818
26.37329 2246
26.3934 2796
26.41352 3556
26.43363 4600
26.45374 5957
26.47386 7944
26.49397 10490
26.51409 13381
26.5342 16503
26.55431 19089
26.57443 21019
26.59454 21938
26.61465 20805
26.63477 18318
26.65488 14694
26.67499 10940
26.69511 7861
26.71522 5463
26.73534 3589
26.75545 2421
26.77556 1852
26.79568 1539
26.81579 1404
26.8359 1251
26.85602 1105
26.87613 1012
26.89625 991
26.91636 891
26.93647 807
26.95659 776
26.9767 689
26.99681 742
27.01693 728
27.03704 653
27.05716 662
27.07727 648
27.09738 558
27.1175 549
27.13761 575
27.15772 498
27.17784 531
27.19795 519
27.21806 478
27.23818 502
27.25829 501
27.27841 556
27.29852 526
27.31863 556
27.33875 533
27.35886 586
27.37897 614
27.39909 618
27.4192 624
27.43932 581
27.45943 596
27.47954 568
27.49966 491
27.51977 493
27.53988 440
27.56 417
27.58011 437
27.60023 435
27.62034 369
27.64045 438
27.66057 411
27.68068 422
27.70079 418
27.72091 370
27.74102 436
27.76113 408
27.78125 405
27.80136 418
27.82148 419
27.84159 418
27.8617 402
27.88182 400
27.90193 421
27.92204 383
27.94216 374
27.96227 359
27.98239 367
28.0025 354
28.02261 353
28.04273 372
28.06284 358
28.08295 384
28.10307 368
28.12318 336
28.1433 331
28.16341 395
28.18352 328
28.20364 329
28.22375 353
28.24386 298
28.26398 391
28.28409 314
28.3042 334
28.32432 384
28.34443 338
28.36455 335
28.38466 357
28.40477 323
28.42489 354
28.445 315
28.46511 345
28.48523 333
28.50534 322
28.52546 311
28.54557 346
28.56568 344
28.5858 332
28.60591 322
28.62602 359
28.64614 318
28.66625 352
28.68636 309
28.70648 325
28.72659 334
28.74671 351
28.76682 338
28.78693 325
28.80705 364
28.82716 301
28.84727 295
28.86739 328
28.8875 332
28.90762 332
28.92773 322
28.94784 341
28.96796 314
28.98807 334
29.00818 315
29.0283 307
29.04841 343
29.06853 331
29.08864 362
29.10875 322
29.12887 350
29.14898 354
29.16909 311
29.18921 319
29.20932 347
29.22943 298
29.24955 335
29.26966 322
29.28978 321
29.30989 315
29.33 340
29.35012 285
29.37023 310
29.39034 318
29.41046 314
29.43057 323
29.45069 318
29.4708 328
29.49091 321
29.51103 296
29.53114 327
29.55125 320
29.57137 322
29.59148 357
29.6116 353
29.63171 376
29.65182 325
29.67194 333
29.69205 330
29.71216 330
29.73228 325
29.75239 356
29.7725 336
29.79262 367
29.81273 368
29.83285 355
29.85296 347
29.87307 313
29.89319 339
29.9133 297
29.93341 341
29.95353 331
29.97364 319
29.99376 327
30.01387 290
30.03398 339
30.0541 312
30.07421 303
30.09432 317
30.11444 324
30.13455 311
30.15467 341
30.17478 357
30.19489 313
30.21501 307
30.23512 370
30.25523 326
30.27535 313
30.29546 275
30.31557 300
30.33569 289
30.3558 280
30.37592 279
30.39603 302
30.41614 254
30.43626 313
30.45637 285
30.47648 266
30.4966 270
30.51671 273
30.53683 275
30.55694 281
30.57705 280
30.59717 315
30.61728 299
30.63739 307
30.65751 320
30.67762 282
30.69773 337
30.71785 318
30.73796 318
30.75808 307
30.77819 355
30.7983 331
30.81842 307
30.83853 345
30.85864 300
30.87876 300
30.89887 297
30.91899 311
30.9391 306
30.95921 300
30.97933 306
30.99944 310
31.01955 335
31.03967 284
31.05978 329
31.0799 265
31.10001 325
31.12012 309
31.14024 295
31.16035 309
31.18046 319
31.20058 274
31.22069 305
31.2408 304
31.26092 266
31.28103 286
31.30115 284
31.32126 279
31.34137 289
31.36149 295
31.3816 276
31.40171 292
31.42183 308
31.44194 272
31.46206 251
31.48217 261
31.50228 271
31.5224 279
31.54251 288
31.56262 243
31.58274 255
31.60285 262
31.62297 261
31.64308 277
31.66319 274
31.68331 282
31.70342 281
31.72353 264
31.74365 267
31.76376 290
31.78387 271
31.80399 258
31.8241 252
31.84422 277
31.86433 272
31.88444 289
31.90456 306
31.92467 299
31.94478 277
31.9649 278
31.98501 289
32.00513 261
32.02524 311
32.04535 265
32.06547 253
32.08558 282
32.10569 285
32.12581 296
32.14592 299
32.16604 280
32.18615 267
32.20626 288
32.22638 298
32.24649 259
32.2666 308
32.28672 262
32.30683 260
32.32694 267
32.34706 284
32.36717 267
32.38729 255
32.4074 268
32.42751 272
32.44763 267
32.46774 258
32.48785 283
32.50797 257
32.52808 259
32.5482 260
32.56831 264
32.58842 285
32.60854 231
32.62865 250
32.64876 234
32.66888 269
32.68899 277
32.7091 264
32.72922 257
32.74933 268
32.76945 296
32.78956 284
32.80967 262
32.82979 260
32.8499 262
32.87001 275
32.89013 276
32.91024 292
32.93036 303
32.95047 287
32.97058 355
32.9907 374
33.01081 358
33.03092 351
33.05104 381
33.07115 339
33.09127 370
33.11138 369
33.13149 365
33.15161 328
33.17172 349
33.19183 356
33.21195 303
33.23206 323
33.25217 294
33.27229 308
33.2924 283
33.31252 310
33.33263 294
33.35274 266
33.37286 257
33.39297 277
33.41308 258
33.4332 282
33.45331 267
33.47343 276
33.49354 270
33.51365 273
33.53377 282
33.55388 263
33.57399 288
33.59411 262
33.61422 275
33.63434 264
33.65445 260
33.67456 292
33.69468 267
33.71479 244
33.7349 280
33.75502 263
33.77513 264
33.79524 233
33.81536 226
33.83547 256
33.85559 248
33.8757 260
33.89581 249
33.91593 207
33.93604 267
33.95615 258
33.97627 281
33.99638 240
34.0165 226
34.03661 242
34.05672 266
34.07684 262
34.09695 252
34.11706 264
34.13718 286
34.15729 296
34.17741 301
34.19752 282
34.21763 322
34.23775 326
34.25786 293
34.27797 331
34.29809 309
34.3182 388
34.33831 352
34.35843 353
34.37854 348
34.39866 383
34.41877 399
34.43888 396
34.459 389
34.47911 420
34.49922 402
34.51934 423
34.53945 428
34.55957 419
34.57968 414
34.59979 445
34.61991 424
34.64002 470
34.66013 502
34.68025 459
34.70036 496
34.72047 463
34.74059 487
34.7607 536
34.78082 565
34.80093 492
34.82104 498
34.84116 552
34.86127 558
34.88138 513
34.9015 552
34.92161 523
34.94173 551
34.96184 553
34.98195 471
35.00207 526
35.02218 469
35.04229 493
35.06241 456
35.08252 456
35.10264 385
35.12275 400
35.14286 404
35.16298 428
35.18309 430
35.2032 382
35.22332 364
35.24343 386
35.26354 383
35.28366 378
35.30377 383
35.32389 406
35.344 393
35.36411 445
35.38423 379
35.40434 401
35.42445 416
35.44457 468
35.46468 481
35.4848 479
35.50491 481
35.52502 505
35.54514 462
35.56525 460
35.58536 496
35.60548 473
35.62559 443
35.64571 417
35.66582 382
35.68593 437
35.70605 418
35.72616 398
35.74627 397
35.76639 401
35.7865 417
35.80661 387
35.82673 391
35.84684 407
35.86696 390
35.88707 404
35.90718 391
35.9273 371
35.94741 397
35.96752 378
35.98764 379
36.00775 373
36.02787 394
36.04798 359
36.06809 415
36.08821 378
36.10832 384
36.12843 390
36.14855 389
36.16866 411
36.18878 430
36.20889 435
36.229 434
36.24912 454
36.26923 498
36.28934 588
36.30946 663
36.32957 739
36.34968 789
36.3698 951
36.38991 1063
36.41003 1215
36.43014 1385
36.45025 1590
36.47037 1646
36.49048 1664
36.51059 1535
36.53071 1376
36.55082 1398
36.57094 1117
36.59105 971
36.61116 829
36.63128 722
36.65139 616
36.6715 505
36.69162 466
36.71173 416
36.73184 409
36.75196 411
36.77207 395
36.79219 331
36.8123 393
36.83241 397
36.85253 393
36.87264 376
36.89275 366
36.91287 337
36.93298 347
36.9531 382
36.97321 325
36.99332 345
37.01344 368
37.03355 336
37.05366 351
37.07378 345
37.09389 342
37.11401 352
37.13412 373
37.15423 357
37.17435 331
37.19446 308
37.21457 322
37.23469 328
37.2548 384
37.27491 340
37.29503 357
37.31514 348
37.33526 332
37.35537 374
37.37548 350
37.3956 358
37.41571 360
37.43582 357
37.45594 346
37.47605 357
37.49617 328
37.51628 352
37.53639 384
37.55651 370
37.57662 373
37.59673 349
37.61685 378
37.63696 364
37.65708 350
37.67719 380
37.6973 339
37.71742 331
37.73753 348
37.75764 397
37.77776 383
37.79787 385
37.81798 336
37.8381 334
37.85821 322
37.87833 359
37.89844 346
37.91855 330
37.93867 304
37.95878 317
37.97889 362
37.99901 361
38.01912 337
38.03924 371
38.05935 318
38.07946 347
38.09958 320
38.11969 321
38.1398 330
38.15992 338
38.18003 337
38.20015 334
38.22026 341
38.24037 311
38.26049 336
38.2806 357
38.30071 346
38.32083 351
38.34094 357
38.36105 350
38.38117 372
38.40128 340
38.4214 328
38.44151 377
38.46162 364
38.48174 350
38.50185 341
38.52196 315
38.54208 356
38.56219 347
38.58231 358
38.60242 312
38.62253 348
38.64265 344
38.66276 327
38.68287 295
38.70299 330
38.7231 315
38.74321 323
38.76333 351
38.78344 346
38.80356 326
38.82367 337
38.84378 316
38.8639 348
38.88401 347
38.90412 313
38.92424 302
38.94435 327
38.96447 343
38.98458 331
39.00469 327
39.02481 341
39.04492 342
39.06503 324
39.08515 381
39.10526 399
39.12538 393
39.14549 386
39.1656 457
39.18572 495
39.20583 513
39.22594 543
39.24606 640
39.26617 707
39.28628 806
39.3064 950
39.32651 1125
39.34663 1221
39.36674 1366
39.38685 1480
39.40697 1618
39.42708 1503
39.44719 1370
39.46731 1288
39.48742 1150
39.50754 904
39.52765 842
39.54776 712
39.56788 593
39.58799 472
39.6081 442
39.62822 411
39.64833 361
39.66845 329
39.68856 327
39.70867 328
39.72879 300
39.7489 314
39.76901 355
39.78913 321
39.80924 340
39.82935 358
39.84947 328
39.86958 331
39.8897 341
39.90981 325
39.92992 331
39.95004 347
39.97015 350
39.99026 344
40.01038 405
40.03049 431
40.05061 396
40.07072 492
40.09083 526
40.11095 532
40.13106 634
40.15117 737
40.17129 747
40.1914 823
40.21152 823
40.23163 844
40.25174 827
40.27186 826
40.29197 733
40.31208 673
40.3322 578
40.35231 560
40.37242 531
40.39254 411
40.41265 388
40.43277 375
40.45288 300
40.47299 317
40.49311 311
40.51322 305
40.53333 347
40.55345 336
40.57356 331
40.59368 307
40.61379 324
40.6339 300
40.65402 308
40.67413 295
40.69424 321
40.71436 333
40.73447 312
40.75458 318
40.7747 316
40.79481 321
40.81493 298
40.83504 276
40.85515 307
40.87527 310
40.89538 294
40.91549 304
40.93561 329
40.95572 298
40.97584 297
40.99595 287
41.01606 330
41.03618 311
41.05629 330
41.0764 268
41.09652 294
41.11663 309
41.13675 284
41.15686 289
41.17697 279
41.19709 314
41.2172 277
41.23731 286
41.25743 318
41.27754 274
41.29765 303
41.31777 286
41.33788 262
41.358 266
41.37811 311
41.39822 302
41.41834 296
41.43845 294
41.45856 283
41.47868 272
41.49879 301
41.51891 282
41.53902 300
41.55913 276
41.57925 303
41.59936 280
41.61947 335
41.63959 288
41.6597 314
41.67982 304
41.69993 322
41.72004 324
41.74016 327
41.76027 299
41.78038 329
41.8005 318
41.82061 310
41.84072 312
41.86084 294
41.88095 283
41.90107 306
41.92118 310
41.94129 316
41.96141 281
41.98152 302
42.00163 319
42.02175 299
42.04186 334
42.06198 317
42.08209 355
42.1022 360
42.12232 328
42.14243 386
42.16254 424
42.18266 421
42.20277 444
42.22289 515
42.243 607
42.26311 660
42.28323 789
42.30334 895
42.32345 925
42.34357 1010
42.36368 1126
42.38379 1146
42.40391 1122
42.42402 1008
42.44414 959
42.46425 877
42.48436 775
42.50448 721
42.52459 629
42.5447 545
42.56482 470
42.58493 394
42.60505 373
42.62516 350
42.64527 330
42.66539 284
42.6855 300
42.70561 298
42.72573 297
42.74584 282
42.76595 306
42.78607 265
42.80618 258
42.8263 250
42.84641 248
42.86652 260
42.88664 238
42.90675 244
42.92686 265
42.94698 252
42.96709 262
42.98721 250
43.00732 271
43.02743 212
43.04755 246
43.06766 233
43.08777 261
43.10789 275
43.128 221
43.14812 242
43.16823 242
43.18834 267
43.20846 231
43.22857 233
43.24868 278
43.2688 233
43.28891 229
43.30902 260
43.32914 237
43.34925 264
43.36937 209
43.38948 219
43.40959 252
43.42971 250
43.44982 248
43.46993 251
43.49005 222
43.51016 217
43.53028 272
43.55039 252
43.5705 281
43.59062 265
43.61073 242
43.63084 255
43.65096 222
43.67107 254
43.69119 242
43.7113 220
43.73141 231
43.75153 237
43.77164 233
43.79175 237
43.81187 246
43.83198 274
43.85209 277
43.87221 223
43.89232 265
43.91244 224
43.93255 265
43.95266 237
43.97278 259
43.99289 240
44.013 242
44.03312 244
44.05323 242
44.07335 250
44.09346 254
44.11357 230
44.13369 260
44.1538 248
44.17391 248
44.19403 254
44.21414 259
44.23426 242
44.25437 233
44.27448 230
44.2946 269
44.31471 212
44.33482 228
44.35494 230
44.37505 215
44.39516 237
44.41528 208
44.43539 233
44.45551 244
44.47562 230
44.49573 221
44.51585 240
44.53596 229
44.55607 247
44.57619 255
44.5963 241
44.61642 249
44.63653 229
44.65664 233
44.67676 282
44.69687 241
44.71698 253
44.7371 228
44.75721 218
44.77732 245
44.79744 250
44.81755 232
44.83767 236
44.85778 268
44.87789 216
44.89801 283
44.91812 270
44.93823 253
44.95835 268
44.97846 252
44.99858 279
45.01869 241
45.0388 242
45.05892 235
45.07903 285
45.09914 279
45.11926 264
45.13937 277
45.15949 248
45.1796 274
45.19971 249
45.21983 284
45.23994 305
45.26005 312
45.28017 299
45.30028 272
45.32039 317
45.34051 305
45.36062 312
45.38074 324
45.40085 321
45.42096 324
45.44108 340
45.46119 317
45.4813 399
45.50142 365
45.52153 365
45.54165 397
45.56176 469
45.58187 475
45.60199 505
45.6221 553
45.64221 683
45.66233 753
45.68244 808
45.70256 784
45.72267 831
45.74278 861
45.7629 801
45.78301 765
45.80312 701
45.82324 604
45.84335 549
45.86346 543
45.88358 463
45.90369 450
45.92381 356
45.94392 348
45.96403 326
45.98415 298
46.00426 286
46.02437 297
46.04449 289
46.0646 259
46.08472 258
46.10483 270
46.12494 251
46.14506 262
46.16517 274
46.18528 245
46.2054 251
46.22551 247
46.24563 202
46.26574 217
46.28585 233
46.30597 225
46.32608 216
46.34619 261
46.36631 244
46.38642 244
46.40653 225
46.42665 246
46.44676 278
46.46688 236
46.48699 240
46.5071 225
46.52722 243
46.54733 237
46.56744 245
46.58756 220
46.60767 247
46.62779 230
46.6479 226
46.66801 230
46.68813 205
46.70824 235
46.72835 241
46.74847 231
46.76858 262
46.78869 246
46.80881 214
46.82892 221
46.84904 240
46.86915 205
46.88926 229
46.90938 226
46.92949 192
46.9496 234
46.96972 223
46.98983 181
47.00995 219
47.03006 230
47.05017 213
47.07029 233
47.0904 238
47.11051 250
47.13063 227
47.15074 236
47.17086 240
47.19097 243
47.21108 234
47.2312 245
47.25131 240
47.27142 237
47.29154 236
47.31165 225
47.33176 217
47.35188 227
47.37199 207
47.39211 226
47.41222 229
47.43233 238
47.45245 218
47.47256 223
47.49267 207
47.51279 213
47.5329 239
47.55302 214
47.57313 260
47.59324 224
47.61336 245
47.63347 252
47.65358 230
47.6737 231
47.69381 232
47.71393 231
47.73404 259
47.75415 248
47.77427 205
47.79438 214
47.81449 222
47.83461 245
47.85472 245
47.87483 243
47.89495 236
47.91506 223
47.93518 266
47.95529 243
47.9754 242
47.99552 269
48.01563 233
48.03574 244
48.05586 218
48.07597 233
48.09609 228
48.1162 247
48.13631 234
48.15643 229
48.17654 220
48.19665 228
48.21677 235
48.23688 233
48.257 225
48.27711 247
48.29722 210
48.31734 226
48.33745 223
48.35756 229
48.37768 241
48.39779 227
48.4179 224
48.43802 227
48.45813 229
48.47825 239
48.49836 220
48.51847 242
48.53859 228
48.5587 232
48.57881 234
48.59893 246
48.61904 268
48.63916 225
48.65927 257
48.67938 247
48.6995 237
48.71961 249
48.73972 228
48.75984 250
48.77995 232
48.80006 214
48.82018 232
48.84029 241
48.86041 203
48.88052 220
48.90063 229
48.92075 224
48.94086 262
48.96097 272
48.98109 229
49.0012 253
49.02132 253
49.04143 244
49.06154 247
49.08166 250
49.10177 235
49.12188 244
49.142 245
49.16211 243
49.18223 246
49.20234 238
49.22245 251
49.24257 258
49.26268 241
49.28279 266
49.30291 271
49.32302 293
49.34313 256
49.36325 266
49.38336 283
49.40348 291
49.42359 292
49.4437 321
49.46382 284
49.48393 278
49.50404 259
49.52416 290
49.54427 270
49.56439 291
49.5845 275
49.60461 292
49.62473 294
49.64484 316
49.66495 303
49.68507 323
49.70518 329
49.7253 333
49.74541 399
49.76552 410
49.78564 406
49.80575 513
49.82586 577
49.84598 626
49.86609 660
49.8862 680
49.90632 851
49.92643 925
49.94655 1140
49.96666 1387
49.98677 1505
50.00689 1836
50.027 2056
50.04711 2217
50.06723 2298
50.08734 2259
50.10746 2067
50.12757 1917
50.14768 1675
50.1678 1493
50.18791 1380
50.20802 1298
50.22814 1127
50.24825 986
50.26837 817
50.28848 610
50.30859 474
50.32871 431
50.34882 391
50.36893 354
50.38905 390
50.40916 344
50.42927 352
50.44939 368
50.4695 337
50.48962 361
50.50973 348
50.52984 301
50.54996 308
50.57007 330
50.59018 343
50.6103 299
50.63041 273
50.65053 294
50.67064 291
50.69075 282
50.71087 271
50.73098 262
50.75109 258
50.77121 269
50.79132 249
50.81143 248
50.83155 285
50.85166 233
50.87178 237
50.89189 250
50.912 235
50.93212 226
50.95223 246
50.97234 244
50.99246 228
51.01257 242
51.03269 233
51.0528 217
51.07291 228
51.09303 244
51.11314 226
51.13325 238
51.15337 235
51.17348 234
51.1936 209
51.21371 239
51.23382 231
51.25394 215
51.27405 217
51.29416 209
51.31428 240
51.33439 246
51.3545 225
51.37462 203
51.39473 210
51.41485 216
51.43496 208
51.45507 221
51.47519 220
51.4953 220
51.51541 221
51.53553 207
51.55564 190
51.57576 202
51.59587 252
51.61598 220
51.6361 209
51.65621 229
51.67632 227
51.69644 217
51.71655 218
51.73667 196
51.75678 232
51.77689 226
51.79701 205
51.81712 205
51.83723 212
51.85735 226
51.87746 220
51.89757 235
51.91769 221
51.9378 210
51.95792 237
51.97803 201
51.99814 210
52.01826 215
52.03837 245
52.05848 212
52.0786 222
52.09871 244
52.11883 215
52.13894 208
52.15905 226
52.17917 217
52.19928 237
52.21939 208
52.23951 211
52.25962 227
52.27974 198
52.29985 238
52.31996 214
52.34008 235
52.36019 205
52.3803 219
52.40042 228
52.42053 230
52.44064 198
52.46076 201
52.48087 226
52.50099 209
52.5211 192
52.54121 232
52.56133 194
52.58144 225
52.60155 230
52.62167 229
52.64178 200
52.6619 239
52.68201 238
52.70212 207
52.72224 238
52.74235 227
52.76246 221
52.78258 232
52.80269 235
52.8228 203
52.84292 238
52.86303 222
52.88315 243
52.90326 251
52.92337 225
52.94349 219
52.9636 217
52.98371 205
53.00383 193
53.02394 244
53.04406 216
53.06417 235
53.08428 212
53.1044 251
53.12451 243
53.14462 250
53.16474 195
53.18485 225
53.20497 231
53.22508 259
53.24519 241
53.26531 245
53.28542 258
53.30553 265
53.32565 248
53.34576 245
53.36587 234
53.38599 252
53.4061 247
53.42622 246
53.44633 271
53.46644 279
53.48656 249
53.50667 261
53.52678 261
53.5469 281
53.56701 273
53.58713 286
53.60724 252
53.62735 271
53.64747 310
53.66758 291
53.68769 291
53.70781 270
53.72792 292
53.74804 283
53.76815 295
53.78826 294
53.80838 314
53.82849 308
53.8486 299
53.86872 317
53.88883 313
53.90894 322
53.92906 304
53.94917 297
53.96929 326
53.9894 335
54.00951 334
54.02963 299
54.04974 300
54.06985 319
54.08997 285
54.11008 312
54.1302 298
54.15031 320
54.17042 319
54.19054 304
54.21065 307
54.23076 336
54.25088 318
54.27099 326
54.29111 289
54.31122 293
54.33133 262
54.35145 307
54.37156 345
54.39167 316
54.41179 300
54.4319 320
54.45201 309
54.47213 329
54.49224 360
54.51236 329
54.53247 386
54.55258 385
54.5727 412
54.59281 406
54.61292 454
54.63304 460
54.65315 501
54.67327 578
54.69338 658
54.71349 641
54.73361 744
54.75372 818
54.77383 807
54.79395 915
54.81406 867
54.83417 820
54.85429 782
54.8744 713
54.89452 631
54.91463 593
54.93474 639
54.95486 615
54.97497 569
54.99508 550
55.0152 500
55.03531 499
55.05543 454
55.07554 434
55.09565 421
55.11577 411
55.13588 464
55.15599 451
55.17611 453
55.19622 512
55.21634 568
55.23645 535
55.25656 541
55.27668 533
55.29679 495
55.3169 467
55.33702 441
55.35713 460
55.37724 426
55.39736 410
55.41747 387
55.43759 375
55.4577 356
55.47781 358
55.49793 343
55.51804 327
55.53815 299
55.55827 297
55.57838 294
55.5985 299
55.61861 305
55.63872 306
55.65884 310
55.67895 309
55.69906 309
55.71918 296
55.73929 273
55.75941 271
55.77952 254
55.79963 296
55.81975 302
55.83986 309
55.85997 270
55.88009 307
55.9002 272
55.92031 287
55.94043 272
55.96054 263
55.98066 260
56.00077 263
56.02088 260
56.041 271
56.06111 246
56.08122 272
56.10134 265
56.12145 262
56.14157 257
56.16168 281
56.18179 288
56.20191 251
56.22202 264
56.24213 281
56.26225 258
56.28236 260
56.30248 229
56.32259 241
56.3427 240
56.36282 265
56.38293 248
56.40304 265
56.42316 286
56.44327 218
56.46338 275
56.4835 250
56.50361 260
56.52373 248
56.54384 239
56.56395 259
56.58407 253
56.60418 260
56.62429 253
56.64441 278
56.66452 246
56.68464 268
56.70475 230
56.72486 231
56.74498 265
56.76509 212
56.7852 269
56.80532 264
56.82543 245
56.84554 268
56.86566 246
56.88577 232
56.90589 258
56.926 267
56.94611 265
56.96623 248
56.98634 281
57.00645 237
57.02657 243
57.04668 242
57.0668 251
57.08691 264
57.10702 298
57.12714 288
57.14725 251
57.16736 271
57.18748 273
57.20759 241
57.22771 276
57.24782 272
57.26793 248
57.28805 252
57.30816 268
57.32827 253
57.34839 270
57.3685 242
57.38861 256
57.40873 242
57.42884 238
57.44896 245
57.46907 263
57.48918 242
57.5093 260
57.52941 235
57.54952 236
57.56964 259
57.58975 255
57.60987 229
57.62998 257
57.65009 238
57.67021 226
57.69032 235
57.71043 233
57.73055 240
57.75066 236
57.77078 250
57.79089 229
57.811 215
57.83112 230
57.85123 241
57.87134 251
57.89146 230
57.91157 246
57.93168 234
57.9518 252
57.97191 245
57.99203 220
58.01214 195
58.03225 223
58.05237 222
58.07248 238
58.09259 222
58.11271 226
58.13282 254
58.15294 240
58.17305 253
58.19316 214
58.21328 232
58.23339 235
58.2535 240
58.27362 217
58.29373 232
58.31385 232
58.33396 205
58.35407 235
58.37419 243
58.3943 212
58.41441 206
58.43453 217
58.45464 212
58.47475 254
58.49487 223
58.51498 196
58.5351 229
58.55521 232
58.57532 223
58.59544 235
58.61555 227
58.63566 240
58.65578 218
58.67589 230
58.69601 229
58.71612 219
58.73623 251
58.75635 210
58.77646 255
58.79657 231
58.81669 228
58.8368 218
58.85691 232
58.87703 233
58.89714 239
58.91726 242
58.93737 218
58.95748 223
58.9776 206
58.99771 238
59.01782 226
59.03794 226
59.05805 240
59.07817 236
59.09828 249
59.11839 250
59.13851 266
59.15862 240
59.17873 218
59.19885 263
59.21896 234
59.23908 240
59.25919 245
59.2793 265
59.29942 265
59.31953 251
59.33964 267
59.35976 256
59.37987 260
59.39998 278
59.4201 288
59.44021 274
59.46033 279
59.48044 305
59.50055 319
59.52067 325
59.54078 326
59.56089 380
59.58101 374
59.60112 393
59.62124 446
59.64135 447
59.66146 510
59.68158 571
59.70169 599
59.7218 692
59.74192 797
59.76203 898
59.78215 1061
59.80226 1143
59.82237 1262
59.84249 1410
59.8626 1459
59.88271 1450
59.90283 1494
59.92294 1373
59.94305 1178
59.96317 1105
59.98328 904
60.0034 975
60.02351 900
60.04362 851
60.06374 900
60.08385 765
60.10396 629
60.12408 529
60.14419 513
60.16431 361
60.18442 347
60.20453 346
60.22465 298
60.24476 312
60.26487 299
60.28499 283
60.3051 246
60.32522 266
60.34533 276
60.36544 272
60.38556 253
60.40567 279
60.42578 245
60.4459 231
60.46601 259
60.48612 220
60.50624 253
60.52635 248
60.54647 242
60.56658 236
60.58669 237
60.60681 260
60.62692 265
60.64703 235
60.66715 228
60.68726 247
60.70738 242
60.72749 228
60.7476 246
60.76772 221
60.78783 246
60.80794 239
60.82806 226
60.84817 253
60.86828 256
60.8884 248
60.90851 217
60.92863 231
60.94874 250
60.96885 219
60.98897 237
61.00908 225
61.02919 239
61.04931 238
61.06942 249
61.08954 248
61.10965 246
61.12976 254
61.14988 248
61.16999 252
61.1901 240
61.21022 253
61.23033 256
61.25045 246
61.27056 279
61.29067 249
61.31079 283
61.3309 283
61.35101 271
61.37113 275
61.39124 307
61.41135 308
61.43147 328
61.45158 322
61.4717 319
61.49181 315
61.51192 313
61.53204 336
61.55215 319
61.57226 309
61.59238 316
61.61249 314
61.63261 320
61.65272 332
61.67283 298
61.69295 306
61.71306 333
61.73317 317
61.75329 280
61.7734 309
61.79352 300
61.81363 355
61.83374 297
61.85386 315
61.87397 333
61.89408 305
61.9142 343
61.93431 336
61.95442 328
61.97454 328
61.99465 323
62.01477 311
62.03488 325
62.05499 330
62.07511 345
62.09522 349
62.11533 376
62.13545 349
62.15556 332
62.17568 372
62.19579 371
62.2159 324
62.23602 355
62.25613 360
62.27624 359
62.29636 336
62.31647 360
62.33659 355
62.3567 320
62.37681 305
62.39693 350
62.41704 306
62.43715 297
62.45727 336
62.47738 298
62.49749 295
62.51761 298
62.53772 267
62.55784 271
62.57795 266
62.59806 268
62.61818 286
62.63829 284
62.6584 275
62.67852 255
62.69863 245
62.71875 287
62.73886 274
62.75897 239
62.77909 245
62.7992 232
62.81931 255
62.83943 258
62.85954 219
62.87965 220
62.89977 231
62.91988 218
62.94 250
62.96011 262
62.98022 259
63.00034 234
63.02045 232
63.04056 225
63.06068 267
63.08079 243
63.10091 237
63.12102 266
63.14113 187
63.16125 224
63.18136 255
63.20147 247
63.22159 218
63.2417 257
63.26182 264
63.28193 252
63.30204 237
63.32216 219
63.34227 225
63.36238 249
63.3825 242
63.40261 237
63.42272 274
63.44284 230
63.46295 245
63.48307 228
63.50318 257
63.52329 222
63.54341 220
63.56352 226
63.58363 254
63.60375 199
63.62386 261
63.64398 267
63.66409 271
63.6842 276
63.70432 289
63.72443 284
63.74454 304
63.76466 310
63.78477 326
63.80489 328
63.825 324
63.84511 375
63.86523 391
63.88534 437
63.90545 447
63.92557 486
63.94568 528
63.96579 484
63.98591 451
64.00602 461
64.02614 433
64.04625 372
64.06636 380
64.08648 336
64.10659 378
64.1267 342
64.14682 342
64.16693 332
64.18705 310
64.20716 307
64.22727 279
64.24739 298
64.2675 239
64.28761 221
64.30773 251
64.32784 230
64.34796 252
64.36807 222
64.38818 244
64.4083 231
64.42841 232
64.44852 244
64.46864 232
64.48875 233
64.50886 225
64.52898 214
64.54909 230
64.56921 217
64.58932 229
64.60943 225
64.62955 208
64.64966 224
64.66977 236
64.68989 216
64.71 223
64.73012 234
64.75023 242
64.77034 214
64.79046 210
64.81057 237
64.83068 193
64.8508 210
64.87091 225
64.89102 216
64.91114 210
64.93125 216
64.95137 216
64.97148 221
64.99159 215
65.01171 244
65.03182 204
65.05193 221
65.07205 204
65.09216 199
65.11228 215
65.13239 213
65.1525 231
65.17262 214
65.19273 229
65.21284 207
65.23296 212
65.25307 204
65.27319 255
65.2933 204
65.31341 244
65.33353 246
65.35364 234
65.37375 221
65.39387 219
65.41398 247
65.43409 233
65.45421 227
65.47432 253
65.49444 226
65.51455 231
65.53466 242
65.55478 236
65.57489 242
65.595 241
65.61512 259
65.63523 254
65.65535 255
65.67546 262
65.69557 289
65.71569 294
65.7358 275
65.75591 266
65.77603 253
65.79614 244
65.81626 266
65.83637 259
65.85648 239
65.8766 236
65.89671 274
65.91682 238
65.93694 252
65.95705 247
65.97716 240
65.99728 223
66.01739 209
66.03751 230
66.05762 201
66.07773 257
66.09785 219
66.11796 235
66.13807 246
66.15819 248
66.1783 237
66.19842 228
66.21853 222
66.23864 217
66.25876 241
66.27887 229
66.29898 207
66.3191 220
66.33921 217
66.35933 220
66.37944 224
66.39955 225
66.41967 238
66.43978 211
66.45989 223
66.48001 230
66.50012 209
66.52023 233
66.54035 221
66.56046 212
66.58058 204
66.60069 214
66.6208 242
66.64092 214
66.66103 223
66.68114 209
66.70126 227
66.72137 232
66.74149 232
66.7616 218
66.78171 208
66.80183 245
66.82194 218
66.84205 194
66.86217 220
66.88228 230
66.90239 219
66.92251 210
66.94262 233
66.96274 233
66.98285 221
67.00296 246
67.02308 237
67.04319 231
67.0633 233
67.08342 244
67.10353 250
67.12365 259
67.14376 270
67.16387 257
67.18399 239
67.2041 256
67.22421 271
67.24433 274
67.26444 263
67.28456 253
67.30467 271
67.32478 292
67.3449 327
67.36501 313
67.38512 339
67.40524 373
67.42535 349
67.44546 431
67.46558 424
67.48569 484
67.50581 526
67.52592 562
67.54603 651
67.56615 739
67.58626 797
67.60637 857
67.62649 930
67.6466 977
67.66672 1022
67.68683 981
67.70694 897
67.72706 861
67.74717 816
67.76728 754
67.7874 794
67.80751 806
67.82763 838
67.84774 851
67.86785 849
67.88797 871
67.90808 879
67.92819 856
67.94831 891
67.96842 922
67.98853 1104
68.00865 1207
68.02876 1229
68.04888 1311
68.06899 1273
68.0891 1274
68.10922 1268
68.12933 1219
68.14944 1246
68.16956 1200
68.18967 1150
68.20979 1176
68.2299 1184
68.25001 1182
68.27013 1101
68.29024 1044
68.31035 913
68.33047 753
68.35058 734
68.3707 624
68.39081 624
68.41092 592
68.43104 549
68.45115 512
68.47126 472
68.49138 421
68.51149 407
68.5316 335
68.55172 327
68.57183 289
68.59195 250
68.61206 285
68.63217 273
68.65229 296
68.6724 256
68.69251 256
68.71263 236
68.73274 235
68.75286 254
68.77297 256
68.79308 246
68.8132 233
68.83331 258
68.85342 225
68.87354 235
68.89365 238
68.91376 248
68.93388 226
68.95399 219
68.97411 233
68.99422 214
69.01433 221
69.03445 204
69.05456 208
69.07467 213
69.09479 226
69.1149 229
69.13502 222
69.15513 217
69.17524 229
69.19536 233
69.21547 239
69.23558 249
69.2557 228
69.27581 219
69.29593 236
69.31604 251
69.33615 248
69.35627 241
69.37638 257
69.39649 236
69.41661 242
69.43672 221
69.45683 206
69.47695 244
69.49706 241
69.51718 211
69.53729 247
69.5574 245
69.57752 221
69.59763 250
69.61774 213
69.63786 195
69.65797 225
69.67809 225
69.6982 215
69.71831 221
69.73843 227
69.75854 216
69.77865 221
69.79877 203
69.81888 226
69.839 202
69.85911 214
69.87922 193
69.89934 198
69.91945 216
69.93956 231
69.95968 217
69.97979 225
69.9999 224
70.02002 216
70.04013 216
70.06025 232
70.08036 240
70.10047 213
70.12059 231
70.1407 210
70.16081 227
70.18093 216
70.20104 227
70.22116 234
70.24127 229
70.26138 209
70.2815 205
70.30161 239
70.32172 223
70.34184 206
70.36195 220
70.38207 243
70.40218 238
70.42229 244
70.44241 221
70.46252 214
70.48263 258
70.50275 226
70.52286 233
70.54297 233
70.56309 201
70.5832 208
70.60332 211
70.62343 177
70.64354 204
70.66366 211
70.68377 201
70.70388 209
70.724 206
70.74411 231
70.76423 252
70.78434 190
70.80445 210
70.82457 218
70.84468 211
70.86479 208
70.88491 211
70.90502 221
70.92513 243
70.94525 232
70.96536 207
70.98548 228
71.00559 207
71.0257 210
71.04582 214
71.06593 228
71.08604 218
71.10616 194
71.12627 202
71.14639 208
71.1665 220
71.18661 221
71.20673 217
71.22684 196
71.24695 192
71.26707 221
71.28718 237
71.3073 216
71.32741 216
71.34752 183
71.36764 203
71.38775 233
71.40786 211
71.42798 232
71.44809 215
71.4682 186
71.48832 219
71.50843 196
71.52855 237
71.54866 196
71.56877 227
71.58889 209
71.609 223
71.62911 230
71.64923 208
71.66934 240
71.68946 200
71.70957 228
71.72968 217
71.7498 203
71.76991 226
71.79002 239
71.81014 210
71.83025 216
71.85037 222
71.87048 211
71.89059 209
71.91071 225
71.93082 217
71.95093 239
71.97105 227
71.99116 206
72.01127 222
72.03139 214
72.0515 227
72.07162 211
72.09173 225
72.11184 204
72.13196 198
72.15207 238
72.17218 219
72.1923 220
72.21241 229
72.23253 244
72.25264 245
72.27275 223
72.29287 230
72.31298 226
72.33309 224
72.35321 214
72.37332 203
72.39344 230
72.41355 222
72.43366 240
72.45378 200
72.47389 218
72.494 254
72.51412 244
72.53423 235
72.55434 247
72.57446 242
72.59457 235
72.61469 233
72.6348 243
72.65491 218
72.67503 232
72.69514 221
72.71525 232
72.73537 253
72.75548 264
72.7756 225
72.79571 230
72.81582 238
72.83594 224
72.85605 256
72.87616 238
72.89628 247
72.91639 249
72.9365 247
72.95662 270
72.97673 253
72.99685 260
73.01696 238
73.03707 243
73.05719 280
73.0773 270
73.09741 268
73.11753 279
73.13764 296
73.15776 309
73.17787 302
73.19798 300
73.2181 304
73.23821 342
73.25832 356
73.27844 393
73.29855 423
73.31867 424
73.33878 467
73.35889 515
73.37901 493
73.39912 507
73.41923 460
73.43935 464
73.45946 449
73.47957 367
73.49969 361
73.5198 371
73.53992 356
73.56003 417
73.58014 427
73.60026 375
73.62037 344
73.64048 341
73.6606 298
73.68071 318
73.70083 284
73.72094 264
73.74105 226
73.76117 246
73.78128 246
73.80139 223
73.82151 238
73.84162 231
73.86174 225
73.88185 211
73.90196 220
73.92208 245
73.94219 234
73.9623 207
73.98242 230
74.00253 242
74.02264 213
74.04276 221
74.06287 212
74.08299 240
74.1031 203
74.12321 234
74.14333 207
74.16344 219
74.18355 208
74.20367 209
74.22378 207
74.2439 218
74.26401 222
74.28412 200
74.30424 222
74.32435 213
74.34446 207
74.36458 234
74.38469 198
74.40481 233
74.42492 222
74.44503 178
74.46515 195
74.48526 210
74.50537 215
74.52549 209
74.5456 218
74.56571 210
74.58583 227
74.60594 226
74.62606 226
74.64617 203
74.66628 229
74.6864 202
74.70651 223
74.72662 241
74.74674 205
74.76685 216
74.78697 216
74.80708 227
74.82719 232
74.84731 219
74.86742 188
74.88753 214
74.90765 240
74.92776 220
74.94787 204
74.96799 200
74.9881 209
75.00822 224
