3.00117 20000
3.02128 19737
3.0414 19035
3.06151 18552
3.08162 18216
3.10174 17480
3.12185 17324
3.14197 16292
3.16208 15996
3.18219 15703
3.20231 15117
3.22242 14944
3.24253 14217
3.26265 13885
3.28276 13447
3.30288 12946
3.32299 12516
3.3431 12044
3.36322 11796
3.38333 11626
3.40344 10886
3.42356 10600
3.44367 10226
3.46379 9725
3.4839 9402
3.50401 9027
3.52413 9019
3.54424 8638
3.56435 8255
3.58447 8020
3.60458 7828
3.62469 7475
3.64481 7007
3.66492 6855
3.68504 6703
3.70515 6127
3.72526 6166
3.74538 5950
3.76549 5547
3.7856 5524
3.80572 5149
3.82583 4999
3.84595 4646
3.86606 4373
3.88617 4342
3.90629 4246
3.9264 4045
3.94651 3752
3.96663 3653
3.98674 3594
4.00686 3459
4.02697 3218
4.04708 3088
4.0672 2876
4.08731 2899
4.10742 2732
4.12754 2549
4.14765 2430
4.16776 2326
4.18788 2372
4.20799 2231
4.22811 2168
4.24822 2018
4.26833 1794
4.28845 1896
4.30856 1874
4.32867 1767
4.34879 1685
4.3689 1623
4.38902 1690
4.40913 1640
4.42924 1516
4.44936 1406
4.46947 1394
4.48958 1527
4.5097 1465
4.52981 1340
4.54992 1256
4.57004 1249
4.59015 1355
4.61027 1274
4.63038 1152
4.65049 1186
4.67061 1198
4.69072 1073
4.71083 1144
4.73095 1092
4.75106 1046
4.77118 1093
4.79129 1000
4.8114 991
4.83152 952
4.85163 930
4.87174 966
4.89186 931
4.91197 933
4.93209 805
4.9522 874
4.97231 846
4.99243 775
5.01254 806
5.03265 745
5.05277 725
5.07288 705
5.09299 713
5.11311 744
5.13322 668
5.15334 664
5.17345 679
5.19356 601
5.21368 664
5.23379 570
5.2539 629
5.27402 548
5.29413 570
5.31425 652
5.33436 575
5.35447 551
5.37459 540
5.3947 555
5.41481 520
5.43493 510
5.45504 513
5.47516 484
5.49527 469
5.51538 487
5.5355 452
5.55561 467
5.57572 450
5.59584 462
5.61595 425
5.63606 444
5.65618 403
5.67629 394
5.69641 384
5.71652 385
5.73663 415
5.75675 402
5.77686 416
5.79697 390
5.81709 365
5.8372 385
5.85732 402
5.87743 368
5.89754 325
5.91766 334
5.93777 403
5.95788 332
5.978 376
5.99811 325
6.01823 361
6.03834 325
6.05845 352
6.07857 328
6.09868 309
6.11879 373
6.13891 348
6.15902 343
6.17913 360
6.19925 331
6.21936 384
6.23948 334
6.25959 301
6.2797 333
6.29982 304
6.31993 324
6.34004 331
6.36016 345
6.38027 295
6.40039 319
6.4205 335
6.44061 333
6.46073 320
6.48084 301
6.50095 331
6.52107 286
6.54118 302
6.56129 281
6.58141 287
6.60152 286
6.62164 320
6.64175 299
6.66186 322
6.68198 328
6.70209 313
6.7222 315
6.74232 301
6.76243 295
6.78255 305
6.80266 255
6.82277 279
6.84289 305
6.863 282
6.88311 321
6.90323 254
6.92334 294
6.94346 308
6.96357 285
6.98368 282
7.0038 303
7.02391 273
7.04402 293
7.06414 280
7.08425 290
7.10436 292
7.12448 278
7.14459 286
7.16471 280
7.18482 311
7.20493 268
7.22505 311
7.24516 286
7.26527 286
7.28539 309
7.3055 311
7.32562 269
7.34573 272
7.36584 285
7.38596 306
7.40607 277
7.42618 286
7.4463 283
7.46641 280
7.48653 289
7.50664 287
7.52675 305
7.54687 306
7.56698 322
7.58709 317
7.60721 273
7.62732 303
7.64743 297
7.66755 291
7.68766 271
7.70778 310
7.72789 262
7.748 266
7.76812 312
7.78823 279
7.80834 298
7.82846 291
7.84857 293
7.86869 293
7.8888 284
7.90891 273
7.92903 305
7.94914 274
7.96925 276
7.98937 273
8.00948 276
8.0296 287
8.04971 253
8.06982 297
8.08994 292
8.11005 316
8.13016 292
8.15028 296
8.17039 295
8.1905 304
8.21062 284
8.23073 302
8.25085 284
8.27096 308
8.29107 290
8.31119 298
8.3313 299
8.35141 311
8.37153 279
8.39164 259
8.41176 268
8.43187 253
8.45198 269
8.4721 286
8.49221 301
8.51232 325
8.53244 267
8.55255 295
8.57266 246
8.59278 275
8.61289 297
8.63301 275
8.65312 302
8.67323 276
8.69335 302
8.71346 308
8.73357 327
8.75369 339
8.7738 263
8.79392 299
8.81403 344
8.83414 259
8.85426 290
8.87437 294
8.89448 268
8.9146 308
8.93471 288
8.95483 315
8.97494 305
8.99505 279
9.01517 281
9.03528 322
9.05539 298
9.07551 312
9.09562 346
9.11573 270
9.13585 283
9.15596 272
9.17608 283
9.19619 298
9.2163 339
9.23642 267
9.25653 287
9.27664 302
9.29676 293
9.31687 300
9.33699 274
9.3571 303
9.37721 308
9.39733 261
9.41744 291
9.43755 306
9.45767 304
9.47778 287
9.4979 274
9.51801 313
9.53812 334
9.55824 327
9.57835 284
9.59846 273
9.61858 321
9.63869 317
9.6588 274
9.67892 305
9.69903 315
9.71915 300
9.73926 321
9.75937 283
9.77949 277
9.7996 286
9.81971 311
9.83983 290
9.85994 322
9.88006 274
9.90017 279
9.92028 301
9.9404 273
9.96051 282
9.98062 305
10.00074 298
10.02085 340
10.04097 320
10.06108 269
10.08119 307
10.10131 302
10.12142 320
10.14153 299
10.16165 285
10.18176 319
10.20187 287
10.22199 267
10.2421 304
10.26222 302
10.28233 327
10.30244 326
10.32256 284
10.34267 265
10.36278 270
10.3829 288
10.40301 300
10.42313 274
10.44324 298
10.46335 298
10.48347 276
10.50358 277
10.52369 312
10.54381 281
10.56392 273
10.58403 312
10.60415 284
10.62426 299
10.64438 303
10.66449 304
10.6846 292
10.70472 286
10.72483 277
10.74494 274
10.76506 277
10.78517 259
10.80529 294
10.8254 319
10.84551 301
10.86563 319
10.88574 294
10.90585 266
10.92597 313
10.94608 291
10.9662 289
10.98631 318
11.00642 325
11.02654 283
11.04665 298
11.06676 323
11.08688 313
11.10699 289
11.1271 289
11.14722 310
11.16733 319
11.18745 338
11.20756 332
11.22767 295
11.24779 305
11.2679 352
11.28801 295
11.30813 310
11.32824 366
11.34836 307
11.36847 331
11.38858 326
11.4087 303
11.42881 322
11.44892 291
11.46904 315
11.48915 344
11.50927 322
11.52938 362
11.54949 371
11.56961 359
11.58972 335
11.60983 348
11.62995 327
11.65006 388
11.67017 349
11.69029 350
11.7104 371
11.73052 349
11.75063 338
11.77074 359
11.79086 352
11.81097 370
11.83108 390
11.8512 338
11.87131 434
11.89143 451
11.91154 456
11.93165 423
11.95177 438
11.97188 432
11.99199 411
12.01211 470
12.03222 518
12.05234 482
12.07245 521
12.09256 552
12.11268 537
12.13279 562
12.1529 562
12.17302 556
12.19313 616
12.21324 654
12.23336 625
12.25347 695
12.27359 595
12.2937 640
12.31381 568
12.33393 597
12.35404 590
12.37415 591
12.39427 553
12.41438 561
12.4345 502
12.45461 438
12.47472 494
12.49484 439
12.51495 433
12.53506 437
12.55518 437
12.57529 425
12.5954 389
12.61552 363
12.63563 373
12.65575 411
12.67586 380
12.69597 353
12.71609 361
12.7362 378
12.75631 313
12.77643 344
12.79654 287
12.81666 286
12.83677 306
12.85688 317
12.877 315
12.89711 336
12.91722 319
12.93734 296
12.95745 298
12.97757 301
12.99768 315
13.01779 306
13.03791 299
13.05802 312
13.07813 291
13.09825 273
13.11836 273
13.13847 285
13.15859 286
13.1787 268
13.19882 269
13.21893 236
13.23904 272
13.25916 253
13.27927 272
13.29938 288
13.3195 274
13.33961 287
13.35973 259
13.37984 280
13.39995 284
13.42007 295
13.44018 272
13.46029 255
13.48041 266
13.50052 267
13.52064 254
13.54075 269
13.56086 262
13.58098 246
13.60109 267
13.6212 281
13.64132 261
13.66143 239
13.68154 268
13.70166 265
13.72177 264
13.74189 250
13.762 260
13.78211 252
13.80223 233
13.82234 257
13.84245 264
13.86257 253
13.88268 249
13.9028 257
13.92291 243
13.94302 268
13.96314 254
13.98325 220
14.00336 247
14.02348 239
14.04359 256
14.06371 236
14.08382 221
14.10393 254
14.12405 284
14.14416 230
14.16427 237
14.18439 220
14.2045 215
14.22461 226
14.24473 255
14.26484 260
14.28496 284
14.30507 270
14.32518 230
14.3453 231
14.36541 240
14.38552 258
14.40564 257
14.42575 231
14.44587 260
14.46598 240
14.48609 256
14.50621 224
14.52632 245
14.54643 210
14.56655 243
14.58666 254
14.60677 222
14.62689 213
14.647 237
14.66712 260
14.68723 214
14.70734 230
14.72746 240
14.74757 270
14.76768 261
14.7878 226
14.80791 249
14.82803 238
14.84814 239
14.86825 283
14.88837 251
14.90848 248
14.92859 230
14.94871 254
14.96882 273
14.98894 238
15.00905 262
15.02916 248
15.04928 234
15.06939 221
15.0895 198
15.10962 243
15.12973 211
15.14984 250
15.16996 261
15.19007 257
15.21019 245
15.2303 248
15.25041 257
15.27053 249
15.29064 216
15.31075 229
15.33087 216
15.35098 224
15.3711 210
15.39121 237
15.41132 245
15.43144 241
15.45155 230
15.47166 185
15.49178 258
15.51189 221
15.53201 242
15.55212 205
15.57223 222
15.59235 242
15.61246 225
15.63257 235
15.65269 245
15.6728 235
15.69291 232
15.71303 238
15.73314 226
15.75326 234
15.77337 244
15.79348 232
15.8136 231
15.83371 214
15.85382 243
15.87394 221
15.89405 252
15.91417 235
15.93428 225
15.95439 213
15.97451 269
15.99462 246
16.01473 246
16.03485 220
16.05496 223
16.07508 247
16.09519 254
16.1153 271
16.13542 259
16.15553 256
16.17564 229
16.19576 244
16.21587 199
16.23598 217
16.2561 232
16.27621 240
16.29633 220
16.31644 227
16.33655 215
16.35667 222
16.37678 220
16.39689 234
16.41701 234
16.43712 266
16.45724 223
16.47735 230
16.49746 221
16.51758 210
16.53769 248
16.5578 211
16.57792 219
16.59803 252
16.61814 222
16.63826 246
16.65837 215
16.67849 226
16.6986 239
16.71871 262
16.73883 232
16.75894 233
16.77905 225
16.79917 227
16.81928 247
16.8394 218
16.85951 218
16.87962 228
16.89974 228
16.91985 230
16.93996 221
16.96008 227
16.98019 244
17.00031 235
17.02042 240
17.04053 250
17.06065 242
17.08076 227
17.10087 223
17.12099 243
17.1411 218
17.16121 224
17.18133 233
17.20144 253
17.22156 216
17.24167 203
17.26178 222
17.2819 228
17.30201 211
17.32212 225
17.34224 248
17.36235 237
17.38247 214
17.40258 241
17.42269 185
17.44281 221
17.46292 214
17.48303 227
17.50315 239
17.52326 248
17.54338 228
17.56349 230
17.5836 239
17.60372 229
17.62383 224
17.64394 240
17.66406 241
17.68417 237
17.70428 237
17.7244 237
17.74451 228
17.76463 236
17.78474 238
17.80485 242
17.82497 262
17.84508 240
17.86519 247
17.88531 242
17.90542 234
17.92554 236
17.94565 254
17.96576 208
17.98588 236
18.00599 239
18.0261 238
18.04622 217
18.06633 249
18.08645 241
18.10656 235
18.12667 255
18.14679 232
18.1669 244
18.18701 263
18.20713 245
18.22724 259
18.24735 218
18.26747 219
18.28758 254
18.3077 228
18.32781 249
18.34792 231
18.36804 220
18.38815 216
18.40826 247
18.42838 240
18.44849 263
18.46861 225
18.48872 240
18.50883 229
18.52895 258
18.54906 229
18.56917 252
18.58929 234
18.6094 242
18.62951 253
18.64963 241
18.66974 241
18.68986 252
18.70997 223
18.73008 253
18.7502 260
18.77031 269
18.79042 216
18.81054 245
18.83065 239
18.85077 242
18.87088 235
18.89099 252
18.91111 231
18.93122 253
18.95133 211
18.97145 262
18.99156 253
19.01168 236
19.03179 226
19.0519 261
19.07202 223
19.09213 238
19.11224 221
19.13236 261
19.15247 214
19.17258 272
19.1927 260
19.21281 241
19.23293 258
19.25304 245
19.27315 249
19.29327 246
19.31338 269
19.33349 258
19.35361 265
19.37372 264
19.39384 261
19.41395 269
19.43406 268
19.45418 277
19.47429 260
19.4944 270
19.51452 272
19.53463 292
19.55475 300
19.57486 329
19.59497 321
19.61509 360
19.6352 378
19.65531 364
19.67543 355
19.69554 419
19.71565 445
19.73577 466
19.75588 525
19.776 517
19.79611 593
19.81622 601
19.83634 587
19.85645 600
19.87656 648
19.89668 604
19.91679 624
19.93691 606
19.95702 597
19.97713 636
19.99725 648
20.01736 591
20.03747 556
20.05759 607
20.0777 514
20.09782 641
20.11793 613
20.13804 577
20.15816 564
20.17827 551
20.19838 586
20.2185 554
20.23861 529
20.25872 560
20.27884 568
20.29895 570
20.31907 576
20.33918 555
20.35929 553
20.37941 583
20.39952 619
20.41963 666
20.43975 590
20.45986 638
20.47998 625
20.50009 636
20.5202 592
20.54032 684
20.56043 690
20.58054 741
20.60066 791
20.62077 839
20.64088 999
20.661 1215
20.68111 1441
20.70123 1837
20.72134 2387
20.74145 3088
20.76157 3962
20.78168 4720
20.80179 5214
20.82191 5549
20.84202 5138
20.86214 4572
20.88225 3819
20.90236 2830
20.92248 1956
20.94259 1459
20.9627 1103
20.98282 850
21.00293 759
21.02305 721
21.04316 590
21.06327 597
21.08339 560
21.1035 625
21.12361 548
21.14373 571
21.16384 524
21.18395 540
21.20407 556
21.22418 544
21.2443 582
21.26441 568
21.28452 562
21.30464 564
21.32475 552
21.34486 562
21.36498 534
21.38509 527
21.40521 571
21.42532 531
21.44543 484
21.46555 482
21.48566 487
21.50577 454
21.52589 529
21.546 439
21.56612 490
21.58623 498
21.60634 441
21.62646 464
21.64657 424
21.66668 408
21.6868 451
21.70691 405
21.72702 419
21.74714 404
21.76725 422
21.78737 426
21.80748 419
21.82759 424
21.84771 402
21.86782 359
21.88793 406
21.90805 418
21.92816 422
21.94828 427
21.96839 424
21.9885 415
22.00862 376
22.02873 410
22.04884 372
22.06896 383
22.08907 369
22.10919 367
22.1293 341
22.14941 370
22.16953 395
22.18964 383
22.20975 340
22.22987 375
22.24998 410
22.27009 333
22.29021 372
22.31032 328
22.33044 361
22.35055 367
22.37066 339
22.39078 396
22.41089 359
22.431 335
22.45112 309
22.47123 347
22.49135 315
22.51146 418
22.53157 364
22.55169 349
22.5718 368
22.59191 354
22.61203 352
22.63214 356
22.65225 355
22.67237 335
22.69248 325
22.7126 347
22.73271 341
22.75282 334
22.77294 323
22.79305 334
22.81316 311
22.83328 366
22.85339 346
22.87351 320
22.89362 324
22.91373 364
22.93385 340
22.95396 311
22.97407 367
22.99419 343
23.0143 348
23.03442 361
23.05453 351
23.07464 316
23.09476 318
23.11487 341
23.13498 307
23.1551 339
23.17521 333
23.19532 356
23.21544 316
23.23555 333
23.25567 332
23.27578 336
23.29589 335
23.31601 302
23.33612 332
23.35623 325
23.37635 332
23.39646 317
23.41658 332
23.43669 301
23.4568 337
23.47692 320
23.49703 333
23.51714 345
23.53726 338
23.55737 311
23.57749 317
23.5976 336
23.61771 309
23.63783 335
23.65794 337
23.67805 329
23.69817 302
23.71828 325
23.73839 328
23.75851 344
23.77862 345
23.79874 367
23.81885 381
23.83896 326
23.85908 352
23.87919 387
23.8993 370
23.91942 378
23.93953 381
23.95965 423
23.97976 385
23.99987 377
24.01999 388
24.0401 387
24.06021 381
24.08033 384
24.10044 340
24.12056 373
24.14067 368
24.16078 353
24.1809 387
24.20101 382
24.22112 348
24.24124 350
24.26135 371
24.28146 366
24.30158 374
24.32169 386
24.34181 402
24.36192 395
24.38203 374
24.40215 379
24.42226 377
24.44237 430
24.46249 427
24.4826 377
24.50272 396
24.52283 440
24.54294 402
24.56306 476
24.58317 448
24.60328 451
24.6234 435
24.64351 490
24.66362 514
24.68374 488
24.70385 507
24.72397 501
24.74408 557
24.76419 592
24.78431 574
24.80442 534
24.82453 571
24.84465 597
24.86476 559
24.88488 566
24.90499 579
24.9251 543
24.94522 526
24.96533 549
24.98544 563
25.00556 543
25.02567 475
25.04579 510
25.0659 434
25.08601 503
25.10613 513
25.12624 477
25.14635 502
25.16647 468
25.18658 502
25.20669 512
25.22681 476
25.24692 502
25.26704 467
25.28715 525
25.30726 479
25.32738 482
25.34749 460
25.3676 398
25.38772 436
25.40783 399
25.42795 394
25.44806 376
25.46817 403
25.48829 411
25.5084 361
25.52851 388
25.54863 365
25.56874 391
25.58886 388
25.60897 443
25.62908 428
25.6492 437
25.66931 440
25.68942 466
25.70954 453
25.72965 471
25.74976 447
25.76988 476
25.78999 503
25.81011 461
25.83022 515
25.85033 482
25.87045 518
25.89056 519
25.91067 509
25.93079 501
25.9509 540
25.97102 527
25.99113 518
26.01124 517
26.03136 586
26.05147 575
26.07158 618
26.0917 641
26.11181 666
26.13193 677
26.15204 730
26.17215 809
26.19227 831
26.21238 886
26.23249 934
26.25261 1005
26.27272 1065
26.29283 1156
26.31295 1269
26.33306 1431
26.35318 1596
26.37329 2148
26.3934 2507
26.41352 3279
26.43363 4359
26.45374 5861
26.47386 7785
26.49397 10551
26.51409 13706
26.5342 17193
26.55431 20485
26.57443 22985
26.59454 23676
26.61465 23077
26.63477 20584
26.65488 17662
26.67499 13594
26.69511 9752
26.71522 6874
26.73534 4574
26.75545 3020
26.77556 1958
26.79568 1538
26.81579 1324
26.8359 1106
26.85602 1001
26.87613 941
26.89625 853
26.91636 784
26.93647 724
26.95659 637
26.9767 677
26.99681 621
27.01693 599
27.03704 554
27.05716 527
27.07727 479
27.09738 478
27.1175 447
27.13761 485
27.15772 416
27.17784 461
27.19795 452
27.21806 435
27.23818 422
27.25829 423
27.27841 402
27.29852 461
27.31863 455
27.33875 445
27.35886 406
27.37897 445
27.39909 438
27.4192 447
27.43932 449
27.45943 423
27.47954 397
27.49966 387
27.51977 388
27.53988 384
27.56 385
27.58011 369
27.60023 369
27.62034 364
27.64045 413
27.66057 362
27.68068 346
27.70079 356
27.72091 358
27.74102 355
27.76113 379
27.78125 330
27.80136 380
27.82148 342
27.84159 377
27.8617 347
27.88182 313
27.90193 308
27.92204 333
27.94216 339
27.96227 326
27.98239 364
28.0025 355
28.02261 308
28.04273 312
28.06284 321
28.08295 337
28.10307 352
28.12318 326
28.1433 330
28.16341 341
28.18352 325
28.20364 335
28.22375 358
28.24386 322
28.26398 337
28.28409 320
28.3042 311
28.32432 325
28.34443 325
28.36455 332
28.38466 312
28.40477 296
28.42489 328
28.445 326
28.46511 261
28.48523 293
28.50534 300
28.52546 326
28.54557 312
28.56568 294
28.5858 293
28.60591 299
28.62602 318
28.64614 316
28.66625 285
28.68636 317
28.70648 279
28.72659 309
28.74671 274
28.76682 268
28.78693 295
28.80705 291
28.82716 280
28.84727 276
28.86739 279
28.8875 306
28.90762 288
28.92773 291
28.94784 272
28.96796 289
28.98807 295
29.00818 319
29.0283 288
29.04841 265
29.06853 268
29.08864 287
29.10875 272
29.12887 299
29.14898 296
29.16909 296
29.18921 296
29.20932 261
29.22943 265
29.24955 285
29.26966 316
29.28978 282
29.30989 292
29.33 291
29.35012 278
29.37023 286
29.39034 250
29.41046 266
29.43057 276
29.45069 262
29.4708 272
29.49091 304
29.51103 309
29.53114 291
29.55125 288
29.57137 315
29.59148 281
29.6116 295
29.63171 263
29.65182 294
29.67194 284
29.69205 276
29.71216 282
29.73228 279
29.75239 250
29.7725 268
29.79262 263
29.81273 249
29.83285 279
29.85296 304
29.87307 287
29.89319 268
29.9133 296
29.93341 273
29.95353 263
29.97364 277
29.99376 283
30.01387 251
30.03398 296
30.0541 265
30.07421 280
30.09432 267
30.11444 294
30.13455 264
30.15467 285
30.17478 301
30.19489 292
30.21501 283
30.23512 312
30.25523 306
30.27535 283
30.29546 297
30.31557 280
30.33569 257
30.3558 297
30.37592 251
30.39603 260
30.41614 282
30.43626 277
30.45637 282
30.47648 274
30.4966 269
30.51671 246
30.53683 291
30.55694 281
30.57705 259
30.59717 265
30.61728 272
30.63739 289
30.65751 268
30.67762 279
30.69773 258
30.71785 249
30.73796 270
30.75808 280
30.77819 252
30.7983 279
30.81842 259
30.83853 246
30.85864 254
30.87876 285
30.89887 249
30.91899 269
30.9391 253
30.95921 267
30.97933 281
30.99944 256
31.01955 247
31.03967 263
31.05978 269
31.0799 238
31.10001 250
31.12012 253
31.14024 258
31.16035 268
31.18046 254
31.20058 259
31.22069 256
31.2408 268
31.26092 249
31.28103 225
31.30115 262
31.32126 259
31.34137 248
31.36149 242
31.3816 248
31.40171 250
31.42183 235
31.44194 227
31.46206 234
31.48217 238
31.50228 276
31.5224 239
31.54251 250
31.56262 249
31.58274 267
31.60285 248
31.62297 244
31.64308 260
31.66319 245
31.68331 252
31.70342 251
31.72353 241
31.74365 279
31.76376 258
31.78387 245
31.80399 242
31.8241 283
31.84422 244
31.86433 240
31.88444 262
31.90456 243
31.92467 237
31.94478 259
31.9649 249
31.98501 226
32.00513 275
32.02524 238
32.04535 248
32.06547 279
32.08558 242
32.10569 241
32.12581 274
32.14592 235
32.16604 274
32.18615 249
32.20626 255
32.22638 242
32.24649 259
32.2666 253
32.28672 249
32.30683 264
32.32694 232
32.34706 276
32.36717 266
32.38729 241
32.4074 270
32.42751 259
32.44763 274
32.46774 274
32.48785 254
32.50797 263
32.52808 249
32.5482 242
32.56831 243
32.58842 271
32.60854 247
32.62865 298
32.64876 229
32.66888 258
32.68899 255
32.7091 275
32.72922 289
32.74933 267
32.76945 267
32.78956 280
32.80967 268
32.82979 262
32.8499 295
32.87001 287
32.89013 261
32.91024 244
32.93036 289
32.95047 285
32.97058 267
32.9907 256
33.01081 267
33.03092 294
33.05104 260
33.07115 285
33.09127 302
33.11138 289
33.13149 306
33.15161 301
33.17172 283
33.19183 283
33.21195 282
33.23206 287
33.25217 306
33.27229 295
33.2924 293
33.31252 303
33.33263 295
33.35274 263
33.37286 291
33.39297 285
33.41308 279
33.4332 291
33.45331 263
33.47343 242
33.49354 257
33.51365 252
33.53377 283
33.55388 283
33.57399 264
33.59411 276
33.61422 283
33.63434 259
33.65445 249
33.67456 264
33.69468 265
33.71479 297
33.7349 263
33.75502 290
33.77513 249
33.79524 227
33.81536 247
33.83547 285
33.85559 276
33.8757 259
33.89581 224
33.91593 236
33.93604 259
33.95615 234
33.97627 253
33.99638 224
34.0165 258
34.03661 243
34.05672 260
34.07684 260
34.09695 275
34.11706 255
34.13718 241
34.15729 227
34.17741 236
34.19752 242
34.21763 248
34.23775 226
34.25786 240
34.27797 252
34.29809 239
34.3182 274
34.33831 231
34.35843 245
34.37854 239
34.39866 261
34.41877 258
34.43888 255
34.459 254
34.47911 266
34.49922 262
34.51934 270
34.53945 299
34.55957 284
34.57968 283
34.59979 290
34.61991 297
34.64002 310
34.66013 366
34.68025 326
34.70036 338
34.72047 341
34.74059 383
34.7607 353
34.78082 370
34.80093 406
34.82104 414
34.84116 408
34.86127 451
34.88138 392
34.9015 419
34.92161 423
34.94173 417
34.96184 414
34.98195 430
35.00207 374
35.02218 399
35.04229 376
35.06241 370
35.08252 362
35.10264 363
35.12275 374
35.14286 356
35.16298 332
35.18309 379
35.2032 354
35.22332 421
35.24343 371
35.26354 377
35.28366 385
35.30377 383
35.32389 372
35.344 361
35.36411 389
35.38423 366
35.40434 381
35.42445 388
35.44457 408
35.46468 401
35.4848 389
35.50491 427
35.52502 370
35.54514 366
35.56525 408
35.58536 361
35.60548 426
35.62559 415
35.64571 382
35.66582 407
35.68593 432
35.70605 417
35.72616 401
35.74627 391
35.76639 419
35.7865 415
35.80661 401
35.82673 438
35.84684 400
35.86696 476
35.88707 450
35.90718 436
35.9273 407
35.94741 410
35.96752 427
35.98764 401
36.00775 417
36.02787 409
36.04798 417
36.06809 407
36.08821 420
36.10832 405
36.12843 419
36.14855 454
36.16866 394
36.18878 391
36.20889 458
36.229 387
36.24912 486
36.26923 490
36.28934 554
36.30946 604
36.32957 651
36.34968 793
36.3698 828
36.38991 1094
36.41003 1369
36.43014 1498
36.45025 1701
36.47037 1814
36.49048 1808
36.51059 1754
36.53071 1655
36.55082 1458
36.57094 1274
36.59105 1113
36.61116 928
36.63128 752
36.65139 652
36.6715 518
36.69162 461
36.71173 429
36.73184 388
36.75196 425
36.77207 349
36.79219 389
36.8123 410
36.83241 372
36.85253 345
36.87264 368
36.89275 363
36.91287 365
36.93298 384
36.9531 371
36.97321 331
36.99332 359
37.01344 351
37.03355 367
37.05366 341
37.07378 368
37.09389 322
37.11401 336
37.13412 386
37.15423 357
37.17435 339
37.19446 317
37.21457 356
37.23469 324
37.2548 329
37.27491 335
37.29503 309
37.31514 372
37.33526 390
37.35537 334
37.37548 355
37.3956 378
37.41571 322
37.43582 353
37.45594 326
37.47605 357
37.49617 347
37.51628 349
37.53639 387
37.55651 351
37.57662 366
37.59673 373
37.61685 381
37.63696 338
37.65708 373
37.67719 355
37.6973 350
37.71742 403
37.73753 344
37.75764 377
37.77776 367
37.79787 349
37.81798 319
37.8381 337
37.85821 366
37.87833 330
37.89844 347
37.91855 375
37.93867 373
37.95878 357
37.97889 367
37.99901 345
38.01912 359
38.03924 315
38.05935 366
38.07946 363
38.09958 383
38.11969 361
38.1398 376
38.15992 399
38.18003 383
38.20015 339
38.22026 390
38.24037 369
38.26049 414
38.2806 421
38.30071 389
38.32083 379
38.34094 425
38.36105 420
38.38117 400
38.40128 385
38.4214 441
38.44151 405
38.46162 401
38.48174 378
38.50185 364
38.52196 390
38.54208 399
38.56219 365
38.58231 371
38.60242 388
38.62253 377
38.64265 346
38.66276 351
38.68287 358
38.70299 350
38.7231 363
38.74321 340
38.76333 372
38.78344 334
38.80356 325
38.82367 361
38.84378 377
38.8639 376
38.88401 332
38.90412 361
38.92424 394
38.94435 362
38.96447 338
38.98458 367
39.00469 335
39.02481 381
39.04492 388
39.06503 389
39.08515 385
39.10526 385
39.12538 389
39.14549 440
39.1656 430
39.18572 480
39.20583 510
39.22594 527
39.24606 663
39.26617 714
39.28628 840
39.3064 969
39.32651 1113
39.34663 1421
39.36674 1460
39.38685 1634
39.40697 1570
39.42708 1711
39.44719 1584
39.46731 1323
39.48742 1214
39.50754 1056
39.52765 925
39.54776 789
39.56788 635
39.58799 565
39.6081 451
39.62822 397
39.64833 346
39.66845 365
39.68856 343
39.70867 327
39.72879 326
39.7489 298
39.76901 311
39.78913 331
39.80924 303
39.82935 288
39.84947 304
39.86958 308
39.8897 306
39.90981 343
39.92992 299
39.95004 305
39.97015 291
39.99026 312
40.01038 327
40.03049 371
40.05061 410
40.07072 470
40.09083 490
40.11095 473
40.13106 639
40.15117 662
40.17129 811
40.1914 887
40.21152 885
40.23163 902
40.25174 918
40.27186 885
40.29197 774
40.31208 711
40.3322 693
40.35231 587
40.37242 498
40.39254 464
40.41265 388
40.43277 371
40.45288 308
40.47299 263
40.49311 338
40.51322 293
40.53333 295
40.55345 307
40.57356 294
40.59368 303
40.61379 286
40.6339 301
40.65402 269
40.67413 310
40.69424 266
40.71436 299
40.73447 292
40.75458 271
40.7747 284
40.79481 256
40.81493 270
40.83504 283
40.85515 301
40.87527 301
40.89538 271
40.91549 287
40.93561 300
40.95572 291
40.97584 294
40.99595 290
41.01606 293
41.03618 260
41.05629 295
41.0764 273
41.09652 283
41.11663 287
41.13675 289
41.15686 275
41.17697 274
41.19709 294
41.2172 301
41.23731 250
41.25743 276
41.27754 301
41.29765 267
41.31777 274
41.33788 276
41.358 281
41.37811 300
41.39822 317
41.41834 285
41.43845 280
41.45856 293
41.47868 271
41.49879 286
41.51891 283
41.53902 274
41.55913 286
41.57925 275
41.59936 273
41.61947 249
41.63959 276
41.6597 303
41.67982 246
41.69993 264
41.72004 277
41.74016 246
41.76027 276
41.78038 258
41.8005 276
41.82061 254
41.84072 251
41.86084 273
41.88095 264
41.90107 253
41.92118 273
41.94129 295
41.96141 297
41.98152 267
42.00163 307
42.02175 264
42.04186 277
42.06198 282
42.08209 315
42.1022 308
42.12232 345
42.14243 355
42.16254 354
42.18266 439
42.20277 411
42.22289 471
42.243 540
42.26311 616
42.28323 696
42.30334 833
42.32345 968
42.34357 1077
42.36368 1128
42.38379 1207
42.40391 1213
42.42402 1087
42.44414 1032
42.46425 909
42.48436 822
42.50448 735
42.52459 620
42.5447 522
42.56482 476
42.58493 399
42.60505 363
42.62516 330
42.64527 280
42.66539 286
42.6855 264
42.70561 278
42.72573 257
42.74584 261
42.76595 266
42.78607 244
42.80618 244
42.8263 272
42.84641 251
42.86652 208
42.88664 253
42.90675 251
42.92686 249
42.94698 265
42.96709 245
42.98721 221
43.00732 245
43.02743 249
43.04755 265
43.06766 246
43.08777 251
43.10789 224
43.128 240
43.14812 232
43.16823 225
43.18834 226
43.20846 248
43.22857 226
43.24868 252
43.2688 207
43.28891 214
43.30902 231
43.32914 252
43.34925 249
43.36937 240
43.38948 195
43.40959 219
43.42971 231
43.44982 215
43.46993 240
43.49005 237
43.51016 231
43.53028 226
43.55039 231
43.5705 229
43.59062 229
43.61073 228
43.63084 262
43.65096 223
43.67107 218
43.69119 217
43.7113 222
43.73141 209
43.75153 232
43.77164 226
43.79175 234
43.81187 249
43.83198 250
43.85209 236
43.87221 242
43.89232 223
43.91244 241
43.93255 239
43.95266 217
43.97278 227
43.99289 245
44.013 222
44.03312 219
44.05323 240
44.07335 244
44.09346 234
44.11357 206
44.13369 270
44.1538 242
44.17391 243
44.19403 266
44.21414 256
44.23426 223
44.25437 240
44.27448 230
44.2946 203
44.31471 218
44.33482 233
44.35494 216
44.37505 243
44.39516 224
44.41528 202
44.43539 243
44.45551 222
44.47562 224
44.49573 211
44.51585 221
44.53596 236
44.55607 216
44.57619 230
44.5963 223
44.61642 249
44.63653 242
44.65664 212
44.67676 250
44.69687 237
44.71698 231
44.7371 214
44.75721 243
44.77732 253
44.79744 221
44.81755 274
44.83767 250
44.85778 245
44.87789 249
44.89801 219
44.91812 246
44.93823 230
44.95835 222
44.97846 250
44.99858 256
45.01869 255
45.0388 243
45.05892 227
45.07903 272
45.09914 203
45.11926 247
45.13937 255
45.15949 283
45.1796 249
45.19971 222
45.21983 264
45.23994 268
45.26005 270
45.28017 263
45.30028 231
45.32039 255
45.34051 265
45.36062 263
45.38074 285
45.40085 281
45.42096 304
45.44108 313
45.46119 331
45.4813 326
45.50142 347
45.52153 378
45.54165 382
45.56176 409
45.58187 464
45.60199 495
45.6221 589
45.64221 597
45.66233 749
45.68244 824
45.70256 885
45.72267 890
45.74278 889
45.7629 874
45.78301 734
45.80312 702
45.82324 677
45.84335 573
45.86346 556
45.88358 503
45.90369 405
45.92381 404
45.94392 320
45.96403 289
45.98415 277
46.00426 284
46.02437 279
46.04449 289
46.0646 281
46.08472 276
46.10483 244
46.12494 267
46.14506 221
46.16517 240
46.18528 228
46.2054 287
46.22551 251
46.24563 239
46.26574 276
46.28585 229
46.30597 240
46.32608 232
46.34619 232
46.36631 252
46.38642 257
46.40653 253
46.42665 250
46.44676 261
46.46688 263
46.48699 251
46.5071 251
46.52722 226
46.54733 238
46.56744 235
46.58756 246
46.60767 246
46.62779 240
46.6479 243
46.66801 235
46.68813 254
46.70824 244
46.72835 255
46.74847 219
46.76858 203
46.78869 252
46.80881 254
46.82892 277
46.84904 239
46.86915 214
46.88926 218
46.90938 227
46.92949 242
46.9496 234
46.96972 216
46.98983 239
47.00995 221
47.03006 212
47.05017 239
47.07029 260
47.0904 214
47.11051 256
47.13063 242
47.15074 223
47.17086 251
47.19097 214
47.21108 240
47.2312 243
47.25131 236
47.27142 231
47.29154 229
47.31165 212
47.33176 243
47.35188 231
47.37199 228
47.39211 240
47.41222 222
47.43233 232
47.45245 235
47.47256 235
47.49267 243
47.51279 259
47.5329 222
47.55302 230
47.57313 252
47.59324 240
47.61336 243
47.63347 255
47.65358 237
47.6737 266
47.69381 276
47.71393 224
47.73404 244
47.75415 219
47.77427 220
47.79438 240
47.81449 234
47.83461 276
47.85472 274
47.87483 252
47.89495 251
47.91506 268
47.93518 239
47.95529 239
47.9754 259
47.99552 267
48.01563 248
48.03574 272
48.05586 262
48.07597 232
48.09609 264
48.1162 271
48.13631 237
48.15643 244
48.17654 237
48.19665 214
48.21677 218
48.23688 264
48.257 221
48.27711 262
48.29722 245
48.31734 221
48.33745 245
48.35756 236
48.37768 222
48.39779 245
48.4179 242
48.43802 239
48.45813 238
48.47825 254
48.49836 232
48.51847 244
48.53859 199
48.5587 253
48.57881 232
48.59893 278
48.61904 256
48.63916 246
48.65927 229
48.67938 241
48.6995 230
48.71961 219
48.73972 232
48.75984 224
48.77995 247
48.80006 242
48.82018 224
48.84029 202
48.86041 219
48.88052 247
48.90063 217
48.92075 242
48.94086 242
48.96097 243
48.98109 242
49.0012 217
49.02132 266
49.04143 220
49.06154 235
49.08166 242
49.10177 254
49.12188 272
49.142 260
49.16211 240
49.18223 263
49.20234 266
49.22245 256
49.24257 248
49.26268 262
49.28279 264
49.30291 235
49.32302 250
49.34313 253
49.36325 243
49.38336 256
49.40348 256
49.42359 265
49.4437 254
49.46382 266
49.48393 276
49.50404 283
49.52416 302
49.54427 282
49.56439 280
49.5845 259
49.60461 285
49.62473 265
49.64484 355
49.66495 335
49.68507 307
49.70518 344
49.7253 363
49.74541 370
49.76552 415
49.78564 430
49.80575 508
49.82586 495
49.84598 533
49.86609 632
49.8862 717
49.90632 871
49.92643 972
49.94655 1219
49.96666 1425
49.98677 1719
50.00689 2025
50.027 2230
50.04711 2474
50.06723 2603
50.08734 2555
50.10746 2426
50.12757 2022
50.14768 1830
50.1678 1689
50.18791 1564
50.20802 1348
50.22814 1238
50.24825 1020
50.26837 813
50.28848 676
50.30859 523
50.32871 429
50.34882 401
50.36893 327
50.38905 333
50.40916 329
50.42927 326
50.44939 311
50.4695 316
50.48962 297
50.50973 315
50.52984 289
50.54996 322
50.57007 350
50.59018 268
50.6103 285
50.63041 302
50.65053 290
50.67064 290
50.69075 254
50.71087 271
50.73098 267
50.75109 264
50.77121 250
50.79132 269
50.81143 247
50.83155 255
50.85166 231
50.87178 275
50.89189 273
50.912 222
50.93212 225
50.95223 242
50.97234 226
50.99246 236
51.01257 239
51.03269 226
51.0528 265
51.07291 214
51.09303 253
51.11314 218
51.13325 227
51.15337 226
51.17348 237
51.1936 262
51.21371 225
51.23382 230
51.25394 235
51.27405 238
51.29416 216
51.31428 222
51.33439 228
51.3545 226
51.37462 232
51.39473 227
51.41485 221
51.43496 224
51.45507 221
51.47519 232
51.4953 212
51.51541 223
51.53553 244
51.55564 222
51.57576 196
51.59587 207
51.61598 209
51.6361 204
51.65621 218
51.67632 217
51.69644 211
51.71655 193
51.73667 215
51.75678 199
51.77689 219
51.79701 211
51.81712 224
51.83723 213
51.85735 193
51.87746 210
51.89757 213
51.91769 215
51.9378 209
51.95792 212
51.97803 198
51.99814 186
52.01826 217
52.03837 203
52.05848 219
52.0786 196
52.09871 190
52.11883 223
52.13894 213
52.15905 220
52.17917 182
52.19928 218
52.21939 238
52.23951 206
52.25962 214
52.27974 187
52.29985 214
52.31996 235
52.34008 201
52.36019 207
52.3803 213
52.40042 252
52.42053 220
52.44064 222
52.46076 195
52.48087 205
52.50099 227
52.5211 196
52.54121 235
52.56133 167
52.58144 239
52.60155 197
52.62167 216
52.64178 199
52.6619 210
52.68201 217
52.70212 202
52.72224 212
52.74235 235
52.76246 227
52.78258 253
52.80269 226
52.8228 207
52.84292 220
52.86303 244
52.88315 246
52.90326 215
52.92337 247
52.94349 240
52.9636 210
52.98371 230
53.00383 223
53.02394 236
53.04406 228
53.06417 229
53.08428 255
53.1044 233
53.12451 218
53.14462 213
53.16474 204
53.18485 240
53.20497 199
53.22508 216
53.24519 231
53.26531 225
53.28542 249
53.30553 235
53.32565 232
53.34576 247
53.36587 250
53.38599 229
53.4061 254
53.42622 242
53.44633 248
53.46644 245
53.48656 263
53.50667 254
53.52678 278
53.5469 259
53.56701 225
53.58713 271
53.60724 257
53.62735 251
53.64747 268
53.66758 282
53.68769 270
53.70781 295
53.72792 283
53.74804 284
53.76815 261
53.78826 289
53.80838 252
53.82849 283
53.8486 290
53.86872 291
53.88883 297
53.90894 283
53.92906 270
53.94917 315
53.96929 303
53.9894 311
54.00951 305
54.02963 298
54.04974 288
54.06985 311
54.08997 291
54.11008 329
54.1302 292
54.15031 337
54.17042 315
54.19054 305
54.21065 325
54.23076 329
54.25088 294
54.27099 334
54.29111 300
54.31122 301
54.33133 291
54.35145 310
54.37156 330
54.39167 336
54.41179 285
54.4319 313
54.45201 304
54.47213 327
54.49224 348
54.51236 342
54.53247 362
54.55258 336
54.5727 388
54.59281 399
54.61292 420
54.63304 417
54.65315 514
54.67327 575
54.69338 617
54.71349 718
54.73361 763
54.75372 833
54.77383 882
54.79395 965
54.81406 949
54.83417 927
54.85429 881
54.8744 793
54.89452 766
54.91463 667
54.93474 653
54.95486 592
54.97497 624
54.99508 569
55.0152 505
55.03531 484
55.05543 461
55.07554 407
55.09565 410
55.11577 451
55.13588 433
55.15599 453
55.17611 467
55.19622 505
55.21634 562
55.23645 570
55.25656 552
55.27668 551
55.29679 531
55.3169 528
55.33702 474
55.35713 459
55.37724 443
55.39736 407
55.41747 373
55.43759 411
55.4577 393
55.47781 351
55.49793 316
55.51804 316
55.53815 277
55.55827 272
55.57838 279
55.5985 327
55.61861 280
55.63872 291
55.65884 277
55.67895 253
55.69906 287
55.71918 259
55.73929 249
55.75941 275
55.77952 241
55.79963 294
55.81975 277
55.83986 238
55.85997 241
55.88009 248
55.9002 272
55.92031 261
55.94043 253
55.96054 236
55.98066 245
56.00077 260
56.02088 279
56.041 267
56.06111 257
56.08122 225
56.10134 270
56.12145 248
56.14157 259
56.16168 249
56.18179 263
56.20191 266
56.22202 259
56.24213 223
56.26225 233
56.28236 243
56.30248 241
56.32259 225
56.3427 259
56.36282 236
56.38293 237
56.40304 228
56.42316 218
56.44327 247
56.46338 232
56.4835 248
56.50361 228
56.52373 245
56.54384 244
56.56395 268
56.58407 258
56.60418 252
56.62429 250
56.64441 245
56.66452 227
56.68464 243
56.70475 239
56.72486 261
56.74498 223
56.76509 232
56.7852 243
56.80532 237
56.82543 242
56.84554 220
56.86566 214
56.88577 241
56.90589 228
56.926 225
56.94611 231
56.96623 232
56.98634 274
57.00645 240
57.02657 229
57.04668 267
57.0668 254
57.08691 278
57.10702 254
57.12714 250
57.14725 271
57.16736 275
57.18748 270
57.20759 265
57.22771 281
57.24782 264
57.26793 239
57.28805 283
57.30816 271
57.32827 250
57.34839 247
57.3685 267
57.38861 253
57.40873 237
57.42884 212
57.44896 232
57.46907 264
57.48918 265
57.5093 233
57.52941 232
57.54952 214
57.56964 226
57.58975 231
57.60987 251
57.62998 230
57.65009 230
57.67021 248
57.69032 206
57.71043 242
57.73055 267
57.75066 234
57.77078 235
57.79089 209
57.811 208
57.83112 227
57.85123 223
57.87134 229
57.89146 217
57.91157 216
57.93168 255
57.9518 228
57.97191 221
57.99203 240
58.01214 232
58.03225 204
58.05237 249
58.07248 230
58.09259 245
58.11271 214
58.13282 198
58.15294 230
58.17305 215
58.19316 243
58.21328 235
58.23339 222
58.2535 222
58.27362 216
58.29373 226
58.31385 198
58.33396 250
58.35407 213
58.37419 216
58.3943 227
58.41441 248
58.43453 207
58.45464 201
58.47475 237
58.49487 214
58.51498 214
58.5351 212
58.55521 233
58.57532 231
58.59544 202
58.61555 217
58.63566 204
58.65578 257
58.67589 217
58.69601 261
58.71612 234
58.73623 242
58.75635 213
58.77646 226
58.79657 228
58.81669 222
58.8368 221
58.85691 223
58.87703 223
58.89714 205
58.91726 229
58.93737 198
58.95748 226
58.9776 207
58.99771 226
59.01782 232
59.03794 229
59.05805 277
59.07817 206
59.09828 239
59.11839 269
59.13851 254
59.15862 235
59.17873 234
59.19885 248
59.21896 252
59.23908 231
59.25919 252
59.2793 226
59.29942 253
59.31953 262
59.33964 263
59.35976 274
59.37987 289
59.39998 257
59.4201 256
59.44021 281
59.46033 269
59.48044 293
59.50055 331
59.52067 287
59.54078 337
59.56089 321
59.58101 369
59.60112 383
59.62124 427
59.64135 489
59.66146 479
59.68158 545
59.70169 663
59.7218 724
59.74192 819
59.76203 894
59.78215 1089
59.80226 1290
59.82237 1389
59.84249 1505
59.8626 1722
59.88271 1656
59.90283 1643
59.92294 1446
59.94305 1314
59.96317 1217
59.98328 1084
60.0034 1015
60.02351 1043
60.04362 982
60.06374 878
60.08385 815
60.10396 673
60.12408 578
60.14419 410
60.16431 414
60.18442 345
60.20453 319
60.22465 308
60.24476 284
60.26487 277
60.28499 263
60.3051 274
60.32522 259
60.34533 238
60.36544 255
60.38556 232
60.40567 244
60.42578 238
60.4459 264
60.46601 224
60.48612 246
60.50624 231
60.52635 248
60.54647 213
60.56658 241
60.58669 218
60.60681 233
60.62692 208
60.64703 245
60.66715 229
60.68726 242
60.70738 238
60.72749 225
60.7476 219
60.76772 219
60.78783 205
60.80794 254
60.82806 229
60.84817 235
60.86828 218
60.8884 213
60.90851 227
60.92863 233
60.94874 234
60.96885 218
60.98897 228
61.00908 217
61.02919 215
61.04931 227
61.06942 243
61.08954 213
61.10965 230
61.12976 208
61.14988 232
61.16999 211
61.1901 240
61.21022 222
61.23033 208
61.25045 212
61.27056 218
61.29067 245
61.31079 234
61.3309 220
61.35101 245
61.37113 255
61.39124 226
61.41135 213
61.43147 232
61.45158 263
61.4717 237
61.49181 244
61.51192 196
61.53204 246
61.55215 229
61.57226 245
61.59238 243
61.61249 232
61.63261 216
61.65272 226
61.67283 251
61.69295 234
61.71306 264
61.73317 286
61.75329 283
61.7734 250
61.79352 304
61.81363 267
61.83374 262
61.85386 296
61.87397 267
61.89408 279
61.9142 296
61.93431 279
61.95442 255
61.97454 302
61.99465 305
62.01477 339
62.03488 364
62.05499 337
62.07511 356
62.09522 383
62.11533 366
62.13545 362
62.15556 389
62.17568 373
62.19579 379
62.2159 384
62.23602 350
62.25613 375
62.27624 361
62.29636 358
62.31647 343
62.33659 386
62.3567 324
62.37681 311
62.39693 292
62.41704 304
62.43715 286
62.45727 318
62.47738 269
62.49749 265
62.51761 312
62.53772 300
62.55784 283
62.57795 274
62.59806 250
62.61818 265
62.63829 266
62.6584 286
62.67852 247
62.69863 241
62.71875 266
62.73886 273
62.75897 241
62.77909 262
62.7992 245
62.81931 255
62.83943 236
62.85954 242
62.87965 225
62.89977 223
62.91988 235
62.94 238
62.96011 254
62.98022 222
63.00034 260
63.02045 249
63.04056 243
63.06068 249
63.08079 219
63.10091 228
63.12102 225
63.14113 234
63.16125 254
63.18136 237
63.20147 259
63.22159 219
63.2417 235
63.26182 231
63.28193 252
63.30204 254
63.32216 224
63.34227 258
63.36238 206
63.3825 231
63.40261 229
63.42272 214
63.44284 223
63.46295 260
63.48307 225
63.50318 250
63.52329 241
63.54341 228
63.56352 290
63.58363 272
63.60375 272
63.62386 250
63.64398 270
63.66409 263
63.6842 287
63.70432 297
63.72443 276
63.74454 292
63.76466 268
63.78477 290
63.80489 323
63.825 378
63.84511 371
63.86523 435
63.88534 446
63.90545 483
63.92557 485
63.94568 488
63.96579 461
63.98591 516
64.00602 479
64.02614 421
64.04625 382
64.06636 375
64.08648 370
64.10659 377
64.1267 351
64.14682 343
64.16693 329
64.18705 306
64.20716 298
64.22727 289
64.24739 290
64.2675 241
64.28761 244
64.30773 259
64.32784 237
64.34796 225
64.36807 228
64.38818 228
64.4083 246
64.42841 202
64.44852 210
64.46864 213
64.48875 237
64.50886 243
64.52898 227
64.54909 233
64.56921 230
64.58932 213
64.60943 232
64.62955 222
64.64966 229
64.66977 207
64.68989 232
64.71 183
64.73012 209
64.75023 211
64.77034 207
64.79046 209
64.81057 224
64.83068 225
64.8508 199
64.87091 206
64.89102 219
64.91114 208
64.93125 224
64.95137 213
64.97148 234
64.99159 217
65.01171 202
65.03182 196
65.05193 226
65.07205 207
65.09216 216
65.11228 209
65.13239 233
65.1525 210
65.17262 233
65.19273 221
65.21284 217
65.23296 237
65.25307 223
65.27319 223
65.2933 233
65.31341 209
65.33353 224
65.35364 235
65.37375 204
65.39387 217
65.41398 211
65.43409 216
65.45421 236
65.47432 221
65.49444 202
65.51455 221
65.53466 215
65.55478 247
65.57489 254
65.595 234
65.61512 243
65.63523 283
65.65535 252
65.67546 278
65.69557 283
65.71569 251
65.7358 288
65.75591 279
65.77603 267
65.79614 264
65.81626 234
65.83637 264
65.85648 254
65.8766 254
65.89671 247
65.91682 263
65.93694 221
65.95705 232
65.97716 239
65.99728 220
66.01739 247
66.03751 204
66.05762 206
66.07773 220
66.09785 222
66.11796 210
66.13807 233
66.15819 232
66.1783 202
66.19842 192
66.21853 207
66.23864 233
66.25876 199
66.27887 192
66.29898 191
66.3191 201
66.33921 199
66.35933 228
66.37944 222
66.39955 191
66.41967 212
66.43978 223
66.45989 228
66.48001 208
66.50012 219
66.52023 230
66.54035 199
66.56046 217
66.58058 212
66.60069 201
66.6208 206
66.64092 221
66.66103 194
66.68114 218
66.70126 208
66.72137 209
66.74149 220
66.7616 212
66.78171 202
66.80183 209
66.82194 217
66.84205 240
66.86217 220
66.88228 242
66.90239 229
66.92251 220
66.94262 228
66.96274 212
66.98285 219
67.00296 231
67.02308 219
67.04319 219
67.0633 253
67.08342 266
67.10353 270
67.12365 218
67.14376 247
67.16387 255
67.18399 269
67.2041 237
67.22421 303
67.24433 292
67.26444 268
67.28456 298
67.30467 313
67.32478 299
67.3449 299
67.36501 289
67.38512 313
67.40524 353
67.42535 378
67.44546 420
67.46558 426
67.48569 461
67.50581 544
67.52592 575
67.54603 662
67.56615 781
67.58626 797
67.60637 927
67.62649 1056
67.6466 1098
67.66672 1085
67.68683 1066
67.70694 975
67.72706 959
67.74717 847
67.76728 862
67.7874 761
67.80751 797
67.82763 807
67.84774 855
67.86785 860
67.88797 926
67.90808 897
67.92819 903
67.94831 977
67.96842 1016
67.98853 1104
68.00865 1205
68.02876 1249
68.04888 1474
68.06899 1447
68.0891 1458
68.10922 1413
68.12933 1333
68.14944 1333
68.16956 1230
68.18967 1325
68.20979 1289
68.2299 1355
68.25001 1281
68.27013 1262
68.29024 1132
68.31035 915
68.33047 857
68.35058 786
68.3707 669
68.39081 616
68.41092 579
68.43104 553
68.45115 505
68.47126 478
68.49138 397
68.51149 401
68.5316 345
68.55172 342
68.57183 292
68.59195 272
68.61206 265
68.63217 267
68.65229 246
68.6724 252
68.69251 254
68.71263 270
68.73274 254
68.75286 246
68.77297 228
68.79308 222
68.8132 232
68.83331 221
68.85342 214
68.87354 230
68.89365 242
68.91376 244
68.93388 214
68.95399 226
68.97411 229
68.99422 216
69.01433 207
69.03445 226
69.05456 209
69.07467 211
69.09479 187
69.1149 193
69.13502 217
69.15513 222
69.17524 222
69.19536 221
69.21547 227
69.23558 198
69.2557 212
69.27581 205
69.29593 222
69.31604 219
69.33615 207
69.35627 220
69.37638 243
69.39649 200
69.41661 217
69.43672 211
69.45683 212
69.47695 208
69.49706 205
69.51718 194
69.53729 219
69.5574 198
69.57752 205
69.59763 210
69.61774 197
69.63786 197
69.65797 199
69.67809 205
69.6982 225
69.71831 225
69.73843 209
69.75854 218
69.77865 238
69.79877 203
69.81888 221
69.839 206
69.85911 193
69.87922 235
69.89934 179
69.91945 205
69.93956 219
69.95968 200
69.97979 212
69.9999 191
70.02002 191
70.04013 193
70.06025 210
70.08036 228
70.10047 195
70.12059 216
70.1407 232
70.16081 203
70.18093 212
70.20104 195
70.22116 207
70.24127 223
70.26138 209
70.2815 213
70.30161 199
70.32172 208
70.34184 205
70.36195 214
70.38207 224
70.40218 211
70.42229 199
70.44241 179
70.46252 222
70.48263 207
70.50275 203
70.52286 219
70.54297 175
70.56309 219
70.5832 202
70.60332 205
70.62343 183
70.64354 191
70.66366 219
70.68377 206
70.70388 195
70.724 218
70.74411 193
70.76423 221
70.78434 185
70.80445 202
70.82457 191
70.84468 186
70.86479 232
70.88491 229
70.90502 184
70.92513 193
70.94525 186
70.96536 199
70.98548 197
71.00559 176
71.0257 195
71.04582 175
71.06593 210
71.08604 212
71.10616 186
71.12627 235
71.14639 211
71.1665 211
71.18661 200
71.20673 220
71.22684 206
71.24695 202
71.26707 208
71.28718 204
71.3073 199
71.32741 183
71.34752 221
71.36764 193
71.38775 226
71.40786 194
71.42798 179
71.44809 217
71.4682 198
71.48832 181
71.50843 202
71.52855 200
71.54866 225
71.56877 199
71.58889 198
71.609 219
71.62911 186
71.64923 183
71.66934 229
71.68946 210
71.70957 195
71.72968 197
71.7498 200
71.76991 208
71.79002 186
71.81014 202
71.83025 198
71.85037 216
71.87048 209
71.89059 224
71.91071 222
71.93082 210
71.95093 211
71.97105 203
71.99116 202
72.01127 230
72.03139 216
72.0515 184
72.07162 230
72.09173 204
72.11184 212
72.13196 185
72.15207 209
72.17218 220
72.1923 208
72.21241 211
72.23253 200
72.25264 226
72.27275 214
72.29287 192
72.31298 212
72.33309 211
72.35321 200
72.37332 212
72.39344 214
72.41355 195
72.43366 213
72.45378 237
72.47389 173
72.494 213
72.51412 180
72.53423 195
72.55434 205
72.57446 207
72.59457 196
72.61469 194
72.6348 201
72.65491 190
72.67503 220
72.69514 218
72.71525 205
72.73537 201
72.75548 229
72.7756 181
72.79571 206
72.81582 206
72.83594 236
72.85605 201
72.87616 227
72.89628 216
72.91639 230
72.9365 204
72.95662 226
72.97673 237
72.99685 210
73.01696 231
73.03707 221
73.05719 232
73.0773 270
73.09741 253
73.11753 253
73.13764 226
73.15776 290
73.17787 278
73.19798 300
73.2181 294
73.23821 327
73.25832 360
73.27844 379
73.29855 387
73.31867 448
73.33878 508
73.35889 532
73.37901 572
73.39912 539
73.41923 464
73.43935 496
73.45946 440
73.47957 401
73.49969 412
73.5198 349
73.53992 373
73.56003 386
73.58014 377
73.60026 353
73.62037 366
73.64048 311
73.6606 290
73.68071 288
73.70083 270
73.72094 264
73.74105 234
73.76117 261
73.78128 246
73.80139 249
73.82151 230
73.84162 224
73.86174 236
73.88185 225
73.90196 214
73.92208 222
73.94219 198
73.9623 195
73.98242 215
74.00253 208
74.02264 210
74.04276 218
74.06287 210
74.08299 212
74.1031 201
74.12321 212
74.14333 231
74.16344 204
74.18355 195
74.20367 204
74.22378 216
74.2439 189
74.26401 209
74.28412 211
74.30424 213
74.32435 219
74.34446 204
74.36458 188
74.38469 200
74.40481 202
74.42492 206
74.44503 203
74.46515 200
74.48526 231
74.50537 199
74.52549 236
74.5456 185
74.56571 197
74.58583 204
74.60594 214
74.62606 190
74.64617 188
74.66628 200
74.6864 229
74.70651 192
74.72662 236
74.74674 185
74.76685 192
74.78697 204
74.80708 225
74.82719 216
74.84731 226
74.86742 225
74.88753 215
74.90765 217
74.92776 211
74.94787 199
74.96799 215
74.9881 200
75.00822 237
