3.00117 21195
3.02128 20064
3.0414 20187
3.06151 19686
3.08162 18975
3.10174 18697
3.12185 17895
3.14197 17305
3.16208 16930
3.18219 16406
3.20231 16230
3.22242 15372
3.24253 14994
3.26265 14572
3.28276 13870
3.30288 13830
3.32299 13348
3.3431 12976
3.36322 12496
3.38333 11820
3.40344 11936
3.42356 11213
3.44367 10756
3.46379 10666
3.4839 10421
3.50401 10085
3.52413 9461
3.54424 9285
3.56435 8791
3.58447 8477
3.60458 8389
3.62469 8071
3.64481 7752
3.66492 7322
3.68504 7116
3.70515 6930
3.72526 6531
3.74538 6318
3.76549 6037
3.7856 5737
3.80572 5706
3.82583 5218
3.84595 5186
3.86606 5136
3.88617 4643
3.90629 4673
3.9264 4189
3.94651 4247
3.96663 3992
3.98674 3896
4.00686 3738
4.02697 3367
4.04708 3370
4.0672 3263
4.08731 3123
4.10742 3000
4.12754 2756
4.14765 2712
4.16776 2671
4.18788 2478
4.20799 2413
4.22811 2266
4.24822 2220
4.26833 2214
4.28845 2181
4.30856 2087
4.32867 1868
4.34879 1882
4.3689 1767
4.38902 1841
4.40913 1732
4.42924 1626
4.44936 1569
4.46947 1608
4.48958 1647
4.5097 1537
4.52981 1412
4.54992 1464
4.57004 1469
4.59015 1350
4.61027 1301
4.63038 1304
4.65049 1204
4.67061 1239
4.69072 1243
4.71083 1150
4.73095 1155
4.75106 1154
4.77118 1148
4.79129 1077
4.8114 1028
4.83152 1014
4.85163 963
4.87174 1050
4.89186 994
4.91197 1002
4.93209 923
4.9522 910
4.97231 869
4.99243 972
5.01254 801
5.03265 809
5.05277 798
5.07288 908
5.09299 782
5.11311 848
5.13322 753
5.15334 745
5.17345 735
5.19356 775
5.21368 702
5.23379 711
5.2539 685
5.27402 658
5.29413 667
5.31425 664
5.33436 643
5.35447 626
5.37459 634
5.3947 652
5.41481 553
5.43493 591
5.45504 541
5.47516 577
5.49527 491
5.51538 521
5.5355 512
5.55561 554
5.57572 500
5.59584 517
5.61595 517
5.63606 535
5.65618 484
5.67629 481
5.69641 431
5.71652 444
5.73663 476
5.75675 459
5.77686 480
5.79697 459
5.81709 417
5.8372 426
5.85732 440
5.87743 416
5.89754 443
5.91766 400
5.93777 431
5.95788 407
5.978 422
5.99811 383
6.01823 391
6.03834 412
6.05845 408
6.07857 401
6.09868 357
6.11879 427
6.13891 363
6.15902 353
6.17913 363
6.19925 412
6.21936 394
6.23948 357
6.25959 407
6.2797 370
6.29982 382
6.31993 352
6.34004 383
6.36016 385
6.38027 395
6.40039 353
6.4205 384
6.44061 379
6.46073 362
6.48084 410
6.50095 370
6.52107 357
6.54118 337
6.56129 358
6.58141 352
6.60152 356
6.62164 343
6.64175 377
6.66186 338
6.68198 346
6.70209 360
6.7222 378
6.74232 351
6.76243 379
6.78255 338
6.80266 337
6.82277 362
6.84289 373
6.863 327
6.88311 316
6.90323 328
6.92334 341
6.94346 340
6.96357 330
6.98368 330
7.0038 314
7.02391 328
7.04402 313
7.06414 341
7.08425 362
7.10436 391
7.12448 322
7.14459 294
7.16471 318
7.18482 320
7.20493 332
7.22505 285
7.24516 330
7.26527 327
7.28539 295
7.3055 336
7.32562 313
7.34573 344
7.36584 357
7.38596 294
7.40607 345
7.42618 359
7.4463 315
7.46641 340
7.48653 303
7.50664 341
7.52675 332
7.54687 321
7.56698 329
7.58709 316
7.60721 322
7.62732 332
7.64743 305
7.66755 343
7.68766 350
7.70778 304
7.72789 328
7.748 383
7.76812 320
7.78823 293
7.80834 306
7.82846 323
7.84857 343
7.86869 342
7.8888 370
7.90891 308
7.92903 365
7.94914 342
7.96925 345
7.98937 331
8.00948 345
8.0296 329
8.04971 312
8.06982 326
8.08994 325
8.11005 352
8.13016 361
8.15028 335
8.17039 347
8.1905 334
8.21062 361
8.23073 338
8.25085 325
8.27096 341
8.29107 329
8.31119 365
8.3313 329
8.35141 362
8.37153 348
8.39164 327
8.41176 379
8.43187 348
8.45198 338
8.4721 366
8.49221 394
8.51232 406
8.53244 369
8.55255 379
8.57266 393
8.59278 389
8.61289 374
8.63301 361
8.65312 375
8.67323 373
8.69335 397
8.71346 395
8.73357 375
8.75369 406
8.7738 418
8.79392 395
8.81403 427
8.83414 388
8.85426 391
8.87437 405
8.89448 416
8.9146 404
8.93471 359
8.95483 328
8.97494 373
8.99505 339
9.01517 342
9.03528 315
9.05539 337
9.07551 351
9.09562 315
9.11573 370
9.13585 368
9.15596 329
9.17608 332
9.19619 351
9.2163 331
9.23642 308
9.25653 303
9.27664 329
9.29676 340
9.31687 307
9.33699 340
9.3571 314
9.37721 337
9.39733 318
9.41744 351
9.43755 310
9.45767 333
9.47778 295
9.4979 302
9.51801 286
9.53812 327
9.55824 310
9.57835 345
9.59846 317
9.61858 300
9.63869 332
9.6588 306
9.67892 333
9.69903 348
9.71915 350
9.73926 354
9.75937 327
9.77949 337
9.7996 297
9.81971 334
9.83983 330
9.85994 342
9.88006 269
9.90017 309
9.92028 328
9.9404 298
9.96051 335
9.98062 331
10.00074 299
10.02085 310
10.04097 278
10.06108 288
10.08119 291
10.10131 324
10.12142 275
10.14153 330
10.16165 328
10.18176 291
10.20187 318
10.22199 301
10.2421 315
10.26222 309
10.28233 304
10.30244 341
10.32256 326
10.34267 314
10.36278 339
10.3829 308
10.40301 343
10.42313 387
10.44324 355
10.46335 383
10.48347 371
10.50358 381
10.52369 343
10.54381 330
10.56392 359
10.58403 327
10.60415 346
10.62426 341
10.64438 312
10.66449 332
10.6846 299
10.70472 320
10.72483 290
10.74494 312
10.76506 296
10.78517 306
10.80529 292
10.8254 291
10.84551 271
10.86563 280
10.88574 296
10.90585 282
10.92597 317
10.94608 338
10.9662 306
10.98631 269
11.00642 291
11.02654 273
11.04665 278
11.06676 272
11.08688 289
11.10699 294
11.1271 302
11.14722 271
11.16733 284
11.18745 258
11.20756 266
11.22767 263
11.24779 287
11.2679 278
11.28801 286
11.30813 305
11.32824 324
11.34836 300
11.36847 318
11.38858 305
11.4087 303
11.42881 329
11.44892 302
11.46904 285
11.48915 311
11.50927 296
11.52938 306
11.54949 298
11.56961 296
11.58972 340
11.60983 334
11.62995 303
11.65006 294
11.67017 315
11.69029 308
11.7104 279
11.73052 324
11.75063 307
11.77074 267
11.79086 327
11.81097 314
11.83108 298
11.8512 307
11.87131 312
11.89143 316
11.91154 306
11.93165 282
11.95177 286
11.97188 328
11.99199 297
12.01211 300
12.03222 326
12.05234 294
12.07245 313
12.09256 319
12.11268 311
12.13279 300
12.1529 279
12.17302 294
12.19313 309
12.21324 298
12.23336 326
12.25347 286
12.27359 311
12.2937 311
12.31381 311
12.33393 308
12.35404 321
12.37415 320
12.39427 322
12.41438 326
12.4345 317
12.45461 315
12.47472 300
12.49484 344
12.51495 318
12.53506 326
12.55518 308
12.57529 280
12.5954 258
12.61552 264
12.63563 296
12.65575 303
12.67586 241
12.69597 248
12.71609 281
12.7362 321
12.75631 313
12.77643 266
12.79654 299
12.81666 289
12.83677 289
12.85688 283
12.877 271
12.89711 324
12.91722 309
12.93734 264
12.95745 294
12.97757 267
12.99768 296
13.01779 321
13.03791 271
13.05802 274
13.07813 241
13.09825 304
13.11836 320
13.13847 305
13.15859 302
13.1787 288
13.19882 287
13.21893 305
13.23904 301
13.25916 315
13.27927 272
13.29938 291
13.3195 253
13.33961 270
13.35973 245
13.37984 300
13.39995 269
13.42007 280
13.44018 294
13.46029 249
13.48041 297
13.50052 304
13.52064 304
13.54075 307
13.56086 284
13.58098 296
13.60109 320
13.6212 325
13.64132 309
13.66143 310
13.68154 311
13.70166 296
13.72177 282
13.74189 334
13.762 321
13.78211 347
13.80223 331
13.82234 330
13.84245 332
13.86257 348
13.88268 297
13.9028 316
13.92291 297
13.94302 273
13.96314 327
13.98325 283
14.00336 281
14.02348 288
14.04359 267
14.06371 283
14.08382 289
14.10393 271
14.12405 275
14.14416 262
14.16427 299
14.18439 257
14.2045 253
14.22461 257
14.24473 291
14.26484 274
14.28496 288
14.30507 254
14.32518 254
14.3453 229
14.36541 283
14.38552 270
14.40564 252
14.42575 282
14.44587 267
14.46598 250
14.48609 275
14.50621 263
14.52632 265
14.54643 286
14.56655 257
14.58666 271
14.60677 257
14.62689 269
14.647 282
14.66712 269
14.68723 242
14.70734 250
14.72746 252
14.74757 276
14.76768 276
14.7878 280
14.80791 243
14.82803 289
14.84814 276
14.86825 283
14.88837 292
14.90848 296
14.92859 259
14.94871 313
14.96882 273
14.98894 296
15.00905 285
15.02916 277
15.04928 305
15.06939 276
15.0895 277
15.10962 283
15.12973 288
15.14984 271
15.16996 280
15.19007 286
15.21019 301
15.2303 301
15.25041 269
15.27053 254
15.29064 284
15.31075 250
15.33087 264
15.35098 244
15.3711 273
15.39121 272
15.41132 267
15.43144 273
15.45155 238
15.47166 263
15.49178 267
15.51189 263
15.53201 289
15.55212 282
15.57223 243
15.59235 260
15.61246 286
15.63257 234
15.65269 266
15.6728 263
15.69291 274
15.71303 277
15.73314 287
15.75326 237
15.77337 237
15.79348 279
15.8136 263
15.83371 285
15.85382 270
15.87394 270
15.89405 261
15.91417 261
15.93428 255
15.95439 255
15.97451 264
15.99462 248
16.01473 284
16.03485 238
16.05496 265
16.07508 255
16.09519 275
16.1153 259
16.13542 280
16.15553 232
16.17564 248
16.19576 272
16.21587 265
16.23598 241
16.2561 267
16.27621 277
16.29633 256
16.31644 263
16.33655 269
16.35667 297
16.37678 254
16.39689 259
16.41701 252
16.43712 280
16.45724 260
16.47735 258
16.49746 252
16.51758 258
16.53769 239
16.5578 268
16.57792 305
16.59803 264
16.61814 245
16.63826 263
16.65837 280
16.67849 219
16.6986 253
16.71871 259
16.73883 265
16.75894 278
16.77905 296
16.79917 280
16.81928 285
16.8394 253
16.85951 262
16.87962 286
16.89974 277
16.91985 239
16.93996 231
16.96008 264
16.98019 228
17.00031 250
17.02042 237
17.04053 228
17.06065 242
17.08076 280
17.10087 264
17.12099 266
17.1411 274
17.16121 257
17.18133 268
17.20144 279
17.22156 254
17.24167 289
17.26178 276
17.2819 263
17.30201 287
17.32212 248
17.34224 251
17.36235 285
17.38247 229
17.40258 272
17.42269 266
17.44281 267
17.46292 226
17.48303 260
17.50315 256
17.52326 279
17.54338 270
17.56349 288
17.5836 262
17.60372 279
17.62383 291
17.64394 288
17.66406 299
17.68417 283
17.70428 290
17.7244 270
17.74451 252
17.76463 283
17.78474 265
17.80485 277
17.82497 271
17.84508 296
17.86519 277
17.88531 272
17.90542 276
17.92554 310
17.94565 250
17.96576 308
17.98588 275
18.00599 302
18.0261 269
18.04622 291
18.06633 303
18.08645 269
18.10656 260
18.12667 296
18.14679 270
18.1669 304
18.18701 255
18.20713 239
18.22724 254
18.24735 281
18.26747 230
18.28758 260
18.3077 291
18.32781 251
18.34792 272
18.36804 280
18.38815 248
18.40826 238
18.42838 279
18.44849 247
18.46861 253
18.48872 291
18.50883 265
18.52895 272
18.54906 266
18.56917 263
18.58929 299
18.6094 275
18.62951 272
18.64963 294
18.66974 294
18.68986 283
18.70997 293
18.73008 305
18.7502 295
18.77031 261
18.79042 285
18.81054 324
18.83065 286
18.85077 279
18.87088 291
18.89099 283
18.91111 267
18.93122 307
18.95133 269
18.97145 259
18.99156 275
19.01168 279
19.03179 280
19.0519 285
19.07202 286
19.09213 319
19.11224 282
19.13236 313
19.15247 303
19.17258 311
19.1927 290
19.21281 328
19.23293 303
19.25304 330
19.27315 310
19.29327 320
19.31338 348
19.33349 339
19.35361 346
19.37372 337
19.39384 353
19.41395 322
19.43406 335
19.45418 351
19.47429 357
19.4944 325
19.51452 349
19.53463 382
19.55475 382
19.57486 414
19.59497 462
19.61509 443
19.6352 456
19.65531 470
19.67543 410
19.69554 468
19.71565 451
19.73577 492
19.75588 518
19.776 505
19.79611 454
19.81622 503
19.83634 502
19.85645 453
19.87656 514
19.89668 480
19.91679 490
19.93691 437
19.95702 469
19.97713 445
19.99725 441
20.01736 418
20.03747 406
20.05759 424
20.0777 432
20.09782 444
20.11793 383
20.13804 425
20.15816 413
20.17827 405
20.19838 425
20.2185 424
20.23861 439
20.25872 406
20.27884 350
20.29895 440
20.31907 411
20.33918 408
20.35929 445
20.37941 443
20.39952 414
20.41963 453
20.43975 477
20.45986 440
20.47998 472
20.50009 471
20.5202 463
20.54032 472
20.56043 530
20.58054 505
20.60066 583
20.62077 665
20.64088 775
20.661 940
20.68111 1180
20.70123 1466
20.72134 1759
20.74145 2277
20.76157 2718
20.78168 2987
20.80179 3206
20.82191 3247
20.84202 3054
20.86214 2674
20.88225 2280
20.90236 1754
20.92248 1338
20.94259 1025
20.9627 888
20.98282 726
21.00293 708
21.02305 569
21.04316 593
21.06327 539
21.08339 502
21.1035 466
21.12361 444
21.14373 419
21.16384 439
21.18395 428
21.20407 394
21.22418 401
21.2443 398
21.26441 387
21.28452 368
21.30464 410
21.32475 365
21.34486 365
21.36498 382
21.38509 373
21.40521 360
21.42532 356
21.44543 361
21.46555 367
21.48566 320
21.50577 370
21.52589 337
21.546 363
21.56612 386
21.58623 347
21.60634 377
21.62646 367
21.64657 380
21.66668 381
21.6868 355
21.70691 353
21.72702 414
21.74714 379
21.76725 396
21.78737 397
21.80748 424
21.82759 399
21.84771 476
21.86782 534
21.88793 523
21.90805 579
21.92816 636
21.94828 609
21.96839 648
21.9885 658
22.00862 633
22.02873 615
22.04884 555
22.06896 499
22.08907 476
22.10919 416
22.1293 417
22.14941 394
22.16953 394
22.18964 400
22.20975 382
22.22987 360
22.24998 369
22.27009 412
22.29021 331
22.31032 401
22.33044 384
22.35055 367
22.37066 355
22.39078 357
22.41089 370
22.431 337
22.45112 354
22.47123 340
22.49135 349
22.51146 356
22.53157 335
22.55169 342
22.5718 390
22.59191 320
22.61203 378
22.63214 375
22.65225 349
22.67237 347
22.69248 350
22.7126 362
22.73271 314
22.75282 350
22.77294 341
22.79305 377
22.81316 394
22.83328 368
22.85339 402
22.87351 382
22.89362 396
22.91373 405
22.93385 401
22.95396 410
22.97407 396
22.99419 418
23.0143 424
23.03442 352
23.05453 372
23.07464 407
23.09476 387
23.11487 393
23.13498 397
23.1551 386
23.17521 355
23.19532 414
23.21544 390
23.23555 408
23.25567 389
23.27578 378
23.29589 343
23.31601 373
23.33612 391
23.35623 400
23.37635 392
23.39646 422
23.41658 410
23.43669 488
23.4568 499
23.47692 493
23.49703 552
23.51714 510
23.53726 546
23.55737 523
23.57749 530
23.5976 515
23.61771 506
23.63783 453
23.65794 447
23.67805 437
23.69817 420
23.71828 426
23.73839 420
23.75851 428
23.77862 500
23.79874 427
23.81885 439
23.83896 476
23.85908 463
23.87919 492
23.8993 455
23.91942 507
23.93953 490
23.95965 446
23.97976 484
23.99987 487
24.01999 444
24.0401 468
24.06021 525
24.08033 469
24.10044 522
24.12056 488
24.14067 517
24.16078 514
24.1809 535
24.20101 549
24.22112 519
24.24124 545
24.26135 535
24.28146 527
24.30158 490
24.32169 461
24.34181 452
24.36192 436
24.38203 414
24.40215 413
24.42226 445
24.44237 390
24.46249 377
24.4826 363
24.50272 369
24.52283 374
24.54294 366
24.56306 400
24.58317 360
24.60328 338
24.6234 374
24.64351 394
24.66362 340
24.68374 346
24.70385 389
24.72397 364
24.74408 386
24.76419 357
24.78431 375
24.80442 384
24.82453 391
24.84465 336
24.86476 365
24.88488 330
24.90499 360
24.9251 359
24.94522 362
24.96533 359
24.98544 357
25.00556 346
25.02567 369
25.04579 345
25.0659 350
25.08601 398
25.10613 380
25.12624 350
25.14635 357
25.16647 354
25.18658 427
25.20669 414
25.22681 362
25.24692 417
25.26704 435
25.28715 397
25.30726 424
25.32738 399
25.34749 403
25.3676 470
25.38772 479
25.40783 439
25.42795 472
25.44806 483
25.46817 543
25.48829 501
25.5084 569
25.52851 523
25.54863 569
25.56874 555
25.58886 526
25.60897 495
25.62908 554
25.6492 493
25.66931 533
25.68942 494
25.70954 475
25.72965 508
25.74976 438
25.76988 486
25.78999 411
25.81011 454
25.83022 434
25.85033 457
25.87045 457
25.89056 447
25.91067 465
25.93079 465
25.9509 515
25.97102 485
25.99113 509
26.01124 553
26.03136 576
26.05147 558
26.07158 550
26.0917 591
26.11181 615
26.13193 650
26.15204 680
26.17215 706
26.19227 749
26.21238 744
26.23249 857
26.25261 895
26.27272 1035
26.29283 1147
26.31295 1204
26.33306 1416
26.35318 1667
26.37329 1947
26.3934 2362
26.41352 2899
26.43363 3874
26.45374 5072
26.47386 6399
26.49397 7981
26.51409 10003
26.5342 11999
26.55431 13249
26.57443 14027
26.59454 14053
26.61465 13397
26.63477 11936
26.65488 9722
26.67499 7420
26.69511 5627
26.71522 3999
26.73534 2740
26.75545 1852
26.77556 1465
26.79568 1244
26.81579 1115
26.8359 991
26.85602 994
26.87613 840
26.89625 811
26.91636 862
26.93647 769
26.95659 764
26.9767 774
26.99681 733
27.01693 729
27.03704 771
27.05716 698
27.07727 676
27.09738 658
27.1175 653
27.13761 572
27.15772 569
27.17784 579
27.19795 570
27.21806 579
27.23818 583
27.25829 622
27.27841 653
27.29852 687
27.31863 665
27.33875 724
27.35886 761
27.37897 820
27.39909 800
27.4192 804
27.43932 857
27.45943 744
27.47954 753
27.49966 734
27.51977 711
27.53988 695
27.56 711
27.58011 694
27.60023 719
27.62034 750
27.64045 734
27.66057 825
27.68068 855
27.70079 888
27.72091 865
27.74102 889
27.76113 877
27.78125 886
27.80136 1011
27.82148 903
27.84159 1013
27.8617 1089
27.88182 1059
27.90193 1049
27.92204 957
27.94216 890
27.96227 866
27.98239 750
28.0025 701
28.02261 670
28.04273 614
28.06284 588
28.08295 638
28.10307 580
28.12318 546
28.1433 507
28.16341 500
28.18352 537
28.20364 530
28.22375 546
28.24386 535
28.26398 533
28.28409 493
28.3042 483
28.32432 463
28.34443 438
28.36455 443
28.38466 420
28.40477 404
28.42489 396
28.445 397
28.46511 419
28.48523 414
28.50534 371
28.52546 363
28.54557 394
28.56568 358
28.5858 370
28.60591 407
28.62602 349
28.64614 373
28.66625 329
28.68636 359
28.70648 288
28.72659 338
28.74671 332
28.76682 339
28.78693 353
28.80705 351
28.82716 349
28.84727 323
28.86739 312
28.8875 337
28.90762 319
28.92773 378
28.94784 361
28.96796 354
28.98807 306
29.00818 333
29.0283 325
29.04841 340
29.06853 342
29.08864 368
29.10875 341
29.12887 336
29.14898 355
29.16909 357
29.18921 362
29.20932 334
29.22943 336
29.24955 384
29.26966 327
29.28978 361
29.30989 371
29.33 408
29.35012 406
29.37023 392
29.39034 411
29.41046 406
29.43057 409
29.45069 418
29.4708 387
29.49091 409
29.51103 410
29.53114 363
29.55125 355
29.57137 360
29.59148 385
29.6116 372
29.63171 404
29.65182 400
29.67194 423
29.69205 422
29.71216 392
29.73228 387
29.75239 407
29.7725 425
29.79262 440
29.81273 450
29.83285 436
29.85296 440
29.87307 457
29.89319 417
29.9133 385
29.93341 408
29.95353 434
29.97364 399
29.99376 449
30.01387 420
30.03398 475
30.0541 469
30.07421 465
30.09432 416
30.11444 437
30.13455 481
30.15467 505
30.17478 478
30.19489 482
30.21501 475
30.23512 483
30.25523 442
30.27535 457
30.29546 476
30.31557 454
30.33569 459
30.3558 494
30.37592 449
30.39603 435
30.41614 462
30.43626 441
30.45637 453
30.47648 444
30.4966 412
30.51671 400
30.53683 402
30.55694 391
30.57705 411
30.59717 417
30.61728 447
30.63739 426
30.65751 447
30.67762 396
30.69773 433
30.71785 442
30.73796 432
30.75808 465
30.77819 424
30.7983 421
30.81842 462
30.83853 492
30.85864 404
30.87876 439
30.89887 427
30.91899 376
30.9391 412
30.95921 336
30.97933 363
30.99944 355
31.01955 352
31.03967 382
31.05978 346
31.0799 334
31.10001 374
31.12012 370
31.14024 378
31.16035 357
31.18046 372
31.20058 376
31.22069 338
31.2408 370
31.26092 365
31.28103 350
31.30115 357
31.32126 368
31.34137 368
31.36149 339
31.3816 367
31.40171 349
31.42183 355
31.44194 331
31.46206 358
31.48217 314
31.50228 355
31.5224 315
31.54251 326
31.56262 313
31.58274 324
31.60285 342
31.62297 341
31.64308 296
31.66319 300
31.68331 309
31.70342 293
31.72353 305
31.74365 295
31.76376 309
31.78387 305
31.80399 338
31.8241 303
31.84422 332
31.86433 331
31.88444 328
31.90456 329
31.92467 318
31.94478 332
31.9649 345
31.98501 300
32.00513 324
32.02524 328
32.04535 304
32.06547 351
32.08558 327
32.10569 347
32.12581 374
32.14592 318
32.16604 296
32.18615 293
32.20626 333
32.22638 325
32.24649 321
32.2666 367
32.28672 337
32.30683 312
32.32694 393
32.34706 358
32.36717 371
32.38729 354
32.4074 340
32.42751 357
32.44763 362
32.46774 385
32.48785 399
32.50797 345
32.52808 358
32.5482 378
32.56831 357
32.58842 340
32.60854 334
32.62865 310
32.64876 335
32.66888 310
32.68899 310
32.7091 361
32.72922 315
32.74933 319
32.76945 338
32.78956 316
32.80967 353
32.82979 368
32.8499 338
32.87001 343
32.89013 389
32.91024 380
32.93036 411
32.95047 367
32.97058 390
32.9907 366
33.01081 314
33.03092 337
33.05104 363
33.07115 379
33.09127 348
33.11138 356
33.13149 340
33.15161 339
33.17172 360
33.19183 316
33.21195 345
33.23206 339
33.25217 334
33.27229 324
33.2924 360
33.31252 327
33.33263 330
33.35274 295
33.37286 325
33.39297 314
33.41308 323
33.4332 306
33.45331 326
33.47343 313
33.49354 278
33.51365 306
33.53377 300
33.55388 321
33.57399 314
33.59411 349
33.61422 318
33.63434 314
33.65445 294
33.67456 339
33.69468 332
33.71479 302
33.7349 321
33.75502 303
33.77513 317
33.79524 358
33.81536 342
33.83547 324
33.85559 347
33.8757 335
33.89581 297
33.91593 353
33.93604 347
33.95615 328
33.97627 339
33.99638 352
34.0165 328
34.03661 367
34.05672 327
34.07684 358
34.09695 366
34.11706 330
34.13718 418
34.15729 380
34.17741 380
34.19752 427
34.21763 367
34.23775 377
34.25786 389
34.27797 431
34.29809 444
34.3182 411
34.33831 426
34.35843 440
34.37854 477
34.39866 474
34.41877 503
34.43888 482
34.459 495
34.47911 470
34.49922 480
34.51934 518
34.53945 551
34.55957 546
34.57968 596
34.59979 558
34.61991 578
34.64002 571
34.66013 615
34.68025 610
34.70036 637
34.72047 571
34.74059 569
34.7607 555
34.78082 577
34.80093 554
34.82104 493
34.84116 530
34.86127 565
34.88138 539
34.9015 474
34.92161 567
34.94173 543
34.96184 511
34.98195 537
35.00207 522
35.02218 521
35.04229 488
35.06241 468
35.08252 472
35.10264 484
35.12275 471
35.14286 456
35.16298 441
35.18309 495
35.2032 466
35.22332 465
35.24343 487
35.26354 503
35.28366 493
35.30377 430
35.32389 493
35.344 477
35.36411 476
35.38423 475
35.40434 467
35.42445 515
35.44457 419
35.46468 478
35.4848 457
35.50491 463
35.52502 438
35.54514 428
35.56525 476
35.58536 453
35.60548 438
35.62559 393
35.64571 454
35.66582 453
35.68593 410
35.70605 410
35.72616 394
35.74627 390
35.76639 367
35.7865 404
35.80661 386
35.82673 367
35.84684 372
35.86696 353
35.88707 397
35.90718 357
35.9273 385
35.94741 379
35.96752 352
35.98764 382
36.00775 328
36.02787 360
36.04798 363
36.06809 388
36.08821 328
36.10832 397
36.12843 383
36.14855 409
36.16866 385
36.18878 334
36.20889 430
36.229 416
36.24912 413
36.26923 520
36.28934 533
36.30946 614
36.32957 625
36.34968 748
36.3698 818
36.38991 877
36.41003 1068
36.43014 1163
36.45025 1142
36.47037 1230
36.49048 1253
36.51059 1211
36.53071 1106
36.55082 991
36.57094 931
36.59105 753
36.61116 677
36.63128 606
36.65139 556
36.6715 450
36.69162 499
36.71173 472
36.73184 382
36.75196 432
36.77207 423
36.79219 417
36.8123 388
36.83241 380
36.85253 387
36.87264 391
36.89275 347
36.91287 378
36.93298 386
36.9531 375
36.97321 412
36.99332 389
37.01344 379
37.03355 377
37.05366 335
37.07378 356
37.09389 394
37.11401 326
37.13412 360
37.15423 348
37.17435 381
37.19446 346
37.21457 357
37.23469 340
37.2548 412
37.27491 377
37.29503 365
37.31514 385
37.33526 391
37.35537 373
37.37548 372
37.3956 386
37.41571 366
37.43582 365
37.45594 364
37.47605 420
37.49617 378
37.51628 353
37.53639 384
37.55651 391
37.57662 369
37.59673 358
37.61685 371
37.63696 304
37.65708 301
37.67719 386
37.6973 309
37.71742 313
37.73753 336
37.75764 335
37.77776 353
37.79787 340
37.81798 322
37.8381 335
37.85821 341
37.87833 273
37.89844 335
37.91855 331
37.93867 311
37.95878 322
37.97889 329
37.99901 340
38.01912 347
38.03924 330
38.05935 370
38.07946 329
38.09958 330
38.11969 329
38.1398 359
38.15992 308
38.18003 330
38.20015 304
38.22026 344
38.24037 299
38.26049 305
38.2806 331
38.30071 336
38.32083 338
38.34094 330
38.36105 383
38.38117 351
38.40128 329
38.4214 335
38.44151 320
38.46162 329
38.48174 342
38.50185 353
38.52196 353
38.54208 316
38.56219 322
38.58231 302
38.60242 296
38.62253 319
38.64265 290
38.66276 303
38.68287 321
38.70299 330
38.7231 304
38.74321 319
38.76333 323
38.78344 308
38.80356 341
38.82367 330
38.84378 349
38.8639 314
38.88401 302
38.90412 319
38.92424 289
38.94435 334
38.96447 330
38.98458 336
39.00469 338
39.02481 320
39.04492 350
39.06503 342
39.08515 376
39.10526 383
39.12538 388
39.14549 407
39.1656 413
39.18572 407
39.20583 449
39.22594 511
39.24606 546
39.26617 632
39.28628 709
39.3064 834
39.32651 957
39.34663 1025
39.36674 1135
39.38685 1155
39.40697 1133
39.42708 1145
39.44719 969
39.46731 899
39.48742 834
39.50754 702
39.52765 634
39.54776 562
39.56788 517
39.58799 462
39.6081 430
39.62822 375
39.64833 348
39.66845 365
39.68856 353
39.70867 345
39.72879 350
39.7489 334
39.76901 343
39.78913 346
39.80924 324
39.82935 359
39.84947 315
39.86958 336
39.8897 348
39.90981 355
39.92992 338
39.95004 356
39.97015 336
39.99026 396
40.01038 382
40.03049 397
40.05061 415
40.07072 449
40.09083 471
40.11095 552
40.13106 537
40.15117 603
40.17129 684
40.1914 717
40.21152 670
40.23163 680
40.25174 676
40.27186 614
40.29197 599
40.31208 544
40.3322 498
40.35231 484
40.37242 456
40.39254 410
40.41265 377
40.43277 347
40.45288 361
40.47299 319
40.49311 342
40.51322 326
40.53333 319
40.55345 295
40.57356 312
40.59368 303
40.61379 292
40.6339 312
40.65402 331
40.67413 329
40.69424 326
40.71436 295
40.73447 333
40.75458 318
40.7747 323
40.79481 313
40.81493 334
40.83504 309
40.85515 302
40.87527 303
40.89538 315
40.91549 301
40.93561 324
40.95572 296
40.97584 331
40.99595 313
41.01606 317
41.03618 332
41.05629 332
41.0764 308
41.09652 311
41.11663 327
41.13675 310
41.15686 327
41.17697 368
41.19709 305
41.2172 330
41.23731 326
41.25743 305
41.27754 321
41.29765 307
41.31777 327
41.33788 333
41.358 287
41.37811 336
41.39822 306
41.41834 308
41.43845 306
41.45856 336
41.47868 352
41.49879 338
41.51891 342
41.53902 351
41.55913 336
41.57925 358
41.59936 351
41.61947 357
41.63959 330
41.6597 413
41.67982 355
41.69993 371
41.72004 372
41.74016 357
41.76027 360
41.78038 357
41.8005 357
41.82061 382
41.84072 364
41.86084 331
41.88095 331
41.90107 322
41.92118 357
41.94129 319
41.96141 341
41.98152 351
42.00163 313
42.02175 294
42.04186 351
42.06198 307
42.08209 351
42.1022 383
42.12232 373
42.14243 386
42.16254 408
42.18266 435
42.20277 448
42.22289 464
42.243 509
42.26311 627
42.28323 722
42.30334 719
42.32345 785
42.34357 883
42.36368 916
42.38379 899
42.40391 897
42.42402 867
42.44414 821
42.46425 764
42.48436 687
42.50448 622
42.52459 552
42.5447 559
42.56482 423
42.58493 378
42.60505 376
42.62516 380
42.64527 367
42.66539 361
42.6855 377
42.70561 342
42.72573 330
42.74584 298
42.76595 346
42.78607 336
42.80618 355
42.8263 360
42.84641 310
42.86652 319
42.88664 333
42.90675 332
42.92686 302
42.94698 311
42.96709 324
42.98721 281
43.00732 303
43.02743 286
43.04755 290
43.06766 327
43.08777 315
43.10789 297
43.128 299
43.14812 307
43.16823 301
43.18834 295
43.20846 297
43.22857 272
43.24868 282
43.2688 296
43.28891 316
43.30902 286
43.32914 260
43.34925 288
43.36937 293
43.38948 261
43.40959 301
43.42971 306
43.44982 285
43.46993 266
43.49005 309
43.51016 283
43.53028 285
43.55039 283
43.5705 301
43.59062 271
43.61073 318
43.63084 253
43.65096 283
43.67107 272
43.69119 292
43.7113 262
43.73141 290
43.75153 286
43.77164 264
43.79175 279
43.81187 265
43.83198 277
43.85209 265
43.87221 268
43.89232 240
43.91244 277
43.93255 276
43.95266 283
43.97278 270
43.99289 265
44.013 269
44.03312 273
44.05323 298
44.07335 277
44.09346 283
44.11357 239
44.13369 291
44.1538 265
44.17391 269
44.19403 274
44.21414 268
44.23426 275
44.25437 288
44.27448 286
44.2946 281
44.31471 305
44.33482 279
44.35494 272
44.37505 266
44.39516 258
44.41528 271
44.43539 271
44.45551 268
44.47562 259
44.49573 280
44.51585 269
44.53596 258
44.55607 266
44.57619 326
44.5963 281
44.61642 264
44.63653 280
44.65664 266
44.67676 284
44.69687 279
44.71698 281
44.7371 272
44.75721 267
44.77732 275
44.79744 282
44.81755 310
44.83767 324
44.85778 283
44.87789 278
44.89801 264
44.91812 307
44.93823 312
44.95835 334
44.97846 317
44.99858 294
45.01869 318
45.0388 338
45.05892 308
45.07903 273
45.09914 295
45.11926 296
45.13937 307
45.15949 270
45.1796 329
45.19971 342
45.21983 293
45.23994 273
45.26005 316
45.28017 337
45.30028 322
45.32039 299
45.34051 285
45.36062 311
45.38074 328
45.40085 318
45.42096 351
45.44108 361
45.46119 362
45.4813 369
45.50142 397
45.52153 380
45.54165 382
45.56176 403
45.58187 475
45.60199 476
45.6221 561
45.64221 615
45.66233 621
45.68244 643
45.70256 692
45.72267 635
45.74278 620
45.7629 627
45.78301 599
45.80312 560
45.82324 501
45.84335 483
45.86346 479
45.88358 428
45.90369 389
45.92381 357
45.94392 354
45.96403 344
45.98415 303
46.00426 301
46.02437 290
46.04449 270
46.0646 274
46.08472 310
46.10483 273
46.12494 279
46.14506 268
46.16517 294
46.18528 274
46.2054 294
46.22551 293
46.24563 297
46.26574 257
46.28585 323
46.30597 287
46.32608 267
46.34619 300
46.36631 264
46.38642 283
46.40653 280
46.42665 270
46.44676 271
46.46688 282
46.48699 261
46.5071 249
46.52722 256
46.54733 267
46.56744 249
46.58756 236
46.60767 287
46.62779 274
46.6479 249
46.66801 310
46.68813 264
46.70824 243
46.72835 257
46.74847 265
46.76858 276
46.78869 254
46.80881 250
46.82892 259
46.84904 265
46.86915 269
46.88926 260
46.90938 283
46.92949 288
46.9496 291
46.96972 262
46.98983 278
47.00995 293
47.03006 244
47.05017 281
47.07029 253
47.0904 302
47.11051 295
47.13063 261
47.15074 299
47.17086 267
47.19097 265
47.21108 277
47.2312 276
47.25131 284
47.27142 228
47.29154 288
47.31165 249
47.33176 263
47.35188 263
47.37199 245
47.39211 275
47.41222 250
47.43233 267
47.45245 275
47.47256 256
47.49267 254
47.51279 288
47.5329 294
47.55302 248
47.57313 265
47.59324 277
47.61336 255
47.63347 251
47.65358 273
47.6737 238
47.69381 269
47.71393 289
47.73404 255
47.75415 274
47.77427 287
47.79438 257
47.81449 270
47.83461 260
47.85472 287
47.87483 287
47.89495 244
47.91506 302
47.93518 281
47.95529 309
47.9754 299
47.99552 309
48.01563 259
48.03574 282
48.05586 284
48.07597 292
48.09609 285
48.1162 293
48.13631 285
48.15643 273
48.17654 293
48.19665 306
48.21677 291
48.23688 268
48.257 317
48.27711 282
48.29722 295
48.31734 296
48.33745 289
48.35756 283
48.37768 280
48.39779 299
48.4179 281
48.43802 320
48.45813 306
48.47825 270
48.49836 256
48.51847 289
48.53859 303
48.5587 294
48.57881 281
48.59893 280
48.61904 317
48.63916 308
48.65927 298
48.67938 295
48.6995 266
48.71961 331
48.73972 285
48.75984 311
48.77995 299
48.80006 252
48.82018 307
48.84029 292
48.86041 297
48.88052 297
48.90063 292
48.92075 322
48.94086 297
48.96097 308
48.98109 293
49.0012 283
49.02132 299
49.04143 311
49.06154 329
49.08166 308
49.10177 314
49.12188 355
49.142 305
49.16211 333
49.18223 340
49.20234 297
49.22245 333
49.24257 324
49.26268 322
49.28279 325
49.30291 306
49.32302 305
49.34313 311
49.36325 306
49.38336 308
49.40348 319
49.42359 320
49.4437 314
49.46382 311
49.48393 313
49.50404 313
49.52416 328
49.54427 318
49.56439 332
49.5845 371
49.60461 338
49.62473 347
49.64484 345
49.66495 401
49.68507 373
49.70518 390
49.7253 425
49.74541 421
49.76552 447
49.78564 492
49.80575 532
49.82586 492
49.84598 577
49.86609 629
49.8862 746
49.90632 790
49.92643 931
49.94655 1023
49.96666 1220
49.98677 1403
50.00689 1517
50.027 1536
50.04711 1694
50.06723 1662
50.08734 1560
50.10746 1550
50.12757 1437
50.14768 1238
50.1678 1128
50.18791 1041
50.20802 918
50.22814 819
50.24825 748
50.26837 633
50.28848 552
50.30859 492
50.32871 411
50.34882 439
50.36893 418
50.38905 390
50.40916 398
50.42927 403
50.44939 408
50.4695 395
50.48962 422
50.50973 409
50.52984 400
50.54996 386
50.57007 398
50.59018 350
50.6103 377
50.63041 361
50.65053 346
50.67064 360
50.69075 380
50.71087 307
50.73098 315
50.75109 320
50.77121 332
50.79132 322
50.81143 341
50.83155 322
50.85166 298
50.87178 329
50.89189 305
50.912 286
50.93212 301
50.95223 306
50.97234 292
50.99246 310
51.01257 287
51.03269 337
51.0528 299
51.07291 285
51.09303 312
51.11314 297
51.13325 291
51.15337 290
51.17348 290
51.1936 310
51.21371 299
51.23382 281
51.25394 307
51.27405 282
51.29416 270
51.31428 282
51.33439 285
51.3545 285
51.37462 280
51.39473 256
51.41485 282
51.43496 281
51.45507 286
51.47519 261
51.4953 257
51.51541 270
51.53553 274
51.55564 263
51.57576 271
51.59587 287
51.61598 249
51.6361 227
51.65621 223
51.67632 253
51.69644 274
51.71655 268
51.73667 221
51.75678 214
51.77689 262
51.79701 229
51.81712 254
51.83723 274
51.85735 258
51.87746 234
51.89757 263
51.91769 242
51.9378 266
51.95792 223
51.97803 282
51.99814 265
52.01826 273
52.03837 249
52.05848 312
52.0786 266
52.09871 265
52.11883 270
52.13894 297
52.15905 275
52.17917 287
52.19928 280
52.21939 270
52.23951 299
52.25962 287
52.27974 291
52.29985 295
52.31996 271
52.34008 253
52.36019 248
52.3803 265
52.40042 280
52.42053 257
52.44064 256
52.46076 247
52.48087 268
52.50099 252
52.5211 276
52.54121 253
52.56133 296
52.58144 294
52.60155 268
52.62167 271
52.64178 269
52.6619 254
52.68201 285
52.70212 292
52.72224 296
52.74235 298
52.76246 270
52.78258 276
52.80269 284
52.8228 249
52.84292 278
52.86303 271
52.88315 240
52.90326 292
52.92337 305
52.94349 313
52.9636 300
52.98371 296
53.00383 311
53.02394 293
53.04406 308
53.06417 312
53.08428 307
53.1044 329
53.12451 295
53.14462 307
53.16474 301
53.18485 333
53.20497 281
53.22508 293
53.24519 308
53.26531 312
53.28542 299
53.30553 310
53.32565 318
53.34576 285
53.36587 289
53.38599 305
53.4061 287
53.42622 302
53.44633 269
53.46644 284
53.48656 283
53.50667 306
53.52678 290
53.5469 305
53.56701 292
53.58713 305
53.60724 335
53.62735 326
53.64747 284
53.66758 343
53.68769 302
53.70781 307
53.72792 296
53.74804 306
53.76815 322
53.78826 289
53.80838 326
53.82849 319
53.8486 319
53.86872 310
53.88883 331
53.90894 311
53.92906 312
53.94917 311
53.96929 307
53.9894 339
54.00951 287
54.02963 338
54.04974 337
54.06985 319
54.08997 330
54.11008 308
54.1302 316
54.15031 308
54.17042 335
54.19054 314
54.21065 322
54.23076 290
54.25088 300
54.27099 301
54.29111 299
54.31122 327
54.33133 307
54.35145 333
54.37156 315
54.39167 317
54.41179 331
54.4319 315
54.45201 312
54.47213 343
54.49224 343
54.51236 304
54.53247 366
54.55258 355
54.5727 351
54.59281 393
54.61292 388
54.63304 444
54.65315 460
54.67327 482
54.69338 561
54.71349 645
54.73361 598
54.75372 683
54.77383 685
54.79395 706
54.81406 664
54.83417 666
54.85429 610
54.8744 556
54.89452 549
54.91463 557
54.93474 491
54.95486 504
54.97497 464
54.99508 495
55.0152 396
55.03531 457
55.05543 398
55.07554 423
55.09565 377
55.11577 396
55.13588 398
55.15599 423
55.17611 459
55.19622 456
55.21634 466
55.23645 483
55.25656 490
55.27668 440
55.29679 412
55.3169 403
55.33702 416
55.35713 397
55.37724 389
55.39736 358
55.41747 358
55.43759 358
55.4577 382
55.47781 312
55.49793 291
55.51804 318
55.53815 332
55.55827 312
55.57838 282
55.5985 296
55.61861 267
55.63872 302
55.65884 299
55.67895 312
55.69906 301
55.71918 309
55.73929 281
55.75941 286
55.77952 305
55.79963 306
55.81975 271
55.83986 291
55.85997 320
55.88009 303
55.9002 266
55.92031 305
55.94043 292
55.96054 269
55.98066 291
56.00077 269
56.02088 281
56.041 303
56.06111 263
56.08122 271
56.10134 289
56.12145 261
56.14157 284
56.16168 245
56.18179 273
56.20191 282
56.22202 287
56.24213 273
56.26225 286
56.28236 284
56.30248 265
56.32259 296
56.3427 281
56.36282 266
56.38293 263
56.40304 270
56.42316 271
56.44327 311
56.46338 275
56.4835 283
56.50361 285
56.52373 284
56.54384 257
56.56395 331
56.58407 281
56.60418 278
56.62429 289
56.64441 293
56.66452 273
56.68464 259
56.70475 232
56.72486 292
56.74498 285
56.76509 299
56.7852 261
56.80532 251
56.82543 272
56.84554 294
56.86566 276
56.88577 264
56.90589 263
56.926 291
56.94611 259
56.96623 291
56.98634 259
57.00645 255
57.02657 264
57.04668 266
57.0668 260
57.08691 270
57.10702 307
57.12714 293
57.14725 315
57.16736 309
57.18748 270
57.20759 325
57.22771 322
57.24782 322
57.26793 307
57.28805 322
57.30816 305
57.32827 313
57.34839 304
57.3685 322
57.38861 322
57.40873 310
57.42884 260
57.44896 307
57.46907 276
57.48918 307
57.5093 275
57.52941 301
57.54952 275
57.56964 305
57.58975 289
57.60987 268
57.62998 264
57.65009 280
57.67021 303
57.69032 273
57.71043 274
57.73055 285
57.75066 269
57.77078 273
57.79089 269
57.811 288
57.83112 292
57.85123 261
57.87134 275
57.89146 292
57.91157 303
57.93168 279
57.9518 273
57.97191 303
57.99203 284
58.01214 242
58.03225 296
58.05237 265
58.07248 299
58.09259 261
58.11271 245
58.13282 267
58.15294 285
58.17305 271
58.19316 289
58.21328 278
58.23339 255
58.2535 286
58.27362 252
58.29373 267
58.31385 267
58.33396 271
58.35407 267
58.37419 273
58.3943 255
58.41441 281
58.43453 250
58.45464 275
58.47475 248
58.49487 276
58.51498 272
58.5351 266
58.55521 297
58.57532 259
58.59544 297
58.61555 260
58.63566 284
58.65578 260
58.67589 266
58.69601 291
58.71612 279
58.73623 277
58.75635 275
58.77646 267
58.79657 262
58.81669 282
58.8368 259
58.85691 276
58.87703 237
58.89714 294
58.91726 261
58.93737 289
58.95748 248
58.9776 297
58.99771 287
59.01782 258
59.03794 264
59.05805 291
59.07817 289
59.09828 259
59.11839 240
59.13851 290
59.15862 292
59.17873 273
59.19885 282
59.21896 285
59.23908 298
59.25919 271
59.2793 304
59.29942 304
59.31953 294
59.33964 298
59.35976 284
59.37987 274
59.39998 300
59.4201 316
59.44021 335
59.46033 304
59.48044 323
59.50055 352
59.52067 342
59.54078 365
59.56089 373
59.58101 359
59.60112 402
59.62124 441
59.64135 462
59.66146 501
59.68158 560
59.70169 617
59.7218 639
59.74192 773
59.76203 812
59.78215 919
59.80226 1046
59.82237 1084
59.84249 1117
59.8626 1187
59.88271 1177
59.90283 1139
59.92294 1012
59.94305 976
59.96317 850
59.98328 863
60.0034 775
60.02351 780
60.04362 690
60.06374 641
60.08385 555
60.10396 547
60.12408 499
60.14419 479
60.16431 389
60.18442 352
60.20453 322
60.22465 330
60.24476 348
60.26487 296
60.28499 315
60.3051 318
60.32522 306
60.34533 306
60.36544 268
60.38556 322
60.40567 321
60.42578 283
60.4459 292
60.46601 282
60.48612 278
60.50624 289
60.52635 286
60.54647 299
60.56658 278
60.58669 315
60.60681 269
60.62692 268
60.64703 249
60.66715 293
60.68726 300
60.70738 270
60.72749 297
60.7476 285
60.76772 289
60.78783 303
60.80794 312
60.82806 258
60.84817 263
60.86828 288
60.8884 283
60.90851 296
60.92863 287
60.94874 308
60.96885 290
60.98897 275
61.00908 289
61.02919 305
61.04931 286
61.06942 297
61.08954 308
61.10965 316
61.12976 301
61.14988 320
61.16999 299
61.1901 317
61.21022 309
61.23033 304
61.25045 298
61.27056 299
61.29067 345
61.31079 336
61.3309 325
61.35101 324
61.37113 320
61.39124 323
61.41135 334
61.43147 346
61.45158 334
61.4717 322
61.49181 331
61.51192 314
61.53204 324
61.55215 334
61.57226 338
61.59238 292
61.61249 342
61.63261 359
61.65272 357
61.67283 356
61.69295 361
61.71306 353
61.73317 314
61.75329 344
61.7734 308
61.79352 373
61.81363 330
61.83374 312
61.85386 360
61.87397 327
61.89408 313
61.9142 323
61.93431 316
61.95442 309
61.97454 285
61.99465 291
62.01477 310
62.03488 318
62.05499 338
62.07511 332
62.09522 321
62.11533 300
62.13545 320
62.15556 294
62.17568 314
62.19579 291
62.2159 296
62.23602 305
62.25613 303
62.27624 297
62.29636 290
62.31647 273
62.33659 291
62.3567 297
62.37681 312
62.39693 275
62.41704 280
62.43715 302
62.45727 291
62.47738 310
62.49749 271
62.51761 309
62.53772 295
62.55784 314
62.57795 283
62.59806 284
62.61818 273
62.63829 287
62.6584 263
62.67852 286
62.69863 250
62.71875 299
62.73886 281
62.75897 251
62.77909 280
62.7992 273
62.81931 313
62.83943 269
62.85954 279
62.87965 298
62.89977 258
62.91988 283
62.94 304
62.96011 292
62.98022 293
63.00034 308
63.02045 307
63.04056 288
63.06068 278
63.08079 265
63.10091 302
63.12102 284
63.14113 288
63.16125 277
63.18136 272
63.20147 284
63.22159 302
63.2417 268
63.26182 289
63.28193 293
63.30204 302
63.32216 284
63.34227 285
63.36238 304
63.3825 272
63.40261 274
63.42272 283
63.44284 314
63.46295 297
63.48307 256
63.50318 282
63.52329 275
63.54341 274
63.56352 319
63.58363 335
63.60375 284
63.62386 291
63.64398 314
63.66409 310
63.6842 308
63.70432 343
63.72443 367
63.74454 346
63.76466 401
63.78477 349
63.80489 378
63.825 361
63.84511 372
63.86523 406
63.88534 419
63.90545 447
63.92557 419
63.94568 456
63.96579 439
63.98591 436
64.00602 423
64.02614 367
64.04625 420
64.06636 351
64.08648 363
64.10659 375
64.1267 323
64.14682 355
64.16693 332
64.18705 339
64.20716 340
64.22727 281
64.24739 293
64.2675 283
64.28761 264
64.30773 267
64.32784 326
64.34796 263
64.36807 250
64.38818 293
64.4083 283
64.42841 235
64.44852 279
64.46864 274
64.48875 261
64.50886 272
64.52898 284
64.54909 301
64.56921 248
64.58932 274
64.60943 303
64.62955 285
64.64966 272
64.66977 271
64.68989 260
64.71 232
64.73012 274
64.75023 246
64.77034 291
64.79046 263
64.81057 281
64.83068 258
64.8508 246
64.87091 264
64.89102 280
64.91114 261
64.93125 270
64.95137 279
64.97148 249
64.99159 293
65.01171 260
65.03182 298
65.05193 268
65.07205 268
65.09216 246
65.11228 268
65.13239 283
65.1525 293
65.17262 286
65.19273 279
65.21284 261
65.23296 269
65.25307 294
65.27319 271
65.2933 275
65.31341 280
65.33353 303
65.35364 278
65.37375 275
65.39387 265
65.41398 263
65.43409 292
65.45421 288
65.47432 262
65.49444 283
65.51455 265
65.53466 287
65.55478 266
65.57489 273
65.595 281
65.61512 270
65.63523 296
65.65535 316
65.67546 297
65.69557 331
65.71569 303
65.7358 303
65.75591 257
65.77603 269
65.79614 266
65.81626 296
65.83637 273
65.85648 272
65.8766 271
65.89671 268
65.91682 266
65.93694 261
65.95705 251
65.97716 255
65.99728 255
66.01739 240
66.03751 251
66.05762 241
66.07773 277
66.09785 283
66.11796 277
66.13807 265
66.15819 268
66.1783 232
66.19842 263
66.21853 256
66.23864 255
66.25876 241
66.27887 268
66.29898 227
66.3191 254
66.33921 240
66.35933 252
66.37944 259
66.39955 273
66.41967 245
66.43978 240
66.45989 231
66.48001 252
66.50012 272
66.52023 241
66.54035 259
66.56046 264
66.58058 229
66.60069 269
66.6208 238
66.64092 266
66.66103 267
66.68114 216
66.70126 242
66.72137 253
66.74149 261
66.7616 245
66.78171 238
66.80183 253
66.82194 257
66.84205 259
66.86217 249
66.88228 292
66.90239 276
66.92251 312
66.94262 261
66.96274 275
66.98285 249
67.00296 277
67.02308 273
67.04319 273
67.0633 252
67.08342 286
67.10353 251
67.12365 285
67.14376 300
67.16387 271
67.18399 275
67.2041 309
67.22421 285
67.24433 314
67.26444 303
67.28456 294
67.30467 289
67.32478 287
67.3449 327
67.36501 359
67.38512 333
67.40524 335
67.42535 359
67.44546 389
67.46558 417
67.48569 465
67.50581 505
67.52592 536
67.54603 542
67.56615 634
67.58626 709
67.60637 753
67.62649 778
67.6466 809
67.66672 772
67.68683 826
67.70694 722
67.72706 657
67.74717 623
67.76728 630
67.7874 602
67.80751 663
67.82763 652
67.84774 719
67.86785 687
67.88797 699
67.90808 686
67.92819 751
67.94831 730
67.96842 813
67.98853 867
68.00865 917
68.02876 979
68.04888 1017
68.06899 975
68.0891 969
68.10922 972
68.12933 961
68.14944 903
68.16956 946
68.18967 963
68.20979 1006
68.2299 996
68.25001 939
68.27013 849
68.29024 723
68.31035 717
68.33047 612
68.35058 576
68.3707 536
68.39081 466
68.41092 467
68.43104 488
68.45115 427
68.47126 394
68.49138 362
68.51149 395
68.5316 346
68.55172 319
68.57183 329
68.59195 310
68.61206 299
68.63217 299
68.65229 294
68.6724 284
68.69251 275
68.71263 238
68.73274 262
68.75286 289
68.77297 258
68.79308 284
68.8132 266
68.83331 254
68.85342 266
68.87354 308
68.89365 291
68.91376 274
68.93388 286
68.95399 281
68.97411 319
68.99422 260
69.01433 291
69.03445 264
69.05456 254
69.07467 292
69.09479 281
69.1149 257
69.13502 270
69.15513 271
69.17524 279
69.19536 238
69.21547 264
69.23558 267
69.2557 261
69.27581 269
69.29593 255
69.31604 282
69.33615 269
69.35627 275
69.37638 275
69.39649 261
69.41661 271
69.43672 276
69.45683 286
69.47695 289
69.49706 283
69.51718 272
69.53729 271
69.5574 251
69.57752 278
69.59763 244
69.61774 254
69.63786 288
69.65797 291
69.67809 249
69.6982 269
69.71831 277
69.73843 280
69.75854 248
69.77865 263
69.79877 256
69.81888 249
69.839 275
69.85911 239
69.87922 289
69.89934 250
69.91945 259
69.93956 271
69.95968 299
69.97979 277
69.9999 238
70.02002 261
70.04013 255
70.06025 234
70.08036 269
70.10047 260
70.12059 238
70.1407 244
70.16081 262
70.18093 261
70.20104 263
70.22116 258
70.24127 273
70.26138 212
70.2815 249
70.30161 251
70.32172 236
70.34184 259
70.36195 232
70.38207 235
70.40218 237
70.42229 255
70.44241 236
70.46252 223
70.48263 244
70.50275 250
70.52286 254
70.54297 257
70.56309 243
70.5832 230
70.60332 220
70.62343 258
70.64354 227
70.66366 232
70.68377 239
70.70388 249
70.724 252
70.74411 235
70.76423 234
70.78434 249
70.80445 225
70.82457 244
70.84468 247
70.86479 247
70.88491 271
70.90502 260
70.92513 250
70.94525 258
70.96536 272
70.98548 237
71.00559 229
71.0257 219
71.04582 245
71.06593 231
71.08604 251
71.10616 240
71.12627 248
71.14639 228
71.1665 217
71.18661 264
71.20673 251
71.22684 251
71.24695 255
71.26707 248
71.28718 239
71.3073 250
71.32741 231
71.34752 253
71.36764 275
71.38775 243
71.40786 276
71.42798 262
71.44809 251
71.4682 262
71.48832 253
71.50843 232
71.52855 282
71.54866 261
71.56877 272
71.58889 245
71.609 234
71.62911 267
71.64923 268
71.66934 256
71.68946 262
71.70957 253
71.72968 249
71.7498 234
71.76991 237
71.79002 250
71.81014 276
71.83025 256
71.85037 263
71.87048 241
71.89059 255
71.91071 252
71.93082 228
71.95093 245
71.97105 261
71.99116 245
72.01127 247
72.03139 248
72.0515 249
72.07162 235
72.09173 212
72.11184 238
72.13196 257
72.15207 241
72.17218 263
72.1923 252
72.21241 255
72.23253 243
72.25264 255
72.27275 263
72.29287 254
72.31298 275
72.33309 271
72.35321 246
72.37332 222
72.39344 232
72.41355 234
72.43366 268
72.45378 263
72.47389 255
72.494 274
72.51412 267
72.53423 244
72.55434 243
72.57446 270
72.59457 255
72.61469 249
72.6348 300
72.65491 275
72.67503 250
72.69514 240
72.71525 266
72.73537 269
72.75548 240
72.7756 266
72.79571 283
72.81582 261
72.83594 278
72.85605 278
72.87616 261
72.89628 246
72.91639 274
72.9365 284
72.95662 290
72.97673 248
72.99685 268
73.01696 322
73.03707 256
73.05719 300
73.0773 243
73.09741 297
73.11753 277
73.13764 315
73.15776 316
73.17787 311
73.19798 310
73.2181 354
73.23821 352
73.25832 365
73.27844 339
73.29855 443
73.31867 376
73.33878 421
73.35889 416
73.37901 458
73.39912 432
73.41923 398
73.43935 389
73.45946 391
73.47957 366
73.49969 336
73.5198 347
73.53992 339
73.56003 333
73.58014 351
73.60026 340
73.62037 359
73.64048 348
73.6606 326
73.68071 331
73.70083 272
73.72094 253
73.74105 277
73.76117 285
73.78128 264
73.80139 260
73.82151 293
73.84162 265
73.86174 243
73.88185 225
73.90196 242
73.92208 258
73.94219 246
73.9623 259
73.98242 249
74.00253 244
74.02264 289
74.04276 238
74.06287 245
74.08299 269
74.1031 240
74.12321 235
74.14333 245
74.16344 268
74.18355 256
74.20367 273
74.22378 250
74.2439 249
74.26401 258
74.28412 245
74.30424 265
74.32435 251
74.34446 259
74.36458 270
74.38469 269
74.40481 234
74.42492 246
74.44503 251
74.46515 266
74.48526 242
74.50537 257
74.52549 262
74.5456 235
74.56571 260
74.58583 242
74.60594 249
74.62606 269
74.64617 263
74.66628 261
74.6864 255
74.70651 260
74.72662 244
74.74674 244
74.76685 265
74.78697 255
74.80708 241
74.82719 269
74.84731 256
74.86742 256
74.88753 264
74.90765 271
74.92776 254
74.94787 254
74.96799 259
74.9881 225
75.00822 259
