3.00117 19828
3.02128 19563
3.0414 18448
3.06151 18583
3.08162 17885
3.10174 17495
3.12185 16982
3.14197 16344
3.16208 15826
3.18219 15604
3.20231 15109
3.22242 14721
3.24253 14059
3.26265 13756
3.28276 13284
3.30288 12704
3.32299 12487
3.3431 12034
3.36322 11602
3.38333 11384
3.40344 10835
3.42356 10764
3.44367 10195
3.46379 9918
3.4839 9542
3.50401 9012
3.52413 9066
3.54424 8695
3.56435 8197
3.58447 7960
3.60458 7729
3.62469 7469
3.64481 6996
3.66492 6946
3.68504 6509
3.70515 6340
3.72526 6219
3.74538 5870
3.76549 5488
3.7856 5467
3.80572 5074
3.82583 5063
3.84595 4616
3.86606 4583
3.88617 4366
3.90629 4059
3.9264 4264
3.94651 3734
3.96663 3614
3.98674 3576
4.00686 3290
4.02697 3292
4.04708 2995
4.0672 2915
4.08731 2892
4.10742 2627
4.12754 2628
4.14765 2508
4.16776 2322
4.18788 2395
4.20799 2123
4.22811 2158
4.24822 2065
4.26833 1956
4.28845 1949
4.30856 1992
4.32867 1847
4.34879 1715
4.3689 1811
4.38902 1707
4.40913 1651
4.42924 1608
4.44936 1536
4.46947 1489
4.48958 1509
4.5097 1358
4.52981 1450
4.54992 1313
4.57004 1322
4.59015 1291
4.61027 1244
4.63038 1300
4.65049 1240
4.67061 1120
4.69072 1154
4.71083 1138
4.73095 1105
4.75106 1073
4.77118 958
4.79129 1015
4.8114 949
4.83152 952
4.85163 1034
4.87174 930
4.89186 952
4.91197 921
4.93209 926
4.9522 892
4.97231 914
4.99243 823
5.01254 906
5.03265 736
5.05277 811
5.07288 758
5.09299 764
5.11311 700
5.13322 703
5.15334 650
5.17345 735
5.19356 696
5.21368 738
5.23379 615
5.2539 683
5.27402 593
5.29413 623
5.31425 644
5.33436 585
5.35447 559
5.37459 581
5.3947 610
5.41481 589
5.43493 561
5.45504 634
5.47516 553
5.49527 517
5.51538 488
5.5355 509
5.55561 516
5.57572 514
5.59584 483
5.61595 509
5.63606 468
5.65618 442
5.67629 495
5.69641 413
5.71652 440
5.73663 411
5.75675 399
5.77686 428
5.79697 445
5.81709 435
5.8372 451
5.85732 412
5.87743 421
5.89754 404
5.91766 435
5.93777 449
5.95788 401
5.978 410
5.99811 395
6.01823 380
6.03834 356
6.05845 366
6.07857 342
6.09868 374
6.11879 360
6.13891 372
6.15902 340
6.17913 379
6.19925 360
6.21936 344
6.23948 354
6.25959 340
6.2797 353
6.29982 337
6.31993 353
6.34004 329
6.36016 310
6.38027 301
6.40039 347
6.4205 335
6.44061 326
6.46073 337
6.48084 331
6.50095 298
6.52107 349
6.54118 342
6.56129 322
6.58141 315
6.60152 315
6.62164 326
6.64175 305
6.66186 280
6.68198 309
6.70209 297
6.7222 268
6.74232 315
6.76243 320
6.78255 299
6.80266 320
6.82277 332
6.84289 308
6.863 298
6.88311 286
6.90323 320
6.92334 304
6.94346 282
6.96357 267
6.98368 289
7.0038 292
7.02391 273
7.04402 287
7.06414 284
7.08425 281
7.10436 284
7.12448 307
7.14459 300
7.16471 287
7.18482 250
7.20493 304
7.22505 278
7.24516 303
7.26527 261
7.28539 253
7.3055 280
7.32562 295
7.34573 285
7.36584 295
7.38596 293
7.40607 233
7.42618 280
7.4463 309
7.46641 276
7.48653 279
7.50664 320
7.52675 291
7.54687 308
7.56698 286
7.58709 271
7.60721 316
7.62732 282
7.64743 262
7.66755 305
7.68766 281
7.70778 294
7.72789 271
7.748 284
7.76812 265
7.78823 270
7.80834 289
7.82846 286
7.84857 258
7.86869 297
7.8888 262
7.90891 249
7.92903 283
7.94914 272
7.96925 269
7.98937 296
8.00948 283
8.0296 302
8.04971 288
8.06982 283
8.08994 284
8.11005 268
8.13016 256
8.15028 268
8.17039 265
8.1905 277
8.21062 280
8.23073 282
8.25085 292
8.27096 255
8.29107 247
8.31119 327
8.3313 285
8.35141 292
8.37153 308
8.39164 274
8.41176 286
8.43187 268
8.45198 253
8.4721 272
8.49221 274
8.51232 275
8.53244 292
8.55255 267
8.57266 278
8.59278 286
8.61289 281
8.63301 273
8.65312 295
8.67323 270
8.69335 328
8.71346 287
8.73357 290
8.75369 283
8.7738 322
8.79392 293
8.81403 302
8.83414 328
8.85426 294
8.87437 296
8.89448 304
8.9146 269
8.93471 262
8.95483 260
8.97494 293
8.99505 290
9.01517 300
9.03528 263
9.05539 286
9.07551 276
9.09562 262
9.11573 269
9.13585 286
9.15596 279
9.17608 280
9.19619 276
9.2163 259
9.23642 255
9.25653 286
9.27664 255
9.29676 262
9.31687 243
9.33699 264
9.3571 268
9.37721 235
9.39733 284
9.41744 303
9.43755 266
9.45767 270
9.47778 257
9.4979 272
9.51801 254
9.53812 272
9.55824 272
9.57835 266
9.59846 280
9.61858 268
9.63869 265
9.6588 289
9.67892 265
9.69903 265
9.71915 240
9.73926 268
9.75937 244
9.77949 264
9.7996 256
9.81971 255
9.83983 243
9.85994 250
9.88006 264
9.90017 215
9.92028 272
9.9404 251
9.96051 263
9.98062 241
10.00074 255
10.02085 222
10.04097 250
10.06108 232
10.08119 220
10.10131 256
10.12142 258
10.14153 210
10.16165 231
10.18176 259
10.20187 237
10.22199 286
10.2421 270
10.26222 245
10.28233 290
10.30244 242
10.32256 252
10.34267 260
10.36278 238
10.3829 260
10.40301 294
10.42313 258
10.44324 251
10.46335 262
10.48347 247
10.50358 276
10.52369 287
10.54381 283
10.56392 240
10.58403 269
10.60415 251
10.62426 255
10.64438 262
10.66449 269
10.6846 264
10.70472 237
10.72483 292
10.74494 224
10.76506 281
10.78517 259
10.80529 268
10.8254 247
10.84551 222
10.86563 279
10.88574 264
10.90585 293
10.92597 247
10.94608 292
10.9662 259
10.98631 268
11.00642 272
11.02654 263
11.04665 272
11.06676 266
11.08688 240
11.10699 290
11.1271 257
11.14722 281
11.16733 295
11.18745 283
11.20756 244
11.22767 230
11.24779 224
11.2679 272
11.28801 235
11.30813 263
11.32824 264
11.34836 266
11.36847 281
11.38858 263
11.4087 298
11.42881 251
11.44892 265
11.46904 272
11.48915 264
11.50927 234
11.52938 282
11.54949 254
11.56961 263
11.58972 254
11.60983 256
11.62995 267
11.65006 263
11.67017 256
11.69029 281
11.7104 285
11.73052 282
11.75063 280
11.77074 262
11.79086 309
11.81097 278
11.83108 290
11.8512 289
11.87131 286
11.89143 309
11.91154 254
11.93165 307
11.95177 274
11.97188 281
11.99199 325
12.01211 281
12.03222 327
12.05234 326
12.07245 319
12.09256 361
12.11268 356
12.13279 358
12.1529 306
12.17302 332
12.19313 334
12.21324 353
12.23336 350
12.25347 355
12.27359 365
12.2937 385
12.31381 366
12.33393 395
12.35404 345
12.37415 337
12.39427 360
12.41438 310
12.4345 325
12.45461 329
12.47472 277
12.49484 296
12.51495 272
12.53506 280
12.55518 281
12.57529 267
12.5954 292
12.61552 273
12.63563 273
12.65575 263
12.67586 240
12.69597 244
12.71609 281
12.7362 259
12.75631 250
12.77643 275
12.79654 279
12.81666 251
12.83677 241
12.85688 268
12.877 247
12.89711 237
12.91722 218
12.93734 210
12.95745 238
12.97757 245
12.99768 264
13.01779 238
13.03791 269
13.05802 236
13.07813 260
13.09825 281
13.11836 275
13.13847 293
13.15859 296
13.1787 278
13.19882 280
13.21893 256
13.23904 236
13.25916 266
13.27927 255
13.29938 263
13.3195 248
13.33961 238
13.35973 243
13.37984 262
13.39995 229
13.42007 238
13.44018 256
13.46029 251
13.48041 252
13.50052 291
13.52064 281
13.54075 280
13.56086 308
13.58098 295
13.60109 321
13.6212 334
13.64132 286
13.66143 291
13.68154 299
13.70166 283
13.72177 252
13.74189 222
13.762 263
13.78211 282
13.80223 270
13.82234 273
13.84245 279
13.86257 292
13.88268 322
13.9028 291
13.92291 261
13.94302 249
13.96314 258
13.98325 200
14.00336 252
14.02348 236
14.04359 218
14.06371 221
14.08382 221
14.10393 240
14.12405 198
14.14416 218
14.16427 185
14.18439 249
14.2045 216
14.22461 240
14.24473 241
14.26484 236
14.28496 228
14.30507 198
14.32518 209
14.3453 203
14.36541 223
14.38552 214
14.40564 212
14.42575 203
14.44587 221
14.46598 208
14.48609 232
14.50621 223
14.52632 263
14.54643 178
14.56655 222
14.58666 189
14.60677 222
14.62689 211
14.647 233
14.66712 255
14.68723 244
14.70734 212
14.72746 228
14.74757 189
14.76768 231
14.7878 246
14.80791 223
14.82803 232
14.84814 268
14.86825 268
14.88837 279
14.90848 302
14.92859 255
14.94871 290
14.96882 284
14.98894 253
15.00905 275
15.02916 249
15.04928 240
15.06939 240
15.0895 254
15.10962 255
15.12973 262
15.14984 245
15.16996 252
15.19007 256
15.21019 232
15.2303 268
15.25041 252
15.27053 225
15.29064 227
15.31075 241
15.33087 203
15.35098 196
15.3711 189
15.39121 223
15.41132 196
15.43144 222
15.45155 168
15.47166 224
15.49178 205
15.51189 233
15.53201 215
15.55212 204
15.57223 211
15.59235 212
15.61246 208
15.63257 210
15.65269 222
15.6728 196
15.69291 193
15.71303 214
15.73314 238
15.75326 238
15.77337 201
15.79348 228
15.8136 208
15.83371 212
15.85382 188
15.87394 238
15.89405 212
15.91417 183
15.93428 245
15.95439 201
15.97451 190
15.99462 202
16.01473 218
16.03485 195
16.05496 210
16.07508 210
16.09519 198
16.1153 194
16.13542 201
16.15553 230
16.17564 202
16.19576 208
16.21587 203
16.23598 199
16.2561 189
16.27621 197
16.29633 184
16.31644 176
16.33655 195
16.35667 198
16.37678 193
16.39689 197
16.41701 204
16.43712 201
16.45724 208
16.47735 208
16.49746 206
16.51758 223
16.53769 192
16.5578 187
16.57792 204
16.59803 201
16.61814 192
16.63826 205
16.65837 199
16.67849 195
16.6986 185
16.71871 212
16.73883 174
16.75894 201
16.77905 198
16.79917 210
16.81928 200
16.8394 193
16.85951 196
16.87962 176
16.89974 190
16.91985 176
16.93996 206
16.96008 191
16.98019 188
17.00031 192
17.02042 228
17.04053 204
17.06065 206
17.08076 201
17.10087 219
17.12099 219
17.1411 209
17.16121 221
17.18133 156
17.20144 183
17.22156 206
17.24167 192
17.26178 238
17.2819 224
17.30201 203
17.32212 241
17.34224 186
17.36235 205
17.38247 205
17.40258 187
17.42269 188
17.44281 206
17.46292 194
17.48303 212
17.50315 203
17.52326 215
17.54338 208
17.56349 219
17.5836 207
17.60372 206
17.62383 209
17.64394 197
17.66406 222
17.68417 229
17.70428 219
17.7244 227
17.74451 191
17.76463 212
17.78474 212
17.80485 210
17.82497 230
17.84508 198
17.86519 214
17.88531 178
17.90542 186
17.92554 199
17.94565 217
17.96576 207
17.98588 186
18.00599 212
18.0261 175
18.04622 221
18.06633 205
18.08645 226
18.10656 218
18.12667 187
18.14679 228
18.1669 190
18.18701 184
18.20713 207
18.22724 218
18.24735 216
18.26747 220
18.28758 215
18.3077 188
18.32781 195
18.34792 204
18.36804 209
18.38815 207
18.40826 211
18.42838 196
18.44849 228
18.46861 217
18.48872 212
18.50883 219
18.52895 201
18.54906 186
18.56917 224
18.58929 191
18.6094 190
18.62951 229
18.64963 191
18.66974 226
18.68986 209
18.70997 215
18.73008 265
18.7502 228
18.77031 218
18.79042 218
18.81054 221
18.83065 234
18.85077 211
18.87088 210
18.89099 190
18.91111 208
18.93122 206
18.95133 228
18.97145 212
18.99156 200
19.01168 199
19.03179 216
19.0519 227
19.07202 208
19.09213 200
19.11224 222
19.13236 237
19.15247 234
19.17258 250
19.1927 234
19.21281 281
19.23293 263
19.25304 261
19.27315 262
19.29327 280
19.31338 265
19.33349 258
19.35361 250
19.37372 231
19.39384 253
19.41395 250
19.43406 255
19.45418 289
19.47429 292
19.4944 272
19.51452 300
19.53463 250
19.55475 296
19.57486 314
19.59497 298
19.61509 291
19.6352 351
19.65531 334
19.67543 352
19.69554 370
19.71565 356
19.73577 362
19.75588 411
19.776 438
19.79611 437
19.81622 440
19.83634 464
19.85645 466
19.87656 445
19.89668 461
19.91679 433
19.93691 424
19.95702 412
19.97713 430
19.99725 399
20.01736 419
20.03747 418
20.05759 385
20.0777 392
20.09782 414
20.11793 396
20.13804 358
20.15816 396
20.17827 390
20.19838 446
20.2185 383
20.23861 401
20.25872 366
20.27884 376
20.29895 361
20.31907 386
20.33918 420
20.35929 448
20.37941 464
20.39952 431
20.41963 459
20.43975 404
20.45986 447
20.47998 422
20.50009 493
20.5202 478
20.54032 501
20.56043 566
20.58054 558
20.60066 594
20.62077 610
20.64088 709
20.661 893
20.68111 1096
20.70123 1420
20.72134 1805
20.74145 2322
20.76157 3118
20.78168 3800
20.80179 4408
20.82191 4685
20.84202 4499
20.86214 3843
20.88225 3168
20.90236 2401
20.92248 1831
20.94259 1508
20.9627 1275
20.98282 1256
21.00293 1121
21.02305 1029
21.04316 946
21.06327 808
21.08339 633
21.1035 562
21.12361 458
21.14373 454
21.16384 444
21.18395 442
21.20407 414
21.22418 402
21.2443 399
21.26441 357
21.28452 377
21.30464 380
21.32475 361
21.34486 367
21.36498 349
21.38509 338
21.40521 317
21.42532 356
21.44543 336
21.46555 363
21.48566 352
21.50577 345
21.52589 334
21.546 370
21.56612 330
21.58623 327
21.60634 329
21.62646 334
21.64657 337
21.66668 336
21.6868 370
21.70691 313
21.72702 333
21.74714 327
21.76725 318
21.78737 306
21.80748 338
21.82759 355
21.84771 412
21.86782 397
21.88793 466
21.90805 474
21.92816 530
21.94828 549
21.96839 578
21.9885 581
22.00862 622
22.02873 551
22.04884 468
22.06896 477
22.08907 417
22.10919 403
22.1293 381
22.14941 365
22.16953 338
22.18964 417
22.20975 434
22.22987 415
22.24998 405
22.27009 397
22.29021 415
22.31032 429
22.33044 410
22.35055 427
22.37066 381
22.39078 329
22.41089 346
22.431 358
22.45112 358
22.47123 348
22.49135 313
22.51146 340
22.53157 329
22.55169 352
22.5718 354
22.59191 331
22.61203 357
22.63214 328
22.65225 342
22.67237 325
22.69248 320
22.7126 334
22.73271 297
22.75282 308
22.77294 335
22.79305 306
22.81316 300
22.83328 293
22.85339 309
22.87351 345
22.89362 398
22.91373 362
22.93385 384
22.95396 354
22.97407 401
22.99419 425
23.0143 389
23.03442 436
23.05453 464
23.07464 466
23.09476 476
23.11487 508
23.13498 525
23.1551 526
23.17521 550
23.19532 557
23.21544 503
23.23555 482
23.25567 455
23.27578 449
23.29589 385
23.31601 443
23.33612 407
23.35623 366
23.37635 366
23.39646 372
23.41658 393
23.43669 414
23.4568 447
23.47692 428
23.49703 486
23.51714 506
23.53726 457
23.55737 485
23.57749 463
23.5976 435
23.61771 470
23.63783 423
23.65794 353
23.67805 406
23.69817 373
23.71828 402
23.73839 440
23.75851 432
23.77862 477
23.79874 434
23.81885 482
23.83896 478
23.85908 504
23.87919 554
23.8993 533
23.91942 598
23.93953 608
23.95965 620
23.97976 654
23.99987 593
24.01999 526
24.0401 431
24.06021 451
24.08033 443
24.10044 398
24.12056 437
24.14067 431
24.16078 445
24.1809 454
24.20101 502
24.22112 496
24.24124 507
24.26135 573
24.28146 504
24.30158 483
24.32169 478
24.34181 452
24.36192 437
24.38203 407
24.40215 370
24.42226 406
24.44237 343
24.46249 325
24.4826 349
24.50272 309
24.52283 358
24.54294 329
24.56306 314
24.58317 394
24.60328 330
24.6234 375
24.64351 400
24.66362 426
24.68374 458
24.70385 423
24.72397 448
24.74408 430
24.76419 493
24.78431 456
24.80442 428
24.82453 473
24.84465 447
24.86476 419
24.88488 420
24.90499 370
24.9251 436
24.94522 395
24.96533 397
24.98544 366
25.00556 333
25.02567 362
25.04579 365
25.0659 353
25.08601 380
25.10613 334
25.12624 362
25.14635 341
25.16647 367
25.18658 366
25.20669 380
25.22681 361
25.24692 344
25.26704 368
25.28715 397
25.30726 431
25.32738 407
25.34749 444
25.3676 480
25.38772 491
25.40783 562
25.42795 554
25.44806 589
25.46817 703
25.48829 766
25.5084 749
25.52851 779
25.54863 781
25.56874 745
25.58886 711
25.60897 738
25.62908 718
25.6492 645
25.66931 603
25.68942 583
25.70954 553
25.72965 538
25.74976 459
25.76988 422
25.78999 451
25.81011 444
25.83022 475
25.85033 432
25.87045 449
25.89056 457
25.91067 445
25.93079 435
25.9509 502
25.97102 467
25.99113 495
26.01124 474
26.03136 486
26.05147 505
26.07158 565
26.0917 591
26.11181 571
26.13193 588
26.15204 627
26.17215 693
26.19227 705
26.21238 784
26.23249 884
26.25261 900
26.27272 991
26.29283 1106
26.31295 1231
26.33306 1477
26.35318 1689
26.37329 1944
26.3934 2361
26.41352 2830
26.43363 3628
26.45374 4645
26.47386 6243
26.49397 7963
26.51409 10805
26.5342 13643
26.55431 16647
26.57443 18994
26.59454 19597
26.61465 19412
26.63477 16691
26.65488 13465
26.67499 10142
26.69511 7403
26.71522 4853
26.73534 3073
26.75545 1973
26.77556 1498
26.79568 1352
26.81579 1163
26.8359 1103
26.85602 1032
26.87613 1101
26.89625 942
26.91636 1033
26.93647 996
26.95659 1015
26.9767 1088
26.99681 1150
27.01693 1204
27.03704 1130
27.05716 1129
27.07727 1025
27.09738 975
27.1175 880
27.13761 767
27.15772 775
27.17784 713
27.19795 757
27.21806 733
27.23818 860
27.25829 838
27.27841 909
27.29852 994
27.31863 1064
27.33875 1261
27.35886 1373
27.37897 1464
27.39909 1539
27.4192 1594
27.43932 1614
27.45943 1529
27.47954 1372
27.49966 1184
27.51977 1058
27.53988 910
27.56 795
27.58011 692
27.60023 653
27.62034 677
27.64045 663
27.66057 650
27.68068 681
27.70079 757
27.72091 765
27.74102 773
27.76113 718
27.78125 731
27.80136 736
27.82148 838
27.84159 839
27.8617 918
27.88182 939
27.90193 976
27.92204 891
27.94216 830
27.96227 785
27.98239 689
28.0025 616
28.02261 569
28.04273 526
28.06284 526
28.08295 474
28.10307 506
28.12318 485
28.1433 484
28.16341 470
28.18352 461
28.20364 447
28.22375 429
28.24386 422
28.26398 386
28.28409 365
28.3042 380
28.32432 385
28.34443 350
28.36455 332
28.38466 318
28.40477 351
28.42489 350
28.445 284
28.46511 297
28.48523 303
28.50534 278
28.52546 285
28.54557 293
28.56568 277
28.5858 282
28.60591 287
28.62602 275
28.64614 273
28.66625 286
28.68636 280
28.70648 284
28.72659 285
28.74671 275
28.76682 249
28.78693 262
28.80705 286
28.82716 241
28.84727 283
28.86739 259
28.8875 267
28.90762 299
28.92773 296
28.94784 281
28.96796 264
28.98807 274
29.00818 252
29.0283 321
29.04841 279
29.06853 246
29.08864 303
29.10875 264
29.12887 268
29.14898 320
29.16909 279
29.18921 287
29.20932 308
29.22943 302
29.24955 323
29.26966 329
29.28978 336
29.30989 333
29.33 354
29.35012 369
29.37023 391
29.39034 407
29.41046 457
29.43057 436
29.45069 487
29.4708 414
29.49091 407
29.51103 397
29.53114 387
29.55125 365
29.57137 354
29.59148 346
29.6116 311
29.63171 326
29.65182 316
29.67194 340
29.69205 318
29.71216 336
29.73228 357
29.75239 357
29.7725 362
29.79262 337
29.81273 315
29.83285 376
29.85296 387
29.87307 339
29.89319 352
29.9133 377
29.93341 357
29.95353 393
29.97364 420
29.99376 411
30.01387 413
30.03398 493
30.0541 451
30.07421 528
30.09432 493
30.11444 539
30.13455 542
30.15467 564
30.17478 499
30.19489 466
30.21501 490
30.23512 440
30.25523 457
30.27535 399
30.29546 379
30.31557 413
30.33569 408
30.3558 357
30.37592 393
30.39603 380
30.41614 368
30.43626 394
30.45637 375
30.47648 375
30.4966 354
30.51671 345
30.53683 358
30.55694 328
30.57705 369
30.59717 367
30.61728 385
30.63739 435
30.65751 438
30.67762 474
30.69773 468
30.71785 478
30.73796 467
30.75808 507
30.77819 495
30.7983 505
30.81842 444
30.83853 441
30.85864 368
30.87876 344
30.89887 347
30.91899 348
30.9391 318
30.95921 307
30.97933 262
30.99944 240
31.01955 251
31.03967 267
31.05978 241
31.0799 231
31.10001 246
31.12012 268
31.14024 276
31.16035 257
31.18046 277
31.20058 298
31.22069 270
31.2408 282
31.26092 280
31.28103 258
31.30115 264
31.32126 271
31.34137 268
31.36149 241
31.3816 256
31.40171 283
31.42183 233
31.44194 242
31.46206 234
31.48217 258
31.50228 225
31.5224 242
31.54251 264
31.56262 240
31.58274 230
31.60285 229
31.62297 243
31.64308 235
31.66319 246
31.68331 253
31.70342 238
31.72353 239
31.74365 245
31.76376 225
31.78387 200
31.80399 245
31.8241 216
31.84422 231
31.86433 241
31.88444 254
31.90456 235
31.92467 226
31.94478 219
31.9649 263
31.98501 234
32.00513 251
32.02524 268
32.04535 293
32.06547 283
32.08558 247
32.10569 309
32.12581 309
32.14592 303
32.16604 286
32.18615 282
32.20626 299
32.22638 319
32.24649 290
32.2666 262
32.28672 314
32.30683 289
32.32694 294
32.34706 302
32.36717 321
32.38729 334
32.4074 333
32.42751 305
32.44763 321
32.46774 309
32.48785 273
32.50797 271
32.52808 242
32.5482 284
32.56831 243
32.58842 248
32.60854 194
32.62865 231
32.64876 266
32.66888 193
32.68899 236
32.7091 210
32.72922 245
32.74933 209
32.76945 215
32.78956 235
32.80967 215
32.82979 197
32.8499 237
32.87001 198
32.89013 185
32.91024 206
32.93036 209
32.95047 197
32.97058 223
32.9907 240
33.01081 223
33.03092 196
33.05104 210
33.07115 201
33.09127 190
33.11138 221
33.13149 225
33.15161 214
33.17172 198
33.19183 199
33.21195 189
33.23206 202
33.25217 228
33.27229 218
33.2924 236
33.31252 225
33.33263 232
33.35274 198
33.37286 229
33.39297 204
33.41308 208
33.4332 216
33.45331 210
33.47343 215
33.49354 233
33.51365 203
33.53377 203
33.55388 189
33.57399 214
33.59411 196
33.61422 192
33.63434 244
33.65445 233
33.67456 223
33.69468 246
33.71479 263
33.7349 230
33.75502 211
33.77513 266
33.79524 254
33.81536 252
33.83547 251
33.85559 276
33.8757 254
33.89581 249
33.91593 265
33.93604 264
33.95615 241
33.97627 256
33.99638 268
34.0165 259
34.03661 251
34.05672 276
34.07684 298
34.09695 355
34.11706 352
34.13718 386
34.15729 417
34.17741 347
34.19752 387
34.21763 399
34.23775 372
34.25786 379
34.27797 345
34.29809 350
34.3182 346
34.33831 306
34.35843 315
34.37854 322
34.39866 341
34.41877 316
34.43888 332
34.459 323
34.47911 316
34.49922 321
34.51934 334
34.53945 340
34.55957 369
34.57968 343
34.59979 357
34.61991 306
34.64002 379
34.66013 363
34.68025 371
34.70036 337
34.72047 391
34.74059 384
34.7607 378
34.78082 400
34.80093 377
34.82104 374
34.84116 407
34.86127 423
34.88138 427
34.9015 411
34.92161 373
34.94173 429
34.96184 418
34.98195 436
35.00207 414
35.02218 379
35.04229 396
35.06241 364
35.08252 439
35.10264 446
35.12275 379
35.14286 412
35.16298 416
35.18309 378
35.2032 374
35.22332 389
35.24343 389
35.26354 411
35.28366 383
35.30377 411
35.32389 377
35.344 415
35.36411 412
35.38423 388
35.40434 371
35.42445 364
35.44457 446
35.46468 419
35.4848 442
35.50491 428
35.52502 392
35.54514 375
35.56525 372
35.58536 374
35.60548 357
35.62559 368
35.64571 344
35.66582 361
35.68593 319
35.70605 316
35.72616 352
35.74627 315
35.76639 302
35.7865 344
35.80661 346
35.82673 328
35.84684 345
35.86696 316
35.88707 341
35.90718 336
35.9273 313
35.94741 305
35.96752 322
35.98764 276
36.00775 287
36.02787 302
36.04798 293
36.06809 306
36.08821 307
36.10832 288
36.12843 295
36.14855 321
36.16866 354
36.18878 301
36.20889 330
36.229 375
36.24912 392
36.26923 397
36.28934 451
36.30946 500
36.32957 514
36.34968 588
36.3698 703
36.38991 799
36.41003 961
36.43014 1167
36.45025 1357
36.47037 1443
36.49048 1476
36.51059 1555
36.53071 1272
36.55082 1159
36.57094 989
36.59105 926
36.61116 774
36.63128 606
36.65139 495
36.6715 422
36.69162 406
36.71173 374
36.73184 353
36.75196 361
36.77207 334
36.79219 330
36.8123 351
36.83241 355
36.85253 357
36.87264 358
36.89275 367
36.91287 369
36.93298 370
36.9531 384
36.97321 387
36.99332 337
37.01344 325
37.03355 348
37.05366 347
37.07378 310
37.09389 315
37.11401 308
37.13412 304
37.15423 283
37.17435 282
37.19446 293
37.21457 305
37.23469 286
37.2548 283
37.27491 314
37.29503 261
37.31514 276
37.33526 282
37.35537 306
37.37548 238
37.3956 280
37.41571 288
37.43582 269
37.45594 293
37.47605 298
37.49617 291
37.51628 293
37.53639 307
37.55651 282
37.57662 278
37.59673 306
37.61685 287
37.63696 277
37.65708 275
37.67719 294
37.6973 283
37.71742 263
37.73753 269
37.75764 284
37.77776 267
37.79787 247
37.81798 286
37.8381 239
37.85821 250
37.87833 261
37.89844 253
37.91855 249
37.93867 240
37.95878 268
37.97889 276
37.99901 266
38.01912 270
38.03924 253
38.05935 285
38.07946 244
38.09958 276
38.11969 295
38.1398 263
38.15992 269
38.18003 280
38.20015 292
38.22026 299
38.24037 287
38.26049 311
38.2806 308
38.30071 296
38.32083 303
38.34094 298
38.36105 330
38.38117 326
38.40128 361
38.4214 382
38.44151 334
38.46162 357
38.48174 304
38.50185 330
38.52196 335
38.54208 349
38.56219 308
38.58231 353
38.60242 277
38.62253 297
38.64265 314
38.66276 295
38.68287 262
38.70299 278
38.7231 272
38.74321 283
38.76333 248
38.78344 254
38.80356 274
38.82367 256
38.84378 273
38.8639 257
38.88401 281
38.90412 284
38.92424 288
38.94435 281
38.96447 287
38.98458 283
39.00469 279
39.02481 277
39.04492 285
39.06503 292
39.08515 314
39.10526 310
39.12538 342
39.14549 310
39.1656 369
39.18572 393
39.20583 367
39.22594 429
39.24606 512
39.26617 505
39.28628 636
39.3064 768
39.32651 881
39.34663 1021
39.36674 1197
39.38685 1252
39.40697 1402
39.42708 1442
39.44719 1311
39.46731 1156
39.48742 971
39.50754 844
39.52765 774
39.54776 652
39.56788 514
39.58799 408
39.6081 347
39.62822 291
39.64833 299
39.66845 289
39.68856 274
39.70867 249
39.72879 264
39.7489 255
39.76901 254
39.78913 277
39.80924 251
39.82935 247
39.84947 253
39.86958 237
39.8897 246
39.90981 257
39.92992 259
39.95004 275
39.97015 293
39.99026 318
40.01038 306
40.03049 292
40.05061 343
40.07072 397
40.09083 380
40.11095 448
40.13106 480
40.15117 545
40.17129 603
40.1914 683
40.21152 766
40.23163 800
40.25174 798
40.27186 737
40.29197 654
40.31208 590
40.3322 488
40.35231 484
40.37242 454
40.39254 382
40.41265 329
40.43277 305
40.45288 267
40.47299 267
40.49311 248
40.51322 280
40.53333 229
40.55345 248
40.57356 264
40.59368 232
40.61379 249
40.6339 240
40.65402 245
40.67413 226
40.69424 207
40.71436 225
40.73447 202
40.75458 214
40.7747 253
40.79481 188
40.81493 221
40.83504 214
40.85515 236
40.87527 239
40.89538 230
40.91549 247
40.93561 250
40.95572 265
40.97584 231
40.99595 230
41.01606 257
41.03618 253
41.05629 235
41.0764 244
41.09652 242
41.11663 274
41.13675 249
41.15686 237
41.17697 271
41.19709 279
41.2172 258
41.23731 232
41.25743 222
41.27754 269
41.29765 255
41.31777 268
41.33788 263
41.358 306
41.37811 247
41.39822 248
41.41834 226
41.43845 268
41.45856 223
41.47868 292
41.49879 273
41.51891 290
41.53902 265
41.55913 289
41.57925 305
41.59936 294
41.61947 314
41.63959 382
41.6597 372
41.67982 419
41.69993 436
41.72004 446
41.74016 454
41.76027 478
41.78038 430
41.8005 420
41.82061 431
41.84072 389
41.86084 366
41.88095 350
41.90107 329
41.92118 313
41.94129 292
41.96141 271
41.98152 277
42.00163 239
42.02175 288
42.04186 279
42.06198 244
42.08209 262
42.1022 269
42.12232 301
42.14243 291
42.16254 323
42.18266 344
42.20277 373
42.22289 391
42.243 450
42.26311 523
42.28323 571
42.30334 734
42.32345 791
42.34357 949
42.36368 986
42.38379 1083
42.40391 1047
42.42402 1015
42.44414 882
42.46425 793
42.48436 757
42.50448 627
42.52459 592
42.5447 550
42.56482 430
42.58493 360
42.60505 345
42.62516 322
42.64527 293
42.66539 303
42.6855 287
42.70561 300
42.72573 312
42.74584 283
42.76595 299
42.78607 292
42.80618 259
42.8263 248
42.84641 242
42.86652 257
42.88664 247
42.90675 234
42.92686 235
42.94698 223
42.96709 234
42.98721 247
43.00732 224
43.02743 240
43.04755 232
43.06766 248
43.08777 213
43.10789 252
43.128 232
43.14812 216
43.16823 174
43.18834 245
43.20846 235
43.22857 198
43.24868 189
43.2688 195
43.28891 221
43.30902 228
43.32914 203
43.34925 219
43.36937 225
43.38948 233
43.40959 224
43.42971 234
43.44982 229
43.46993 231
43.49005 236
43.51016 247
43.53028 238
43.55039 241
43.5705 243
43.59062 219
43.61073 232
43.63084 211
43.65096 236
43.67107 214
43.69119 204
43.7113 215
43.73141 217
43.75153 198
43.77164 245
43.79175 201
43.81187 205
43.83198 216
43.85209 229
43.87221 211
43.89232 233
43.91244 206
43.93255 199
43.95266 201
43.97278 214
43.99289 235
44.013 220
44.03312 230
44.05323 231
44.07335 230
44.09346 231
44.11357 225
44.13369 230
44.1538 207
44.17391 212
44.19403 238
44.21414 197
44.23426 200
44.25437 214
44.27448 224
44.2946 244
44.31471 194
44.33482 222
44.35494 179
44.37505 218
44.39516 218
44.41528 194
44.43539 226
44.45551 224
44.47562 204
44.49573 240
44.51585 209
44.53596 204
44.55607 211
44.57619 222
44.5963 234
44.61642 250
44.63653 199
44.65664 233
44.67676 233
44.69687 205
44.71698 236
44.7371 211
44.75721 218
44.77732 224
44.79744 212
44.81755 224
44.83767 200
44.85778 211
44.87789 228
44.89801 212
44.91812 224
44.93823 226
44.95835 244
44.97846 229
44.99858 225
45.01869 194
45.0388 207
45.05892 240
45.07903 224
45.09914 240
45.11926 236
45.13937 230
45.15949 226
45.1796 227
45.19971 226
45.21983 241
45.23994 245
45.26005 244
45.28017 243
45.30028 263
45.32039 257
45.34051 266
45.36062 267
45.38074 261
45.40085 291
45.42096 326
45.44108 335
45.46119 303
45.4813 340
45.50142 299
45.52153 357
45.54165 340
45.56176 382
45.58187 408
45.60199 486
45.6221 534
45.64221 532
45.66233 600
45.68244 719
45.70256 730
45.72267 795
45.74278 735
45.7629 781
45.78301 656
45.80312 579
45.82324 536
45.84335 499
45.86346 459
45.88358 389
45.90369 393
45.92381 330
45.94392 244
45.96403 255
45.98415 242
46.00426 259
46.02437 273
46.04449 262
46.0646 243
46.08472 221
46.10483 239
46.12494 264
46.14506 257
46.16517 253
46.18528 225
46.2054 234
46.22551 249
46.24563 235
46.26574 229
46.28585 230
46.30597 207
46.32608 222
46.34619 213
46.36631 209
46.38642 223
46.40653 236
46.42665 217
46.44676 198
46.46688 242
46.48699 210
46.5071 204
46.52722 197
46.54733 204
46.56744 236
46.58756 212
46.60767 187
46.62779 201
46.6479 183
46.66801 212
46.68813 210
46.70824 200
46.72835 206
46.74847 183
46.76858 194
46.78869 198
46.80881 213
46.82892 208
46.84904 236
46.86915 224
46.88926 206
46.90938 224
46.92949 242
46.9496 237
46.96972 255
46.98983 233
47.00995 256
47.03006 267
47.05017 241
47.07029 265
47.0904 256
47.11051 246
47.13063 271
47.15074 271
47.17086 251
47.19097 256
47.21108 242
47.2312 234
47.25131 249
47.27142 220
47.29154 219
47.31165 241
47.33176 222
47.35188 210
47.37199 246
47.39211 274
47.41222 248
47.43233 243
47.45245 241
47.47256 258
47.49267 256
47.51279 237
47.5329 258
47.55302 239
47.57313 226
47.59324 209
47.61336 231
47.63347 210
47.65358 208
47.6737 211
47.69381 208
47.71393 206
47.73404 206
47.75415 208
47.77427 223
47.79438 218
47.81449 195
47.83461 197
47.85472 221
47.87483 238
47.89495 248
47.91506 219
47.93518 220
47.95529 220
47.9754 194
47.99552 223
48.01563 218
48.03574 222
48.05586 226
48.07597 198
48.09609 210
48.1162 229
48.13631 240
48.15643 217
48.17654 227
48.19665 207
48.21677 212
48.23688 227
48.257 211
48.27711 211
48.29722 221
48.31734 217
48.33745 213
48.35756 196
48.37768 204
48.39779 208
48.4179 220
48.43802 210
48.45813 210
48.47825 195
48.49836 203
48.51847 208
48.53859 210
48.5587 193
48.57881 215
48.59893 247
48.61904 214
48.63916 202
48.65927 234
48.67938 231
48.6995 200
48.71961 251
48.73972 242
48.75984 236
48.77995 238
48.80006 267
48.82018 255
48.84029 239
48.86041 258
48.88052 249
48.90063 267
48.92075 271
48.94086 281
48.96097 258
48.98109 277
49.0012 248
49.02132 234
49.04143 266
49.06154 245
49.08166 285
49.10177 254
49.12188 235
49.142 262
49.16211 259
49.18223 264
49.20234 252
49.22245 255
49.24257 226
49.26268 252
49.28279 217
49.30291 263
49.32302 217
49.34313 268
49.36325 261
49.38336 240
49.40348 186
49.42359 252
49.4437 227
49.46382 247
49.48393 231
49.50404 247
49.52416 222
49.54427 274
49.56439 241
49.5845 253
49.60461 258
49.62473 265
49.64484 303
49.66495 267
49.68507 312
49.70518 329
49.7253 335
49.74541 349
49.76552 388
49.78564 449
49.80575 424
49.82586 470
49.84598 531
49.86609 541
49.8862 640
49.90632 700
49.92643 796
49.94655 940
49.96666 1180
49.98677 1399
50.00689 1555
50.027 1837
50.04711 1935
50.06723 2185
50.08734 2089
50.10746 1940
50.12757 1708
50.14768 1510
50.1678 1273
50.18791 1142
50.20802 1149
50.22814 1087
50.24825 929
50.26837 739
50.28848 625
50.30859 477
50.32871 410
50.34882 388
50.36893 411
50.38905 422
50.40916 473
50.42927 477
50.44939 494
50.4695 495
50.48962 503
50.50973 485
50.52984 528
50.54996 509
50.57007 485
50.59018 452
50.6103 408
50.63041 392
50.65053 363
50.67064 340
50.69075 361
50.71087 336
50.73098 356
50.75109 328
50.77121 341
50.79132 320
50.81143 315
50.83155 293
50.85166 333
50.87178 306
50.89189 272
50.912 267
50.93212 257
50.95223 255
50.97234 268
50.99246 267
51.01257 255
51.03269 221
51.0528 262
51.07291 273
51.09303 275
51.11314 271
51.13325 246
51.15337 276
51.17348 247
51.1936 247
51.21371 218
51.23382 218
51.25394 208
51.27405 231
51.29416 216
51.31428 226
51.33439 229
51.3545 212
51.37462 215
51.39473 190
51.41485 176
51.43496 182
51.45507 187
51.47519 201
51.4953 183
51.51541 206
51.53553 170
51.55564 189
51.57576 185
51.59587 210
51.61598 216
51.6361 195
51.65621 207
51.67632 180
51.69644 208
51.71655 177
51.73667 188
51.75678 187
51.77689 170
51.79701 177
51.81712 191
51.83723 180
51.85735 186
51.87746 186
51.89757 190
51.91769 186
51.9378 201
51.95792 169
51.97803 186
51.99814 178
52.01826 186
52.03837 227
52.05848 195
52.0786 202
52.09871 211
52.11883 202
52.13894 196
52.15905 203
52.17917 205
52.19928 228
52.21939 183
52.23951 217
52.25962 208
52.27974 205
52.29985 211
52.31996 199
52.34008 197
52.36019 218
52.3803 192
52.40042 205
52.42053 206
52.44064 220
52.46076 197
52.48087 200
52.50099 228
52.5211 218
52.54121 225
52.56133 229
52.58144 201
52.60155 228
52.62167 198
52.64178 208
52.6619 207
52.68201 220
52.70212 218
52.72224 222
52.74235 237
52.76246 208
52.78258 217
52.80269 206
52.8228 212
52.84292 198
52.86303 206
52.88315 197
52.90326 201
52.92337 191
52.94349 199
52.9636 221
52.98371 215
53.00383 223
53.02394 211
53.04406 205
53.06417 225
53.08428 202
53.1044 224
53.12451 234
53.14462 214
53.16474 217
53.18485 229
53.20497 225
53.22508 228
53.24519 243
53.26531 220
53.28542 247
53.30553 215
53.32565 255
53.34576 218
53.36587 220
53.38599 223
53.4061 211
53.42622 224
53.44633 241
53.46644 241
53.48656 205
53.50667 214
53.52678 217
53.5469 217
53.56701 223
53.58713 212
53.60724 227
53.62735 223
53.64747 214
53.66758 215
53.68769 196
53.70781 226
53.72792 195
53.74804 212
53.76815 214
53.78826 224
53.80838 223
53.82849 227
53.8486 221
53.86872 224
53.88883 205
53.90894 211
53.92906 228
53.94917 237
53.96929 223
53.9894 250
54.00951 219
54.02963 241
54.04974 251
54.06985 246
54.08997 243
54.11008 224
54.1302 232
54.15031 242
54.17042 232
54.19054 241
54.21065 239
54.23076 251
54.25088 246
54.27099 249
54.29111 233
54.31122 222
54.33133 253
54.35145 269
54.37156 227
54.39167 247
54.41179 243
54.4319 288
54.45201 259
54.47213 279
54.49224 279
54.51236 268
54.53247 263
54.55258 291
54.5727 289
54.59281 319
54.61292 326
54.63304 362
54.65315 337
54.67327 403
54.69338 460
54.71349 550
54.73361 582
54.75372 672
54.77383 728
54.79395 772
54.81406 749
54.83417 727
54.85429 678
54.8744 630
54.89452 615
54.91463 530
54.93474 533
54.95486 516
54.97497 459
54.99508 463
55.0152 401
55.03531 379
55.05543 327
55.07554 341
55.09565 319
55.11577 310
55.13588 375
55.15599 404
55.17611 383
55.19622 416
55.21634 438
55.23645 470
55.25656 514
55.27668 471
55.29679 496
55.3169 407
55.33702 395
55.35713 406
55.37724 379
55.39736 392
55.41747 346
55.43759 364
55.4577 331
55.47781 341
55.49793 301
55.51804 278
55.53815 256
55.55827 229
55.57838 277
55.5985 250
55.61861 255
55.63872 247
55.65884 239
55.67895 233
55.69906 247
55.71918 252
55.73929 200
55.75941 230
55.77952 238
55.79963 202
55.81975 186
55.83986 217
55.85997 215
55.88009 230
55.9002 232
55.92031 215
55.94043 230
55.96054 195
55.98066 228
56.00077 222
56.02088 207
56.041 202
56.06111 218
56.08122 209
56.10134 213
56.12145 236
56.14157 214
56.16168 195
56.18179 220
56.20191 208
56.22202 207
56.24213 193
56.26225 209
56.28236 216
56.30248 198
56.32259 184
56.3427 223
56.36282 233
56.38293 209
56.40304 216
56.42316 217
56.44327 214
56.46338 207
56.4835 200
56.50361 207
56.52373 200
56.54384 227
56.56395 219
56.58407 203
56.60418 218
56.62429 230
56.64441 232
56.66452 210
56.68464 210
56.70475 224
56.72486 232
56.74498 242
56.76509 228
56.7852 201
56.80532 215
56.82543 209
56.84554 206
56.86566 221
56.88577 230
56.90589 215
56.926 200
56.94611 180
56.96623 220
56.98634 192
57.00645 220
57.02657 195
57.04668 189
57.0668 213
57.08691 201
57.10702 243
57.12714 220
57.14725 227
57.16736 234
57.18748 227
57.20759 244
57.22771 254
57.24782 244
57.26793 222
57.28805 248
57.30816 234
57.32827 255
57.34839 229
57.3685 220
57.38861 243
57.40873 224
57.42884 230
57.44896 211
57.46907 194
57.48918 203
57.5093 214
57.52941 189
57.54952 195
57.56964 218
57.58975 216
57.60987 209
57.62998 192
57.65009 202
57.67021 210
57.69032 212
57.71043 207
57.73055 208
57.75066 219
57.77078 198
57.79089 193
57.811 197
57.83112 187
57.85123 199
57.87134 208
57.89146 200
57.91157 224
57.93168 184
57.9518 207
57.97191 196
57.99203 194
58.01214 208
58.03225 208
58.05237 187
58.07248 195
58.09259 226
58.11271 208
58.13282 251
58.15294 195
58.17305 202
58.19316 195
58.21328 215
58.23339 195
58.2535 202
58.27362 215
58.29373 222
58.31385 187
58.33396 212
58.35407 229
58.37419 221
58.3943 239
58.41441 221
58.43453 212
58.45464 233
58.47475 221
58.49487 208
58.51498 215
58.5351 242
58.55521 238
58.57532 193
58.59544 237
58.61555 231
58.63566 239
58.65578 213
58.67589 232
58.69601 237
58.71612 231
58.73623 236
58.75635 201
58.77646 221
58.79657 216
58.81669 221
58.8368 217
58.85691 192
58.87703 210
58.89714 180
58.91726 198
58.93737 225
58.95748 204
58.9776 239
58.99771 191
59.01782 184
59.03794 203
59.05805 172
59.07817 185
59.09828 180
59.11839 178
59.13851 172
59.15862 231
59.17873 201
59.19885 182
59.21896 206
59.23908 206
59.25919 192
59.2793 207
59.29942 232
59.31953 206
59.33964 229
59.35976 225
59.37987 222
59.39998 265
59.4201 242
59.44021 251
59.46033 280
59.48044 262
59.50055 302
59.52067 266
59.54078 269
59.56089 289
59.58101 296
59.60112 313
59.62124 342
59.64135 420
59.66146 425
59.68158 481
59.70169 498
59.7218 560
59.74192 641
59.76203 757
59.78215 885
59.80226 997
59.82237 1064
59.84249 1288
59.8626 1319
59.88271 1364
59.90283 1453
59.92294 1273
59.94305 1122
59.96317 995
59.98328 885
60.0034 798
60.02351 848
60.04362 817
60.06374 807
60.08385 711
60.10396 611
60.12408 488
60.14419 389
60.16431 324
60.18442 296
60.20453 263
60.22465 250
60.24476 294
60.26487 261
60.28499 271
60.3051 245
60.32522 249
60.34533 244
60.36544 270
60.38556 228
60.40567 265
60.42578 236
60.4459 228
60.46601 190
60.48612 235
60.50624 217
60.52635 216
60.54647 227
60.56658 197
60.58669 202
60.60681 246
60.62692 229
60.64703 231
60.66715 216
60.68726 211
60.70738 222
60.72749 220
60.7476 226
60.76772 229
60.78783 206
60.80794 230
60.82806 208
60.84817 208
60.86828 228
60.8884 196
60.90851 216
60.92863 226
60.94874 227
60.96885 244
60.98897 252
61.00908 259
61.02919 256
61.04931 213
61.06942 256
61.08954 263
61.10965 253
61.12976 272
61.14988 249
61.16999 223
61.1901 245
61.21022 247
61.23033 248
61.25045 259
61.27056 252
61.29067 245
61.31079 248
61.3309 229
61.35101 232
61.37113 274
61.39124 246
61.41135 216
61.43147 244
61.45158 247
61.4717 226
61.49181 261
61.51192 241
61.53204 241
61.55215 214
61.57226 215
61.59238 229
61.61249 256
61.63261 221
61.65272 245
61.67283 266
61.69295 231
61.71306 234
61.73317 237
61.75329 247
61.7734 245
61.79352 254
61.81363 236
61.83374 231
61.85386 242
61.87397 221
61.89408 268
61.9142 256
61.93431 237
61.95442 247
61.97454 226
61.99465 247
62.01477 251
62.03488 230
62.05499 241
62.07511 263
62.09522 260
62.11533 241
62.13545 284
62.15556 251
62.17568 260
62.19579 278
62.2159 235
62.23602 248
62.25613 245
62.27624 248
62.29636 266
62.31647 238
62.33659 235
62.3567 282
62.37681 244
62.39693 210
62.41704 260
62.43715 233
62.45727 249
62.47738 243
62.49749 254
62.51761 243
62.53772 229
62.55784 241
62.57795 205
62.59806 215
62.61818 260
62.63829 224
62.6584 256
62.67852 229
62.69863 213
62.71875 205
62.73886 252
62.75897 223
62.77909 230
62.7992 238
62.81931 222
62.83943 239
62.85954 244
62.87965 241
62.89977 241
62.91988 237
62.94 224
62.96011 226
62.98022 248
63.00034 235
63.02045 225
63.04056 229
63.06068 221
63.08079 229
63.10091 209
63.12102 248
63.14113 249
63.16125 212
63.18136 233
63.20147 228
63.22159 231
63.2417 246
63.26182 212
63.28193 221
63.30204 227
63.32216 219
63.34227 231
63.36238 203
63.3825 247
63.40261 239
63.42272 220
63.44284 208
63.46295 216
63.48307 222
63.50318 241
63.52329 246
63.54341 245
63.56352 242
63.58363 281
63.60375 257
63.62386 246
63.64398 261
63.66409 270
63.6842 270
63.70432 257
63.72443 281
63.74454 305
63.76466 325
63.78477 329
63.80489 341
63.825 338
63.84511 357
63.86523 425
63.88534 401
63.90545 395
63.92557 467
63.94568 450
63.96579 468
63.98591 470
64.00602 454
64.02614 434
64.04625 385
64.06636 336
64.08648 342
64.10659 353
64.1267 320
64.14682 362
64.16693 311
64.18705 296
64.20716 269
64.22727 251
64.24739 216
64.2675 222
64.28761 196
64.30773 203
64.32784 181
64.34796 231
64.36807 196
64.38818 185
64.4083 209
64.42841 194
64.44852 207
64.46864 178
64.48875 178
64.50886 190
64.52898 182
64.54909 200
64.56921 177
64.58932 175
64.60943 183
64.62955 210
64.64966 173
64.66977 198
64.68989 210
64.71 205
64.73012 207
64.75023 189
64.77034 215
64.79046 196
64.81057 213
64.83068 217
64.8508 185
64.87091 231
64.89102 206
64.91114 221
64.93125 182
64.95137 215
64.97148 198
64.99159 190
65.01171 233
65.03182 257
65.05193 217
65.07205 222
65.09216 233
65.11228 233
65.13239 245
65.1525 261
65.17262 237
65.19273 221
65.21284 226
65.23296 233
65.25307 248
65.27319 238
65.2933 259
65.31341 250
65.33353 223
65.35364 271
65.37375 239
65.39387 256
65.41398 211
65.43409 197
65.45421 244
65.47432 231
65.49444 199
65.51455 208
65.53466 203
65.55478 215
65.57489 231
65.595 211
65.61512 238
65.63523 224
65.65535 272
65.67546 264
65.69557 233
65.71569 219
65.7358 243
65.75591 223
65.77603 235
65.79614 227
65.81626 210
65.83637 217
65.85648 242
65.8766 217
65.89671 229
65.91682 222
65.93694 211
65.95705 217
65.97716 198
65.99728 226
66.01739 201
66.03751 202
66.05762 199
66.07773 227
66.09785 207
66.11796 208
66.13807 218
66.15819 233
66.1783 206
66.19842 221
66.21853 252
66.23864 224
66.25876 218
66.27887 231
66.29898 208
66.3191 245
66.33921 193
66.35933 195
66.37944 216
66.39955 218
66.41967 227
66.43978 204
66.45989 216
66.48001 233
66.50012 204
66.52023 221
66.54035 209
66.56046 191
66.58058 152
66.60069 204
66.6208 198
66.64092 192
66.66103 192
66.68114 210
66.70126 216
66.72137 184
66.74149 204
66.7616 221
66.78171 212
66.80183 205
66.82194 203
66.84205 212
66.86217 193
66.88228 230
66.90239 209
66.92251 217
66.94262 212
66.96274 222
66.98285 213
67.00296 240
67.02308 222
67.04319 255
67.0633 199
67.08342 212
67.10353 221
67.12365 212
67.14376 223
67.16387 219
67.18399 245
67.2041 252
67.22421 247
67.24433 219
67.26444 255
67.28456 236
67.30467 247
67.32478 282
67.3449 296
67.36501 283
67.38512 279
67.40524 286
67.42535 318
67.44546 338
67.46558 349
67.48569 408
67.50581 443
67.52592 508
67.54603 494
67.56615 622
67.58626 709
67.60637 761
67.62649 829
67.6466 913
67.66672 910
67.68683 882
67.70694 855
67.72706 813
67.74717 698
67.76728 653
67.7874 636
67.80751 683
67.82763 712
67.84774 743
67.86785 725
67.88797 751
67.90808 743
67.92819 743
67.94831 746
67.96842 806
67.98853 870
68.00865 1023
68.02876 1064
68.04888 1170
68.06899 1168
68.0891 1223
68.10922 1225
68.12933 1104
68.14944 1012
68.16956 990
68.18967 1020
68.20979 1068
68.2299 1100
68.25001 1085
68.27013 1070
68.29024 1006
68.31035 888
68.33047 703
68.35058 619
68.3707 521
68.39081 543
68.41092 498
68.43104 511
68.45115 425
68.47126 436
68.49138 406
68.51149 364
68.5316 281
68.55172 292
68.57183 230
68.59195 252
68.61206 256
68.63217 255
68.65229 232
68.6724 220
68.69251 220
68.71263 237
68.73274 234
68.75286 222
68.77297 210
68.79308 223
68.8132 200
68.83331 197
68.85342 237
68.87354 209
68.89365 230
68.91376 219
68.93388 219
68.95399 202
68.97411 187
68.99422 210
69.01433 211
69.03445 233
69.05456 196
69.07467 197
69.09479 199
69.1149 206
69.13502 184
69.15513 212
69.17524 202
69.19536 191
69.21547 189
69.23558 196
69.2557 192
69.27581 208
69.29593 206
69.31604 215
69.33615 194
69.35627 216
69.37638 228
69.39649 228
69.41661 201
69.43672 221
69.45683 209
69.47695 179
69.49706 196
69.51718 202
69.53729 199
69.5574 194
69.57752 174
69.59763 214
69.61774 192
69.63786 209
69.65797 200
69.67809 181
69.6982 193
69.71831 204
69.73843 215
69.75854 183
69.77865 204
69.79877 200
69.81888 215
69.839 193
69.85911 202
69.87922 190
69.89934 192
69.91945 200
69.93956 183
69.95968 190
69.97979 206
69.9999 204
70.02002 207
70.04013 199
70.06025 207
70.08036 189
70.10047 189
70.12059 203
70.1407 177
70.16081 192
70.18093 185
70.20104 201
70.22116 165
70.24127 199
70.26138 175
70.2815 181
70.30161 171
70.32172 182
70.34184 176
70.36195 189
70.38207 182
70.40218 163
70.42229 191
70.44241 161
70.46252 209
70.48263 176
70.50275 188
70.52286 164
70.54297 205
70.56309 175
70.5832 213
70.60332 191
70.62343 200
70.64354 200
70.66366 208
70.68377 213
70.70388 201
70.724 187
70.74411 213
70.76423 198
70.78434 204
70.80445 188
70.82457 182
70.84468 160
70.86479 188
70.88491 192
70.90502 180
70.92513 190
70.94525 197
70.96536 188
70.98548 189
71.00559 193
71.0257 192
71.04582 183
71.06593 195
71.08604 193
71.10616 186
71.12627 174
71.14639 208
71.1665 190
71.18661 145
71.20673 201
71.22684 169
71.24695 198
71.26707 199
71.28718 203
71.3073 205
71.32741 174
71.34752 172
71.36764 194
71.38775 207
71.40786 187
71.42798 183
71.44809 217
71.4682 201
71.48832 196
71.50843 194
71.52855 219
71.54866 207
71.56877 201
71.58889 186
71.609 217
71.62911 211
71.64923 213
71.66934 246
71.68946 185
71.70957 178
71.72968 191
71.7498 199
71.76991 204
71.79002 173
71.81014 199
71.83025 205
71.85037 219
71.87048 186
71.89059 201
71.91071 208
71.93082 194
71.95093 198
71.97105 178
71.99116 162
72.01127 201
72.03139 189
72.0515 216
72.07162 229
72.09173 197
72.11184 206
72.13196 197
72.15207 206
72.17218 220
72.1923 220
72.21241 230
72.23253 205
72.25264 207
72.27275 212
72.29287 204
72.31298 185
72.33309 201
72.35321 221
72.37332 215
72.39344 228
72.41355 209
72.43366 188
72.45378 194
72.47389 188
72.494 204
72.51412 194
72.53423 220
72.55434 224
72.57446 217
72.59457 189
72.61469 212
72.6348 208
72.65491 203
72.67503 198
72.69514 201
72.71525 218
72.73537 191
72.75548 173
72.7756 226
72.79571 216
72.81582 219
72.83594 205
72.85605 199
72.87616 203
72.89628 201
72.91639 226
72.9365 201
72.95662 202
72.97673 206
72.99685 239
73.01696 233
73.03707 243
73.05719 247
73.0773 244
73.09741 256
73.11753 243
73.13764 217
73.15776 269
73.17787 280
73.19798 269
73.2181 284
73.23821 283
73.25832 312
73.27844 355
73.29855 376
73.31867 377
73.33878 393
73.35889 426
73.37901 454
73.39912 443
73.41923 434
73.43935 416
73.45946 395
73.47957 368
73.49969 314
73.5198 308
73.53992 301
73.56003 306
73.58014 327
73.60026 339
73.62037 315
73.64048 337
73.6606 315
73.68071 278
73.70083 263
73.72094 208
73.74105 214
73.76117 204
73.78128 229
73.80139 213
73.82151 228
73.84162 211
73.86174 212
73.88185 190
73.90196 196
73.92208 202
73.94219 230
73.9623 205
73.98242 195
74.00253 187
74.02264 201
74.04276 212
74.06287 167
74.08299 218
74.1031 192
74.12321 204
74.14333 212
74.16344 203
74.18355 224
74.20367 196
74.22378 193
74.2439 206
74.26401 193
74.28412 193
74.30424 210
74.32435 230
74.34446 198
74.36458 197
74.38469 155
74.40481 202
74.42492 201
74.44503 221
74.46515 231
74.48526 211
74.50537 212
74.52549 192
74.5456 197
74.56571 222
74.58583 217
74.60594 219
74.62606 238
74.64617 194
74.66628 221
74.6864 201
74.70651 208
74.72662 221
74.74674 215
74.76685 228
74.78697 224
74.80708 213
74.82719 183
74.84731 209
74.86742 234
74.88753 208
74.90765 233
74.92776 226
74.94787 189
74.96799 221
74.9881 233
75.00822 210
