3.00117 21559
3.02128 21170
3.0414 20122
3.06151 19937
3.08162 19297
3.10174 18962
3.12185 18387
3.14197 17946
3.16208 17647
3.18219 17033
3.20231 16068
3.22242 15713
3.24253 15173
3.26265 14742
3.28276 14501
3.30288 13959
3.32299 13718
3.3431 13203
3.36322 12891
3.38333 12421
3.40344 12000
3.42356 11526
3.44367 10821
3.46379 10727
3.4839 10563
3.50401 10102
3.52413 9936
3.54424 9318
3.56435 9133
3.58447 8848
3.60458 8717
3.62469 8339
3.64481 7855
3.66492 7603
3.68504 7443
3.70515 7178
3.72526 6732
3.74538 6451
3.76549 6581
3.7856 6205
3.80572 5887
3.82583 5798
3.84595 5291
3.86606 5023
3.88617 5005
3.90629 4875
3.9264 4959
3.94651 4395
3.96663 4214
3.98674 4160
4.00686 3968
4.02697 4013
4.04708 3468
4.0672 3539
4.08731 3380
4.10742 3209
4.12754 3202
4.14765 2875
4.16776 2858
4.18788 2798
4.20799 2571
4.22811 2631
4.24822 2451
4.26833 2361
4.28845 2383
4.30856 2152
4.32867 2158
4.34879 2122
4.3689 1968
4.38902 2050
4.40913 1911
4.42924 1949
4.44936 1804
4.46947 1807
4.48958 1836
4.5097 1757
4.52981 1762
4.54992 1660
4.57004 1649
4.59015 1649
4.61027 1598
4.63038 1545
4.65049 1441
4.67061 1527
4.69072 1472
4.71083 1387
4.73095 1422
4.75106 1334
4.77118 1328
4.79129 1346
4.8114 1313
4.83152 1281
4.85163 1216
4.87174 1201
4.89186 1171
4.91197 1161
4.93209 1172
4.9522 1199
4.97231 1147
4.99243 1070
5.01254 1090
5.03265 1085
5.05277 1087
5.07288 1028
5.09299 947
5.11311 1055
5.13322 982
5.15334 928
5.17345 898
5.19356 979
5.21368 955
5.23379 914
5.2539 902
5.27402 891
5.29413 897
5.31425 899
5.33436 766
5.35447 893
5.37459 774
5.3947 807
5.41481 779
5.43493 793
5.45504 777
5.47516 804
5.49527 745
5.51538 713
5.5355 740
5.55561 669
5.57572 711
5.59584 713
5.61595 643
5.63606 655
5.65618 697
5.67629 667
5.69641 689
5.71652 734
5.73663 627
5.75675 694
5.77686 676
5.79697 635
5.81709 628
5.8372 615
5.85732 604
5.87743 615
5.89754 606
5.91766 623
5.93777 585
5.95788 605
5.978 620
5.99811 587
6.01823 573
6.03834 599
6.05845 587
6.07857 570
6.09868 595
6.11879 609
6.13891 585
6.15902 612
6.17913 546
6.19925 571
6.21936 598
6.23948 559
6.25959 554
6.2797 534
6.29982 545
6.31993 562
6.34004 567
6.36016 533
6.38027 529
6.40039 604
6.4205 535
6.44061 545
6.46073 511
6.48084 540
6.50095 576
6.52107 523
6.54118 509
6.56129 530
6.58141 538
6.60152 528
6.62164 524
6.64175 536
6.66186 548
6.68198 521
6.70209 533
6.7222 570
6.74232 476
6.76243 534
6.78255 565
6.80266 548
6.82277 553
6.84289 551
6.863 536
6.88311 563
6.90323 505
6.92334 540
6.94346 561
6.96357 550
6.98368 495
7.0038 483
7.02391 550
7.04402 527
7.06414 543
7.08425 538
7.10436 512
7.12448 543
7.14459 484
7.16471 554
7.18482 515
7.20493 500
7.22505 529
7.24516 540
7.26527 507
7.28539 525
7.3055 520
7.32562 492
7.34573 495
7.36584 519
7.38596 478
7.40607 520
7.42618 515
7.4463 540
7.46641 548
7.48653 483
7.50664 504
7.52675 485
7.54687 536
7.56698 505
7.58709 512
7.60721 502
7.62732 510
7.64743 530
7.66755 509
7.68766 496
7.70778 550
7.72789 467
7.748 490
7.76812 484
7.78823 532
7.80834 482
7.82846 462
7.84857 557
7.86869 470
7.8888 518
7.90891 552
7.92903 534
7.94914 525
7.96925 478
7.98937 491
8.00948 487
8.0296 483
8.04971 538
8.06982 479
8.08994 504
8.11005 487
8.13016 492
8.15028 505
8.17039 513
8.1905 485
8.21062 455
8.23073 492
8.25085 524
8.27096 470
8.29107 507
8.31119 484
8.3313 524
8.35141 479
8.37153 467
8.39164 472
8.41176 466
8.43187 490
8.45198 495
8.4721 510
8.49221 491
8.51232 569
8.53244 476
8.55255 484
8.57266 532
8.59278 531
8.61289 444
8.63301 515
8.65312 472
8.67323 487
8.69335 470
8.71346 493
8.73357 508
8.75369 533
8.7738 503
8.79392 524
8.81403 501
8.83414 532
8.85426 477
8.87437 472
8.89448 500
8.9146 492
8.93471 515
8.95483 442
8.97494 516
8.99505 513
9.01517 526
9.03528 523
9.05539 479
9.07551 512
9.09562 536
9.11573 513
9.13585 476
9.15596 528
9.17608 544
9.19619 470
9.2163 487
9.23642 531
9.25653 507
9.27664 531
9.29676 510
9.31687 525
9.33699 511
9.3571 492
9.37721 491
9.39733 498
9.41744 495
9.43755 527
9.45767 475
9.47778 509
9.4979 523
9.51801 506
9.53812 512
9.55824 545
9.57835 538
9.59846 506
9.61858 481
9.63869 477
9.6588 495
9.67892 504
9.69903 501
9.71915 543
9.73926 499
9.75937 541
9.77949 472
9.7996 513
9.81971 428
9.83983 538
9.85994 525
9.88006 489
9.90017 508
9.92028 489
9.9404 474
9.96051 465
9.98062 438
10.00074 489
10.02085 441
10.04097 495
10.06108 524
10.08119 509
10.10131 482
10.12142 469
10.14153 465
10.16165 521
10.18176 514
10.20187 492
10.22199 500
10.2421 477
10.26222 501
10.28233 458
10.30244 498
10.32256 458
10.34267 527
10.36278 493
10.3829 495
10.40301 486
10.42313 492
10.44324 503
10.46335 513
10.48347 520
10.50358 533
10.52369 517
10.54381 468
10.56392 524
10.58403 506
10.60415 510
10.62426 462
10.64438 519
10.66449 501
10.6846 494
10.70472 522
10.72483 449
10.74494 496
10.76506 465
10.78517 470
10.80529 498
10.8254 512
10.84551 504
10.86563 556
10.88574 497
10.90585 514
10.92597 535
10.94608 522
10.9662 479
10.98631 525
11.00642 540
11.02654 549
11.04665 499
11.06676 498
11.08688 516
11.10699 496
11.1271 541
11.14722 508
11.16733 519
11.18745 538
11.20756 573
11.22767 540
11.24779 532
11.2679 497
11.28801 519
11.30813 545
11.32824 519
11.34836 539
11.36847 550
11.38858 563
11.4087 532
11.42881 558
11.44892 579
11.46904 561
11.48915 545
11.50927 569
11.52938 597
11.54949 539
11.56961 588
11.58972 590
11.60983 604
11.62995 589
11.65006 620
11.67017 606
11.69029 612
11.7104 602
11.73052 596
11.75063 721
11.77074 629
11.79086 654
11.81097 731
11.83108 718
11.8512 713
11.87131 742
11.89143 763
11.91154 803
11.93165 840
11.95177 841
11.97188 901
11.99199 862
12.01211 972
12.03222 932
12.05234 949
12.07245 1034
12.09256 1168
12.11268 1159
12.13279 1160
12.1529 1310
12.17302 1294
12.19313 1310
12.21324 1483
12.23336 1452
12.25347 1428
12.27359 1526
12.2937 1670
12.31381 1516
12.33393 1487
12.35404 1404
12.37415 1268
12.39427 1310
12.41438 1258
12.4345 1222
12.45461 1095
12.47472 1020
12.49484 1046
12.51495 967
12.53506 915
12.55518 831
12.57529 881
12.5954 811
12.61552 733
12.63563 727
12.65575 731
12.67586 691
12.69597 683
12.71609 636
12.7362 648
12.75631 633
12.77643 586
12.79654 537
12.81666 562
12.83677 593
12.85688 529
12.877 558
12.89711 538
12.91722 477
12.93734 526
12.95745 483
12.97757 533
12.99768 531
13.01779 501
13.03791 532
13.05802 524
13.07813 501
13.09825 469
13.11836 504
13.13847 516
13.15859 510
13.1787 506
13.19882 510
13.21893 521
13.23904 496
13.25916 483
13.27927 485
13.29938 497
13.3195 471
13.33961 518
13.35973 515
13.37984 496
13.39995 493
13.42007 456
13.44018 506
13.46029 464
13.48041 487
13.50052 471
13.52064 487
13.54075 475
13.56086 489
13.58098 475
13.60109 458
13.6212 452
13.64132 480
13.66143 420
13.68154 474
13.70166 470
13.72177 460
13.74189 431
13.762 493
13.78211 480
13.80223 458
13.82234 414
13.84245 463
13.86257 465
13.88268 451
13.9028 464
13.92291 481
13.94302 447
13.96314 422
13.98325 462
14.00336 452
14.02348 444
14.04359 479
14.06371 454
14.08382 448
14.10393 474
14.12405 452
14.14416 425
14.16427 482
14.18439 479
14.2045 435
14.22461 451
14.24473 454
14.26484 444
14.28496 450
14.30507 439
14.32518 432
14.3453 470
14.36541 461
14.38552 466
14.40564 438
14.42575 429
14.44587 466
14.46598 459
14.48609 397
14.50621 447
14.52632 432
14.54643 431
14.56655 463
14.58666 443
14.60677 447
14.62689 466
14.647 448
14.66712 448
14.68723 473
14.70734 461
14.72746 436
14.74757 439
14.76768 491
14.7878 438
14.80791 503
14.82803 434
14.84814 509
14.86825 460
14.88837 399
14.90848 465
14.92859 443
14.94871 436
14.96882 463
14.98894 430
15.00905 452
15.02916 413
15.04928 454
15.06939 468
15.0895 437
15.10962 451
15.12973 424
15.14984 454
15.16996 436
15.19007 436
15.21019 443
15.2303 467
15.25041 432
15.27053 423
15.29064 393
15.31075 434
15.33087 415
15.35098 445
15.3711 420
15.39121 441
15.41132 440
15.43144 447
15.45155 472
15.47166 420
15.49178 444
15.51189 451
15.53201 444
15.55212 471
15.57223 419
15.59235 412
15.61246 407
15.63257 449
15.65269 443
15.6728 469
15.69291 425
15.71303 491
15.73314 461
15.75326 416
15.77337 451
15.79348 448
15.8136 474
15.83371 427
15.85382 406
15.87394 445
15.89405 460
15.91417 430
15.93428 424
15.95439 429
15.97451 447
15.99462 425
16.01473 439
16.03485 425
16.05496 443
16.07508 386
16.09519 446
16.1153 432
16.13542 412
16.15553 457
16.17564 408
16.19576 461
16.21587 450
16.23598 390
16.2561 465
16.27621 445
16.29633 418
16.31644 415
16.33655 464
16.35667 449
16.37678 425
16.39689 469
16.41701 432
16.43712 446
16.45724 435
16.47735 444
16.49746 436
16.51758 425
16.53769 439
16.5578 450
16.57792 449
16.59803 465
16.61814 497
16.63826 422
16.65837 452
16.67849 415
16.6986 440
16.71871 442
16.73883 472
16.75894 451
16.77905 457
16.79917 434
16.81928 457
16.8394 414
16.85951 408
16.87962 406
16.89974 475
16.91985 444
16.93996 403
16.96008 452
16.98019 473
17.00031 442
17.02042 407
17.04053 453
17.06065 429
17.08076 427
17.10087 422
17.12099 436
17.1411 431
17.16121 407
17.18133 386
17.20144 465
17.22156 446
17.24167 433
17.26178 475
17.2819 438
17.30201 404
17.32212 453
17.34224 464
17.36235 433
17.38247 426
17.40258 499
17.42269 427
17.44281 494
17.46292 471
17.48303 399
17.50315 452
17.52326 429
17.54338 460
17.56349 430
17.5836 424
17.60372 432
17.62383 449
17.64394 451
17.66406 471
17.68417 416
17.70428 474
17.7244 440
17.74451 480
17.76463 468
17.78474 452
17.80485 466
17.82497 484
17.84508 494
17.86519 476
17.88531 508
17.90542 445
17.92554 451
17.94565 453
17.96576 491
17.98588 449
18.00599 463
18.0261 423
18.04622 466
18.06633 525
18.08645 477
18.10656 487
18.12667 523
18.14679 543
18.1669 554
18.18701 585
18.20713 715
18.22724 642
18.24735 703
18.26747 672
18.28758 653
18.3077 704
18.32781 644
18.34792 603
18.36804 546
18.38815 522
18.40826 476
18.42838 474
18.44849 495
18.46861 473
18.48872 470
18.50883 424
18.52895 467
18.54906 497
18.56917 501
18.58929 440
18.6094 449
18.62951 448
18.64963 451
18.66974 452
18.68986 447
18.70997 435
18.73008 474
18.7502 387
18.77031 481
18.79042 450
18.81054 433
18.83065 467
18.85077 434
18.87088 451
18.89099 459
18.91111 425
18.93122 468
18.95133 451
18.97145 484
18.99156 459
19.01168 437
19.03179 473
19.0519 467
19.07202 488
19.09213 492
19.11224 434
19.13236 419
19.15247 462
19.17258 468
19.1927 468
19.21281 460
19.23293 481
19.25304 443
19.27315 535
19.29327 492
19.31338 501
19.33349 495
19.35361 505
19.37372 481
19.39384 517
19.41395 508
19.43406 542
19.45418 525
19.47429 530
19.4944 520
19.51452 513
19.53463 579
19.55475 563
19.57486 605
19.59497 563
19.61509 613
19.6352 618
19.65531 684
19.67543 722
19.69554 737
19.71565 766
19.73577 874
19.75588 963
19.776 1042
19.79611 1132
19.81622 1149
19.83634 1088
19.85645 1150
19.87656 1181
19.89668 1196
19.91679 1196
19.93691 1113
19.95702 1076
19.97713 1166
19.99725 1083
20.01736 1126
20.03747 1083
20.05759 1098
20.0777 1095
20.09782 1042
20.11793 1116
20.13804 1069
20.15816 1073
20.17827 1046
20.19838 1064
20.2185 1066
20.23861 1030
20.25872 1099
20.27884 1072
20.29895 1132
20.31907 1138
20.33918 1097
20.35929 1078
20.37941 1129
20.39952 1010
20.41963 1124
20.43975 1054
20.45986 1082
20.47998 1063
20.50009 1069
20.5202 1040
20.54032 1096
20.56043 1014
20.58054 1027
20.60066 1074
20.62077 1086
20.64088 1151
20.661 1084
20.68111 1228
20.70123 1339
20.72134 1373
20.74145 1433
20.76157 1602
20.78168 1772
20.80179 1783
20.82191 1836
20.84202 1901
20.86214 1679
20.88225 1583
20.90236 1329
20.92248 1232
20.94259 1167
20.9627 1074
20.98282 999
21.00293 1004
21.02305 995
21.04316 1003
21.06327 984
21.08339 968
21.1035 997
21.12361 975
21.14373 1018
21.16384 1057
21.18395 1048
21.20407 1053
21.22418 1024
21.2443 1054
21.26441 1015
21.28452 1008
21.30464 1028
21.32475 1052
21.34486 1015
21.36498 1029
21.38509 963
21.40521 942
21.42532 968
21.44543 869
21.46555 969
21.48566 946
21.50577 905
21.52589 912
21.546 963
21.56612 901
21.58623 876
21.60634 895
21.62646 880
21.64657 892
21.66668 836
21.6868 793
21.70691 830
21.72702 805
21.74714 793
21.76725 808
21.78737 794
21.80748 792
21.82759 804
21.84771 795
21.86782 766
21.88793 789
21.90805 751
21.92816 707
21.94828 760
21.96839 791
21.9885 753
22.00862 763
22.02873 783
22.04884 770
22.06896 739
22.08907 709
22.10919 735
22.1293 800
22.14941 737
22.16953 770
22.18964 675
22.20975 730
22.22987 729
22.24998 703
22.27009 644
22.29021 758
22.31032 708
22.33044 671
22.35055 670
22.37066 677
22.39078 699
22.41089 699
22.431 710
22.45112 728
22.47123 675
22.49135 648
22.51146 666
22.53157 664
22.55169 669
22.5718 625
22.59191 619
22.61203 687
22.63214 673
22.65225 650
22.67237 672
22.69248 657
22.7126 640
22.73271 652
22.75282 646
22.77294 696
22.79305 685
22.81316 661
22.83328 609
22.85339 628
22.87351 647
22.89362 672
22.91373 654
22.93385 587
22.95396 670
22.97407 673
22.99419 642
23.0143 617
23.03442 654
23.05453 617
23.07464 653
23.09476 661
23.11487 643
23.13498 607
23.1551 612
23.17521 643
23.19532 588
23.21544 659
23.23555 638
23.25567 602
23.27578 652
23.29589 598
23.31601 636
23.33612 641
23.35623 579
23.37635 580
23.39646 604
23.41658 651
23.43669 584
23.4568 657
23.47692 653
23.49703 632
23.51714 633
23.53726 627
23.55737 699
23.57749 667
23.5976 618
23.61771 647
23.63783 669
23.65794 650
23.67805 661
23.69817 627
23.71828 640
23.73839 661
23.75851 656
23.77862 664
23.79874 627
23.81885 661
23.83896 708
23.85908 679
23.87919 651
23.8993 705
23.91942 640
23.93953 698
23.95965 731
23.97976 682
23.99987 681
24.01999 707
24.0401 759
24.06021 667
24.08033 702
24.10044 734
24.12056 749
24.14067 734
24.16078 761
24.1809 751
24.20101 737
24.22112 713
24.24124 709
24.26135 692
24.28146 746
24.30158 748
24.32169 743
24.34181 728
24.36192 783
24.38203 790
24.40215 742
24.42226 738
24.44237 734
24.46249 840
24.4826 875
24.50272 847
24.52283 859
24.54294 905
24.56306 915
24.58317 925
24.60328 933
24.6234 963
24.64351 1089
24.66362 1047
24.68374 1099
24.70385 1195
24.72397 1093
24.74408 1277
24.76419 1279
24.78431 1294
24.80442 1382
24.82453 1334
24.84465 1313
24.86476 1302
24.88488 1361
24.90499 1279
24.9251 1249
24.94522 1236
24.96533 1189
24.98544 1127
25.00556 1071
25.02567 1096
25.04579 1029
25.0659 1049
25.08601 997
25.10613 988
25.12624 925
25.14635 955
25.16647 883
25.18658 867
25.20669 860
25.22681 881
25.24692 853
25.26704 798
25.28715 834
25.30726 799
25.32738 728
25.34749 707
25.3676 731
25.38772 719
25.40783 700
25.42795 694
25.44806 676
25.46817 649
25.48829 723
25.5084 692
25.52851 709
25.54863 641
25.56874 627
25.58886 616
25.60897 651
25.62908 655
25.6492 681
25.66931 682
25.68942 671
25.70954 597
25.72965 645
25.74976 612
25.76988 649
25.78999 669
25.81011 600
25.83022 603
25.85033 636
25.87045 613
25.89056 634
25.91067 701
25.93079 647
25.9509 620
25.97102 628
25.99113 630
26.01124 628
26.03136 631
26.05147 618
26.07158 651
26.0917 630
26.11181 639
26.13193 680
26.15204 665
26.17215 682
26.19227 670
26.21238 742
26.23249 772
26.25261 717
26.27272 772
26.29283 787
26.31295 809
26.33306 819
26.35318 900
26.37329 986
26.3934 1030
26.41352 1139
26.43363 1371
26.45374 1665
26.47386 2016
26.49397 2442
26.51409 3052
26.5342 3735
26.55431 4220
26.57443 4653
26.59454 4816
26.61465 4630
26.63477 4129
26.65488 3539
26.67499 2858
26.69511 2333
26.71522 1758
26.73534 1393
26.75545 1103
26.77556 961
26.79568 879
26.81579 758
26.8359 740
26.85602 754
26.87613 733
26.89625 740
26.91636 678
26.93647 687
26.95659 652
26.9767 617
26.99681 639
27.01693 671
27.03704 608
27.05716 607
27.07727 577
27.09738 605
27.1175 596
27.13761 597
27.15772 583
27.17784 587
27.19795 565
27.21806 586
27.23818 551
27.25829 554
27.27841 556
27.29852 598
27.31863 591
27.33875 565
27.35886 537
27.37897 585
27.39909 565
27.4192 561
27.43932 569
27.45943 554
27.47954 550
27.49966 569
27.51977 581
27.53988 581
27.56 558
27.58011 579
27.60023 595
27.62034 552
27.64045 567
27.66057 511
27.68068 520
27.70079 558
27.72091 523
27.74102 555
27.76113 538
27.78125 558
27.80136 560
27.82148 529
27.84159 520
27.8617 545
27.88182 528
27.90193 569
27.92204 543
27.94216 560
27.96227 523
27.98239 536
28.0025 508
28.02261 538
28.04273 507
28.06284 553
28.08295 535
28.10307 547
28.12318 467
28.1433 532
28.16341 475
28.18352 499
28.20364 495
28.22375 502
28.24386 506
28.26398 490
28.28409 509
28.3042 525
28.32432 518
28.34443 485
28.36455 510
28.38466 468
28.40477 504
28.42489 486
28.445 532
28.46511 512
28.48523 513
28.50534 502
28.52546 481
28.54557 498
28.56568 511
28.5858 523
28.60591 505
28.62602 496
28.64614 503
28.66625 535
28.68636 514
28.70648 489
28.72659 503
28.74671 520
28.76682 527
28.78693 475
28.80705 498
28.82716 512
28.84727 491
28.86739 505
28.8875 497
28.90762 458
28.92773 515
28.94784 512
28.96796 457
28.98807 460
29.00818 530
29.0283 472
29.04841 478
29.06853 486
29.08864 477
29.10875 520
29.12887 527
29.14898 456
29.16909 487
29.18921 478
29.20932 498
29.22943 486
29.24955 528
29.26966 485
29.28978 499
29.30989 467
29.33 513
29.35012 474
29.37023 477
29.39034 480
29.41046 498
29.43057 495
29.45069 519
29.4708 484
29.49091 535
29.51103 460
29.53114 498
29.55125 509
29.57137 485
29.59148 508
29.6116 495
29.63171 461
29.65182 516
29.67194 470
29.69205 504
29.71216 477
29.73228 516
29.75239 499
29.7725 512
29.79262 504
29.81273 500
29.83285 465
29.85296 505
29.87307 512
29.89319 454
29.9133 503
29.93341 453
29.95353 527
29.97364 458
29.99376 497
30.01387 493
30.03398 480
30.0541 493
30.07421 490
30.09432 481
30.11444 461
30.13455 485
30.15467 487
30.17478 493
30.19489 483
30.21501 474
30.23512 491
30.25523 504
30.27535 496
30.29546 489
30.31557 465
30.33569 487
30.3558 486
30.37592 530
30.39603 473
30.41614 481
30.43626 492
30.45637 517
30.47648 487
30.4966 485
30.51671 472
30.53683 493
30.55694 488
30.57705 478
30.59717 501
30.61728 513
30.63739 487
30.65751 472
30.67762 482
30.69773 434
30.71785 517
30.73796 499
30.75808 451
30.77819 470
30.7983 502
30.81842 494
30.83853 479
30.85864 459
30.87876 477
30.89887 495
30.91899 499
30.9391 464
30.95921 475
30.97933 493
30.99944 498
31.01955 484
31.03967 478
31.05978 452
31.0799 463
31.10001 487
31.12012 537
31.14024 505
31.16035 437
31.18046 466
31.20058 453
31.22069 530
31.2408 488
31.26092 512
31.28103 477
31.30115 433
31.32126 471
31.34137 481
31.36149 446
31.3816 480
31.40171 487
31.42183 443
31.44194 487
31.46206 449
31.48217 496
31.50228 443
31.5224 484
31.54251 489
31.56262 486
31.58274 449
31.60285 465
31.62297 465
31.64308 518
31.66319 495
31.68331 504
31.70342 470
31.72353 515
31.74365 518
31.76376 473
31.78387 512
31.80399 456
31.8241 486
31.84422 441
31.86433 440
31.88444 473
31.90456 468
31.92467 479
31.94478 508
31.9649 516
31.98501 521
32.00513 502
32.02524 483
32.04535 485
32.06547 488
32.08558 486
32.10569 454
32.12581 490
32.14592 511
32.16604 517
32.18615 519
32.20626 535
32.22638 502
32.24649 485
32.2666 519
32.28672 514
32.30683 521
32.32694 503
32.34706 503
32.36717 518
32.38729 588
32.4074 571
32.42751 571
32.44763 562
32.46774 561
32.48785 601
32.50797 591
32.52808 596
32.5482 609
32.56831 599
32.58842 601
32.60854 601
32.62865 558
32.64876 592
32.66888 584
32.68899 585
32.7091 547
32.72922 563
32.74933 601
32.76945 587
32.78956 615
32.80967 579
32.82979 555
32.8499 632
32.87001 581
32.89013 632
32.91024 612
32.93036 622
32.95047 619
32.97058 685
32.9907 656
33.01081 630
33.03092 657
33.05104 670
33.07115 687
33.09127 686
33.11138 728
33.13149 668
33.15161 751
33.17172 694
33.19183 706
33.21195 626
33.23206 734
33.25217 639
33.27229 678
33.2924 625
33.31252 636
33.33263 642
33.35274 642
33.37286 645
33.39297 580
33.41308 606
33.4332 595
33.45331 583
33.47343 593
33.49354 588
33.51365 600
33.53377 587
33.55388 615
33.57399 533
33.59411 555
33.61422 602
33.63434 591
33.65445 555
33.67456 560
33.69468 596
33.71479 534
33.7349 572
33.75502 546
33.77513 537
33.79524 499
33.81536 511
33.83547 540
33.85559 494
33.8757 494
33.89581 492
33.91593 481
33.93604 518
33.95615 546
33.97627 561
33.99638 541
34.0165 537
34.03661 482
34.05672 499
34.07684 499
34.09695 501
34.11706 498
34.13718 521
34.15729 504
34.17741 497
34.19752 537
34.21763 532
34.23775 527
34.25786 530
34.27797 517
34.29809 525
34.3182 489
34.33831 508
34.35843 511
34.37854 475
34.39866 476
34.41877 519
34.43888 551
34.459 509
34.47911 552
34.49922 514
34.51934 548
34.53945 544
34.55957 544
34.57968 637
34.59979 547
34.61991 611
34.64002 636
34.66013 634
34.68025 620
34.70036 656
34.72047 695
34.74059 730
34.7607 804
34.78082 788
34.80093 750
34.82104 816
34.84116 858
34.86127 890
34.88138 867
34.9015 852
34.92161 880
34.94173 860
34.96184 822
34.98195 857
35.00207 815
35.02218 789
35.04229 792
35.06241 785
35.08252 781
35.10264 792
35.12275 842
35.14286 825
35.16298 805
35.18309 790
35.2032 806
35.22332 823
35.24343 791
35.26354 788
35.28366 829
35.30377 819
35.32389 759
35.344 805
35.36411 843
35.38423 834
35.40434 832
35.42445 875
35.44457 807
35.46468 865
35.4848 888
35.50491 773
35.52502 862
35.54514 928
35.56525 893
35.58536 918
35.60548 931
35.62559 942
35.64571 903
35.66582 973
35.68593 1010
35.70605 962
35.72616 1108
35.74627 1041
35.76639 992
35.7865 1015
35.80661 966
35.82673 967
35.84684 953
35.86696 926
35.88707 967
35.90718 860
35.9273 875
35.94741 870
35.96752 913
35.98764 796
36.00775 877
36.02787 757
36.04798 757
36.06809 744
36.08821 701
36.10832 718
36.12843 670
36.14855 674
36.16866 712
36.18878 682
36.20889 692
36.229 687
36.24912 664
36.26923 677
36.28934 681
36.30946 683
36.32957 707
36.34968 748
36.3698 691
36.38991 762
36.41003 826
36.43014 846
36.45025 894
36.47037 871
36.49048 937
36.51059 900
36.53071 882
36.55082 873
36.57094 794
36.59105 801
36.61116 767
36.63128 679
36.65139 667
36.6715 693
36.69162 691
36.71173 644
36.73184 668
36.75196 681
36.77207 652
36.79219 659
36.8123 685
36.83241 662
36.85253 621
36.87264 675
36.89275 726
36.91287 629
36.93298 663
36.9531 664
36.97321 637
36.99332 733
37.01344 723
37.03355 670
37.05366 642
37.07378 695
37.09389 695
37.11401 621
37.13412 637
37.15423 642
37.17435 639
37.19446 642
37.21457 617
37.23469 637
37.2548 628
37.27491 629
37.29503 707
37.31514 628
37.33526 630
37.35537 638
37.37548 656
37.3956 643
37.41571 594
37.43582 628
37.45594 654
37.47605 666
37.49617 699
37.51628 685
37.53639 669
37.55651 663
37.57662 689
37.59673 670
37.61685 727
37.63696 743
37.65708 705
37.67719 750
37.6973 738
37.71742 730
37.73753 688
37.75764 728
37.77776 687
37.79787 685
37.81798 672
37.8381 748
37.85821 683
37.87833 776
37.89844 666
37.91855 707
37.93867 734
37.95878 665
37.97889 737
37.99901 708
38.01912 709
38.03924 744
38.05935 776
38.07946 780
38.09958 733
38.11969 780
38.1398 870
38.15992 805
38.18003 878
38.20015 808
38.22026 839
38.24037 839
38.26049 923
38.2806 899
38.30071 873
38.32083 938
38.34094 887
38.36105 877
38.38117 924
38.40128 913
38.4214 858
38.44151 884
38.46162 913
38.48174 862
38.50185 825
38.52196 815
38.54208 839
38.56219 800
38.58231 815
38.60242 796
38.62253 746
38.64265 748
38.66276 747
38.68287 819
38.70299 718
38.7231 763
38.74321 722
38.76333 684
38.78344 738
38.80356 703
38.82367 656
38.84378 735
38.8639 697
38.88401 733
38.90412 705
38.92424 729
38.94435 704
38.96447 731
38.98458 680
39.00469 682
39.02481 796
39.04492 776
39.06503 736
39.08515 728
39.10526 713
39.12538 790
39.14549 706
39.1656 755
39.18572 735
39.20583 680
39.22594 723
39.24606 735
39.26617 733
39.28628 758
39.3064 811
39.32651 759
39.34663 775
39.36674 830
39.38685 841
39.40697 832
39.42708 851
39.44719 794
39.46731 842
39.48742 799
39.50754 686
39.52765 665
39.54776 674
39.56788 616
39.58799 598
39.6081 543
39.62822 565
39.64833 568
39.66845 481
39.68856 517
39.70867 534
39.72879 516
39.7489 561
39.76901 575
39.78913 538
39.80924 560
39.82935 583
39.84947 517
39.86958 561
39.8897 545
39.90981 526
39.92992 516
39.95004 523
39.97015 615
39.99026 576
40.01038 551
40.03049 546
40.05061 571
40.07072 565
40.09083 597
40.11095 638
40.13106 624
40.15117 616
40.17129 660
40.1914 691
40.21152 722
40.23163 720
40.25174 683
40.27186 665
40.29197 669
40.31208 661
40.3322 657
40.35231 654
40.37242 627
40.39254 611
40.41265 567
40.43277 597
40.45288 608
40.47299 587
40.49311 576
40.51322 570
40.53333 546
40.55345 566
40.57356 583
40.59368 570
40.61379 549
40.6339 563
40.65402 563
40.67413 603
40.69424 585
40.71436 593
40.73447 577
40.75458 562
40.7747 551
40.79481 613
40.81493 552
40.83504 554
40.85515 568
40.87527 627
40.89538 573
40.91549 622
40.93561 611
40.95572 598
40.97584 600
40.99595 585
41.01606 565
41.03618 591
41.05629 553
41.0764 564
41.09652 609
41.11663 623
41.13675 601
41.15686 565
41.17697 589
41.19709 555
41.2172 556
41.23731 537
41.25743 559
41.27754 566
41.29765 525
41.31777 529
41.33788 562
41.358 527
41.37811 556
41.39822 572
41.41834 546
41.43845 550
41.45856 509
41.47868 515
41.49879 531
41.51891 531
41.53902 536
41.55913 544
41.57925 534
41.59936 542
41.61947 488
41.63959 525
41.6597 512
41.67982 553
41.69993 526
41.72004 517
41.74016 517
41.76027 543
41.78038 481
41.8005 542
41.82061 544
41.84072 516
41.86084 513
41.88095 489
41.90107 471
41.92118 449
41.94129 542
41.96141 517
41.98152 477
42.00163 516
42.02175 459
42.04186 480
42.06198 517
42.08209 521
42.1022 497
42.12232 493
42.14243 530
42.16254 463
42.18266 497
42.20277 504
42.22289 544
42.243 515
42.26311 563
42.28323 540
42.30334 554
42.32345 591
42.34357 651
42.36368 646
42.38379 645
42.40391 646
42.42402 618
42.44414 591
42.46425 541
42.48436 572
42.50448 539
42.52459 530
42.5447 513
42.56482 486
42.58493 497
42.60505 497
42.62516 467
42.64527 470
42.66539 461
42.6855 454
42.70561 484
42.72573 471
42.74584 467
42.76595 475
42.78607 473
42.80618 477
42.8263 460
42.84641 506
42.86652 424
42.88664 422
42.90675 445
42.92686 473
42.94698 465
42.96709 472
42.98721 443
43.00732 450
43.02743 465
43.04755 475
43.06766 460
43.08777 491
43.10789 465
43.128 472
43.14812 465
43.16823 501
43.18834 475
43.20846 472
43.22857 493
43.24868 454
43.2688 426
43.28891 451
43.30902 416
43.32914 494
43.34925 414
43.36937 467
43.38948 472
43.40959 437
43.42971 483
43.44982 468
43.46993 442
43.49005 506
43.51016 466
43.53028 478
43.55039 454
43.5705 463
43.59062 471
43.61073 493
43.63084 511
43.65096 441
43.67107 434
43.69119 447
43.7113 488
43.73141 472
43.75153 464
43.77164 460
43.79175 478
43.81187 475
43.83198 470
43.85209 484
43.87221 483
43.89232 448
43.91244 483
43.93255 448
43.95266 478
43.97278 464
43.99289 453
44.013 500
44.03312 488
44.05323 480
44.07335 472
44.09346 471
44.11357 472
44.13369 472
44.1538 491
44.17391 495
44.19403 497
44.21414 497
44.23426 472
44.25437 484
44.27448 497
44.2946 484
44.31471 477
44.33482 471
44.35494 443
44.37505 482
44.39516 426
44.41528 480
44.43539 474
44.45551 446
44.47562 515
44.49573 509
44.51585 477
44.53596 483
44.55607 476
44.57619 483
44.5963 465
44.61642 465
44.63653 475
44.65664 477
44.67676 474
44.69687 477
44.71698 474
44.7371 481
44.75721 493
44.77732 451
44.79744 483
44.81755 454
44.83767 505
44.85778 523
44.87789 506
44.89801 452
44.91812 464
44.93823 440
44.95835 515
44.97846 523
44.99858 489
45.01869 536
45.0388 509
45.05892 495
45.07903 527
45.09914 521
45.11926 473
45.13937 515
45.15949 546
45.1796 539
45.19971 585
45.21983 511
45.23994 580
45.26005 555
45.28017 576
45.30028 583
45.32039 593
45.34051 567
45.36062 574
45.38074 594
45.40085 579
45.42096 593
45.44108 630
45.46119 594
45.4813 538
45.50142 618
45.52153 623
45.54165 591
45.56176 565
45.58187 590
45.60199 624
45.6221 596
45.64221 613
45.66233 590
45.68244 674
45.70256 633
45.72267 633
45.74278 625
45.7629 652
45.78301 613
45.80312 646
45.82324 593
45.84335 569
45.86346 543
45.88358 608
45.90369 555
45.92381 500
45.94392 560
45.96403 585
45.98415 517
46.00426 528
46.02437 521
46.04449 547
46.0646 559
46.08472 512
46.10483 500
46.12494 461
46.14506 495
46.16517 480
46.18528 496
46.2054 536
46.22551 491
46.24563 557
46.26574 524
46.28585 496
46.30597 460
46.32608 503
46.34619 524
46.36631 548
46.38642 516
46.40653 496
46.42665 522
46.44676 483
46.46688 476
46.48699 531
46.5071 497
46.52722 501
46.54733 508
46.56744 508
46.58756 465
46.60767 528
46.62779 504
46.6479 526
46.66801 470
46.68813 500
46.70824 528
46.72835 525
46.74847 512
46.76858 517
46.78869 521
46.80881 465
46.82892 509
46.84904 540
46.86915 507
46.88926 510
46.90938 487
46.92949 501
46.9496 483
46.96972 502
46.98983 496
47.00995 531
47.03006 503
47.05017 531
47.07029 493
47.0904 491
47.11051 526
47.13063 522
47.15074 459
47.17086 468
47.19097 511
47.21108 481
47.2312 494
47.25131 510
47.27142 501
47.29154 475
47.31165 523
47.33176 514
47.35188 521
47.37199 496
47.39211 479
47.41222 490
47.43233 509
47.45245 479
47.47256 515
47.49267 516
47.51279 496
47.5329 513
47.55302 486
47.57313 476
47.59324 474
47.61336 471
47.63347 506
47.65358 492
47.6737 518
47.69381 564
47.71393 510
47.73404 556
47.75415 514
47.77427 488
47.79438 511
47.81449 532
47.83461 517
47.85472 484
47.87483 492
47.89495 487
47.91506 508
47.93518 510
47.95529 535
47.9754 522
47.99552 493
48.01563 503
48.03574 512
48.05586 508
48.07597 501
48.09609 496
48.1162 512
48.13631 486
48.15643 500
48.17654 512
48.19665 479
48.21677 523
48.23688 428
48.257 506
48.27711 479
48.29722 503
48.31734 490
48.33745 487
48.35756 487
48.37768 476
48.39779 504
48.4179 506
48.43802 482
48.45813 507
48.47825 514
48.49836 502
48.51847 463
48.53859 513
48.5587 493
48.57881 515
48.59893 502
48.61904 530
48.63916 471
48.65927 492
48.67938 527
48.6995 491
48.71961 522
48.73972 476
48.75984 526
48.77995 507
48.80006 500
48.82018 514
48.84029 523
48.86041 495
48.88052 517
48.90063 509
48.92075 505
48.94086 528
48.96097 504
48.98109 536
49.0012 492
49.02132 516
49.04143 536
49.06154 488
49.08166 511
49.10177 502
49.12188 519
49.142 512
49.16211 552
49.18223 554
49.20234 572
49.22245 538
49.24257 531
49.26268 529
49.28279 580
49.30291 549
49.32302 569
49.34313 557
49.36325 586
49.38336 534
49.40348 568
49.42359 533
49.4437 555
49.46382 559
49.48393 525
49.50404 547
49.52416 579
49.54427 549
49.56439 549
49.5845 564
49.60461 525
49.62473 567
49.64484 553
49.66495 551
49.68507 539
49.70518 582
49.7253 533
49.74541 533
49.76552 510
49.78564 545
49.80575 511
49.82586 550
49.84598 536
49.86609 588
49.8862 521
49.90632 610
49.92643 618
49.94655 621
49.96666 685
49.98677 723
50.00689 766
50.027 793
50.04711 877
50.06723 909
50.08734 820
50.10746 852
50.12757 779
50.14768 744
50.1678 740
50.18791 668
50.20802 669
50.22814 656
50.24825 639
50.26837 601
50.28848 519
50.30859 520
50.32871 519
50.34882 501
50.36893 504
50.38905 483
50.40916 493
50.42927 530
50.44939 504
50.4695 536
50.48962 501
50.50973 516
50.52984 500
50.54996 519
50.57007 539
50.59018 526
50.6103 479
50.63041 493
50.65053 514
50.67064 528
50.69075 480
50.71087 505
50.73098 496
50.75109 498
50.77121 461
50.79132 497
50.81143 468
50.83155 504
50.85166 462
50.87178 465
50.89189 495
50.912 521
50.93212 487
50.95223 502
50.97234 482
50.99246 460
51.01257 482
51.03269 472
51.0528 473
51.07291 479
51.09303 508
51.11314 451
51.13325 472
51.15337 489
51.17348 485
51.1936 461
51.21371 470
51.23382 475
51.25394 474
51.27405 443
51.29416 485
51.31428 454
51.33439 441
51.3545 451
51.37462 476
51.39473 444
51.41485 439
51.43496 434
51.45507 436
51.47519 463
51.4953 444
51.51541 453
51.53553 448
51.55564 443
51.57576 465
51.59587 479
51.61598 468
51.6361 441
51.65621 446
51.67632 443
51.69644 464
51.71655 462
51.73667 436
51.75678 446
51.77689 440
51.79701 452
51.81712 515
51.83723 454
51.85735 468
51.87746 450
51.89757 424
51.91769 456
51.9378 443
51.95792 474
51.97803 436
51.99814 459
52.01826 453
52.03837 470
52.05848 461
52.0786 470
52.09871 439
52.11883 486
52.13894 473
52.15905 465
52.17917 450
52.19928 485
52.21939 441
52.23951 475
52.25962 447
52.27974 505
52.29985 484
52.31996 512
52.34008 487
52.36019 510
52.3803 475
52.40042 427
52.42053 472
52.44064 463
52.46076 469
52.48087 462
52.50099 500
52.5211 424
52.54121 468
52.56133 477
52.58144 434
52.60155 474
52.62167 472
52.64178 509
52.6619 464
52.68201 470
52.70212 512
52.72224 489
52.74235 431
52.76246 456
52.78258 418
52.80269 449
52.8228 445
52.84292 485
52.86303 484
52.88315 462
52.90326 489
52.92337 492
52.94349 499
52.9636 490
52.98371 547
53.00383 491
53.02394 494
53.04406 501
53.06417 472
53.08428 488
53.1044 509
53.12451 492
53.14462 498
53.16474 502
53.18485 507
53.20497 510
53.22508 514
53.24519 485
53.26531 525
53.28542 486
53.30553 532
53.32565 490
53.34576 550
53.36587 509
53.38599 527
53.4061 541
53.42622 506
53.44633 476
53.46644 572
53.48656 549
53.50667 545
53.52678 569
53.5469 547
53.56701 553
53.58713 553
53.60724 547
53.62735 570
53.64747 539
53.66758 558
53.68769 584
53.70781 561
53.72792 555
53.74804 583
53.76815 589
53.78826 621
53.80838 614
53.82849 637
53.8486 586
53.86872 615
53.88883 671
53.90894 656
53.92906 624
53.94917 634
53.96929 675
53.9894 610
54.00951 602
54.02963 659
54.04974 718
54.06985 641
54.08997 684
54.11008 673
54.1302 681
54.15031 670
54.17042 724
54.19054 639
54.21065 703
54.23076 670
54.25088 725
54.27099 744
54.29111 694
54.31122 728
54.33133 694
54.35145 687
54.37156 701
54.39167 675
54.41179 628
54.4319 666
54.45201 650
54.47213 677
54.49224 664
54.51236 671
54.53247 675
54.55258 689
54.5727 666
54.59281 712
54.61292 642
54.63304 675
54.65315 664
54.67327 660
54.69338 659
54.71349 714
54.73361 696
54.75372 726
54.77383 719
54.79395 725
54.81406 754
54.83417 771
54.85429 655
54.8744 732
54.89452 712
54.91463 700
54.93474 758
54.95486 717
54.97497 721
54.99508 686
55.0152 669
55.03531 655
55.05543 636
55.07554 668
55.09565 674
55.11577 652
55.13588 644
55.15599 629
55.17611 627
55.19622 656
55.21634 668
55.23645 668
55.25656 691
55.27668 654
55.29679 675
55.3169 670
55.33702 619
55.35713 711
55.37724 654
55.39736 614
55.41747 583
55.43759 615
55.4577 602
55.47781 601
55.49793 563
55.51804 580
55.53815 591
55.55827 584
55.57838 602
55.5985 582
55.61861 555
55.63872 593
55.65884 569
55.67895 554
55.69906 620
55.71918 546
55.73929 514
55.75941 531
55.77952 543
55.79963 514
55.81975 559
55.83986 573
55.85997 532
55.88009 564
55.9002 568
55.92031 527
55.94043 557
55.96054 504
55.98066 544
56.00077 543
56.02088 562
56.041 549
56.06111 547
56.08122 527
56.10134 548
56.12145 544
56.14157 546
56.16168 510
56.18179 531
56.20191 553
56.22202 561
56.24213 561
56.26225 535
56.28236 565
56.30248 528
56.32259 513
56.3427 538
56.36282 534
56.38293 508
56.40304 542
56.42316 549
56.44327 507
56.46338 521
56.4835 528
56.50361 566
56.52373 503
56.54384 528
56.56395 554
56.58407 549
56.60418 491
56.62429 523
56.64441 577
56.66452 524
56.68464 564
56.70475 536
56.72486 502
56.74498 536
56.76509 515
56.7852 487
56.80532 550
56.82543 521
56.84554 497
56.86566 495
56.88577 530
56.90589 512
56.926 513
56.94611 502
56.96623 521
56.98634 490
57.00645 483
57.02657 487
57.04668 496
57.0668 493
57.08691 492
57.10702 532
57.12714 479
57.14725 512
57.16736 496
57.18748 487
57.20759 537
57.22771 501
57.24782 512
57.26793 501
57.28805 506
57.30816 475
57.32827 513
57.34839 471
57.3685 525
57.38861 465
57.40873 508
57.42884 491
57.44896 481
57.46907 480
57.48918 486
57.5093 542
57.52941 528
57.54952 483
57.56964 484
57.58975 504
57.60987 509
57.62998 483
57.65009 533
57.67021 507
57.69032 486
57.71043 478
57.73055 490
57.75066 511
57.77078 526
57.79089 497
57.811 490
57.83112 503
57.85123 522
57.87134 451
57.89146 510
57.91157 511
57.93168 499
57.9518 472
57.97191 519
57.99203 498
58.01214 499
58.03225 525
58.05237 506
58.07248 510
58.09259 497
58.11271 525
58.13282 509
58.15294 520
58.17305 489
58.19316 506
58.21328 503
58.23339 464
58.2535 521
58.27362 487
58.29373 458
58.31385 482
58.33396 461
58.35407 481
58.37419 489
58.3943 491
58.41441 478
58.43453 479
58.45464 508
58.47475 517
58.49487 478
58.51498 460
58.5351 454
58.55521 461
58.57532 465
58.59544 470
58.61555 468
58.63566 461
58.65578 508
58.67589 477
58.69601 483
58.71612 460
58.73623 485
58.75635 522
58.77646 468
58.79657 487
58.81669 493
58.8368 474
58.85691 504
58.87703 465
58.89714 470
58.91726 453
58.93737 498
58.95748 487
58.9776 450
58.99771 454
59.01782 497
59.03794 522
59.05805 449
59.07817 493
59.09828 514
59.11839 495
59.13851 500
59.15862 488
59.17873 455
59.19885 477
59.21896 487
59.23908 482
59.25919 450
59.2793 498
59.29942 491
59.31953 493
59.33964 494
59.35976 507
59.37987 529
59.39998 522
59.4201 539
59.44021 529
59.46033 484
59.48044 525
59.50055 515
59.52067 561
59.54078 573
59.56089 498
59.58101 567
59.60112 504
59.62124 527
59.64135 529
59.66146 554
59.68158 546
59.70169 524
59.7218 612
59.74192 629
59.76203 606
59.78215 653
59.80226 672
59.82237 709
59.84249 775
59.8626 717
59.88271 758
59.90283 737
59.92294 742
59.94305 704
59.96317 673
59.98328 655
60.0034 645
60.02351 611
60.04362 626
60.06374 627
60.08385 596
60.10396 562
60.12408 584
60.14419 566
60.16431 521
60.18442 527
60.20453 470
60.22465 492
60.24476 507
60.26487 480
60.28499 513
60.3051 504
60.32522 532
60.34533 496
60.36544 494
60.38556 438
60.40567 477
60.42578 464
60.4459 475
60.46601 456
60.48612 520
60.50624 451
60.52635 483
60.54647 477
60.56658 483
60.58669 471
60.60681 468
60.62692 484
60.64703 480
60.66715 457
60.68726 464
60.70738 470
60.72749 486
60.7476 440
60.76772 502
60.78783 434
60.80794 455
60.82806 486
60.84817 509
60.86828 459
60.8884 437
60.90851 469
60.92863 465
60.94874 473
60.96885 486
60.98897 532
61.00908 495
61.02919 449
61.04931 464
61.06942 537
61.08954 512
61.10965 484
61.12976 468
61.14988 450
61.16999 468
61.1901 451
61.21022 508
61.23033 437
61.25045 504
61.27056 479
61.29067 477
61.31079 487
61.3309 445
61.35101 480
61.37113 499
61.39124 479
61.41135 498
61.43147 487
61.45158 493
61.4717 499
61.49181 505
61.51192 494
61.53204 490
61.55215 526
61.57226 520
61.59238 549
61.61249 546
61.63261 487
61.65272 513
61.67283 530
61.69295 498
61.71306 534
61.73317 537
61.75329 547
61.7734 511
61.79352 549
61.81363 559
61.83374 595
61.85386 595
61.87397 567
61.89408 607
61.9142 611
61.93431 605
61.95442 699
61.97454 659
61.99465 644
62.01477 678
62.03488 754
62.05499 769
62.07511 751
62.09522 738
62.11533 793
62.13545 754
62.15556 715
62.17568 809
62.19579 799
62.2159 825
62.23602 810
62.25613 821
62.27624 774
62.29636 799
62.31647 785
62.33659 719
62.3567 772
62.37681 737
62.39693 750
62.41704 766
62.43715 693
62.45727 647
62.47738 657
62.49749 637
62.51761 686
62.53772 650
62.55784 596
62.57795 597
62.59806 582
62.61818 625
62.63829 579
62.6584 610
62.67852 583
62.69863 568
62.71875 579
62.73886 580
62.75897 529
62.77909 496
62.7992 536
62.81931 545
62.83943 565
62.85954 556
62.87965 529
62.89977 492
62.91988 519
62.94 519
62.96011 525
62.98022 536
63.00034 521
63.02045 518
63.04056 508
63.06068 538
63.08079 504
63.10091 538
63.12102 565
63.14113 556
63.16125 543
63.18136 578
63.20147 512
63.22159 507
63.2417 503
63.26182 510
63.28193 503
63.30204 543
63.32216 524
63.34227 527
63.36238 512
63.3825 514
63.40261 562
63.42272 524
63.44284 524
63.46295 515
63.48307 510
63.50318 515
63.52329 505
63.54341 518
63.56352 534
63.58363 574
63.60375 508
63.62386 534
63.64398 544
63.66409 563
63.6842 566
63.70432 603
63.72443 566
63.74454 554
63.76466 547
63.78477 583
63.80489 559
63.825 561
63.84511 580
63.86523 594
63.88534 576
63.90545 596
63.92557 571
63.94568 647
63.96579 596
63.98591 622
64.00602 598
64.02614 591
64.04625 566
64.06636 591
64.08648 617
64.10659 597
64.1267 587
64.14682 559
64.16693 590
64.18705 597
64.20716 587
64.22727 569
64.24739 540
64.2675 556
64.28761 555
64.30773 538
64.32784 520
64.34796 537
64.36807 533
64.38818 516
64.4083 515
64.42841 522
64.44852 532
64.46864 534
64.48875 481
64.50886 452
64.52898 504
64.54909 514
64.56921 508
64.58932 526
64.60943 470
64.62955 491
64.64966 490
64.66977 503
64.68989 501
64.71 514
64.73012 510
64.75023 485
64.77034 492
64.79046 469
64.81057 535
64.83068 512
64.8508 493
64.87091 466
64.89102 481
64.91114 482
64.93125 477
64.95137 475
64.97148 495
64.99159 482
65.01171 474
65.03182 484
65.05193 473
65.07205 464
65.09216 465
65.11228 441
65.13239 485
65.1525 443
65.17262 428
65.19273 448
65.21284 467
65.23296 491
65.25307 467
65.27319 450
65.2933 454
65.31341 493
65.33353 444
65.35364 461
65.37375 496
65.39387 450
65.41398 457
65.43409 465
65.45421 458
65.47432 453
65.49444 457
65.51455 446
65.53466 454
65.55478 443
65.57489 445
65.595 489
65.61512 460
65.63523 489
65.65535 465
65.67546 471
65.69557 473
65.71569 459
65.7358 483
65.75591 449
65.77603 465
65.79614 451
65.81626 469
65.83637 456
65.85648 427
65.8766 510
65.89671 446
65.91682 477
65.93694 483
65.95705 444
65.97716 426
65.99728 468
66.01739 444
66.03751 490
66.05762 477
66.07773 454
66.09785 480
66.11796 461
66.13807 474
66.15819 417
66.1783 455
66.19842 465
66.21853 440
66.23864 472
66.25876 422
66.27887 458
66.29898 471
66.3191 445
66.33921 455
66.35933 452
66.37944 492
66.39955 461
66.41967 465
66.43978 440
66.45989 428
66.48001 439
66.50012 444
66.52023 456
66.54035 494
66.56046 482
66.58058 460
66.60069 460
66.6208 474
66.64092 475
66.66103 479
66.68114 463
66.70126 451
66.72137 455
66.74149 458
66.7616 476
66.78171 469
66.80183 488
66.82194 501
66.84205 467
66.86217 431
66.88228 497
66.90239 465
66.92251 462
66.94262 471
66.96274 465
66.98285 444
67.00296 434
67.02308 493
67.04319 483
67.0633 457
67.08342 488
67.10353 488
67.12365 456
67.14376 455
67.16387 470
67.18399 450
67.2041 484
67.22421 462
67.24433 471
67.26444 473
67.28456 473
67.30467 519
67.32478 468
67.3449 469
67.36501 494
67.38512 479
67.40524 485
67.42535 508
67.44546 496
67.46558 499
67.48569 496
67.50581 498
67.52592 527
67.54603 542
67.56615 570
67.58626 600
67.60637 587
67.62649 624
67.6466 595
67.66672 624
67.68683 635
67.70694 610
67.72706 578
67.74717 611
67.76728 538
67.7874 559
67.80751 615
67.82763 622
67.84774 591
67.86785 557
67.88797 594
67.90808 574
67.92819 573
67.94831 626
67.96842 633
67.98853 632
68.00865 678
68.02876 674
68.04888 703
68.06899 677
68.0891 688
68.10922 663
68.12933 676
68.14944 652
68.16956 658
68.18967 634
68.20979 684
68.2299 647
68.25001 689
68.27013 642
68.29024 631
68.31035 614
68.33047 606
68.35058 591
68.3707 567
68.39081 552
68.41092 526
68.43104 505
68.45115 532
68.47126 534
68.49138 514
68.51149 460
68.5316 521
68.55172 435
68.57183 525
68.59195 503
68.61206 485
68.63217 475
68.65229 448
68.6724 441
68.69251 503
68.71263 484
68.73274 461
68.75286 451
68.77297 463
68.79308 484
68.8132 445
68.83331 439
68.85342 468
68.87354 451
68.89365 443
68.91376 458
68.93388 456
68.95399 452
68.97411 493
68.99422 488
69.01433 445
69.03445 449
69.05456 465
69.07467 434
69.09479 436
69.1149 439
69.13502 455
69.15513 474
69.17524 478
69.19536 464
69.21547 433
69.23558 439
69.2557 453
69.27581 486
69.29593 460
69.31604 445
69.33615 443
69.35627 463
69.37638 451
69.39649 425
69.41661 480
69.43672 472
69.45683 447
69.47695 459
69.49706 458
69.51718 495
69.53729 450
69.5574 526
69.57752 447
69.59763 454
69.61774 445
69.63786 462
69.65797 438
69.67809 451
69.6982 478
69.71831 485
69.73843 455
69.75854 506
69.77865 480
69.79877 462
69.81888 449
69.839 521
69.85911 451
69.87922 462
69.89934 498
69.91945 461
69.93956 444
69.95968 482
69.97979 464
69.9999 466
70.02002 458
70.04013 470
70.06025 452
70.08036 470
70.10047 477
70.12059 503
70.1407 496
70.16081 472
70.18093 468
70.20104 485
70.22116 476
70.24127 472
70.26138 446
70.2815 479
70.30161 493
70.32172 476
70.34184 496
70.36195 433
70.38207 461
70.40218 475
70.42229 474
70.44241 466
70.46252 432
70.48263 462
70.50275 410
70.52286 464
70.54297 429
70.56309 469
70.5832 469
70.60332 458
70.62343 463
70.64354 481
70.66366 466
70.68377 448
70.70388 445
70.724 484
70.74411 466
70.76423 448
70.78434 410
70.80445 418
70.82457 416
70.84468 438
70.86479 420
70.88491 454
70.90502 462
70.92513 417
70.94525 451
70.96536 474
70.98548 484
71.00559 485
71.0257 478
71.04582 463
71.06593 431
71.08604 433
71.10616 440
71.12627 461
71.14639 449
71.1665 474
71.18661 466
71.20673 469
71.22684 456
71.24695 434
71.26707 459
71.28718 429
71.3073 442
71.32741 458
71.34752 445
71.36764 456
71.38775 471
71.40786 451
71.42798 458
71.44809 452
71.4682 457
71.48832 444
71.50843 436
71.52855 453
71.54866 484
71.56877 471
71.58889 469
71.609 489
71.62911 463
71.64923 437
71.66934 472
71.68946 486
71.70957 480
71.72968 462
71.7498 466
71.76991 495
71.79002 502
71.81014 466
71.83025 475
71.85037 492
71.87048 482
71.89059 472
71.91071 454
71.93082 470
71.95093 451
71.97105 480
71.99116 487
72.01127 522
72.03139 525
72.0515 472
72.07162 464
72.09173 465
72.11184 477
72.13196 498
72.15207 496
72.17218 489
72.1923 449
72.21241 517
72.23253 504
72.25264 478
72.27275 489
72.29287 487
72.31298 482
72.33309 473
72.35321 495
72.37332 500
72.39344 480
72.41355 454
72.43366 465
72.45378 470
72.47389 446
72.494 455
72.51412 445
72.53423 428
72.55434 452
72.57446 454
72.59457 479
72.61469 487
72.6348 452
72.65491 450
72.67503 468
72.69514 457
72.71525 485
72.73537 462
72.75548 473
72.7756 447
72.79571 472
72.81582 440
72.83594 478
72.85605 455
72.87616 481
72.89628 467
72.91639 479
72.9365 457
72.95662 460
72.97673 477
72.99685 464
73.01696 422
73.03707 439
73.05719 489
73.0773 483
73.09741 492
73.11753 466
73.13764 501
73.15776 538
73.17787 490
73.19798 511
73.2181 475
73.23821 514
73.25832 483
73.27844 528
73.29855 546
73.31867 526
73.33878 529
73.35889 575
73.37901 526
73.39912 566
73.41923 536
73.43935 546
73.45946 531
73.47957 538
73.49969 530
73.5198 544
73.53992 538
73.56003 533
73.58014 499
73.60026 521
73.62037 535
73.64048 534
73.6606 529
73.68071 480
73.70083 511
73.72094 487
73.74105 480
73.76117 468
73.78128 455
73.80139 471
73.82151 485
73.84162 437
73.86174 488
73.88185 492
73.90196 489
73.92208 470
73.94219 493
73.9623 480
73.98242 512
74.00253 497
74.02264 461
74.04276 441
74.06287 442
74.08299 456
74.1031 477
74.12321 469
74.14333 463
74.16344 470
74.18355 470
74.20367 448
74.22378 431
74.2439 448
74.26401 464
74.28412 451
74.30424 480
74.32435 468
74.34446 432
74.36458 426
74.38469 451
74.40481 438
74.42492 442
74.44503 448
74.46515 429
74.48526 485
74.50537 475
74.52549 449
74.5456 433
74.56571 452
74.58583 447
74.60594 424
74.62606 431
74.64617 461
74.66628 477
74.6864 492
74.70651 472
74.72662 424
74.74674 455
74.76685 460
74.78697 469
74.80708 506
74.82719 443
74.84731 431
74.86742 479
74.88753 445
74.90765 446
74.92776 474
74.94787 463
74.96799 447
74.9881 510
75.00822 451
