3.00117 20655
3.02128 20327
3.0414 19516
3.06151 19260
3.08162 18355
3.10174 18251
3.12185 17692
3.14197 16892
3.16208 16795
3.18219 16191
3.20231 15648
3.22242 15150
3.24253 14488
3.26265 14320
3.28276 13786
3.30288 13469
3.32299 13196
3.3431 12524
3.36322 12025
3.38333 11662
3.40344 11453
3.42356 11164
3.44367 10395
3.46379 10304
3.4839 9813
3.50401 9622
3.52413 9368
3.54424 8909
3.56435 8674
3.58447 8318
3.60458 8250
3.62469 7740
3.64481 7286
3.66492 7150
3.68504 6819
3.70515 6559
3.72526 6338
3.74538 5891
3.76549 5866
3.7856 5670
3.80572 5383
3.82583 5318
3.84595 4691
3.86606 4894
3.88617 4416
3.90629 4419
3.9264 4398
3.94651 3795
3.96663 3843
3.98674 3538
4.00686 3557
4.02697 3400
4.04708 3101
4.0672 3033
4.08731 2896
4.10742 2801
4.12754 2727
4.14765 2379
4.16776 2538
4.18788 2343
4.20799 2253
4.22811 2334
4.24822 2000
4.26833 2006
4.28845 1892
4.30856 1981
4.32867 1949
4.34879 1664
4.3689 1773
4.38902 1697
4.40913 1628
4.42924 1661
4.44936 1430
4.46947 1484
4.48958 1387
4.5097 1370
4.52981 1470
4.54992 1336
4.57004 1267
4.59015 1151
4.61027 1243
4.63038 1220
4.65049 1123
4.67061 1123
4.69072 1206
4.71083 1106
4.73095 1057
4.75106 1000
4.77118 1020
4.79129 1003
4.8114 934
4.83152 983
4.85163 892
4.87174 909
4.89186 907
4.91197 891
4.93209 844
4.9522 828
4.97231 802
4.99243 783
5.01254 735
5.03265 799
5.05277 708
5.07288 717
5.09299 701
5.11311 706
5.13322 677
5.15334 589
5.17345 607
5.19356 608
5.21368 615
5.23379 597
5.2539 567
5.27402 553
5.29413 561
5.31425 562
5.33436 557
5.35447 494
5.37459 469
5.3947 509
5.41481 465
5.43493 503
5.45504 480
5.47516 447
5.49527 450
5.51538 464
5.5355 439
5.55561 434
5.57572 383
5.59584 413
5.61595 369
5.63606 381
5.65618 396
5.67629 380
5.69641 385
5.71652 389
5.73663 393
5.75675 334
5.77686 348
5.79697 338
5.81709 366
5.8372 348
5.85732 344
5.87743 350
5.89754 310
5.91766 309
5.93777 320
5.95788 301
5.978 342
5.99811 298
6.01823 345
6.03834 286
6.05845 296
6.07857 265
6.09868 256
6.11879 329
6.13891 293
6.15902 309
6.17913 306
6.19925 317
6.21936 290
6.23948 296
6.25959 268
6.2797 275
6.29982 311
6.31993 286
6.34004 299
6.36016 292
6.38027 255
6.40039 283
6.4205 268
6.44061 248
6.46073 275
6.48084 260
6.50095 297
6.52107 264
6.54118 248
6.56129 283
6.58141 294
6.60152 272
6.62164 253
6.64175 268
6.66186 284
6.68198 269
6.70209 246
6.7222 276
6.74232 255
6.76243 284
6.78255 223
6.80266 263
6.82277 289
6.84289 245
6.863 292
6.88311 273
6.90323 255
6.92334 274
6.94346 234
6.96357 265
6.98368 254
7.0038 261
7.02391 266
7.04402 257
7.06414 292
7.08425 239
7.10436 269
7.12448 285
7.14459 236
7.16471 303
7.18482 259
7.20493 291
7.22505 251
7.24516 245
7.26527 247
7.28539 266
7.3055 262
7.32562 265
7.34573 257
7.36584 250
7.38596 273
7.40607 255
7.42618 302
7.4463 288
7.46641 258
7.48653 258
7.50664 284
7.52675 262
7.54687 259
7.56698 279
7.58709 259
7.60721 280
7.62732 262
7.64743 257
7.66755 243
7.68766 275
7.70778 261
7.72789 248
7.748 248
7.76812 234
7.78823 281
7.80834 239
7.82846 268
7.84857 273
7.86869 279
7.8888 277
7.90891 262
7.92903 270
7.94914 269
7.96925 286
7.98937 240
8.00948 260
8.0296 289
8.04971 284
8.06982 269
8.08994 255
8.11005 248
8.13016 262
8.15028 260
8.17039 274
8.1905 274
8.21062 264
8.23073 261
8.25085 307
8.27096 286
8.29107 285
8.31119 268
8.3313 323
8.35141 268
8.37153 271
8.39164 285
8.41176 310
8.43187 262
8.45198 256
8.4721 278
8.49221 272
8.51232 282
8.53244 309
8.55255 294
8.57266 281
8.59278 280
8.61289 278
8.63301 281
8.65312 236
8.67323 295
8.69335 293
8.71346 265
8.73357 305
8.75369 310
8.7738 274
8.79392 283
8.81403 305
8.83414 312
8.85426 322
8.87437 303
8.89448 331
8.9146 296
8.93471 300
8.95483 288
8.97494 268
8.99505 305
9.01517 306
9.03528 262
9.05539 249
9.07551 270
9.09562 247
9.11573 273
9.13585 266
9.15596 299
9.17608 282
9.19619 255
9.2163 263
9.23642 307
9.25653 249
9.27664 280
9.29676 273
9.31687 302
9.33699 277
9.3571 316
9.37721 271
9.39733 290
9.41744 254
9.43755 284
9.45767 276
9.47778 257
9.4979 291
9.51801 271
9.53812 317
9.55824 268
9.57835 286
9.59846 281
9.61858 291
9.63869 302
9.6588 263
9.67892 270
9.69903 275
9.71915 280
9.73926 274
9.75937 293
9.77949 276
9.7996 285
9.81971 278
9.83983 275
9.85994 268
9.88006 301
9.90017 279
9.92028 278
9.9404 257
9.96051 292
9.98062 270
10.00074 257
10.02085 230
10.04097 257
10.06108 256
10.08119 258
10.10131 264
10.12142 269
10.14153 305
10.16165 241
10.18176 278
10.20187 276
10.22199 256
10.2421 306
10.26222 261
10.28233 264
10.30244 253
10.32256 273
10.34267 265
10.36278 259
10.3829 313
10.40301 271
10.42313 295
10.44324 271
10.46335 264
10.48347 265
10.50358 271
10.52369 292
10.54381 297
10.56392 267
10.58403 288
10.60415 271
10.62426 285
10.64438 254
10.66449 227
10.6846 285
10.70472 268
10.72483 281
10.74494 272
10.76506 295
10.78517 270
10.80529 262
10.8254 278
10.84551 317
10.86563 279
10.88574 281
10.90585 269
10.92597 306
10.94608 255
10.9662 269
10.98631 286
11.00642 290
11.02654 279
11.04665 297
11.06676 244
11.08688 306
11.10699 278
11.1271 299
11.14722 266
11.16733 263
11.18745 269
11.20756 285
11.22767 253
11.24779 298
11.2679 285
11.28801 301
11.30813 306
11.32824 357
11.34836 288
11.36847 325
11.38858 292
11.4087 284
11.42881 283
11.44892 291
11.46904 317
11.48915 311
11.50927 300
11.52938 318
11.54949 309
11.56961 304
11.58972 343
11.60983 269
11.62995 271
11.65006 295
11.67017 331
11.69029 304
11.7104 320
11.73052 320
11.75063 349
11.77074 320
11.79086 357
11.81097 345
11.83108 357
11.8512 360
11.87131 345
11.89143 338
11.91154 346
11.93165 354
11.95177 323
11.97188 404
11.99199 322
12.01211 318
12.03222 363
12.05234 393
12.07245 410
12.09256 364
12.11268 409
12.13279 426
12.1529 396
12.17302 418
12.19313 426
12.21324 444
12.23336 429
12.25347 451
12.27359 476
12.2937 443
12.31381 442
12.33393 444
12.35404 419
12.37415 468
12.39427 424
12.41438 390
12.4345 407
12.45461 371
12.47472 359
12.49484 376
12.51495 331
12.53506 345
12.55518 321
12.57529 320
12.5954 307
12.61552 305
12.63563 343
12.65575 312
12.67586 304
12.69597 320
12.71609 304
12.7362 281
12.75631 275
12.77643 259
12.79654 308
12.81666 288
12.83677 293
12.85688 279
12.877 256
12.89711 280
12.91722 274
12.93734 236
12.95745 280
12.97757 258
12.99768 269
13.01779 265
13.03791 266
13.05802 264
13.07813 295
13.09825 282
13.11836 282
13.13847 268
13.15859 303
13.1787 288
13.19882 294
13.21893 249
13.23904 268
13.25916 294
13.27927 255
13.29938 264
13.3195 230
13.33961 235
13.35973 262
13.37984 293
13.39995 263
13.42007 227
13.44018 264
13.46029 246
13.48041 310
13.50052 289
13.52064 274
13.54075 265
13.56086 291
13.58098 335
13.60109 314
13.6212 325
13.64132 294
13.66143 325
13.68154 282
13.70166 261
13.72177 275
13.74189 268
13.762 207
13.78211 252
13.80223 230
13.82234 237
13.84245 240
13.86257 215
13.88268 230
13.9028 223
13.92291 240
13.94302 244
13.96314 235
13.98325 260
14.00336 247
14.02348 281
14.04359 250
14.06371 227
14.08382 251
14.10393 237
14.12405 215
14.14416 226
14.16427 211
14.18439 256
14.2045 228
14.22461 285
14.24473 194
14.26484 260
14.28496 248
14.30507 238
14.32518 216
14.3453 261
14.36541 221
14.38552 240
14.40564 225
14.42575 215
14.44587 210
14.46598 241
14.48609 209
14.50621 228
14.52632 245
14.54643 235
14.56655 219
14.58666 228
14.60677 224
14.62689 253
14.647 219
14.66712 249
14.68723 248
14.70734 242
14.72746 217
14.74757 242
14.76768 231
14.7878 267
14.80791 252
14.82803 250
14.84814 240
14.86825 281
14.88837 291
14.90848 267
14.92859 257
14.94871 267
14.96882 251
14.98894 233
15.00905 235
15.02916 227
15.04928 231
15.06939 237
15.0895 227
15.10962 223
15.12973 237
15.14984 238
15.16996 222
15.19007 214
15.21019 248
15.2303 268
15.25041 265
15.27053 214
15.29064 230
15.31075 254
15.33087 240
15.35098 221
15.3711 208
15.39121 224
15.41132 246
15.43144 227
15.45155 238
15.47166 211
15.49178 194
15.51189 185
15.53201 229
15.55212 210
15.57223 228
15.59235 207
15.61246 216
15.63257 217
15.65269 223
15.6728 226
15.69291 219
15.71303 216
15.73314 267
15.75326 253
15.77337 211
15.79348 215
15.8136 197
15.83371 192
15.85382 228
15.87394 196
15.89405 237
15.91417 222
15.93428 231
15.95439 188
15.97451 201
15.99462 234
16.01473 232
16.03485 194
16.05496 225
16.07508 224
16.09519 206
16.1153 241
16.13542 230
16.15553 237
16.17564 234
16.19576 213
16.21587 247
16.23598 231
16.2561 226
16.27621 217
16.29633 208
16.31644 232
16.33655 215
16.35667 224
16.37678 211
16.39689 249
16.41701 223
16.43712 226
16.45724 207
16.47735 212
16.49746 243
16.51758 213
16.53769 208
16.5578 206
16.57792 239
16.59803 203
16.61814 233
16.63826 209
16.65837 214
16.67849 219
16.6986 220
16.71871 244
16.73883 200
16.75894 223
16.77905 207
16.79917 223
16.81928 241
16.8394 196
16.85951 212
16.87962 212
16.89974 221
16.91985 209
16.93996 236
16.96008 217
16.98019 186
17.00031 226
17.02042 197
17.04053 214
17.06065 233
17.08076 222
17.10087 216
17.12099 235
17.1411 249
17.16121 234
17.18133 228
17.20144 229
17.22156 214
17.24167 230
17.26178 193
17.2819 197
17.30201 198
17.32212 228
17.34224 233
17.36235 249
17.38247 218
17.40258 216
17.42269 251
17.44281 234
17.46292 212
17.48303 219
17.50315 225
17.52326 239
17.54338 193
17.56349 221
17.5836 233
17.60372 231
17.62383 229
17.64394 218
17.66406 198
17.68417 225
17.70428 251
17.7244 225
17.74451 222
17.76463 216
17.78474 242
17.80485 230
17.82497 201
17.84508 248
17.86519 233
17.88531 220
17.90542 217
17.92554 239
17.94565 196
17.96576 219
17.98588 197
18.00599 227
18.0261 254
18.04622 205
18.06633 231
18.08645 232
18.10656 207
18.12667 230
18.14679 205
18.1669 230
18.18701 213
18.20713 246
18.22724 220
18.24735 216
18.26747 217
18.28758 211
18.3077 227
18.32781 244
18.34792 241
18.36804 239
18.38815 229
18.40826 220
18.42838 214
18.44849 242
18.46861 231
18.48872 224
18.50883 224
18.52895 213
18.54906 208
18.56917 183
18.58929 202
18.6094 218
18.62951 226
18.64963 220
18.66974 210
18.68986 223
18.70997 229
18.73008 219
18.7502 250
18.77031 223
18.79042 219
18.81054 269
18.83065 219
18.85077 188
18.87088 225
18.89099 228
18.91111 220
18.93122 231
18.95133 228
18.97145 204
18.99156 221
19.01168 249
19.03179 229
19.0519 217
19.07202 212
19.09213 197
19.11224 215
19.13236 244
19.15247 234
19.17258 238
19.1927 256
19.21281 287
19.23293 223
19.25304 245
19.27315 274
19.29327 250
19.31338 228
19.33349 255
19.35361 225
19.37372 233
19.39384 244
19.41395 288
19.43406 282
19.45418 253
19.47429 264
19.4944 278
19.51452 236
19.53463 278
19.55475 271
19.57486 267
19.59497 280
19.61509 300
19.6352 288
19.65531 329
19.67543 337
19.69554 393
19.71565 371
19.73577 356
19.75588 437
19.776 435
19.79611 427
19.81622 431
19.83634 439
19.85645 482
19.87656 462
19.89668 468
19.91679 444
19.93691 475
19.95702 473
19.97713 466
19.99725 517
20.01736 418
20.03747 434
20.05759 436
20.0777 438
20.09782 464
20.11793 414
20.13804 449
20.15816 479
20.17827 397
20.19838 433
20.2185 460
20.23861 456
20.25872 440
20.27884 457
20.29895 457
20.31907 465
20.33918 484
20.35929 462
20.37941 455
20.39952 474
20.41963 461
20.43975 502
20.45986 506
20.47998 499
20.50009 557
20.5202 524
20.54032 520
20.56043 587
20.58054 603
20.60066 704
20.62077 743
20.64088 907
20.661 1057
20.68111 1412
20.70123 1807
20.72134 2329
20.74145 3054
20.76157 3787
20.78168 4239
20.80179 4846
20.82191 4659
20.84202 4544
20.86214 4016
20.88225 2998
20.90236 2363
20.92248 1773
20.94259 1518
20.9627 1230
20.98282 1105
21.00293 1038
21.02305 1032
21.04316 843
21.06327 772
21.08339 682
21.1035 549
21.12361 544
21.14373 500
21.16384 543
21.18395 480
21.20407 462
21.22418 468
21.2443 403
21.26441 403
21.28452 438
21.30464 445
21.32475 461
21.34486 457
21.36498 399
21.38509 458
21.40521 418
21.42532 392
21.44543 364
21.46555 371
21.48566 400
21.50577 421
21.52589 369
21.546 378
21.56612 380
21.58623 408
21.60634 357
21.62646 336
21.64657 419
21.66668 374
21.6868 350
21.70691 344
21.72702 326
21.74714 343
21.76725 337
21.78737 338
21.80748 344
21.82759 329
21.84771 365
21.86782 338
21.88793 336
21.90805 336
21.92816 331
21.94828 370
21.96839 387
21.9885 364
22.00862 367
22.02873 371
22.04884 367
22.06896 354
22.08907 351
22.10919 359
22.1293 354
22.14941 363
22.16953 355
22.18964 390
22.20975 371
22.22987 428
22.24998 408
22.27009 424
22.29021 451
22.31032 401
22.33044 411
22.35055 391
22.37066 354
22.39078 355
22.41089 381
22.431 326
22.45112 307
22.47123 349
22.49135 338
22.51146 351
22.53157 318
22.55169 339
22.5718 362
22.59191 350
22.61203 356
22.63214 370
22.65225 337
22.67237 335
22.69248 278
22.7126 320
22.73271 321
22.75282 286
22.77294 295
22.79305 299
22.81316 318
22.83328 310
22.85339 299
22.87351 332
22.89362 321
22.91373 298
22.93385 315
22.95396 330
22.97407 362
22.99419 358
23.0143 380
23.03442 413
23.05453 408
23.07464 456
23.09476 464
23.11487 519
23.13498 515
23.1551 545
23.17521 547
23.19532 495
23.21544 534
23.23555 487
23.25567 417
23.27578 416
23.29589 428
23.31601 367
23.33612 364
23.35623 319
23.37635 331
23.39646 316
23.41658 314
23.43669 334
23.4568 342
23.47692 312
23.49703 339
23.51714 339
23.53726 328
23.55737 357
23.57749 345
23.5976 319
23.61771 374
23.63783 289
23.65794 348
23.67805 357
23.69817 350
23.71828 358
23.73839 356
23.75851 418
23.77862 392
23.79874 441
23.81885 470
23.83896 446
23.85908 525
23.87919 536
23.8993 501
23.91942 565
23.93953 536
23.95965 551
23.97976 551
23.99987 491
24.01999 459
24.0401 427
24.06021 400
24.08033 350
24.10044 393
24.12056 395
24.14067 344
24.16078 402
24.1809 352
24.20101 388
24.22112 378
24.24124 418
24.26135 407
24.28146 407
24.30158 382
24.32169 391
24.34181 400
24.36192 349
24.38203 409
24.40215 375
24.42226 386
24.44237 398
24.46249 371
24.4826 403
24.50272 350
24.52283 384
24.54294 387
24.56306 376
24.58317 368
24.60328 416
24.6234 428
24.64351 458
24.66362 438
24.68374 480
24.70385 513
24.72397 477
24.74408 475
24.76419 477
24.78431 500
24.80442 453
24.82453 447
24.84465 480
24.86476 463
24.88488 463
24.90499 456
24.9251 448
24.94522 436
24.96533 378
24.98544 431
25.00556 399
25.02567 373
25.04579 400
25.0659 401
25.08601 363
25.10613 373
25.12624 377
25.14635 381
25.16647 344
25.18658 377
25.20669 378
25.22681 392
25.24692 379
25.26704 392
25.28715 437
25.30726 390
25.32738 388
25.34749 370
25.3676 400
25.38772 473
25.40783 470
25.42795 544
25.44806 594
25.46817 604
25.48829 624
25.5084 640
25.52851 639
25.54863 640
25.56874 606
25.58886 616
25.60897 676
25.62908 621
25.6492 622
25.66931 543
25.68942 533
25.70954 497
25.72965 511
25.74976 483
25.76988 464
25.78999 473
25.81011 448
25.83022 462
25.85033 456
25.87045 463
25.89056 459
25.91067 466
25.93079 470
25.9509 516
25.97102 467
25.99113 499
26.01124 476
26.03136 592
26.05147 559
26.07158 547
26.0917 549
26.11181 574
26.13193 637
26.15204 680
26.17215 750
26.19227 794
26.21238 862
26.23249 944
26.25261 1068
26.27272 1132
26.29283 1274
26.31295 1427
26.33306 1564
26.35318 1945
26.37329 2350
26.3934 2950
26.41352 3646
26.43363 4719
26.45374 6293
26.47386 8165
26.49397 10627
26.51409 13562
26.5342 16324
26.55431 19138
26.57443 20850
26.59454 21042
26.61465 19488
26.63477 17349
26.65488 14160
26.67499 10513
26.69511 7454
26.71522 5013
26.73534 3368
26.75545 2222
26.77556 1645
26.79568 1359
26.81579 1223
26.8359 1062
26.85602 1038
26.87613 1011
26.89625 1006
26.91636 970
26.93647 960
26.95659 962
26.9767 979
26.99681 1042
27.01693 956
27.03704 980
27.05716 954
27.07727 900
27.09738 817
27.1175 750
27.13761 693
27.15772 710
27.17784 719
27.19795 634
27.21806 715
27.23818 705
27.25829 800
27.27841 882
27.29852 987
27.31863 993
27.33875 1166
27.35886 1148
27.37897 1245
27.39909 1323
27.4192 1383
27.43932 1313
27.45943 1250
27.47954 1119
27.49966 949
27.51977 760
27.53988 658
27.56 553
27.58011 496
27.60023 503
27.62034 419
27.64045 399
27.66057 390
27.68068 418
27.70079 378
27.72091 369
27.74102 369
27.76113 390
27.78125 379
27.80136 329
27.82148 362
27.84159 369
27.8617 363
27.88182 365
27.90193 351
27.92204 373
27.94216 396
27.96227 338
27.98239 355
28.0025 324
28.02261 335
28.04273 333
28.06284 321
28.08295 297
28.10307 295
28.12318 309
28.1433 271
28.16341 347
28.18352 308
28.20364 260
28.22375 302
28.24386 312
28.26398 306
28.28409 343
28.3042 290
28.32432 302
28.34443 292
28.36455 279
28.38466 325
28.40477 288
28.42489 250
28.445 277
28.46511 295
28.48523 329
28.50534 304
28.52546 284
28.54557 270
28.56568 309
28.5858 311
28.60591 297
28.62602 279
28.64614 317
28.66625 264
28.68636 273
28.70648 313
28.72659 301
28.74671 280
28.76682 245
28.78693 278
28.80705 337
28.82716 303
28.84727 279
28.86739 272
28.8875 285
28.90762 255
28.92773 277
28.94784 257
28.96796 283
28.98807 267
29.00818 294
29.0283 278
29.04841 248
29.06853 272
29.08864 286
29.10875 300
29.12887 267
29.14898 296
29.16909 274
29.18921 274
29.20932 293
29.22943 315
29.24955 301
29.26966 299
29.28978 310
29.30989 320
29.33 350
29.35012 401
29.37023 406
29.39034 405
29.41046 408
29.43057 410
29.45069 375
29.4708 413
29.49091 432
29.51103 370
29.53114 362
29.55125 347
29.57137 306
29.59148 322
29.6116 306
29.63171 304
29.65182 337
29.67194 295
29.69205 282
29.71216 287
29.73228 284
29.75239 327
29.7725 294
29.79262 304
29.81273 284
29.83285 328
29.85296 278
29.87307 330
29.89319 283
29.9133 324
29.93341 340
29.95353 374
29.97364 336
29.99376 392
30.01387 361
30.03398 445
30.0541 444
30.07421 389
30.09432 423
30.11444 488
30.13455 489
30.15467 465
30.17478 436
30.19489 423
30.21501 412
30.23512 375
30.25523 376
30.27535 323
30.29546 317
30.31557 281
30.33569 270
30.3558 278
30.37592 274
30.39603 294
30.41614 288
30.43626 298
30.45637 292
30.47648 280
30.4966 331
30.51671 293
30.53683 299
30.55694 280
30.57705 336
30.59717 347
30.61728 386
30.63739 424
30.65751 474
30.67762 421
30.69773 442
30.71785 447
30.73796 430
30.75808 455
30.77819 416
30.7983 454
30.81842 392
30.83853 385
30.85864 401
30.87876 335
30.89887 305
30.91899 306
30.9391 314
30.95921 274
30.97933 255
30.99944 244
31.01955 224
31.03967 248
31.05978 245
31.0799 274
31.10001 267
31.12012 244
31.14024 262
31.16035 246
31.18046 240
31.20058 240
31.22069 260
31.2408 263
31.26092 252
31.28103 242
31.30115 250
31.32126 235
31.34137 253
31.36149 240
31.3816 237
31.40171 215
31.42183 235
31.44194 263
31.46206 241
31.48217 212
31.50228 230
31.5224 210
31.54251 232
31.56262 215
31.58274 252
31.60285 231
31.62297 241
31.64308 271
31.66319 239
31.68331 236
31.70342 234
31.72353 191
31.74365 222
31.76376 207
31.78387 269
31.80399 221
31.8241 266
31.84422 199
31.86433 239
31.88444 230
31.90456 245
31.92467 226
31.94478 260
31.9649 270
31.98501 241
32.00513 280
32.02524 274
32.04535 287
32.06547 295
32.08558 294
32.10569 280
32.12581 309
32.14592 283
32.16604 255
32.18615 294
32.20626 306
32.22638 264
32.24649 269
32.2666 288
32.28672 288
32.30683 328
32.32694 298
32.34706 310
32.36717 347
32.38729 338
32.4074 378
32.42751 336
32.44763 329
32.46774 305
32.48785 330
32.50797 280
32.52808 274
32.5482 260
32.56831 258
32.58842 235
32.60854 249
32.62865 292
32.64876 263
32.66888 253
32.68899 233
32.7091 253
32.72922 243
32.74933 241
32.76945 236
32.78956 226
32.80967 185
32.82979 232
32.8499 254
32.87001 242
32.89013 249
32.91024 236
32.93036 242
32.95047 246
32.97058 254
32.9907 255
33.01081 233
33.03092 304
33.05104 260
33.07115 294
33.09127 258
33.11138 265
33.13149 239
33.15161 239
33.17172 242
33.19183 228
33.21195 228
33.23206 226
33.25217 238
33.27229 231
33.2924 254
33.31252 238
33.33263 227
33.35274 262
33.37286 230
33.39297 215
33.41308 224
33.4332 235
33.45331 267
33.47343 223
33.49354 249
33.51365 231
33.53377 253
33.55388 249
33.57399 235
33.59411 245
33.61422 226
33.63434 250
33.65445 210
33.67456 238
33.69468 232
33.71479 223
33.7349 255
33.75502 259
33.77513 257
33.79524 230
33.81536 224
33.83547 242
33.85559 231
33.8757 223
33.89581 238
33.91593 249
33.93604 255
33.95615 266
33.97627 249
33.99638 278
34.0165 259
34.03661 295
34.05672 289
34.07684 312
34.09695 312
34.11706 315
34.13718 303
34.15729 392
34.17741 376
34.19752 358
34.21763 369
34.23775 354
34.25786 373
34.27797 342
34.29809 306
34.3182 289
34.33831 300
34.35843 296
34.37854 313
34.39866 314
34.41877 286
34.43888 283
34.459 319
34.47911 321
34.49922 329
34.51934 311
34.53945 325
34.55957 304
34.57968 359
34.59979 333
34.61991 337
34.64002 343
34.66013 321
34.68025 326
34.70036 343
34.72047 332
34.74059 366
34.7607 343
34.78082 368
34.80093 396
34.82104 360
34.84116 375
34.86127 422
34.88138 341
34.9015 402
34.92161 394
34.94173 412
34.96184 369
34.98195 383
35.00207 398
35.02218 398
35.04229 368
35.06241 374
35.08252 447
35.10264 364
35.12275 337
35.14286 423
35.16298 417
35.18309 365
35.2032 387
35.22332 403
35.24343 370
35.26354 386
35.28366 380
35.30377 394
35.32389 385
35.344 427
35.36411 418
35.38423 452
35.40434 438
35.42445 418
35.44457 442
35.46468 407
35.4848 454
35.50491 445
35.52502 425
35.54514 425
35.56525 379
35.58536 381
35.60548 364
35.62559 374
35.64571 379
35.66582 384
35.68593 355
35.70605 343
35.72616 342
35.74627 371
35.76639 388
35.7865 346
35.80661 316
35.82673 359
35.84684 336
35.86696 355
35.88707 350
35.90718 367
35.9273 289
35.94741 355
35.96752 365
35.98764 332
36.00775 312
36.02787 355
36.04798 338
36.06809 342
36.08821 329
36.10832 313
36.12843 348
36.14855 314
36.16866 340
36.18878 344
36.20889 409
36.229 385
36.24912 403
36.26923 490
36.28934 510
36.30946 549
36.32957 621
36.34968 755
36.3698 866
36.38991 986
36.41003 1130
36.43014 1387
36.45025 1521
36.47037 1604
36.49048 1609
36.51059 1599
36.53071 1398
36.55082 1267
36.57094 1111
36.59105 862
36.61116 801
36.63128 607
36.65139 519
36.6715 448
36.69162 420
36.71173 372
36.73184 360
36.75196 354
36.77207 316
36.79219 330
36.8123 388
36.83241 391
36.85253 357
36.87264 389
36.89275 384
36.91287 360
36.93298 354
36.9531 360
36.97321 379
36.99332 395
37.01344 329
37.03355 365
37.05366 336
37.07378 360
37.09389 344
37.11401 280
37.13412 344
37.15423 320
37.17435 322
37.19446 308
37.21457 311
37.23469 297
37.2548 305
37.27491 290
37.29503 279
37.31514 301
37.33526 285
37.35537 309
37.37548 303
37.3956 271
37.41571 288
37.43582 298
37.45594 292
37.47605 293
37.49617 304
37.51628 278
37.53639 294
37.55651 298
37.57662 313
37.59673 303
37.61685 285
37.63696 298
37.65708 252
37.67719 290
37.6973 271
37.71742 263
37.73753 285
37.75764 290
37.77776 250
37.79787 282
37.81798 247
37.8381 276
37.85821 298
37.87833 255
37.89844 263
37.91855 286
37.93867 267
37.95878 293
37.97889 269
37.99901 256
38.01912 268
38.03924 285
38.05935 301
38.07946 303
38.09958 306
38.11969 271
38.1398 311
38.15992 306
38.18003 325
38.20015 319
38.22026 294
38.24037 321
38.26049 305
38.2806 313
38.30071 316
38.32083 341
38.34094 337
38.36105 319
38.38117 338
38.40128 357
38.4214 329
38.44151 388
38.46162 364
38.48174 369
38.50185 405
38.52196 376
38.54208 357
38.56219 323
38.58231 335
38.60242 323
38.62253 308
38.64265 280
38.66276 286
38.68287 308
38.70299 295
38.7231 285
38.74321 304
38.76333 259
38.78344 267
38.80356 302
38.82367 267
38.84378 278
38.8639 244
38.88401 251
38.90412 270
38.92424 297
38.94435 279
38.96447 294
38.98458 285
39.00469 311
39.02481 317
39.04492 307
39.06503 335
39.08515 337
39.10526 343
39.12538 335
39.14549 373
39.1656 403
39.18572 427
39.20583 506
39.22594 526
39.24606 608
39.26617 686
39.28628 732
39.3064 887
39.32651 1042
39.34663 1240
39.36674 1398
39.38685 1392
39.40697 1430
39.42708 1434
39.44719 1303
39.46731 1162
39.48742 1037
39.50754 841
39.52765 823
39.54776 675
39.56788 579
39.58799 450
39.6081 383
39.62822 329
39.64833 312
39.66845 312
39.68856 283
39.70867 268
39.72879 287
39.7489 258
39.76901 272
39.78913 280
39.80924 282
39.82935 246
39.84947 260
39.86958 261
39.8897 290
39.90981 280
39.92992 294
39.95004 298
39.97015 300
39.99026 308
40.01038 347
40.03049 332
40.05061 377
40.07072 369
40.09083 446
40.11095 482
40.13106 580
40.15117 614
40.17129 730
40.1914 792
40.21152 825
40.23163 869
40.25174 782
40.27186 771
40.29197 675
40.31208 623
40.3322 573
40.35231 510
40.37242 460
40.39254 407
40.41265 355
40.43277 351
40.45288 285
40.47299 307
40.49311 256
40.51322 269
40.53333 287
40.55345 263
40.57356 249
40.59368 276
40.61379 250
40.6339 243
40.65402 281
40.67413 240
40.69424 251
40.71436 233
40.73447 239
40.75458 267
40.7747 262
40.79481 247
40.81493 228
40.83504 219
40.85515 251
40.87527 243
40.89538 245
40.91549 273
40.93561 260
40.95572 244
40.97584 244
40.99595 260
41.01606 232
41.03618 216
41.05629 235
41.0764 240
41.09652 248
41.11663 252
41.13675 226
41.15686 273
41.17697 241
41.19709 240
41.2172 246
41.23731 227
41.25743 256
41.27754 244
41.29765 257
41.31777 271
41.33788 262
41.358 249
41.37811 232
41.39822 298
41.41834 245
41.43845 273
41.45856 293
41.47868 269
41.49879 268
41.51891 310
41.53902 289
41.55913 300
41.57925 306
41.59936 303
41.61947 334
41.63959 328
41.6597 391
41.67982 408
41.69993 428
41.72004 444
41.74016 440
41.76027 409
41.78038 436
41.8005 378
41.82061 375
41.84072 366
41.86084 366
41.88095 312
41.90107 281
41.92118 284
41.94129 282
41.96141 290
41.98152 288
42.00163 264
42.02175 237
42.04186 289
42.06198 272
42.08209 318
42.1022 277
42.12232 305
42.14243 326
42.16254 375
42.18266 355
42.20277 401
42.22289 464
42.243 518
42.26311 644
42.28323 677
42.30334 816
42.32345 902
42.34357 1012
42.36368 1055
42.38379 1166
42.40391 1062
42.42402 1002
42.44414 936
42.46425 804
42.48436 779
42.50448 589
42.52459 563
42.5447 499
42.56482 387
42.58493 374
42.60505 314
42.62516 299
42.64527 306
42.66539 293
42.6855 282
42.70561 286
42.72573 282
42.74584 280
42.76595 281
42.78607 248
42.80618 239
42.8263 249
42.84641 249
42.86652 242
42.88664 261
42.90675 229
42.92686 248
42.94698 227
42.96709 242
42.98721 229
43.00732 231
43.02743 231
43.04755 236
43.06766 222
43.08777 226
43.10789 219
43.128 210
43.14812 227
43.16823 215
43.18834 189
43.20846 201
43.22857 196
43.24868 203
43.2688 212
43.28891 202
43.30902 224
43.32914 211
43.34925 217
43.36937 247
43.38948 230
43.40959 229
43.42971 221
43.44982 207
43.46993 219
43.49005 228
43.51016 249
43.53028 260
43.55039 263
43.5705 222
43.59062 215
43.61073 232
43.63084 250
43.65096 216
43.67107 202
43.69119 200
43.7113 186
43.73141 217
43.75153 240
43.77164 210
43.79175 205
43.81187 197
43.83198 219
43.85209 230
43.87221 210
43.89232 205
43.91244 200
43.93255 221
43.95266 250
43.97278 235
43.99289 203
44.013 234
44.03312 218
44.05323 227
44.07335 240
44.09346 223
44.11357 241
44.13369 224
44.1538 224
44.17391 202
44.19403 241
44.21414 245
44.23426 228
44.25437 215
44.27448 219
44.2946 222
44.31471 216
44.33482 217
44.35494 214
44.37505 234
44.39516 228
44.41528 206
44.43539 222
44.45551 188
44.47562 213
44.49573 235
44.51585 220
44.53596 235
44.55607 251
44.57619 232
44.5963 219
44.61642 213
44.63653 221
44.65664 214
44.67676 222
44.69687 237
44.71698 215
44.7371 217
44.75721 202
44.77732 232
44.79744 221
44.81755 220
44.83767 192
44.85778 196
44.87789 221
44.89801 219
44.91812 230
44.93823 210
44.95835 247
44.97846 221
44.99858 224
45.01869 246
45.0388 215
45.05892 209
45.07903 220
45.09914 245
45.11926 198
45.13937 225
45.15949 251
45.1796 264
45.19971 217
45.21983 240
45.23994 234
45.26005 224
45.28017 254
45.30028 256
45.32039 247
45.34051 245
45.36062 309
45.38074 276
45.40085 315
45.42096 324
45.44108 304
45.46119 324
45.4813 334
45.50142 367
45.52153 383
45.54165 425
45.56176 448
45.58187 486
45.60199 509
45.6221 623
45.64221 673
45.66233 718
45.68244 734
45.70256 792
45.72267 794
45.74278 796
45.7629 745
45.78301 695
45.80312 636
45.82324 595
45.84335 500
45.86346 476
45.88358 381
45.90369 397
45.92381 314
45.94392 291
45.96403 263
45.98415 260
46.00426 232
46.02437 257
46.04449 266
46.0646 232
46.08472 259
46.10483 296
46.12494 259
46.14506 234
46.16517 244
46.18528 234
46.2054 247
46.22551 226
46.24563 218
46.26574 242
46.28585 225
46.30597 221
46.32608 221
46.34619 227
46.36631 201
46.38642 225
46.40653 221
46.42665 205
46.44676 205
46.46688 218
46.48699 193
46.5071 213
46.52722 217
46.54733 193
46.56744 240
46.58756 227
46.60767 213
46.62779 204
46.6479 203
46.66801 227
46.68813 199
46.70824 206
46.72835 192
46.74847 212
46.76858 188
46.78869 212
46.80881 199
46.82892 215
46.84904 245
46.86915 242
46.88926 266
46.90938 232
46.92949 228
46.9496 254
46.96972 216
46.98983 212
47.00995 263
47.03006 286
47.05017 269
47.07029 288
47.0904 256
47.11051 234
47.13063 271
47.15074 228
47.17086 269
47.19097 207
47.21108 233
47.2312 258
47.25131 266
47.27142 250
47.29154 223
47.31165 233
47.33176 234
47.35188 263
47.37199 256
47.39211 266
47.41222 217
47.43233 222
47.45245 236
47.47256 243
47.49267 228
47.51279 239
47.5329 234
47.55302 230
47.57313 227
47.59324 221
47.61336 204
47.63347 215
47.65358 213
47.6737 191
47.69381 206
47.71393 214
47.73404 221
47.75415 189
47.77427 208
47.79438 198
47.81449 203
47.83461 207
47.85472 231
47.87483 207
47.89495 226
47.91506 225
47.93518 193
47.95529 205
47.9754 213
47.99552 231
48.01563 221
48.03574 217
48.05586 194
48.07597 216
48.09609 218
48.1162 233
48.13631 218
48.15643 235
48.17654 212
48.19665 234
48.21677 256
48.23688 232
48.257 225
48.27711 210
48.29722 202
48.31734 212
48.33745 227
48.35756 236
48.37768 201
48.39779 247
48.4179 227
48.43802 205
48.45813 240
48.47825 238
48.49836 238
48.51847 208
48.53859 227
48.5587 221
48.57881 210
48.59893 236
48.61904 228
48.63916 229
48.65927 238
48.67938 233
48.6995 276
48.71961 254
48.73972 269
48.75984 265
48.77995 250
48.80006 257
48.82018 252
48.84029 252
48.86041 259
48.88052 266
48.90063 273
48.92075 251
48.94086 241
48.96097 258
48.98109 246
49.0012 255
49.02132 269
49.04143 235
49.06154 263
49.08166 226
49.10177 247
49.12188 233
49.142 239
49.16211 217
49.18223 207
49.20234 241
49.22245 234
49.24257 233
49.26268 244
49.28279 239
49.30291 226
49.32302 245
49.34313 245
49.36325 220
49.38336 213
49.40348 208
49.42359 224
49.4437 252
49.46382 246
49.48393 249
49.50404 219
49.52416 221
49.54427 220
49.56439 227
49.5845 223
49.60461 254
49.62473 272
49.64484 298
49.66495 300
49.68507 303
49.70518 326
49.7253 332
49.74541 345
49.76552 398
49.78564 434
49.80575 453
49.82586 474
49.84598 526
49.86609 644
49.8862 692
49.90632 817
49.92643 902
49.94655 1106
49.96666 1425
49.98677 1646
50.00689 1866
50.027 2073
50.04711 2283
50.06723 2238
50.08734 2186
50.10746 1962
50.12757 1784
50.14768 1564
50.1678 1466
50.18791 1266
50.20802 1234
50.22814 1064
50.24825 862
50.26837 713
50.28848 580
50.30859 487
50.32871 402
50.34882 412
50.36893 394
50.38905 458
50.40916 440
50.42927 432
50.44939 483
50.4695 443
50.48962 469
50.50973 435
50.52984 439
50.54996 450
50.57007 409
50.59018 397
50.6103 369
50.63041 366
50.65053 338
50.67064 351
50.69075 316
50.71087 329
50.73098 330
50.75109 302
50.77121 324
50.79132 304
50.81143 315
50.83155 261
50.85166 272
50.87178 290
50.89189 226
50.912 262
50.93212 240
50.95223 247
50.97234 248
50.99246 257
51.01257 242
51.03269 216
51.0528 217
51.07291 224
51.09303 210
51.11314 213
51.13325 227
51.15337 204
51.17348 231
51.1936 230
51.21371 224
51.23382 218
51.25394 208
51.27405 199
51.29416 215
51.31428 181
51.33439 204
51.3545 202
51.37462 195
51.39473 208
51.41485 190
51.43496 230
51.45507 191
51.47519 206
51.4953 209
51.51541 196
51.53553 192
51.55564 185
51.57576 192
51.59587 200
51.61598 185
51.6361 217
51.65621 157
51.67632 172
51.69644 194
51.71655 187
51.73667 200
51.75678 220
51.77689 189
51.79701 189
51.81712 198
51.83723 189
51.85735 181
51.87746 197
51.89757 178
51.91769 202
51.9378 169
51.95792 188
51.97803 174
51.99814 204
52.01826 198
52.03837 186
52.05848 203
52.0786 173
52.09871 204
52.11883 193
52.13894 187
52.15905 219
52.17917 173
52.19928 202
52.21939 207
52.23951 195
52.25962 208
52.27974 195
52.29985 198
52.31996 217
52.34008 195
52.36019 192
52.3803 186
52.40042 196
52.42053 197
52.44064 214
52.46076 185
52.48087 180
52.50099 207
52.5211 229
52.54121 209
52.56133 224
52.58144 231
52.60155 217
52.62167 240
52.64178 226
52.6619 190
52.68201 220
52.70212 229
52.72224 205
52.74235 239
52.76246 206
52.78258 227
52.80269 196
52.8228 217
52.84292 220
52.86303 242
52.88315 200
52.90326 198
52.92337 226
52.94349 191
52.9636 217
52.98371 234
53.00383 234
53.02394 221
53.04406 212
53.06417 207
53.08428 206
53.1044 205
53.12451 232
53.14462 189
53.16474 234
53.18485 206
53.20497 221
53.22508 217
53.24519 239
53.26531 192
53.28542 207
53.30553 214
53.32565 205
53.34576 227
53.36587 202
53.38599 233
53.4061 198
53.42622 204
53.44633 205
53.46644 229
53.48656 200
53.50667 227
53.52678 252
53.5469 231
53.56701 210
53.58713 225
53.60724 199
53.62735 209
53.64747 213
53.66758 216
53.68769 216
53.70781 217
53.72792 236
53.74804 233
53.76815 218
53.78826 237
53.80838 261
53.82849 242
53.8486 244
53.86872 246
53.88883 217
53.90894 229
53.92906 251
53.94917 254
53.96929 238
53.9894 245
54.00951 207
54.02963 246
54.04974 266
54.06985 250
54.08997 252
54.11008 230
54.1302 247
54.15031 249
54.17042 224
54.19054 256
54.21065 262
54.23076 235
54.25088 266
54.27099 252
54.29111 215
54.31122 276
54.33133 260
54.35145 247
54.37156 274
54.39167 257
54.41179 245
54.4319 284
54.45201 265
54.47213 267
54.49224 263
54.51236 269
54.53247 267
54.55258 326
54.5727 348
54.59281 338
54.61292 385
54.63304 398
54.65315 446
54.67327 512
54.69338 561
54.71349 641
54.73361 708
54.75372 776
54.77383 777
54.79395 787
54.81406 783
54.83417 787
54.85429 674
54.8744 657
54.89452 591
54.91463 576
54.93474 569
54.95486 577
54.97497 494
54.99508 469
55.0152 386
55.03531 360
55.05543 342
55.07554 359
55.09565 373
55.11577 358
55.13588 420
55.15599 393
55.17611 438
55.19622 456
55.21634 490
55.23645 449
55.25656 489
55.27668 462
55.29679 484
55.3169 430
55.33702 428
55.35713 387
55.37724 375
55.39736 411
55.41747 373
55.43759 343
55.4577 343
55.47781 299
55.49793 280
55.51804 294
55.53815 271
55.55827 241
55.57838 257
55.5985 293
55.61861 251
55.63872 216
55.65884 246
55.67895 238
55.69906 230
55.71918 199
55.73929 233
55.75941 221
55.77952 219
55.79963 237
55.81975 225
55.83986 215
55.85997 216
55.88009 223
55.9002 238
55.92031 227
55.94043 222
55.96054 240
55.98066 228
56.00077 226
56.02088 198
56.041 179
56.06111 242
56.08122 209
56.10134 204
56.12145 223
56.14157 183
56.16168 214
56.18179 221
56.20191 218
56.22202 205
56.24213 212
56.26225 210
56.28236 226
56.30248 211
56.32259 215
56.3427 192
56.36282 209
56.38293 209
56.40304 221
56.42316 223
56.44327 224
56.46338 233
56.4835 236
56.50361 211
56.52373 193
56.54384 212
56.56395 217
56.58407 218
56.60418 223
56.62429 222
56.64441 214
56.66452 240
56.68464 224
56.70475 223
56.72486 232
56.74498 241
56.76509 209
56.7852 202
56.80532 234
56.82543 228
56.84554 225
56.86566 178
56.88577 217
56.90589 198
56.926 258
56.94611 213
56.96623 222
56.98634 220
57.00645 223
57.02657 224
57.04668 237
57.0668 238
57.08691 222
57.10702 229
57.12714 239
57.14725 238
57.16736 216
57.18748 208
57.20759 271
57.22771 257
57.24782 255
57.26793 251
57.28805 253
57.30816 234
57.32827 217
57.34839 229
57.3685 224
57.38861 222
57.40873 235
57.42884 208
57.44896 220
57.46907 203
57.48918 193
57.5093 213
57.52941 183
57.54952 188
57.56964 205
57.58975 195
57.60987 202
57.62998 192
57.65009 191
57.67021 201
57.69032 226
57.71043 202
57.73055 211
57.75066 208
57.77078 190
57.79089 186
57.811 206
57.83112 194
57.85123 189
57.87134 199
57.89146 210
57.91157 220
57.93168 192
57.9518 209
57.97191 214
57.99203 172
58.01214 224
58.03225 206
58.05237 215
58.07248 203
58.09259 230
58.11271 216
58.13282 194
58.15294 203
58.17305 196
58.19316 196
58.21328 211
58.23339 191
58.2535 208
58.27362 204
58.29373 213
58.31385 212
58.33396 215
58.35407 212
58.37419 220
58.3943 238
58.41441 207
58.43453 209
58.45464 235
58.47475 204
58.49487 195
58.51498 221
58.5351 218
58.55521 201
58.57532 229
58.59544 215
58.61555 229
58.63566 232
58.65578 219
58.67589 224
58.69601 243
58.71612 199
58.73623 205
58.75635 224
58.77646 209
58.79657 198
58.81669 197
58.8368 194
58.85691 209
58.87703 200
58.89714 228
58.91726 196
58.93737 224
58.95748 192
58.9776 187
58.99771 228
59.01782 197
59.03794 226
59.05805 213
59.07817 187
59.09828 203
59.11839 184
59.13851 177
59.15862 199
59.17873 219
59.19885 191
59.21896 213
59.23908 192
59.25919 251
59.2793 201
59.29942 193
59.31953 190
59.33964 237
59.35976 249
59.37987 242
59.39998 259
59.4201 235
59.44021 277
59.46033 267
59.48044 261
59.50055 317
59.52067 304
59.54078 283
59.56089 324
59.58101 354
59.60112 377
59.62124 372
59.64135 432
59.66146 487
59.68158 504
59.70169 554
59.7218 651
59.74192 806
59.76203 894
59.78215 996
59.80226 1199
59.82237 1244
59.84249 1380
59.8626 1518
59.88271 1498
59.90283 1392
59.92294 1215
59.94305 1190
59.96317 994
59.98328 967
60.0034 902
60.02351 907
60.04362 874
60.06374 759
60.08385 680
60.10396 598
60.12408 498
60.14419 365
60.16431 332
60.18442 284
60.20453 280
60.22465 251
60.24476 292
60.26487 236
60.28499 245
60.3051 272
60.32522 238
60.34533 225
60.36544 210
60.38556 247
60.40567 243
60.42578 227
60.4459 214
60.46601 217
60.48612 217
60.50624 229
60.52635 219
60.54647 199
60.56658 222
60.58669 197
60.60681 202
60.62692 216
60.64703 192
60.66715 223
60.68726 199
60.70738 200
60.72749 199
60.7476 227
60.76772 198
60.78783 234
60.80794 219
60.82806 187
60.84817 220
60.86828 203
60.8884 199
60.90851 188
60.92863 206
60.94874 210
60.96885 232
60.98897 220
61.00908 221
61.02919 269
61.04931 232
61.06942 211
61.08954 232
61.10965 239
61.12976 217
61.14988 243
61.16999 246
61.1901 240
61.21022 241
61.23033 263
61.25045 232
61.27056 268
61.29067 282
61.31079 233
61.3309 229
61.35101 247
61.37113 224
61.39124 215
61.41135 244
61.43147 231
61.45158 233
61.4717 228
61.49181 222
61.51192 232
61.53204 205
61.55215 218
61.57226 246
61.59238 220
61.61249 208
61.63261 215
61.65272 203
61.67283 218
61.69295 248
61.71306 232
61.73317 210
61.75329 214
61.7734 241
61.79352 233
61.81363 209
61.83374 241
61.85386 228
61.87397 243
61.89408 221
61.9142 256
61.93431 247
61.95442 228
61.97454 262
61.99465 258
62.01477 255
62.03488 279
62.05499 277
62.07511 244
62.09522 275
62.11533 270
62.13545 282
62.15556 280
62.17568 288
62.19579 270
62.2159 291
62.23602 249
62.25613 278
62.27624 249
62.29636 283
62.31647 254
62.33659 288
62.3567 259
62.37681 264
62.39693 271
62.41704 288
62.43715 236
62.45727 237
62.47738 249
62.49749 250
62.51761 248
62.53772 239
62.55784 243
62.57795 244
62.59806 246
62.61818 238
62.63829 248
62.6584 204
62.67852 264
62.69863 220
62.71875 256
62.73886 229
62.75897 238
62.77909 214
62.7992 225
62.81931 219
62.83943 220
62.85954 207
62.87965 232
62.89977 285
62.91988 228
62.94 233
62.96011 222
62.98022 267
63.00034 239
63.02045 233
63.04056 247
63.06068 245
63.08079 262
63.10091 264
63.12102 249
63.14113 225
63.16125 226
63.18136 237
63.20147 250
63.22159 213
63.2417 226
63.26182 232
63.28193 207
63.30204 247
63.32216 233
63.34227 229
63.36238 223
63.3825 213
63.40261 218
63.42272 209
63.44284 228
63.46295 201
63.48307 235
63.50318 210
63.52329 239
63.54341 238
63.56352 234
63.58363 247
63.60375 252
63.62386 264
63.64398 231
63.66409 233
63.6842 255
63.70432 252
63.72443 273
63.74454 284
63.76466 313
63.78477 335
63.80489 320
63.825 378
63.84511 394
63.86523 412
63.88534 407
63.90545 466
63.92557 501
63.94568 458
63.96579 449
63.98591 447
64.00602 399
64.02614 394
64.04625 382
64.06636 363
64.08648 358
64.10659 333
64.1267 364
64.14682 332
64.16693 310
64.18705 302
64.20716 284
64.22727 252
64.24739 244
64.2675 204
64.28761 203
64.30773 204
64.32784 221
64.34796 209
64.36807 222
64.38818 224
64.4083 175
64.42841 204
64.44852 197
64.46864 196
64.48875 161
64.50886 187
64.52898 202
64.54909 181
64.56921 198
64.58932 187
64.60943 185
64.62955 186
64.64966 166
64.66977 195
64.68989 178
64.71 224
64.73012 188
64.75023 175
64.77034 178
64.79046 187
64.81057 187
64.83068 197
64.8508 211
64.87091 214
64.89102 206
64.91114 206
64.93125 225
64.95137 211
64.97148 215
64.99159 220
65.01171 205
65.03182 196
65.05193 215
65.07205 221
65.09216 210
65.11228 227
65.13239 185
65.1525 212
65.17262 209
65.19273 226
65.21284 212
65.23296 237
65.25307 242
65.27319 230
65.2933 209
65.31341 216
65.33353 225
65.35364 222
65.37375 220
65.39387 227
65.41398 225
65.43409 229
65.45421 213
65.47432 216
65.49444 209
65.51455 212
65.53466 201
65.55478 260
65.57489 225
65.595 213
65.61512 219
65.63523 232
65.65535 245
65.67546 255
65.69557 252
65.71569 251
65.7358 267
65.75591 218
65.77603 251
65.79614 207
65.81626 246
65.83637 199
65.85648 223
65.8766 221
65.89671 219
65.91682 237
65.93694 214
65.95705 204
65.97716 206
65.99728 193
66.01739 207
66.03751 197
66.05762 206
66.07773 224
66.09785 203
66.11796 213
66.13807 189
66.15819 223
66.1783 226
66.19842 213
66.21853 235
66.23864 228
66.25876 233
66.27887 214
66.29898 225
66.3191 221
66.33921 223
66.35933 200
66.37944 211
66.39955 203
66.41967 231
66.43978 211
66.45989 214
66.48001 215
66.50012 198
66.52023 188
66.54035 210
66.56046 203
66.58058 207
66.60069 196
66.6208 174
66.64092 185
66.66103 201
66.68114 207
66.70126 175
66.72137 213
66.74149 216
66.7616 195
66.78171 206
66.80183 202
66.82194 201
66.84205 189
66.86217 198
66.88228 234
66.90239 197
66.92251 196
66.94262 229
66.96274 195
66.98285 216
67.00296 221
67.02308 204
67.04319 218
67.0633 223
67.08342 228
67.10353 224
67.12365 230
67.14376 220
67.16387 222
67.18399 243
67.2041 243
67.22421 224
67.24433 230
67.26444 254
67.28456 276
67.30467 296
67.32478 254
67.3449 280
67.36501 304
67.38512 291
67.40524 309
67.42535 365
67.44546 357
67.46558 385
67.48569 428
67.50581 493
67.52592 534
67.54603 637
67.56615 693
67.58626 801
67.60637 845
67.62649 897
67.6466 970
67.66672 928
67.68683 910
67.70694 847
67.72706 781
67.74717 735
67.76728 730
67.7874 712
67.80751 745
67.82763 695
67.84774 809
67.86785 793
67.88797 756
67.90808 789
67.92819 799
67.94831 807
67.96842 934
67.98853 993
68.00865 1064
68.02876 1232
68.04888 1272
68.06899 1319
68.0891 1243
68.10922 1238
68.12933 1201
68.14944 1080
68.16956 1083
68.18967 1133
68.20979 1124
68.2299 1200
68.25001 1080
68.27013 1066
68.29024 916
68.31035 765
68.33047 668
68.35058 600
68.3707 577
68.39081 540
68.41092 512
68.43104 470
68.45115 478
68.47126 391
68.49138 352
68.51149 314
68.5316 311
68.55172 275
68.57183 245
68.59195 236
68.61206 241
68.63217 246
68.65229 236
68.6724 233
68.69251 218
68.71263 208
68.73274 205
68.75286 225
68.77297 224
68.79308 217
68.8132 206
68.83331 200
68.85342 222
68.87354 187
68.89365 184
68.91376 212
68.93388 218
68.95399 185
68.97411 215
68.99422 218
69.01433 209
69.03445 183
69.05456 170
69.07467 184
69.09479 196
69.1149 186
69.13502 175
69.15513 189
69.17524 163
69.19536 178
69.21547 177
69.23558 176
69.2557 187
69.27581 184
69.29593 182
69.31604 176
69.33615 188
69.35627 199
69.37638 196
69.39649 186
69.41661 187
69.43672 178
69.45683 185
69.47695 181
69.49706 185
69.51718 177
69.53729 185
69.5574 185
69.57752 185
69.59763 184
69.61774 166
69.63786 193
69.65797 195
69.67809 158
69.6982 199
69.71831 184
69.73843 192
69.75854 198
69.77865 179
69.79877 164
69.81888 193
69.839 186
69.85911 180
69.87922 192
69.89934 196
69.91945 207
69.93956 185
69.95968 192
69.97979 202
69.9999 184
70.02002 194
70.04013 218
70.06025 192
70.08036 178
70.10047 191
70.12059 208
70.1407 212
70.16081 187
70.18093 192
70.20104 187
70.22116 179
70.24127 172
70.26138 171
70.2815 196
70.30161 187
70.32172 185
70.34184 178
70.36195 220
70.38207 188
70.40218 186
70.42229 183
70.44241 175
70.46252 188
70.48263 183
70.50275 178
70.52286 181
70.54297 203
70.56309 217
70.5832 188
70.60332 195
70.62343 181
70.64354 186
70.66366 184
70.68377 196
70.70388 183
70.724 170
70.74411 191
70.76423 183
70.78434 184
70.80445 182
70.82457 174
70.84468 198
70.86479 178
70.88491 161
70.90502 177
70.92513 152
70.94525 176
70.96536 181
70.98548 163
71.00559 188
71.0257 192
71.04582 190
71.06593 181
71.08604 159
71.10616 199
71.12627 156
71.14639 180
71.1665 180
71.18661 190
71.20673 182
71.22684 197
71.24695 189
71.26707 199
71.28718 193
71.3073 197
71.32741 202
71.34752 182
71.36764 191
71.38775 190
71.40786 202
71.42798 217
71.44809 189
71.4682 184
71.48832 230
71.50843 198
71.52855 225
71.54866 211
71.56877 204
71.58889 198
71.609 181
71.62911 188
71.64923 202
71.66934 205
71.68946 191
71.70957 201
71.72968 183
71.7498 182
71.76991 181
71.79002 175
71.81014 207
71.83025 172
71.85037 178
71.87048 170
71.89059 173
71.91071 178
71.93082 204
71.95093 215
71.97105 199
71.99116 179
72.01127 194
72.03139 212
72.0515 192
72.07162 201
72.09173 228
72.11184 210
72.13196 201
72.15207 220
72.17218 197
72.1923 181
72.21241 209
72.23253 178
72.25264 190
72.27275 184
72.29287 193
72.31298 199
72.33309 212
72.35321 178
72.37332 217
72.39344 180
72.41355 170
72.43366 179
72.45378 211
72.47389 204
72.494 184
72.51412 207
72.53423 216
72.55434 185
72.57446 192
72.59457 203
72.61469 182
72.6348 189
72.65491 200
72.67503 217
72.69514 162
72.71525 180
72.73537 196
72.75548 200
72.7756 200
72.79571 190
72.81582 201
72.83594 218
72.85605 182
72.87616 222
72.89628 212
72.91639 222
72.9365 216
72.95662 197
72.97673 224
72.99685 214
73.01696 212
73.03707 225
73.05719 231
73.0773 224
73.09741 254
73.11753 256
73.13764 229
73.15776 259
73.17787 279
73.19798 291
73.2181 275
73.23821 285
73.25832 348
73.27844 336
73.29855 374
73.31867 441
73.33878 416
73.35889 450
73.37901 440
73.39912 433
73.41923 418
73.43935 406
73.45946 377
73.47957 331
73.49969 316
73.5198 300
73.53992 329
73.56003 315
73.58014 336
73.60026 307
73.62037 307
73.64048 285
73.6606 266
73.68071 238
73.70083 235
73.72094 250
73.74105 226
73.76117 215
73.78128 204
73.80139 198
73.82151 203
73.84162 205
73.86174 210
73.88185 183
73.90196 200
73.92208 181
73.94219 200
73.9623 178
73.98242 182
74.00253 192
74.02264 199
74.04276 194
74.06287 217
74.08299 225
74.1031 183
74.12321 197
74.14333 173
74.16344 180
74.18355 166
74.20367 173
74.22378 199
74.2439 171
74.26401 194
74.28412 189
74.30424 186
74.32435 188
74.34446 186
74.36458 179
74.38469 190
74.40481 207
74.42492 175
74.44503 192
74.46515 180
74.48526 184
74.50537 183
74.52549 219
74.5456 187
74.56571 199
74.58583 191
74.60594 191
74.62606 198
74.64617 202
74.66628 198
74.6864 188
74.70651 173
74.72662 191
74.74674 216
74.76685 195
74.78697 183
74.80708 194
74.82719 204
74.84731 226
74.86742 207
74.88753 182
74.90765 189
74.92776 192
74.94787 224
74.96799 207
74.9881 209
75.00822 209
