3.00117 19840
3.02128 19075
3.0414 18737
3.06151 18247
3.08162 17276
3.10174 17267
3.12185 16644
3.14197 16364
3.16208 15599
3.18219 15161
3.20231 14934
3.22242 14098
3.24253 14010
3.26265 13489
3.28276 13173
3.30288 12707
3.32299 12301
3.3431 12344
3.36322 11478
3.38333 10969
3.40344 10937
3.42356 10197
3.44367 10130
3.46379 9634
3.4839 9569
3.50401 9189
3.52413 8763
3.54424 8336
3.56435 8287
3.58447 7802
3.60458 7612
3.62469 7269
3.64481 7166
3.66492 6741
3.68504 6470
3.70515 6357
3.72526 6040
3.74538 5720
3.76549 5564
3.7856 5259
3.80572 5171
3.82583 4853
3.84595 4801
3.86606 4529
3.88617 4319
3.90629 4152
3.9264 3825
3.94651 3976
3.96663 3618
3.98674 3537
4.00686 3424
4.02697 3042
4.04708 3005
4.0672 2963
4.08731 2668
4.10742 2816
4.12754 2519
4.14765 2532
4.16776 2330
4.18788 2276
4.20799 2190
4.22811 1981
4.24822 2060
4.26833 1983
4.28845 1936
4.30856 1948
4.32867 1735
4.34879 1694
4.3689 1733
4.38902 1665
4.40913 1700
4.42924 1621
4.44936 1618
4.46947 1564
4.48958 1460
4.5097 1499
4.52981 1322
4.54992 1454
4.57004 1367
4.59015 1293
4.61027 1260
4.63038 1265
4.65049 1218
4.67061 1256
4.69072 1185
4.71083 1136
4.73095 1140
4.75106 1071
4.77118 1029
4.79129 1120
4.8114 978
4.83152 1002
4.85163 986
4.87174 994
4.89186 978
4.91197 894
4.93209 878
4.9522 866
4.97231 893
4.99243 915
5.01254 814
5.03265 837
5.05277 837
5.07288 859
5.09299 818
5.11311 754
5.13322 818
5.15334 710
5.17345 764
5.19356 723
5.21368 734
5.23379 643
5.2539 681
5.27402 691
5.29413 699
5.31425 686
5.33436 589
5.35447 649
5.37459 683
5.3947 656
5.41481 583
5.43493 581
5.45504 608
5.47516 576
5.49527 589
5.51538 497
5.5355 521
5.55561 498
5.57572 585
5.59584 543
5.61595 524
5.63606 504
5.65618 528
5.67629 555
5.69641 501
5.71652 515
5.73663 456
5.75675 476
5.77686 519
5.79697 460
5.81709 476
5.8372 488
5.85732 440
5.87743 460
5.89754 443
5.91766 460
5.93777 453
5.95788 423
5.978 450
5.99811 473
6.01823 447
6.03834 439
6.05845 421
6.07857 427
6.09868 388
6.11879 444
6.13891 419
6.15902 447
6.17913 382
6.19925 409
6.21936 424
6.23948 384
6.25959 390
6.2797 420
6.29982 391
6.31993 425
6.34004 411
6.36016 392
6.38027 395
6.40039 395
6.4205 369
6.44061 390
6.46073 423
6.48084 412
6.50095 399
6.52107 392
6.54118 429
6.56129 359
6.58141 429
6.60152 388
6.62164 399
6.64175 376
6.66186 383
6.68198 396
6.70209 398
6.7222 349
6.74232 348
6.76243 332
6.78255 369
6.80266 352
6.82277 376
6.84289 389
6.863 394
6.88311 342
6.90323 377
6.92334 385
6.94346 398
6.96357 393
6.98368 363
7.0038 342
7.02391 393
7.04402 285
7.06414 383
7.08425 385
7.10436 388
7.12448 391
7.14459 396
7.16471 410
7.18482 385
7.20493 387
7.22505 412
7.24516 395
7.26527 372
7.28539 386
7.3055 360
7.32562 383
7.34573 377
7.36584 395
7.38596 372
7.40607 379
7.42618 391
7.4463 415
7.46641 390
7.48653 381
7.50664 446
7.52675 428
7.54687 393
7.56698 385
7.58709 406
7.60721 430
7.62732 398
7.64743 350
7.66755 390
7.68766 387
7.70778 370
7.72789 395
7.748 428
7.76812 408
7.78823 391
7.80834 409
7.82846 414
7.84857 407
7.86869 426
7.8888 434
7.90891 419
7.92903 450
7.94914 388
7.96925 400
7.98937 406
8.00948 402
8.0296 430
8.04971 410
8.06982 439
8.08994 411
8.11005 411
8.13016 447
8.15028 432
8.17039 417
8.1905 408
8.21062 403
8.23073 442
8.25085 391
8.27096 445
8.29107 485
8.31119 454
8.3313 415
8.35141 450
8.37153 500
8.39164 478
8.41176 398
8.43187 426
8.45198 465
8.4721 455
8.49221 478
8.51232 468
8.53244 423
8.55255 482
8.57266 509
8.59278 436
8.61289 435
8.63301 505
8.65312 447
8.67323 512
8.69335 534
8.71346 507
8.73357 523
8.75369 517
8.7738 565
8.79392 600
8.81403 687
8.83414 781
8.85426 739
8.87437 765
8.89448 737
8.9146 706
8.93471 581
8.95483 560
8.97494 469
8.99505 453
9.01517 463
9.03528 367
9.05539 383
9.07551 377
9.09562 403
9.11573 358
9.13585 422
9.15596 403
9.17608 394
9.19619 402
9.2163 372
9.23642 417
9.25653 352
9.27664 351
9.29676 397
9.31687 352
9.33699 378
9.3571 402
9.37721 359
9.39733 363
9.41744 391
9.43755 381
9.45767 363
9.47778 390
9.4979 393
9.51801 335
9.53812 363
9.55824 348
9.57835 355
9.59846 354
9.61858 337
9.63869 348
9.6588 353
9.67892 376
9.69903 345
9.71915 323
9.73926 352
9.75937 370
9.77949 345
9.7996 348
9.81971 323
9.83983 329
9.85994 358
9.88006 341
9.90017 339
9.92028 344
9.9404 365
9.96051 346
9.98062 360
10.00074 381
10.02085 332
10.04097 335
10.06108 371
10.08119 358
10.10131 314
10.12142 340
10.14153 324
10.16165 368
10.18176 326
10.20187 317
10.22199 397
10.2421 376
10.26222 355
10.28233 352
10.30244 341
10.32256 336
10.34267 350
10.36278 374
10.3829 347
10.40301 360
10.42313 373
10.44324 381
10.46335 338
10.48347 398
10.50358 351
10.52369 320
10.54381 344
10.56392 319
10.58403 367
10.60415 351
10.62426 355
10.64438 349
10.66449 381
10.6846 348
10.70472 316
10.72483 298
10.74494 330
10.76506 332
10.78517 333
10.80529 347
10.8254 348
10.84551 385
10.86563 345
10.88574 351
10.90585 356
10.92597 356
10.94608 402
10.9662 370
10.98631 355
11.00642 311
11.02654 347
11.04665 356
11.06676 352
11.08688 379
11.10699 347
11.1271 386
11.14722 369
11.16733 346
11.18745 378
11.20756 347
11.22767 357
11.24779 329
11.2679 364
11.28801 394
11.30813 371
11.32824 334
11.34836 365
11.36847 349
11.38858 368
11.4087 354
11.42881 393
11.44892 381
11.46904 383
11.48915 373
11.50927 372
11.52938 325
11.54949 374
11.56961 362
11.58972 377
11.60983 391
11.62995 386
11.65006 385
11.67017 408
11.69029 451
11.7104 358
11.73052 398
11.75063 437
11.77074 386
11.79086 419
11.81097 427
11.83108 431
11.8512 401
11.87131 449
11.89143 442
11.91154 424
11.93165 453
11.95177 456
11.97188 437
11.99199 449
12.01211 433
12.03222 409
12.05234 450
12.07245 469
12.09256 478
12.11268 477
12.13279 442
12.1529 472
12.17302 495
12.19313 467
12.21324 478
12.23336 480
12.25347 483
12.27359 431
12.2937 474
12.31381 453
12.33393 476
12.35404 436
12.37415 455
12.39427 437
12.41438 406
12.4345 474
12.45461 463
12.47472 429
12.49484 415
12.51495 420
12.53506 423
12.55518 419
12.57529 399
12.5954 373
12.61552 371
12.63563 415
12.65575 432
12.67586 365
12.69597 357
12.71609 387
12.7362 355
12.75631 376
12.77643 324
12.79654 374
12.81666 346
12.83677 356
12.85688 365
12.877 361
12.89711 347
12.91722 355
12.93734 364
12.95745 318
12.97757 340
12.99768 346
13.01779 326
13.03791 342
13.05802 313
13.07813 326
13.09825 328
13.11836 363
13.13847 308
13.15859 332
13.1787 318
13.19882 357
13.21893 342
13.23904 348
13.25916 339
13.27927 339
13.29938 314
13.3195 296
13.33961 334
13.35973 339
13.37984 291
13.39995 324
13.42007 293
13.44018 308
13.46029 307
13.48041 279
13.50052 319
13.52064 334
13.54075 341
13.56086 315
13.58098 305
13.60109 327
13.6212 337
13.64132 363
13.66143 337
13.68154 347
13.70166 322
13.72177 314
13.74189 316
13.762 301
13.78211 323
13.80223 348
13.82234 319
13.84245 293
13.86257 301
13.88268 346
13.9028 304
13.92291 338
13.94302 301
13.96314 313
13.98325 316
14.00336 274
14.02348 301
14.04359 304
14.06371 322
14.08382 294
14.10393 280
14.12405 308
14.14416 286
14.16427 279
14.18439 309
14.2045 291
14.22461 297
14.24473 293
14.26484 286
14.28496 293
14.30507 261
14.32518 318
14.3453 276
14.36541 300
14.38552 309
14.40564 313
14.42575 289
14.44587 299
14.46598 281
14.48609 266
14.50621 302
14.52632 290
14.54643 313
14.56655 302
14.58666 314
14.60677 317
14.62689 288
14.647 304
14.66712 318
14.68723 242
14.70734 318
14.72746 293
14.74757 312
14.76768 291
14.7878 341
14.80791 327
14.82803 282
14.84814 327
14.86825 298
14.88837 315
14.90848 308
14.92859 323
14.94871 352
14.96882 362
14.98894 319
15.00905 300
15.02916 324
15.04928 320
15.06939 322
15.0895 300
15.10962 302
15.12973 311
15.14984 317
15.16996 309
15.19007 343
15.21019 275
15.2303 297
15.25041 303
15.27053 259
15.29064 279
15.31075 274
15.33087 286
15.35098 302
15.3711 284
15.39121 286
15.41132 294
15.43144 295
15.45155 292
15.47166 280
15.49178 305
15.51189 276
15.53201 265
15.55212 289
15.57223 283
15.59235 296
15.61246 288
15.63257 293
15.65269 292
15.6728 247
15.69291 317
15.71303 271
15.73314 275
15.75326 292
15.77337 298
15.79348 296
15.8136 292
15.83371 311
15.85382 288
15.87394 297
15.89405 278
15.91417 280
15.93428 269
15.95439 287
15.97451 254
15.99462 283
16.01473 298
16.03485 239
16.05496 287
16.07508 297
16.09519 290
16.1153 303
16.13542 274
16.15553 266
16.17564 269
16.19576 294
16.21587 274
16.23598 312
16.2561 306
16.27621 268
16.29633 297
16.31644 279
16.33655 308
16.35667 306
16.37678 275
16.39689 272
16.41701 278
16.43712 309
16.45724 289
16.47735 270
16.49746 295
16.51758 252
16.53769 291
16.5578 267
16.57792 295
16.59803 305
16.61814 264
16.63826 274
16.65837 277
16.67849 267
16.6986 309
16.71871 254
16.73883 276
16.75894 282
16.77905 304
16.79917 263
16.81928 313
16.8394 284
16.85951 264
16.87962 284
16.89974 280
16.91985 271
16.93996 260
16.96008 294
16.98019 286
17.00031 287
17.02042 285
17.04053 277
17.06065 317
17.08076 271
17.10087 270
17.12099 269
17.1411 278
17.16121 293
17.18133 261
17.20144 265
17.22156 233
17.24167 277
17.26178 282
17.2819 297
17.30201 290
17.32212 278
17.34224 256
17.36235 299
17.38247 285
17.40258 266
17.42269 261
17.44281 284
17.46292 278
17.48303 280
17.50315 280
17.52326 311
17.54338 306
17.56349 322
17.5836 315
17.60372 325
17.62383 278
17.64394 321
17.66406 331
17.68417 298
17.70428 369
17.7244 302
17.74451 356
17.76463 383
17.78474 354
17.80485 357
17.82497 352
17.84508 313
17.86519 322
17.88531 315
17.90542 301
17.92554 317
17.94565 295
17.96576 279
17.98588 280
18.00599 308
18.0261 325
18.04622 324
18.06633 326
18.08645 273
18.10656 290
18.12667 284
18.14679 292
18.1669 330
18.18701 327
18.20713 278
18.22724 339
18.24735 336
18.26747 356
18.28758 358
18.3077 368
18.32781 357
18.34792 334
18.36804 325
18.38815 303
18.40826 306
18.42838 302
18.44849 308
18.46861 275
18.48872 302
18.50883 292
18.52895 294
18.54906 288
18.56917 298
18.58929 342
18.6094 291
18.62951 278
18.64963 268
18.66974 303
18.68986 266
18.70997 262
18.73008 288
18.7502 297
18.77031 298
18.79042 307
18.81054 289
18.83065 299
18.85077 288
18.87088 328
18.89099 279
18.91111 264
18.93122 290
18.95133 259
18.97145 324
18.99156 295
19.01168 290
19.03179 301
19.0519 296
19.07202 309
19.09213 318
19.11224 315
19.13236 269
19.15247 334
19.17258 336
19.1927 345
19.21281 362
19.23293 318
19.25304 332
19.27315 407
19.29327 379
19.31338 412
19.33349 381
19.35361 419
19.37372 387
19.39384 373
19.41395 390
19.43406 350
19.45418 418
19.47429 368
19.4944 373
19.51452 397
19.53463 432
19.55475 404
19.57486 434
19.59497 435
19.61509 499
19.6352 483
19.65531 568
19.67543 602
19.69554 621
19.71565 634
19.73577 674
19.75588 702
19.776 743
19.79611 773
19.81622 787
19.83634 772
19.85645 761
19.87656 723
19.89668 766
19.91679 724
19.93691 696
19.95702 619
19.97713 617
19.99725 623
20.01736 600
20.03747 596
20.05759 582
20.0777 583
20.09782 533
20.11793 561
20.13804 562
20.15816 559
20.17827 590
20.19838 552
20.2185 563
20.23861 607
20.25872 538
20.27884 578
20.29895 516
20.31907 550
20.33918 578
20.35929 588
20.37941 554
20.39952 577
20.41963 620
20.43975 613
20.45986 614
20.47998 613
20.50009 661
20.5202 600
20.54032 646
20.56043 696
20.58054 699
20.60066 778
20.62077 751
20.64088 817
20.661 894
20.68111 1007
20.70123 1220
20.72134 1412
20.74145 1608
20.76157 2090
20.78168 2538
20.80179 3040
20.82191 3470
20.84202 3601
20.86214 3632
20.88225 3245
20.90236 2643
20.92248 1906
20.94259 1517
20.9627 1184
20.98282 890
21.00293 867
21.02305 806
21.04316 767
21.06327 651
21.08339 691
21.1035 640
21.12361 619
21.14373 586
21.16384 511
21.18395 515
21.20407 545
21.22418 563
21.2443 514
21.26441 520
21.28452 491
21.30464 503
21.32475 533
21.34486 569
21.36498 511
21.38509 512
21.40521 543
21.42532 515
21.44543 556
21.46555 484
21.48566 498
21.50577 499
21.52589 501
21.546 514
21.56612 494
21.58623 557
21.60634 514
21.62646 536
21.64657 466
21.66668 465
21.6868 459
21.70691 432
21.72702 444
21.74714 424
21.76725 456
21.78737 431
21.80748 424
21.82759 440
21.84771 441
21.86782 457
21.88793 449
21.90805 466
21.92816 460
21.94828 471
21.96839 471
21.9885 471
22.00862 480
22.02873 507
22.04884 435
22.06896 482
22.08907 449
22.10919 458
22.1293 444
22.14941 429
22.16953 457
22.18964 493
22.20975 427
22.22987 465
22.24998 464
22.27009 421
22.29021 436
22.31032 478
22.33044 482
22.35055 465
22.37066 432
22.39078 458
22.41089 432
22.431 458
22.45112 446
22.47123 402
22.49135 458
22.51146 433
22.53157 432
22.55169 470
22.5718 431
22.59191 472
22.61203 428
22.63214 430
22.65225 442
22.67237 452
22.69248 398
22.7126 442
22.73271 488
22.75282 488
22.77294 519
22.79305 488
22.81316 494
22.83328 519
22.85339 508
22.87351 489
22.89362 513
22.91373 501
22.93385 481
22.95396 454
22.97407 435
22.99419 448
23.0143 459
23.03442 401
23.05453 431
23.07464 465
23.09476 493
23.11487 500
23.13498 441
23.1551 419
23.17521 484
23.19532 444
23.21544 488
23.23555 436
23.25567 436
23.27578 484
23.29589 421
23.31601 465
23.33612 415
23.35623 403
23.37635 423
23.39646 440
23.41658 419
23.43669 432
23.4568 475
23.47692 442
23.49703 457
23.51714 447
23.53726 482
23.55737 475
23.57749 493
23.5976 497
23.61771 502
23.63783 509
23.65794 491
23.67805 493
23.69817 518
23.71828 529
23.73839 519
23.75851 492
23.77862 520
23.79874 576
23.81885 546
23.83896 494
23.85908 527
23.87919 508
23.8993 502
23.91942 502
23.93953 451
23.95965 485
23.97976 489
23.99987 509
24.01999 508
24.0401 497
24.06021 494
24.08033 458
24.10044 447
24.12056 476
24.14067 432
24.16078 471
24.1809 454
24.20101 459
24.22112 457
24.24124 482
24.26135 481
24.28146 495
24.30158 469
24.32169 479
24.34181 453
24.36192 491
24.38203 491
24.40215 472
24.42226 461
24.44237 525
24.46249 498
24.4826 491
24.50272 527
24.52283 488
24.54294 500
24.56306 484
24.58317 491
24.60328 494
24.6234 495
24.64351 467
24.66362 495
24.68374 480
24.70385 515
24.72397 505
24.74408 505
24.76419 529
24.78431 527
24.80442 505
24.82453 532
24.84465 538
24.86476 519
24.88488 519
24.90499 544
24.9251 492
24.94522 537
24.96533 466
24.98544 474
25.00556 491
25.02567 522
25.04579 530
25.0659 531
25.08601 510
25.10613 540
25.12624 469
25.14635 509
25.16647 495
25.18658 528
25.20669 521
25.22681 515
25.24692 526
25.26704 518
25.28715 572
25.30726 528
25.32738 585
25.34749 584
25.3676 600
25.38772 626
25.40783 653
25.42795 635
25.44806 650
25.46817 696
25.48829 720
25.5084 696
25.52851 658
25.54863 673
25.56874 661
25.58886 664
25.60897 658
25.62908 635
25.6492 612
25.66931 586
25.68942 564
25.70954 561
25.72965 560
25.74976 526
25.76988 538
25.78999 584
25.81011 584
25.83022 570
25.85033 541
25.87045 545
25.89056 522
25.91067 522
25.93079 525
25.9509 575
25.97102 551
25.99113 552
26.01124 564
26.03136 621
26.05147 623
26.07158 617
26.0917 658
26.11181 668
26.13193 660
26.15204 732
26.17215 806
26.19227 793
26.21238 887
26.23249 891
26.25261 997
26.27272 1008
26.29283 1113
26.31295 1263
26.33306 1342
26.35318 1611
26.37329 1799
26.3934 2181
26.41352 2444
26.43363 3152
26.45374 3668
26.47386 4592
26.49397 5515
26.51409 6929
26.5342 8427
26.55431 10038
26.57443 12004
26.59454 13680
26.61465 14935
26.63477 14977
26.65488 13257
26.67499 10596
26.69511 8303
26.71522 6208
26.73534 4228
26.75545 2781
26.77556 1913
26.79568 1529
26.81579 1310
26.8359 1254
26.85602 1108
26.87613 1044
26.89625 911
26.91636 896
26.93647 865
26.95659 815
26.9767 780
26.99681 853
27.01693 843
27.03704 747
27.05716 796
27.07727 715
27.09738 666
27.1175 709
27.13761 623
27.15772 622
27.17784 608
27.19795 568
27.21806 627
27.23818 592
27.25829 602
27.27841 602
27.29852 607
27.31863 579
27.33875 657
27.35886 697
27.37897 678
27.39909 790
27.4192 858
27.43932 858
27.45943 800
27.47954 788
27.49966 797
27.51977 709
27.53988 670
27.56 614
27.58011 622
27.60023 575
27.62034 545
27.64045 560
27.66057 555
27.68068 553
27.70079 575
27.72091 589
27.74102 578
27.76113 591
27.78125 630
27.80136 623
27.82148 642
27.84159 626
27.8617 658
27.88182 589
27.90193 579
27.92204 588
27.94216 551
27.96227 519
27.98239 523
28.0025 463
28.02261 516
28.04273 444
28.06284 439
28.08295 463
28.10307 444
28.12318 432
28.1433 418
28.16341 444
28.18352 448
28.20364 402
28.22375 444
28.24386 436
28.26398 436
28.28409 467
28.3042 437
28.32432 357
28.34443 413
28.36455 432
28.38466 435
28.40477 389
28.42489 372
28.445 393
28.46511 383
28.48523 395
28.50534 360
28.52546 395
28.54557 389
28.56568 368
28.5858 403
28.60591 414
28.62602 385
28.64614 382
28.66625 374
28.68636 372
28.70648 385
28.72659 363
28.74671 361
28.76682 366
28.78693 379
28.80705 344
28.82716 339
28.84727 334
28.86739 355
28.8875 348
28.90762 338
28.92773 348
28.94784 329
28.96796 390
28.98807 367
29.00818 336
29.0283 352
29.04841 412
29.06853 347
29.08864 373
29.10875 372
29.12887 380
29.14898 356
29.16909 318
29.18921 327
29.20932 365
29.22943 363
29.24955 391
29.26966 349
29.28978 375
29.30989 399
29.33 359
29.35012 398
29.37023 382
29.39034 396
29.41046 371
29.43057 388
29.45069 388
29.4708 416
29.49091 387
29.51103 396
29.53114 379
29.55125 394
29.57137 385
29.59148 422
29.6116 399
29.63171 434
29.65182 417
29.67194 425
29.69205 467
29.71216 464
29.73228 467
29.75239 509
29.7725 519
29.79262 474
29.81273 542
29.83285 510
29.85296 588
29.87307 519
29.89319 450
29.9133 536
29.93341 454
29.95353 411
29.97364 437
29.99376 387
30.01387 427
30.03398 455
30.0541 399
30.07421 430
30.09432 360
30.11444 395
30.13455 383
30.15467 425
30.17478 430
30.19489 387
30.21501 409
30.23512 385
30.25523 405
30.27535 418
30.29546 349
30.31557 376
30.33569 380
30.3558 405
30.37592 348
30.39603 386
30.41614 365
30.43626 386
30.45637 430
30.47648 356
30.4966 414
30.51671 415
30.53683 394
30.55694 383
30.57705 372
30.59717 360
30.61728 396
30.63739 421
30.65751 401
30.67762 415
30.69773 440
30.71785 450
30.73796 449
30.75808 430
30.77819 453
30.7983 450
30.81842 464
30.83853 452
30.85864 430
30.87876 426
30.89887 424
30.91899 386
30.9391 381
30.95921 361
30.97933 401
30.99944 349
31.01955 346
31.03967 385
31.05978 379
31.0799 385
31.10001 374
31.12012 396
31.14024 420
31.16035 386
31.18046 405
31.20058 404
31.22069 434
31.2408 401
31.26092 380
31.28103 370
31.30115 368
31.32126 344
31.34137 378
31.36149 358
31.3816 311
31.40171 344
31.42183 323
31.44194 322
31.46206 310
31.48217 290
31.50228 358
31.5224 338
31.54251 328
31.56262 325
31.58274 308
31.60285 331
31.62297 364
31.64308 351
31.66319 349
31.68331 327
31.70342 352
31.72353 327
31.74365 330
31.76376 355
31.78387 288
31.80399 350
31.8241 356
31.84422 325
31.86433 356
31.88444 339
31.90456 389
31.92467 356
31.94478 384
31.9649 376
31.98501 368
32.00513 404
32.02524 362
32.04535 364
32.06547 375
32.08558 403
32.10569 386
32.12581 420
32.14592 366
32.16604 383
32.18615 346
32.20626 377
32.22638 335
32.24649 361
32.2666 379
32.28672 356
32.30683 357
32.32694 348
32.34706 333
32.36717 342
32.38729 364
32.4074 364
32.42751 330
32.44763 301
32.46774 343
32.48785 345
32.50797 347
32.52808 349
32.5482 353
32.56831 312
32.58842 311
32.60854 317
32.62865 325
32.64876 318
32.66888 316
32.68899 331
32.7091 330
32.72922 322
32.74933 293
32.76945 321
32.78956 329
32.80967 320
32.82979 331
32.8499 325
32.87001 307
32.89013 302
32.91024 303
32.93036 319
32.95047 314
32.97058 320
32.9907 348
33.01081 329
33.03092 362
33.05104 332
33.07115 332
33.09127 322
33.11138 371
33.13149 324
33.15161 338
33.17172 337
33.19183 333
33.21195 362
33.23206 341
33.25217 355
33.27229 352
33.2924 325
33.31252 348
33.33263 349
33.35274 356
33.37286 357
33.39297 331
33.41308 344
33.4332 312
33.45331 387
33.47343 341
33.49354 320
33.51365 297
33.53377 323
33.55388 340
33.57399 334
33.59411 347
33.61422 336
33.63434 373
33.65445 328
33.67456 347
33.69468 356
33.71479 337
33.7349 353
33.75502 364
33.77513 339
33.79524 377
33.81536 377
33.83547 355
33.85559 368
33.8757 387
33.89581 350
33.91593 403
33.93604 370
33.95615 385
33.97627 402
33.99638 400
34.0165 432
34.03661 477
34.05672 448
34.07684 468
34.09695 511
34.11706 543
34.13718 511
34.15729 579
34.17741 536
34.19752 553
34.21763 545
34.23775 595
34.25786 562
34.27797 577
34.29809 595
34.3182 553
34.33831 538
34.35843 549
34.37854 549
34.39866 584
34.41877 533
34.43888 581
34.459 541
34.47911 512
34.49922 501
34.51934 511
34.53945 533
34.55957 500
34.57968 516
34.59979 493
34.61991 517
34.64002 512
34.66013 493
34.68025 570
34.70036 553
34.72047 560
34.74059 609
34.7607 657
34.78082 666
34.80093 690
34.82104 713
34.84116 716
34.86127 686
34.88138 697
34.9015 755
34.92161 718
34.94173 640
34.96184 598
34.98195 626
35.00207 606
35.02218 567
35.04229 496
35.06241 500
35.08252 516
35.10264 510
35.12275 479
35.14286 491
35.16298 464
35.18309 482
35.2032 442
35.22332 481
35.24343 461
35.26354 491
35.28366 469
35.30377 456
35.32389 451
35.344 463
35.36411 437
35.38423 461
35.40434 454
35.42445 439
35.44457 491
35.46468 482
35.4848 500
35.50491 464
35.52502 469
35.54514 491
35.56525 433
35.58536 451
35.60548 465
35.62559 473
35.64571 464
35.66582 489
35.68593 452
35.70605 455
35.72616 512
35.74627 495
35.76639 467
35.7865 469
35.80661 445
35.82673 460
35.84684 493
35.86696 513
35.88707 470
35.90718 455
35.9273 455
35.94741 417
35.96752 430
35.98764 481
36.00775 428
36.02787 454
36.04798 417
36.06809 483
36.08821 410
36.10832 442
36.12843 460
36.14855 447
36.16866 447
36.18878 456
36.20889 442
36.229 492
36.24912 560
36.26923 539
36.28934 586
36.30946 594
36.32957 648
36.34968 657
36.3698 706
36.38991 777
36.41003 866
36.43014 906
36.45025 1034
36.47037 1112
36.49048 1186
36.51059 1225
36.53071 1252
36.55082 1187
36.57094 1027
36.59105 904
36.61116 870
36.63128 727
36.65139 680
36.6715 588
36.69162 526
36.71173 470
36.73184 455
36.75196 489
36.77207 435
36.79219 466
36.8123 459
36.83241 463
36.85253 456
36.87264 438
36.89275 454
36.91287 427
36.93298 459
36.9531 443
36.97321 465
36.99332 469
37.01344 496
37.03355 453
37.05366 482
37.07378 479
37.09389 455
37.11401 459
37.13412 410
37.15423 436
37.17435 439
37.19446 439
37.21457 467
37.23469 452
37.2548 458
37.27491 437
37.29503 469
37.31514 456
37.33526 433
37.35537 492
37.37548 473
37.3956 477
37.41571 454
37.43582 472
37.45594 454
37.47605 487
37.49617 442
37.51628 463
37.53639 404
37.55651 470
37.57662 455
37.59673 486
37.61685 490
37.63696 474
37.65708 484
37.67719 439
37.6973 451
37.71742 401
37.73753 441
37.75764 449
37.77776 427
37.79787 444
37.81798 446
37.8381 392
37.85821 376
37.87833 387
37.89844 390
37.91855 369
37.93867 406
37.95878 424
37.97889 377
37.99901 364
38.01912 406
38.03924 398
38.05935 402
38.07946 377
38.09958 439
38.11969 398
38.1398 388
38.15992 390
38.18003 430
38.20015 417
38.22026 416
38.24037 432
38.26049 433
38.2806 416
38.30071 402
38.32083 419
38.34094 370
38.36105 435
38.38117 411
38.40128 395
38.4214 407
38.44151 399
38.46162 390
38.48174 437
38.50185 395
38.52196 408
38.54208 375
38.56219 403
38.58231 441
38.60242 400
38.62253 393
38.64265 367
38.66276 406
38.68287 372
38.70299 351
38.7231 395
38.74321 402
38.76333 357
38.78344 368
38.80356 383
38.82367 380
38.84378 363
38.8639 385
38.88401 353
38.90412 382
38.92424 362
38.94435 414
38.96447 394
38.98458 411
39.00469 418
39.02481 411
39.04492 374
39.06503 441
39.08515 425
39.10526 439
39.12538 463
39.14549 463
39.1656 488
39.18572 508
39.20583 461
39.22594 551
39.24606 579
39.26617 640
39.28628 666
39.3064 723
39.32651 747
39.34663 824
39.36674 958
39.38685 1075
39.40697 1104
39.42708 1152
39.44719 1143
39.46731 1129
39.48742 1019
39.50754 809
39.52765 830
39.54776 710
39.56788 634
39.58799 563
39.6081 472
39.62822 471
39.64833 438
39.66845 437
39.68856 381
39.70867 406
39.72879 389
39.7489 392
39.76901 400
39.78913 414
39.80924 394
39.82935 386
39.84947 408
39.86958 350
39.8897 422
39.90981 409
39.92992 395
39.95004 432
39.97015 485
39.99026 428
40.01038 420
40.03049 448
40.05061 413
40.07072 425
40.09083 487
40.11095 529
40.13106 516
40.15117 571
40.17129 609
40.1914 616
40.21152 679
40.23163 694
40.25174 719
40.27186 733
40.29197 689
40.31208 608
40.3322 608
40.35231 512
40.37242 544
40.39254 529
40.41265 435
40.43277 415
40.45288 444
40.47299 373
40.49311 417
40.51322 358
40.53333 350
40.55345 304
40.57356 360
40.59368 345
40.61379 345
40.6339 355
40.65402 333
40.67413 344
40.69424 363
40.71436 369
40.73447 369
40.75458 360
40.7747 359
40.79481 360
40.81493 348
40.83504 350
40.85515 361
40.87527 377
40.89538 370
40.91549 418
40.93561 347
40.95572 389
40.97584 385
40.99595 360
41.01606 361
41.03618 397
41.05629 391
41.0764 355
41.09652 394
41.11663 377
41.13675 370
41.15686 358
41.17697 380
41.19709 325
41.2172 382
41.23731 343
41.25743 366
41.27754 354
41.29765 347
41.31777 381
41.33788 367
41.358 391
41.37811 393
41.39822 390
41.41834 381
41.43845 375
41.45856 386
41.47868 387
41.49879 380
41.51891 377
41.53902 401
41.55913 391
41.57925 427
41.59936 388
41.61947 385
41.63959 445
41.6597 436
41.67982 407
41.69993 456
41.72004 442
41.74016 416
41.76027 442
41.78038 404
41.8005 413
41.82061 457
41.84072 385
41.86084 372
41.88095 393
41.90107 388
41.92118 382
41.94129 403
41.96141 391
41.98152 388
42.00163 394
42.02175 408
42.04186 398
42.06198 382
42.08209 398
42.1022 384
42.12232 400
42.14243 416
42.16254 434
42.18266 414
42.20277 478
42.22289 505
42.243 549
42.26311 589
42.28323 693
42.30334 682
42.32345 744
42.34357 747
42.36368 833
42.38379 828
42.40391 918
42.42402 941
42.44414 874
42.46425 801
42.48436 700
42.50448 637
42.52459 620
42.5447 585
42.56482 540
42.58493 453
42.60505 399
42.62516 360
42.64527 361
42.66539 347
42.6855 329
42.70561 346
42.72573 344
42.74584 336
42.76595 341
42.78607 340
42.80618 328
42.8263 272
42.84641 322
42.86652 299
42.88664 321
42.90675 284
42.92686 314
42.94698 295
42.96709 322
42.98721 287
43.00732 301
43.02743 315
43.04755 298
43.06766 315
43.08777 312
43.10789 287
43.128 301
43.14812 341
43.16823 293
43.18834 310
43.20846 304
43.22857 277
43.24868 299
43.2688 306
43.28891 291
43.30902 306
43.32914 295
43.34925 289
43.36937 299
43.38948 286
43.40959 309
43.42971 310
43.44982 281
43.46993 282
43.49005 280
43.51016 303
43.53028 355
43.55039 300
43.5705 273
43.59062 299
43.61073 312
43.63084 317
43.65096 312
43.67107 313
43.69119 281
43.7113 297
43.73141 288
43.75153 288
43.77164 310
43.79175 290
43.81187 292
43.83198 332
43.85209 289
43.87221 295
43.89232 299
43.91244 293
43.93255 312
43.95266 287
43.97278 307
43.99289 290
44.013 318
44.03312 310
44.05323 306
44.07335 308
44.09346 322
44.11357 321
44.13369 293
44.1538 340
44.17391 294
44.19403 301
44.21414 287
44.23426 295
44.25437 316
44.27448 297
44.2946 306
44.31471 287
44.33482 310
44.35494 278
44.37505 300
44.39516 318
44.41528 276
44.43539 283
44.45551 325
44.47562 268
44.49573 279
44.51585 280
44.53596 300
44.55607 305
44.57619 296
44.5963 292
44.61642 288
44.63653 306
44.65664 312
44.67676 289
44.69687 289
44.71698 323
44.7371 282
44.75721 285
44.77732 322
44.79744 326
44.81755 302
44.83767 303
44.85778 315
44.87789 282
44.89801 325
44.91812 341
44.93823 316
44.95835 352
44.97846 354
44.99858 345
45.01869 327
45.0388 376
45.05892 319
45.07903 320
45.09914 321
45.11926 336
45.13937 330
45.15949 365
45.1796 372
45.19971 375
45.21983 358
45.23994 347
45.26005 370
45.28017 364
45.30028 370
45.32039 435
45.34051 405
45.36062 402
45.38074 442
45.40085 424
45.42096 429
45.44108 428
45.46119 439
45.4813 447
45.50142 463
45.52153 445
45.54165 474
45.56176 488
45.58187 504
45.60199 478
45.6221 523
45.64221 555
45.66233 589
45.68244 611
45.70256 640
45.72267 692
45.74278 673
45.7629 720
45.78301 677
45.80312 663
45.82324 619
45.84335 545
45.86346 517
45.88358 519
45.90369 465
45.92381 481
45.94392 410
45.96403 372
45.98415 387
46.00426 354
46.02437 365
46.04449 345
46.0646 352
46.08472 341
46.10483 297
46.12494 271
46.14506 319
46.16517 296
46.18528 278
46.2054 322
46.22551 296
46.24563 324
46.26574 298
46.28585 319
46.30597 325
46.32608 298
46.34619 320
46.36631 325
46.38642 311
46.40653 333
46.42665 325
46.44676 312
46.46688 335
46.48699 311
46.5071 289
46.52722 314
46.54733 330
46.56744 325
46.58756 284
46.60767 305
46.62779 307
46.6479 293
46.66801 291
46.68813 293
46.70824 280
46.72835 279
46.74847 295
46.76858 323
46.78869 272
46.80881 303
46.82892 304
46.84904 292
46.86915 282
46.88926 292
46.90938 318
46.92949 297
46.9496 292
46.96972 315
46.98983 307
47.00995 319
47.03006 320
47.05017 320
47.07029 318
47.0904 332
47.11051 321
47.13063 308
47.15074 336
47.17086 323
47.19097 288
47.21108 326
47.2312 306
47.25131 314
47.27142 322
47.29154 264
47.31165 306
47.33176 277
47.35188 277
47.37199 297
47.39211 313
47.41222 313
47.43233 310
47.45245 297
47.47256 308
47.49267 287
47.51279 339
47.5329 293
47.55302 324
47.57313 299
47.59324 311
47.61336 312
47.63347 294
47.65358 289
47.6737 283
47.69381 301
47.71393 245
47.73404 259
47.75415 288
47.77427 332
47.79438 306
47.81449 297
47.83461 278
47.85472 337
47.87483 304
47.89495 315
47.91506 295
47.93518 302
47.95529 296
47.9754 300
47.99552 271
48.01563 275
48.03574 250
48.05586 316
48.07597 260
48.09609 325
48.1162 322
48.13631 311
48.15643 285
48.17654 312
48.19665 291
48.21677 291
48.23688 299
48.257 294
48.27711 264
48.29722 263
48.31734 293
48.33745 329
48.35756 323
48.37768 310
48.39779 295
48.4179 286
48.43802 300
48.45813 281
48.47825 283
48.49836 296
48.51847 294
48.53859 308
48.5587 307
48.57881 322
48.59893 288
48.61904 340
48.63916 321
48.65927 288
48.67938 299
48.6995 305
48.71961 303
48.73972 298
48.75984 291
48.77995 302
48.80006 292
48.82018 323
48.84029 294
48.86041 310
48.88052 301
48.90063 295
48.92075 290
48.94086 322
48.96097 295
48.98109 333
49.0012 297
49.02132 308
49.04143 284
49.06154 317
49.08166 333
49.10177 306
49.12188 289
49.142 332
49.16211 314
49.18223 299
49.20234 276
49.22245 302
49.24257 311
49.26268 296
49.28279 337
49.30291 318
49.32302 318
49.34313 321
49.36325 298
49.38336 341
49.40348 317
49.42359 336
49.4437 298
49.46382 297
49.48393 329
49.50404 337
49.52416 298
49.54427 310
49.56439 326
49.5845 345
49.60461 319
49.62473 344
49.64484 357
49.66495 370
49.68507 382
49.70518 391
49.7253 422
49.74541 419
49.76552 426
49.78564 447
49.80575 451
49.82586 474
49.84598 572
49.86609 585
49.8862 653
49.90632 729
49.92643 770
49.94655 850
49.96666 861
49.98677 1050
50.00689 1156
50.027 1291
50.04711 1289
50.06723 1485
50.08734 1584
50.10746 1675
50.12757 1650
50.14768 1392
50.1678 1191
50.18791 1059
50.20802 934
50.22814 926
50.24825 865
50.26837 846
50.28848 673
50.30859 529
50.32871 454
50.34882 407
50.36893 406
50.38905 382
50.40916 344
50.42927 371
50.44939 411
50.4695 419
50.48962 398
50.50973 409
50.52984 395
50.54996 389
50.57007 399
50.59018 357
50.6103 381
50.63041 354
50.65053 359
50.67064 370
50.69075 374
50.71087 351
50.73098 341
50.75109 323
50.77121 336
50.79132 298
50.81143 320
50.83155 293
50.85166 316
50.87178 316
50.89189 304
50.912 278
50.93212 307
50.95223 310
50.97234 301
50.99246 290
51.01257 287
51.03269 284
51.0528 264
51.07291 296
51.09303 300
51.11314 307
51.13325 307
51.15337 284
51.17348 311
51.1936 302
51.21371 315
51.23382 309
51.25394 276
51.27405 248
51.29416 279
51.31428 308
51.33439 259
51.3545 254
51.37462 302
51.39473 300
51.41485 303
51.43496 289
51.45507 263
51.47519 267
51.4953 279
51.51541 279
51.53553 290
51.55564 290
51.57576 268
51.59587 273
51.61598 272
51.6361 266
51.65621 258
51.67632 265
51.69644 255
51.71655 262
51.73667 265
51.75678 291
51.77689 251
51.79701 286
51.81712 255
51.83723 287
51.85735 284
51.87746 260
51.89757 247
51.91769 258
51.9378 287
51.95792 272
51.97803 288
51.99814 305
52.01826 264
52.03837 296
52.05848 284
52.0786 233
52.09871 287
52.11883 281
52.13894 286
52.15905 265
52.17917 258
52.19928 271
52.21939 273
52.23951 254
52.25962 281
52.27974 296
52.29985 270
52.31996 289
52.34008 279
52.36019 281
52.3803 300
52.40042 315
52.42053 281
52.44064 293
52.46076 275
52.48087 266
52.50099 309
52.5211 297
52.54121 290
52.56133 279
52.58144 289
52.60155 299
52.62167 266
52.64178 303
52.6619 299
52.68201 292
52.70212 315
52.72224 294
52.74235 296
52.76246 291
52.78258 307
52.80269 288
52.8228 338
52.84292 272
52.86303 315
52.88315 283
52.90326 292
52.92337 318
52.94349 305
52.9636 296
52.98371 305
53.00383 321
53.02394 270
53.04406 303
53.06417 313
53.08428 310
53.1044 271
53.12451 283
53.14462 295
53.16474 279
53.18485 317
53.20497 297
53.22508 275
53.24519 311
53.26531 314
53.28542 298
53.30553 305
53.32565 294
53.34576 314
53.36587 279
53.38599 297
53.4061 303
53.42622 322
53.44633 323
53.46644 289
53.48656 302
53.50667 318
53.52678 334
53.5469 329
53.56701 320
53.58713 333
53.60724 311
53.62735 328
53.64747 320
53.66758 359
53.68769 329
53.70781 347
53.72792 303
53.74804 364
53.76815 345
53.78826 360
53.80838 302
53.82849 295
53.8486 326
53.86872 342
53.88883 322
53.90894 335
53.92906 325
53.94917 340
53.96929 386
53.9894 337
54.00951 379
54.02963 331
54.04974 329
54.06985 380
54.08997 324
54.11008 342
54.1302 344
54.15031 353
54.17042 377
54.19054 353
54.21065 359
54.23076 367
54.25088 377
54.27099 355
54.29111 377
54.31122 386
54.33133 397
54.35145 374
54.37156 371
54.39167 367
54.41179 384
54.4319 401
54.45201 353
54.47213 386
54.49224 385
54.51236 396
54.53247 416
54.55258 431
54.5727 443
54.59281 438
54.61292 443
54.63304 448
54.65315 509
54.67327 516
54.69338 551
54.71349 594
54.73361 624
54.75372 609
54.77383 662
54.79395 718
54.81406 805
54.83417 758
54.85429 765
54.8744 688
54.89452 674
54.91463 579
54.93474 593
54.95486 565
54.97497 583
54.99508 590
55.0152 556
55.03531 540
55.05543 500
55.07554 466
55.09565 484
55.11577 456
55.13588 483
55.15599 500
55.17611 446
55.19622 526
55.21634 516
55.23645 516
55.25656 540
55.27668 498
55.29679 534
55.3169 538
55.33702 474
55.35713 472
55.37724 458
55.39736 444
55.41747 437
55.43759 424
55.4577 417
55.47781 428
55.49793 420
55.51804 377
55.53815 405
55.55827 391
55.57838 366
55.5985 370
55.61861 375
55.63872 381
55.65884 410
55.67895 388
55.69906 390
55.71918 364
55.73929 404
55.75941 407
55.77952 394
55.79963 352
55.81975 344
55.83986 368
55.85997 374
55.88009 369
55.9002 355
55.92031 349
55.94043 354
55.96054 339
55.98066 346
56.00077 341
56.02088 356
56.041 325
56.06111 295
56.08122 353
56.10134 297
56.12145 304
56.14157 348
56.16168 324
56.18179 323
56.20191 312
56.22202 329
56.24213 353
56.26225 304
56.28236 359
56.30248 338
56.32259 312
56.3427 348
56.36282 309
56.38293 297
56.40304 329
56.42316 312
56.44327 287
56.46338 309
56.4835 296
56.50361 295
56.52373 319
56.54384 314
56.56395 334
56.58407 310
56.60418 343
56.62429 293
56.64441 311
56.66452 337
56.68464 323
56.70475 320
56.72486 271
56.74498 321
56.76509 306
56.7852 298
56.80532 299
56.82543 291
56.84554 268
56.86566 264
56.88577 352
56.90589 297
56.926 332
56.94611 301
56.96623 286
56.98634 316
57.00645 288
57.02657 325
57.04668 302
57.0668 337
57.08691 347
57.10702 303
57.12714 330
57.14725 333
57.16736 318
57.18748 320
57.20759 297
57.22771 285
57.24782 307
57.26793 321
57.28805 308
57.30816 322
57.32827 293
57.34839 345
57.3685 317
57.38861 342
57.40873 284
57.42884 300
57.44896 300
57.46907 296
57.48918 308
57.5093 293
57.52941 297
57.54952 280
57.56964 281
57.58975 284
57.60987 281
57.62998 295
57.65009 296
57.67021 309
57.69032 327
57.71043 286
57.73055 277
57.75066 322
57.77078 301
57.79089 294
57.811 289
57.83112 280
57.85123 281
57.87134 284
57.89146 270
57.91157 245
57.93168 301
57.9518 300
57.97191 292
57.99203 286
58.01214 290
58.03225 282
58.05237 282
58.07248 260
58.09259 270
58.11271 304
58.13282 290
58.15294 329
58.17305 270
58.19316 293
58.21328 281
58.23339 286
58.2535 286
58.27362 251
58.29373 293
58.31385 302
58.33396 310
58.35407 276
58.37419 301
58.3943 292
58.41441 336
58.43453 274
58.45464 262
58.47475 285
58.49487 296
58.51498 309
58.5351 326
58.55521 283
58.57532 312
58.59544 319
58.61555 312
58.63566 334
58.65578 280
58.67589 310
58.69601 288
58.71612 299
58.73623 301
58.75635 275
58.77646 273
58.79657 306
58.81669 288
58.8368 261
58.85691 295
58.87703 305
58.89714 280
58.91726 286
58.93737 282
58.95748 307
58.9776 309
58.99771 264
59.01782 319
59.03794 326
59.05805 304
59.07817 287
59.09828 296
59.11839 296
59.13851 316
59.15862 329
59.17873 317
59.19885 278
59.21896 301
59.23908 313
59.25919 300
59.2793 317
59.29942 353
59.31953 304
59.33964 293
59.35976 318
59.37987 346
59.39998 334
59.4201 353
59.44021 352
59.46033 366
59.48044 380
59.50055 357
59.52067 361
59.54078 374
59.56089 432
59.58101 453
59.60112 450
59.62124 478
59.64135 493
59.66146 529
59.68158 562
59.70169 596
59.7218 627
59.74192 669
59.76203 685
59.78215 751
59.80226 846
59.82237 873
59.84249 929
59.8626 1021
59.88271 1066
59.90283 1149
59.92294 1101
59.94305 1130
59.96317 969
59.98328 870
60.0034 847
60.02351 749
60.04362 712
60.06374 750
60.08385 718
60.10396 646
60.12408 635
60.14419 571
60.16431 473
60.18442 457
60.20453 432
60.22465 410
60.24476 419
60.26487 429
60.28499 397
60.3051 374
60.32522 400
60.34533 371
60.36544 414
60.38556 424
60.40567 377
60.42578 310
60.4459 388
60.46601 412
60.48612 393
60.50624 368
60.52635 395
60.54647 368
60.56658 347
60.58669 350
60.60681 336
60.62692 341
60.64703 366
60.66715 296
60.68726 343
60.70738 309
60.72749 322
60.7476 307
60.76772 305
60.78783 337
60.80794 332
60.82806 320
60.84817 287
60.86828 322
60.8884 355
60.90851 287
60.92863 342
60.94874 308
60.96885 318
60.98897 330
61.00908 341
61.02919 324
61.04931 307
61.06942 310
61.08954 323
61.10965 353
61.12976 359
61.14988 320
61.16999 313
61.1901 300
61.21022 357
61.23033 327
61.25045 327
61.27056 366
61.29067 335
61.31079 352
61.3309 338
61.35101 356
61.37113 388
61.39124 348
61.41135 379
61.43147 409
61.45158 370
61.4717 410
61.49181 400
61.51192 359
61.53204 365
61.55215 368
61.57226 368
61.59238 354
61.61249 357
61.63261 351
61.65272 341
61.67283 355
61.69295 356
61.71306 346
61.73317 299
61.75329 326
61.7734 330
61.79352 306
61.81363 329
61.83374 335
61.85386 334
61.87397 327
61.89408 347
61.9142 314
61.93431 351
61.95442 326
61.97454 345
61.99465 352
62.01477 387
62.03488 345
62.05499 376
62.07511 335
62.09522 375
62.11533 362
62.13545 356
62.15556 381
62.17568 364
62.19579 333
62.2159 415
62.23602 386
62.25613 381
62.27624 396
62.29636 347
62.31647 388
62.33659 344
62.3567 366
62.37681 368
62.39693 379
62.41704 366
62.43715 340
62.45727 333
62.47738 298
62.49749 332
62.51761 315
62.53772 349
62.55784 351
62.57795 294
62.59806 324
62.61818 299
62.63829 322
62.6584 338
62.67852 316
62.69863 332
62.71875 307
62.73886 298
62.75897 326
62.77909 290
62.7992 299
62.81931 313
62.83943 302
62.85954 301
62.87965 332
62.89977 296
62.91988 311
62.94 300
62.96011 287
62.98022 305
63.00034 299
63.02045 302
63.04056 271
63.06068 327
63.08079 271
63.10091 287
63.12102 267
63.14113 309
63.16125 314
63.18136 268
63.20147 280
63.22159 288
63.2417 298
63.26182 344
63.28193 302
63.30204 302
63.32216 274
63.34227 319
63.36238 261
63.3825 281
63.40261 282
63.42272 283
63.44284 294
63.46295 291
63.48307 296
63.50318 292
63.52329 327
63.54341 286
63.56352 301
63.58363 317
63.60375 303
63.62386 298
63.64398 341
63.66409 306
63.6842 362
63.70432 299
63.72443 367
63.74454 347
63.76466 345
63.78477 372
63.80489 372
63.825 344
63.84511 359
63.86523 392
63.88534 389
63.90545 398
63.92557 425
63.94568 413
63.96579 418
63.98591 452
64.00602 434
64.02614 467
64.04625 423
64.06636 400
64.08648 410
64.10659 357
64.1267 358
64.14682 372
64.16693 361
64.18705 341
64.20716 396
64.22727 288
64.24739 322
64.2675 295
64.28761 271
64.30773 289
64.32784 283
64.34796 291
64.36807 254
64.38818 306
64.4083 249
64.42841 289
64.44852 264
64.46864 282
64.48875 285
64.50886 295
64.52898 261
64.54909 274
64.56921 274
64.58932 289
64.60943 269
64.62955 292
64.64966 274
64.66977 293
64.68989 285
64.71 293
64.73012 283
64.75023 284
64.77034 278
64.79046 278
64.81057 260
64.83068 285
64.8508 276
64.87091 310
64.89102 302
64.91114 290
64.93125 271
64.95137 257
64.97148 279
64.99159 275
65.01171 258
65.03182 266
65.05193 285
65.07205 298
65.09216 307
65.11228 303
65.13239 271
65.1525 280
65.17262 273
65.19273 289
65.21284 273
65.23296 305
65.25307 281
65.27319 270
65.2933 288
65.31341 279
65.33353 272
65.35364 295
65.37375 304
65.39387 324
65.41398 259
65.43409 275
65.45421 287
65.47432 275
65.49444 310
65.51455 282
65.53466 259
65.55478 266
65.57489 294
65.595 285
65.61512 269
65.63523 264
65.65535 323
65.67546 306
65.69557 298
65.71569 311
65.7358 307
65.75591 316
65.77603 267
65.79614 268
65.81626 271
65.83637 273
65.85648 273
65.8766 271
65.89671 280
65.91682 322
65.93694 302
65.95705 316
65.97716 284
65.99728 254
66.01739 299
66.03751 280
66.05762 262
66.07773 268
66.09785 279
66.11796 287
66.13807 285
66.15819 277
66.1783 280
66.19842 273
66.21853 279
66.23864 263
66.25876 250
66.27887 281
66.29898 264
66.3191 293
66.33921 308
66.35933 266
66.37944 274
66.39955 285
66.41967 274
66.43978 270
66.45989 271
66.48001 274
66.50012 264
66.52023 262
66.54035 277
66.56046 298
66.58058 294
66.60069 269
66.6208 276
66.64092 300
66.66103 286
66.68114 289
66.70126 288
66.72137 261
66.74149 271
66.7616 301
66.78171 270
66.80183 266
66.82194 254
66.84205 277
66.86217 279
66.88228 297
66.90239 279
66.92251 288
66.94262 280
66.96274 281
66.98285 307
67.00296 267
67.02308 267
67.04319 325
67.0633 282
67.08342 302
67.10353 303
67.12365 286
67.14376 310
67.16387 291
67.18399 302
67.2041 272
67.22421 292
67.24433 303
67.26444 344
67.28456 346
67.30467 338
67.32478 351
67.3449 365
67.36501 371
67.38512 381
67.40524 377
67.42535 400
67.44546 392
67.46558 433
67.48569 388
67.50581 442
67.52592 481
67.54603 549
67.56615 607
67.58626 588
67.60637 609
67.62649 697
67.6466 730
67.66672 781
67.68683 765
67.70694 811
67.72706 766
67.74717 715
67.76728 714
67.7874 648
67.80751 648
67.82763 625
67.84774 664
67.86785 669
67.88797 697
67.90808 716
67.92819 781
67.94831 729
67.96842 809
67.98853 777
68.00865 813
68.02876 892
68.04888 892
68.06899 918
68.0891 999
68.10922 995
68.12933 1047
68.14944 884
68.16956 838
68.18967 791
68.20979 816
68.2299 873
68.25001 831
68.27013 878
68.29024 807
68.31035 822
68.33047 695
68.35058 654
68.3707 589
68.39081 490
68.41092 512
68.43104 474
68.45115 496
68.47126 463
68.49138 437
68.51149 401
68.5316 387
68.55172 358
68.57183 319
68.59195 324
68.61206 311
68.63217 280
68.65229 299
68.6724 298
68.69251 321
68.71263 288
68.73274 306
68.75286 315
68.77297 283
68.79308 293
68.8132 278
68.83331 296
68.85342 297
68.87354 291
68.89365 289
68.91376 279
68.93388 260
68.95399 288
68.97411 287
68.99422 301
69.01433 272
69.03445 271
69.05456 271
69.07467 297
69.09479 293
69.1149 298
69.13502 281
69.15513 267
69.17524 308
69.19536 264
69.21547 302
69.23558 281
69.2557 271
69.27581 262
69.29593 326
69.31604 285
69.33615 288
69.35627 318
69.37638 297
69.39649 316
69.41661 272
69.43672 294
69.45683 288
69.47695 296
69.49706 308
69.51718 290
69.53729 283
69.5574 320
69.57752 285
69.59763 296
69.61774 299
69.63786 320
69.65797 268
69.67809 258
69.6982 267
69.71831 272
69.73843 298
69.75854 283
69.77865 259
69.79877 290
69.81888 274
69.839 286
69.85911 280
69.87922 282
69.89934 262
69.91945 282
69.93956 287
69.95968 299
69.97979 309
69.9999 277
70.02002 278
70.04013 290
70.06025 326
70.08036 327
70.10047 295
70.12059 275
70.1407 293
70.16081 254
70.18093 296
70.20104 273
70.22116 278
70.24127 306
70.26138 261
70.2815 260
70.30161 271
70.32172 283
70.34184 285
70.36195 256
70.38207 277
70.40218 273
70.42229 244
70.44241 282
70.46252 273
70.48263 286
70.50275 272
70.52286 272
70.54297 300
70.56309 284
70.5832 276
70.60332 251
70.62343 273
70.64354 293
70.66366 280
70.68377 272
70.70388 256
70.724 265
70.74411 244
70.76423 270
70.78434 255
70.80445 287
70.82457 278
70.84468 271
70.86479 285
70.88491 267
70.90502 295
70.92513 293
70.94525 261
70.96536 282
70.98548 288
71.00559 251
71.0257 271
71.04582 265
71.06593 282
71.08604 271
71.10616 268
71.12627 306
71.14639 299
71.1665 290
71.18661 289
71.20673 301
71.22684 288
71.24695 336
71.26707 283
71.28718 256
71.3073 283
71.32741 271
71.34752 273
71.36764 282
71.38775 264
71.40786 284
71.42798 286
71.44809 288
71.4682 285
71.48832 259
71.50843 285
71.52855 280
71.54866 293
71.56877 293
71.58889 259
71.609 277
71.62911 281
71.64923 286
71.66934 254
71.68946 275
71.70957 268
71.72968 245
71.7498 263
71.76991 300
71.79002 267
71.81014 262
71.83025 242
71.85037 283
71.87048 291
71.89059 272
71.91071 287
71.93082 311
71.95093 281
71.97105 287
71.99116 261
72.01127 283
72.03139 268
72.0515 265
72.07162 285
72.09173 308
72.11184 309
72.13196 308
72.15207 290
72.17218 307
72.1923 294
72.21241 299
72.23253 272
72.25264 282
72.27275 290
72.29287 308
72.31298 305
72.33309 277
72.35321 322
72.37332 307
72.39344 289
72.41355 310
72.43366 303
72.45378 295
72.47389 329
72.494 299
72.51412 315
72.53423 311
72.55434 304
72.57446 316
72.59457 268
72.61469 290
72.6348 317
72.65491 338
72.67503 290
72.69514 308
72.71525 294
72.73537 307
72.75548 326
72.7756 297
72.79571 293
72.81582 345
72.83594 315
72.85605 322
72.87616 323
72.89628 278
72.91639 314
72.9365 315
72.95662 275
72.97673 329
72.99685 319
73.01696 330
73.03707 311
73.05719 330
73.0773 315
73.09741 312
73.11753 325
73.13764 300
73.15776 309
73.17787 316
73.19798 361
73.2181 347
73.23821 397
73.25832 345
73.27844 378
73.29855 401
73.31867 376
73.33878 419
73.35889 406
73.37901 444
73.39912 484
73.41923 427
73.43935 423
73.45946 423
73.47957 377
73.49969 375
73.5198 370
73.53992 362
73.56003 360
73.58014 367
73.60026 378
73.62037 331
73.64048 348
73.6606 359
73.68071 353
73.70083 315
73.72094 314
73.74105 305
73.76117 280
73.78128 283
73.80139 322
73.82151 281
73.84162 290
73.86174 295
73.88185 280
73.90196 263
73.92208 301
73.94219 282
73.9623 294
73.98242 257
74.00253 251
74.02264 302
74.04276 279
74.06287 276
74.08299 280
74.1031 281
74.12321 289
74.14333 305
74.16344 267
74.18355 298
74.20367 284
74.22378 270
74.2439 266
74.26401 273
74.28412 270
74.30424 249
74.32435 238
74.34446 274
74.36458 271
74.38469 249
74.40481 272
74.42492 272
74.44503 286
74.46515 230
74.48526 294
74.50537 293
74.52549 271
74.5456 265
74.56571 312
74.58583 247
74.60594 275
74.62606 251
74.64617 278
74.66628 290
74.6864 270
74.70651 263
74.72662 251
74.74674 260
74.76685 275
74.78697 273
74.80708 277
74.82719 322
74.84731 288
74.86742 270
74.88753 296
74.90765 277
74.92776 284
74.94787 275
74.96799 279
74.9881 283
75.00822 271
