3.00117 20423
3.02128 19886
3.0414 19297
3.06151 19047
3.08162 18269
3.10174 18063
3.12185 17226
3.14197 16916
3.16208 16465
3.18219 15685
3.20231 15573
3.22242 14869
3.24253 14525
3.26265 14026
3.28276 13718
3.30288 13616
3.32299 12869
3.3431 12345
3.36322 12146
3.38333 11616
3.40344 11406
3.42356 10971
3.44367 10786
3.46379 10137
3.4839 9857
3.50401 9725
3.52413 9255
3.54424 8698
3.56435 8548
3.58447 8331
3.60458 8174
3.62469 7632
3.64481 7515
3.66492 7260
3.68504 6976
3.70515 6922
3.72526 6248
3.74538 6234
3.76549 5938
3.7856 5713
3.80572 5566
3.82583 5173
3.84595 5142
3.86606 4841
3.88617 4574
3.90629 4672
3.9264 4345
3.94651 4179
3.96663 3923
3.98674 3822
4.00686 3859
4.02697 3484
4.04708 3522
4.0672 3259
4.08731 3258
4.10742 3263
4.12754 2921
4.14765 2726
4.16776 2655
4.18788 2577
4.20799 2640
4.22811 2373
4.24822 2401
4.26833 2379
4.28845 2191
4.30856 2266
4.32867 2094
4.34879 2079
4.3689 2101
4.38902 1936
4.40913 2031
4.42924 1823
4.44936 1915
4.46947 1875
4.48958 1807
4.5097 1858
4.52981 1698
4.54992 1740
4.57004 1746
4.59015 1599
4.61027 1659
4.63038 1522
4.65049 1568
4.67061 1515
4.69072 1536
4.71083 1514
4.73095 1451
4.75106 1429
4.77118 1363
4.79129 1329
4.8114 1390
4.83152 1298
4.85163 1319
4.87174 1318
4.89186 1259
4.91197 1229
4.93209 1184
4.9522 1215
4.97231 1205
4.99243 1224
5.01254 1166
5.03265 1099
5.05277 1057
5.07288 1149
5.09299 1075
5.11311 1032
5.13322 1025
5.15334 1085
5.17345 1023
5.19356 991
5.21368 932
5.23379 1058
5.2539 968
5.27402 913
5.29413 967
5.31425 897
5.33436 930
5.35447 903
5.37459 864
5.3947 913
5.41481 844
5.43493 936
5.45504 843
5.47516 850
5.49527 773
5.51538 810
5.5355 839
5.55561 847
5.57572 746
5.59584 796
5.61595 738
5.63606 770
5.65618 753
5.67629 732
5.69641 764
5.71652 779
5.73663 736
5.75675 700
5.77686 693
5.79697 722
5.81709 685
5.8372 688
5.85732 680
5.87743 681
5.89754 645
5.91766 666
5.93777 676
5.95788 724
5.978 635
5.99811 681
6.01823 681
6.03834 677
6.05845 658
6.07857 630
6.09868 643
6.11879 611
6.13891 650
6.15902 660
6.17913 680
6.19925 667
6.21936 626
6.23948 675
6.25959 673
6.2797 655
6.29982 642
6.31993 597
6.34004 626
6.36016 605
6.38027 582
6.40039 627
6.4205 630
6.44061 625
6.46073 627
6.48084 581
6.50095 602
6.52107 593
6.54118 618
6.56129 601
6.58141 662
6.60152 603
6.62164 622
6.64175 590
6.66186 548
6.68198 571
6.70209 581
6.7222 555
6.74232 591
6.76243 597
6.78255 598
6.80266 594
6.82277 632
6.84289 588
6.863 575
6.88311 594
6.90323 558
6.92334 590
6.94346 579
6.96357 572
6.98368 544
7.0038 577
7.02391 608
7.04402 538
7.06414 579
7.08425 543
7.10436 578
7.12448 590
7.14459 558
7.16471 567
7.18482 576
7.20493 591
7.22505 525
7.24516 564
7.26527 572
7.28539 556
7.3055 588
7.32562 541
7.34573 582
7.36584 538
7.38596 569
7.40607 543
7.42618 558
7.4463 536
7.46641 579
7.48653 540
7.50664 517
7.52675 537
7.54687 576
7.56698 556
7.58709 527
7.60721 533
7.62732 533
7.64743 597
7.66755 561
7.68766 568
7.70778 561
7.72789 568
7.748 554
7.76812 551
7.78823 558
7.80834 559
7.82846 549
7.84857 567
7.86869 551
7.8888 537
7.90891 582
7.92903 545
7.94914 508
7.96925 566
7.98937 563
8.00948 534
8.0296 546
8.04971 575
8.06982 518
8.08994 513
8.11005 542
8.13016 470
8.15028 554
8.17039 539
8.1905 567
8.21062 555
8.23073 539
8.25085 557
8.27096 557
8.29107 533
8.31119 594
8.3313 564
8.35141 569
8.37153 536
8.39164 567
8.41176 510
8.43187 584
8.45198 534
8.4721 574
8.49221 552
8.51232 542
8.53244 501
8.55255 555
8.57266 590
8.59278 534
8.61289 532
8.63301 578
8.65312 565
8.67323 564
8.69335 542
8.71346 537
8.73357 508
8.75369 543
8.7738 550
8.79392 562
8.81403 610
8.83414 615
8.85426 562
8.87437 572
8.89448 537
8.9146 548
8.93471 556
8.95483 589
8.97494 536
8.99505 574
9.01517 523
9.03528 544
9.05539 542
9.07551 548
9.09562 548
9.11573 556
9.13585 571
9.15596 548
9.17608 544
9.19619 519
9.2163 503
9.23642 513
9.25653 580
9.27664 538
9.29676 547
9.31687 537
9.33699 498
9.3571 585
9.37721 492
9.39733 523
9.41744 521
9.43755 568
9.45767 559
9.47778 578
9.4979 533
9.51801 514
9.53812 510
9.55824 572
9.57835 545
9.59846 515
9.61858 537
9.63869 500
9.6588 532
9.67892 479
9.69903 538
9.71915 558
9.73926 483
9.75937 490
9.77949 522
9.7996 500
9.81971 510
9.83983 507
9.85994 507
9.88006 526
9.90017 512
9.92028 502
9.9404 518
9.96051 521
9.98062 535
10.00074 539
10.02085 531
10.04097 527
10.06108 530
10.08119 591
10.10131 522
10.12142 516
10.14153 513
10.16165 519
10.18176 499
10.20187 600
10.22199 512
10.2421 493
10.26222 560
10.28233 517
10.30244 542
10.32256 562
10.34267 451
10.36278 516
10.3829 521
10.40301 482
10.42313 557
10.44324 529
10.46335 522
10.48347 533
10.50358 509
10.52369 517
10.54381 546
10.56392 507
10.58403 559
10.60415 444
10.62426 533
10.64438 554
10.66449 561
10.6846 553
10.70472 501
10.72483 555
10.74494 536
10.76506 551
10.78517 530
10.80529 532
10.8254 533
10.84551 533
10.86563 581
10.88574 507
10.90585 553
10.92597 551
10.94608 543
10.9662 550
10.98631 540
11.00642 587
11.02654 589
11.04665 526
11.06676 515
11.08688 553
11.10699 519
11.1271 553
11.14722 587
11.16733 544
11.18745 511
11.20756 555
11.22767 566
11.24779 532
11.2679 557
11.28801 572
11.30813 546
11.32824 528
11.34836 531
11.36847 583
11.38858 524
11.4087 584
11.42881 544
11.44892 554
11.46904 537
11.48915 581
11.50927 607
11.52938 570
11.54949 599
11.56961 588
11.58972 587
11.60983 595
11.62995 579
11.65006 598
11.67017 585
11.69029 593
11.7104 590
11.73052 593
11.75063 616
11.77074 572
11.79086 592
11.81097 617
11.83108 579
11.8512 567
11.87131 601
11.89143 611
11.91154 602
11.93165 596
11.95177 607
11.97188 607
11.99199 579
12.01211 645
12.03222 623
12.05234 590
12.07245 627
12.09256 589
12.11268 641
12.13279 615
12.1529 656
12.17302 599
12.19313 637
12.21324 603
12.23336 609
12.25347 661
12.27359 642
12.2937 604
12.31381 720
12.33393 653
12.35404 660
12.37415 660
12.39427 601
12.41438 587
12.4345 574
12.45461 624
12.47472 523
12.49484 555
12.51495 576
12.53506 595
12.55518 544
12.57529 566
12.5954 608
12.61552 505
12.63563 531
12.65575 520
12.67586 541
12.69597 556
12.71609 502
12.7362 544
12.75631 589
12.77643 529
12.79654 515
12.81666 516
12.83677 519
12.85688 512
12.877 585
12.89711 515
12.91722 451
12.93734 501
12.95745 513
12.97757 504
12.99768 508
13.01779 500
13.03791 495
13.05802 494
13.07813 542
13.09825 531
13.11836 494
13.13847 452
13.15859 477
13.1787 507
13.19882 499
13.21893 526
13.23904 482
13.25916 455
13.27927 495
13.29938 464
13.3195 502
13.33961 481
13.35973 465
13.37984 512
13.39995 489
13.42007 489
13.44018 488
13.46029 516
13.48041 494
13.50052 495
13.52064 547
13.54075 501
13.56086 487
13.58098 535
13.60109 527
13.6212 525
13.64132 561
13.66143 527
13.68154 488
13.70166 508
13.72177 531
13.74189 484
13.762 474
13.78211 512
13.80223 509
13.82234 462
13.84245 514
13.86257 458
13.88268 460
13.9028 471
13.92291 439
13.94302 447
13.96314 473
13.98325 441
14.00336 480
14.02348 489
14.04359 488
14.06371 447
14.08382 436
14.10393 457
14.12405 466
14.14416 461
14.16427 409
14.18439 437
14.2045 471
14.22461 465
14.24473 464
14.26484 466
14.28496 465
14.30507 448
14.32518 460
14.3453 455
14.36541 439
14.38552 487
14.40564 428
14.42575 437
14.44587 457
14.46598 480
14.48609 443
14.50621 457
14.52632 474
14.54643 456
14.56655 477
14.58666 418
14.60677 434
14.62689 456
14.647 447
14.66712 428
14.68723 464
14.70734 456
14.72746 486
14.74757 441
14.76768 465
14.7878 484
14.80791 434
14.82803 422
14.84814 453
14.86825 446
14.88837 469
14.90848 463
14.92859 464
14.94871 474
14.96882 465
14.98894 497
15.00905 461
15.02916 445
15.04928 462
15.06939 460
15.0895 479
15.10962 482
15.12973 482
15.14984 483
15.16996 525
15.19007 450
15.21019 494
15.2303 450
15.25041 510
15.27053 462
15.29064 518
15.31075 466
15.33087 453
15.35098 431
15.3711 476
15.39121 453
15.41132 435
15.43144 424
15.45155 431
15.47166 434
15.49178 456
15.51189 448
15.53201 467
15.55212 437
15.57223 464
15.59235 405
15.61246 436
15.63257 423
15.65269 422
15.6728 438
15.69291 453
15.71303 479
15.73314 429
15.75326 427
15.77337 392
15.79348 462
15.8136 440
15.83371 472
15.85382 443
15.87394 470
15.89405 434
15.91417 460
15.93428 449
15.95439 414
15.97451 451
15.99462 490
16.01473 442
16.03485 435
16.05496 426
16.07508 450
16.09519 404
16.1153 395
16.13542 503
16.15553 496
16.17564 464
16.19576 460
16.21587 422
16.23598 440
16.2561 470
16.27621 467
16.29633 435
16.31644 426
16.33655 441
16.35667 441
16.37678 422
16.39689 460
16.41701 480
16.43712 475
16.45724 502
16.47735 427
16.49746 419
16.51758 426
16.53769 441
16.5578 440
16.57792 467
16.59803 477
16.61814 440
16.63826 428
16.65837 464
16.67849 442
16.6986 446
16.71871 470
16.73883 449
16.75894 420
16.77905 472
16.79917 450
16.81928 462
16.8394 450
16.85951 455
16.87962 482
16.89974 443
16.91985 423
16.93996 444
16.96008 424
16.98019 432
17.00031 437
17.02042 441
17.04053 412
17.06065 440
17.08076 446
17.10087 428
17.12099 441
17.1411 426
17.16121 449
17.18133 490
17.20144 429
17.22156 473
17.24167 431
17.26178 416
17.2819 446
17.30201 459
17.32212 433
17.34224 465
17.36235 483
17.38247 427
17.40258 443
17.42269 459
17.44281 431
17.46292 474
17.48303 443
17.50315 414
17.52326 426
17.54338 432
17.56349 449
17.5836 448
17.60372 451
17.62383 410
17.64394 473
17.66406 457
17.68417 458
17.70428 466
17.7244 451
17.74451 488
17.76463 473
17.78474 441
17.80485 439
17.82497 487
17.84508 405
17.86519 477
17.88531 506
17.90542 508
17.92554 451
17.94565 460
17.96576 446
17.98588 484
18.00599 481
18.0261 480
18.04622 487
18.06633 466
18.08645 462
18.10656 488
18.12667 452
18.14679 490
18.1669 460
18.18701 516
18.20713 457
18.22724 484
18.24735 457
18.26747 440
18.28758 450
18.3077 466
18.32781 444
18.34792 479
18.36804 475
18.38815 469
18.40826 499
18.42838 502
18.44849 506
18.46861 482
18.48872 437
18.50883 470
18.52895 497
18.54906 477
18.56917 474
18.58929 467
18.6094 479
18.62951 472
18.64963 483
18.66974 447
18.68986 433
18.70997 481
18.73008 484
18.7502 452
18.77031 445
18.79042 446
18.81054 464
18.83065 486
18.85077 440
18.87088 464
18.89099 509
18.91111 508
18.93122 517
18.95133 461
18.97145 500
18.99156 479
19.01168 461
19.03179 498
19.0519 471
19.07202 468
19.09213 480
19.11224 476
19.13236 424
19.15247 493
19.17258 507
19.1927 475
19.21281 496
19.23293 540
19.25304 498
19.27315 520
19.29327 480
19.31338 564
19.33349 547
19.35361 518
19.37372 629
19.39384 526
19.41395 599
19.43406 522
19.45418 578
19.47429 584
19.4944 573
19.51452 574
19.53463 576
19.55475 584
19.57486 657
19.59497 633
19.61509 655
19.6352 666
19.65531 759
19.67543 745
19.69554 836
19.71565 743
19.73577 856
19.75588 800
19.776 868
19.79611 892
19.81622 911
19.83634 902
19.85645 913
19.87656 956
19.89668 942
19.91679 931
19.93691 966
19.95702 891
19.97713 890
19.99725 876
20.01736 881
20.03747 882
20.05759 931
20.0777 843
20.09782 905
20.11793 831
20.13804 849
20.15816 869
20.17827 821
20.19838 868
20.2185 815
20.23861 832
20.25872 833
20.27884 798
20.29895 790
20.31907 791
20.33918 866
20.35929 803
20.37941 812
20.39952 789
20.41963 781
20.43975 801
20.45986 848
20.47998 791
20.50009 811
20.5202 835
20.54032 791
20.56043 819
20.58054 780
20.60066 806
20.62077 829
20.64088 927
20.661 866
20.68111 927
20.70123 1010
20.72134 1217
20.74145 1381
20.76157 1600
20.78168 1809
20.80179 2026
20.82191 2073
20.84202 2044
20.86214 1694
20.88225 1483
20.90236 1263
20.92248 1034
20.94259 978
20.9627 836
20.98282 810
21.00293 787
21.02305 803
21.04316 835
21.06327 819
21.08339 804
21.1035 781
21.12361 799
21.14373 699
21.16384 751
21.18395 791
21.20407 799
21.22418 767
21.2443 754
21.26441 793
21.28452 806
21.30464 726
21.32475 744
21.34486 738
21.36498 778
21.38509 771
21.40521 753
21.42532 782
21.44543 796
21.46555 789
21.48566 803
21.50577 782
21.52589 823
21.546 822
21.56612 893
21.58623 918
21.60634 894
21.62646 803
21.64657 840
21.66668 841
21.6868 806
21.70691 748
21.72702 737
21.74714 675
21.76725 708
21.78737 623
21.80748 704
21.82759 733
21.84771 679
21.86782 665
21.88793 772
21.90805 671
21.92816 693
21.94828 685
21.96839 719
21.9885 662
22.00862 636
22.02873 685
22.04884 659
22.06896 646
22.08907 644
22.10919 614
22.1293 681
22.14941 599
22.16953 643
22.18964 594
22.20975 631
22.22987 646
22.24998 610
22.27009 617
22.29021 625
22.31032 603
22.33044 630
22.35055 635
22.37066 603
22.39078 613
22.41089 612
22.431 626
22.45112 581
22.47123 581
22.49135 606
22.51146 638
22.53157 644
22.55169 597
22.5718 655
22.59191 594
22.61203 653
22.63214 611
22.65225 674
22.67237 627
22.69248 583
22.7126 663
22.73271 618
22.75282 630
22.77294 676
22.79305 677
22.81316 672
22.83328 717
22.85339 679
22.87351 691
22.89362 692
22.91373 671
22.93385 634
22.95396 671
22.97407 703
22.99419 661
23.0143 596
23.03442 619
23.05453 668
23.07464 629
23.09476 611
23.11487 627
23.13498 626
23.1551 634
23.17521 593
23.19532 614
23.21544 626
23.23555 640
23.25567 623
23.27578 648
23.29589 617
23.31601 616
23.33612 591
23.35623 638
23.37635 629
23.39646 679
23.41658 615
23.43669 671
23.4568 677
23.47692 635
23.49703 709
23.51714 787
23.53726 690
23.55737 738
23.57749 845
23.5976 805
23.61771 780
23.63783 830
23.65794 858
23.67805 791
23.69817 788
23.71828 794
23.73839 802
23.75851 803
23.77862 711
23.79874 711
23.81885 744
23.83896 724
23.85908 684
23.87919 666
23.8993 732
23.91942 722
23.93953 707
23.95965 720
23.97976 725
23.99987 702
24.01999 668
24.0401 707
24.06021 679
24.08033 682
24.10044 719
24.12056 701
24.14067 721
24.16078 721
24.1809 678
24.20101 688
24.22112 686
24.24124 668
24.26135 641
24.28146 683
24.30158 699
24.32169 704
24.34181 654
24.36192 686
24.38203 659
24.40215 693
24.42226 702
24.44237 617
24.46249 678
24.4826 719
24.50272 689
24.52283 682
24.54294 742
24.56306 714
24.58317 734
24.60328 694
24.6234 710
24.64351 707
24.66362 706
24.68374 709
24.70385 707
24.72397 677
24.74408 707
24.76419 770
24.78431 763
24.80442 754
24.82453 740
24.84465 762
24.86476 733
24.88488 703
24.90499 731
24.9251 764
24.94522 722
24.96533 717
24.98544 707
25.00556 709
25.02567 750
25.04579 724
25.0659 750
25.08601 686
25.10613 696
25.12624 711
25.14635 751
25.16647 712
25.18658 693
25.20669 671
25.22681 728
25.24692 677
25.26704 697
25.28715 738
25.30726 710
25.32738 740
25.34749 722
25.3676 720
25.38772 680
25.40783 689
25.42795 695
25.44806 725
25.46817 663
25.48829 651
25.5084 670
25.52851 717
25.54863 726
25.56874 687
25.58886 723
25.60897 720
25.62908 763
25.6492 730
25.66931 726
25.68942 759
25.70954 732
25.72965 736
25.74976 741
25.76988 738
25.78999 771
25.81011 739
25.83022 678
25.85033 698
25.87045 697
25.89056 701
25.91067 670
25.93079 655
25.9509 656
25.97102 680
25.99113 666
26.01124 638
26.03136 699
26.05147 663
26.07158 668
26.0917 669
26.11181 771
26.13193 712
26.15204 706
26.17215 716
26.19227 721
26.21238 733
26.23249 733
26.25261 777
26.27272 866
26.29283 794
26.31295 800
26.33306 882
26.35318 916
26.37329 982
26.3934 1059
26.41352 1154
26.43363 1346
26.45374 1766
26.47386 2022
26.49397 2796
26.51409 3615
26.5342 4764
26.55431 5865
26.57443 6692
26.59454 7066
26.61465 6579
26.63477 5701
26.65488 4528
26.67499 3521
26.69511 2579
26.71522 1934
26.73534 1429
26.75545 1130
26.77556 1000
26.79568 951
26.81579 916
26.8359 842
26.85602 857
26.87613 782
26.89625 742
26.91636 761
26.93647 723
26.95659 710
26.9767 740
26.99681 715
27.01693 696
27.03704 710
27.05716 709
27.07727 723
27.09738 701
27.1175 679
27.13761 661
27.15772 650
27.17784 725
27.19795 669
27.21806 637
27.23818 707
27.25829 683
27.27841 707
27.29852 765
27.31863 836
27.33875 938
27.35886 938
27.37897 1049
27.39909 1141
27.4192 1201
27.43932 1124
27.45943 1156
27.47954 1154
27.49966 1031
27.51977 1007
27.53988 953
27.56 874
27.58011 864
27.60023 836
27.62034 864
27.64045 865
27.66057 908
27.68068 947
27.70079 917
27.72091 970
27.74102 920
27.76113 853
27.78125 892
27.80136 820
27.82148 787
27.84159 754
27.8617 750
27.88182 675
27.90193 672
27.92204 601
27.94216 652
27.96227 634
27.98239 604
28.0025 557
28.02261 571
28.04273 561
28.06284 596
28.08295 564
28.10307 564
28.12318 584
28.1433 573
28.16341 547
28.18352 564
28.20364 592
28.22375 565
28.24386 544
28.26398 576
28.28409 567
28.3042 557
28.32432 518
28.34443 536
28.36455 541
28.38466 570
28.40477 538
28.42489 565
28.445 517
28.46511 553
28.48523 511
28.50534 506
28.52546 526
28.54557 522
28.56568 556
28.5858 571
28.60591 555
28.62602 551
28.64614 522
28.66625 491
28.68636 570
28.70648 559
28.72659 540
28.74671 570
28.76682 470
28.78693 534
28.80705 501
28.82716 556
28.84727 514
28.86739 549
28.8875 527
28.90762 538
28.92773 506
28.94784 492
28.96796 477
28.98807 503
29.00818 524
29.0283 471
29.04841 500
29.06853 528
29.08864 543
29.10875 505
29.12887 505
29.14898 520
29.16909 534
29.18921 570
29.20932 538
29.22943 499
29.24955 493
29.26966 502
29.28978 491
29.30989 517
29.33 525
29.35012 536
29.37023 528
29.39034 519
29.41046 580
29.43057 517
29.45069 530
29.4708 503
29.49091 531
29.51103 530
29.53114 575
29.55125 539
29.57137 519
29.59148 526
29.6116 543
29.63171 540
29.65182 550
29.67194 557
29.69205 535
29.71216 574
29.73228 591
29.75239 544
29.7725 562
29.79262 554
29.81273 544
29.83285 559
29.85296 579
29.87307 551
29.89319 578
29.9133 612
29.93341 582
29.95353 590
29.97364 587
29.99376 591
30.01387 579
30.03398 612
30.0541 579
30.07421 622
30.09432 572
30.11444 639
30.13455 554
30.15467 579
30.17478 606
30.19489 607
30.21501 544
30.23512 551
30.25523 522
30.27535 560
30.29546 547
30.31557 580
30.33569 578
30.3558 558
30.37592 585
30.39603 549
30.41614 556
30.43626 516
30.45637 576
30.47648 551
30.4966 555
30.51671 568
30.53683 538
30.55694 582
30.57705 549
30.59717 568
30.61728 605
30.63739 526
30.65751 575
30.67762 585
30.69773 584
30.71785 636
30.73796 543
30.75808 556
30.77819 592
30.7983 590
30.81842 570
30.83853 557
30.85864 541
30.87876 550
30.89887 611
30.91899 545
30.9391 547
30.95921 557
30.97933 516
30.99944 511
31.01955 518
31.03967 532
31.05978 513
31.0799 530
31.10001 527
31.12012 512
31.14024 549
31.16035 534
31.18046 500
31.20058 528
31.22069 519
31.2408 532
31.26092 486
31.28103 496
31.30115 514
31.32126 509
31.34137 493
31.36149 500
31.3816 489
31.40171 456
31.42183 464
31.44194 472
31.46206 525
31.48217 467
31.50228 508
31.5224 496
31.54251 506
31.56262 497
31.58274 470
31.60285 497
31.62297 511
31.64308 494
31.66319 523
31.68331 487
31.70342 518
31.72353 514
31.74365 502
31.76376 475
31.78387 521
31.80399 496
31.8241 522
31.84422 532
31.86433 511
31.88444 506
31.90456 552
31.92467 505
31.94478 515
31.9649 495
31.98501 517
32.00513 506
32.02524 486
32.04535 517
32.06547 554
32.08558 511
32.10569 502
32.12581 500
32.14592 515
32.16604 556
32.18615 498
32.20626 545
32.22638 534
32.24649 533
32.2666 488
32.28672 546
32.30683 578
32.32694 520
32.34706 569
32.36717 536
32.38729 546
32.4074 560
32.42751 533
32.44763 528
32.46774 551
32.48785 543
32.50797 569
32.52808 554
32.5482 583
32.56831 529
32.58842 568
32.60854 534
32.62865 621
32.64876 549
32.66888 573
32.68899 563
32.7091 569
32.72922 581
32.74933 541
32.76945 546
32.78956 609
32.80967 579
32.82979 570
32.8499 589
32.87001 648
32.89013 594
32.91024 644
32.93036 626
32.95047 650
32.97058 652
32.9907 621
33.01081 638
33.03092 637
33.05104 674
33.07115 658
33.09127 651
33.11138 669
33.13149 659
33.15161 643
33.17172 648
33.19183 642
33.21195 671
33.23206 646
33.25217 645
33.27229 621
33.2924 576
33.31252 566
33.33263 568
33.35274 601
33.37286 606
33.39297 554
33.41308 592
33.4332 558
33.45331 575
33.47343 576
33.49354 570
33.51365 546
33.53377 561
33.55388 527
33.57399 595
33.59411 522
33.61422 498
33.63434 542
33.65445 517
33.67456 555
33.69468 556
33.71479 482
33.7349 532
33.75502 493
33.77513 532
33.79524 522
33.81536 521
33.83547 541
33.85559 509
33.8757 505
33.89581 527
33.91593 533
33.93604 466
33.95615 512
33.97627 562
33.99638 506
34.0165 524
34.03661 538
34.05672 524
34.07684 515
34.09695 537
34.11706 559
34.13718 560
34.15729 512
34.17741 549
34.19752 568
34.21763 525
34.23775 541
34.25786 522
34.27797 527
34.29809 513
34.3182 586
34.33831 543
34.35843 584
34.37854 549
34.39866 589
34.41877 512
34.43888 597
34.459 530
34.47911 542
34.49922 578
34.51934 588
34.53945 561
34.55957 623
34.57968 592
34.59979 623
34.61991 620
34.64002 663
34.66013 627
34.68025 620
34.70036 640
34.72047 701
34.74059 670
34.7607 690
34.78082 696
34.80093 667
34.82104 744
34.84116 685
34.86127 739
34.88138 706
34.9015 733
34.92161 772
34.94173 735
34.96184 709
34.98195 728
35.00207 759
35.02218 728
35.04229 740
35.06241 765
35.08252 718
35.10264 752
35.12275 801
35.14286 810
35.16298 789
35.18309 820
35.2032 751
35.22332 767
35.24343 751
35.26354 792
35.28366 772
35.30377 766
35.32389 814
35.344 707
35.36411 776
35.38423 778
35.40434 813
35.42445 795
35.44457 804
35.46468 804
35.4848 857
35.50491 824
35.52502 843
35.54514 840
35.56525 852
35.58536 808
35.60548 824
35.62559 827
35.64571 826
35.66582 837
35.68593 789
35.70605 806
35.72616 767
35.74627 771
35.76639 785
35.7865 775
35.80661 775
35.82673 753
35.84684 761
35.86696 769
35.88707 742
35.90718 732
35.9273 703
35.94741 723
35.96752 699
35.98764 670
36.00775 687
36.02787 722
36.04798 679
36.06809 657
36.08821 665
36.10832 684
36.12843 667
36.14855 662
36.16866 701
36.18878 663
36.20889 675
36.229 628
36.24912 649
36.26923 691
36.28934 681
36.30946 692
36.32957 725
36.34968 713
36.3698 693
36.38991 720
36.41003 869
36.43014 928
36.45025 977
36.47037 990
36.49048 1068
36.51059 1018
36.53071 941
36.55082 960
36.57094 846
36.59105 908
36.61116 761
36.63128 760
36.65139 665
36.6715 665
36.69162 683
36.71173 622
36.73184 643
36.75196 651
36.77207 626
36.79219 642
36.8123 637
36.83241 624
36.85253 633
36.87264 643
36.89275 623
36.91287 674
36.93298 576
36.9531 613
36.97321 598
36.99332 613
37.01344 642
37.03355 590
37.05366 589
37.07378 603
37.09389 618
37.11401 611
37.13412 581
37.15423 602
37.17435 589
37.19446 610
37.21457 562
37.23469 628
37.2548 625
37.27491 615
37.29503 581
37.31514 562
37.33526 550
37.35537 590
37.37548 586
37.3956 607
37.41571 577
37.43582 622
37.45594 574
37.47605 604
37.49617 580
37.51628 582
37.53639 606
37.55651 576
37.57662 574
37.59673 558
37.61685 581
37.63696 591
37.65708 582
37.67719 619
37.6973 602
37.71742 582
37.73753 596
37.75764 598
37.77776 621
37.79787 568
37.81798 599
37.8381 598
37.85821 569
37.87833 602
37.89844 620
37.91855 587
37.93867 535
37.95878 611
37.97889 585
37.99901 607
38.01912 596
38.03924 580
38.05935 602
38.07946 574
38.09958 563
38.11969 567
38.1398 592
38.15992 593
38.18003 545
38.20015 558
38.22026 592
38.24037 558
38.26049 586
38.2806 580
38.30071 601
38.32083 587
38.34094 540
38.36105 603
38.38117 622
38.40128 624
38.4214 587
38.44151 556
38.46162 595
38.48174 617
38.50185 585
38.52196 580
38.54208 603
38.56219 591
38.58231 588
38.60242 534
38.62253 575
38.64265 595
38.66276 530
38.68287 518
38.70299 522
38.7231 550
38.74321 537
38.76333 570
38.78344 579
38.80356 580
38.82367 571
38.84378 552
38.8639 544
38.88401 600
38.90412 538
38.92424 545
38.94435 547
38.96447 568
38.98458 531
39.00469 554
39.02481 600
39.04492 566
39.06503 565
39.08515 569
39.10526 565
39.12538 538
39.14549 596
39.1656 555
39.18572 558
39.20583 538
39.22594 568
39.24606 579
39.26617 606
39.28628 612
39.3064 663
39.32651 683
39.34663 745
39.36674 769
39.38685 835
39.40697 859
39.42708 835
39.44719 797
39.46731 819
39.48742 765
39.50754 709
39.52765 681
39.54776 601
39.56788 592
39.58799 549
39.6081 544
39.62822 479
39.64833 519
39.66845 514
39.68856 504
39.70867 509
39.72879 536
39.7489 516
39.76901 500
39.78913 499
39.80924 543
39.82935 513
39.84947 492
39.86958 512
39.8897 484
39.90981 511
39.92992 508
39.95004 515
39.97015 523
39.99026 535
40.01038 517
40.03049 487
40.05061 570
40.07072 572
40.09083 546
40.11095 563
40.13106 601
40.15117 627
40.17129 598
40.1914 691
40.21152 716
40.23163 690
40.25174 692
40.27186 686
40.29197 594
40.31208 632
40.3322 600
40.35231 605
40.37242 554
40.39254 567
40.41265 561
40.43277 531
40.45288 541
40.47299 528
40.49311 535
40.51322 531
40.53333 582
40.55345 530
40.57356 506
40.59368 564
40.61379 558
40.6339 560
40.65402 592
40.67413 527
40.69424 551
40.71436 484
40.73447 560
40.75458 546
40.7747 561
40.79481 595
40.81493 557
40.83504 538
40.85515 572
40.87527 541
40.89538 567
40.91549 553
40.93561 543
40.95572 521
40.97584 532
40.99595 541
41.01606 519
41.03618 545
41.05629 537
41.0764 524
41.09652 538
41.11663 543
41.13675 570
41.15686 553
41.17697 555
41.19709 532
41.2172 543
41.23731 494
41.25743 527
41.27754 552
41.29765 511
41.31777 511
41.33788 492
41.358 486
41.37811 499
41.39822 503
41.41834 539
41.43845 498
41.45856 487
41.47868 485
41.49879 541
41.51891 529
41.53902 516
41.55913 540
41.57925 554
41.59936 553
41.61947 511
41.63959 520
41.6597 543
41.67982 539
41.69993 510
41.72004 506
41.74016 497
41.76027 561
41.78038 514
41.8005 506
41.82061 512
41.84072 495
41.86084 470
41.88095 504
41.90107 457
41.92118 474
41.94129 512
41.96141 493
41.98152 474
42.00163 482
42.02175 458
42.04186 468
42.06198 458
42.08209 478
42.1022 491
42.12232 473
42.14243 508
42.16254 496
42.18266 516
42.20277 492
42.22289 505
42.243 518
42.26311 608
42.28323 555
42.30334 624
42.32345 654
42.34357 658
42.36368 734
42.38379 713
42.40391 697
42.42402 664
42.44414 677
42.46425 616
42.48436 615
42.50448 605
42.52459 565
42.5447 558
42.56482 525
42.58493 495
42.60505 506
42.62516 474
42.64527 481
42.66539 497
42.6855 454
42.70561 513
42.72573 485
42.74584 478
42.76595 485
42.78607 473
42.80618 519
42.8263 502
42.84641 456
42.86652 456
42.88664 498
42.90675 498
42.92686 454
42.94698 484
42.96709 481
42.98721 492
43.00732 473
43.02743 456
43.04755 478
43.06766 499
43.08777 466
43.10789 486
43.128 444
43.14812 438
43.16823 474
43.18834 487
43.20846 488
43.22857 483
43.24868 483
43.2688 477
43.28891 500
43.30902 472
43.32914 482
43.34925 493
43.36937 450
43.38948 429
43.40959 464
43.42971 455
43.44982 470
43.46993 492
43.49005 473
43.51016 433
43.53028 496
43.55039 483
43.5705 466
43.59062 394
43.61073 458
43.63084 441
43.65096 443
43.67107 492
43.69119 444
43.7113 454
43.73141 434
43.75153 492
43.77164 449
43.79175 463
43.81187 484
43.83198 468
43.85209 503
43.87221 460
43.89232 486
43.91244 517
43.93255 410
43.95266 472
43.97278 455
43.99289 454
44.013 470
44.03312 446
44.05323 473
44.07335 500
44.09346 429
44.11357 451
44.13369 473
44.1538 459
44.17391 430
44.19403 468
44.21414 450
44.23426 423
44.25437 465
44.27448 466
44.2946 441
44.31471 443
44.33482 441
44.35494 455
44.37505 443
44.39516 454
44.41528 455
44.43539 448
44.45551 450
44.47562 487
44.49573 462
44.51585 453
44.53596 469
44.55607 459
44.57619 437
44.5963 457
44.61642 440
44.63653 469
44.65664 464
44.67676 504
44.69687 472
44.71698 450
44.7371 474
44.75721 443
44.77732 456
44.79744 469
44.81755 464
44.83767 432
44.85778 455
44.87789 461
44.89801 446
44.91812 441
44.93823 464
44.95835 457
44.97846 468
44.99858 448
45.01869 476
45.0388 480
45.05892 478
45.07903 487
45.09914 441
45.11926 435
45.13937 474
45.15949 457
45.1796 447
45.19971 518
45.21983 453
45.23994 477
45.26005 501
45.28017 430
45.30028 481
45.32039 477
45.34051 497
45.36062 477
45.38074 504
45.40085 492
45.42096 492
45.44108 488
45.46119 495
45.4813 475
45.50142 491
45.52153 485
45.54165 534
45.56176 496
45.58187 504
45.60199 529
45.6221 548
45.64221 552
45.66233 560
45.68244 593
45.70256 639
45.72267 657
45.74278 634
45.7629 629
45.78301 595
45.80312 567
45.82324 549
45.84335 592
45.86346 567
45.88358 492
45.90369 481
45.92381 476
45.94392 455
45.96403 514
45.98415 519
46.00426 436
46.02437 475
46.04449 476
46.0646 478
46.08472 439
46.10483 492
46.12494 473
46.14506 465
46.16517 443
46.18528 449
46.2054 471
46.22551 473
46.24563 492
46.26574 509
46.28585 459
46.30597 459
46.32608 507
46.34619 511
46.36631 446
46.38642 445
46.40653 463
46.42665 498
46.44676 466
46.46688 462
46.48699 462
46.5071 456
46.52722 470
46.54733 467
46.56744 441
46.58756 489
46.60767 465
46.62779 451
46.6479 479
46.66801 430
46.68813 452
46.70824 460
46.72835 483
46.74847 492
46.76858 499
46.78869 440
46.80881 477
46.82892 450
46.84904 446
46.86915 418
46.88926 496
46.90938 512
46.92949 496
46.9496 459
46.96972 485
46.98983 466
47.00995 462
47.03006 482
47.05017 482
47.07029 470
47.0904 462
47.11051 446
47.13063 473
47.15074 445
47.17086 472
47.19097 466
47.21108 449
47.2312 470
47.25131 452
47.27142 448
47.29154 457
47.31165 416
47.33176 479
47.35188 430
47.37199 477
47.39211 445
47.41222 490
47.43233 456
47.45245 435
47.47256 453
47.49267 437
47.51279 396
47.5329 472
47.55302 485
47.57313 461
47.59324 439
47.61336 466
47.63347 459
47.65358 448
47.6737 457
47.69381 437
47.71393 469
47.73404 470
47.75415 481
47.77427 462
47.79438 452
47.81449 416
47.83461 458
47.85472 442
47.87483 465
47.89495 459
47.91506 455
47.93518 454
47.95529 439
47.9754 462
47.99552 455
48.01563 429
48.03574 468
48.05586 486
48.07597 455
48.09609 452
48.1162 441
48.13631 427
48.15643 468
48.17654 487
48.19665 454
48.21677 485
48.23688 473
48.257 454
48.27711 432
48.29722 509
48.31734 487
48.33745 451
48.35756 466
48.37768 477
48.39779 490
48.4179 474
48.43802 472
48.45813 503
48.47825 440
48.49836 462
48.51847 466
48.53859 510
48.5587 477
48.57881 471
48.59893 498
48.61904 468
48.63916 469
48.65927 449
48.67938 488
48.6995 472
48.71961 451
48.73972 496
48.75984 517
48.77995 469
48.80006 490
48.82018 499
48.84029 461
48.86041 462
48.88052 423
48.90063 487
48.92075 497
48.94086 473
48.96097 476
48.98109 478
49.0012 484
49.02132 461
49.04143 527
49.06154 434
49.08166 495
49.10177 444
49.12188 451
49.142 498
49.16211 487
49.18223 468
49.20234 472
49.22245 490
49.24257 476
49.26268 472
49.28279 522
49.30291 498
49.32302 513
49.34313 520
49.36325 488
49.38336 508
49.40348 483
49.42359 464
49.4437 517
49.46382 534
49.48393 519
49.50404 491
49.52416 498
49.54427 555
49.56439 507
49.5845 488
49.60461 514
49.62473 478
49.64484 556
49.66495 531
49.68507 470
49.70518 534
49.7253 502
49.74541 504
49.76552 500
49.78564 488
49.80575 546
49.82586 514
49.84598 574
49.86609 538
49.8862 536
49.90632 576
49.92643 606
49.94655 649
49.96666 709
49.98677 712
50.00689 902
50.027 931
50.04711 1020
50.06723 1114
50.08734 1099
50.10746 941
50.12757 886
50.14768 801
50.1678 792
50.18791 751
50.20802 795
50.22814 692
50.24825 674
50.26837 596
50.28848 543
50.30859 524
50.32871 505
50.34882 457
50.36893 465
50.38905 511
50.40916 490
50.42927 429
50.44939 483
50.4695 451
50.48962 546
50.50973 487
50.52984 457
50.54996 485
50.57007 473
50.59018 491
50.6103 513
50.63041 449
50.65053 481
50.67064 498
50.69075 459
50.71087 488
50.73098 472
50.75109 462
50.77121 463
50.79132 511
50.81143 488
50.83155 485
50.85166 519
50.87178 548
50.89189 491
50.912 493
50.93212 526
50.95223 539
50.97234 495
50.99246 486
51.01257 492
51.03269 466
51.0528 505
51.07291 461
51.09303 513
51.11314 491
51.13325 455
51.15337 461
51.17348 425
51.1936 447
51.21371 452
51.23382 464
51.25394 430
51.27405 463
51.29416 451
51.31428 425
51.33439 410
51.3545 464
51.37462 422
51.39473 424
51.41485 448
51.43496 416
51.45507 479
51.47519 421
51.4953 430
51.51541 444
51.53553 422
51.55564 396
51.57576 411
51.59587 451
51.61598 419
51.6361 418
51.65621 449
51.67632 408
51.69644 429
51.71655 428
51.73667 419
51.75678 430
51.77689 439
51.79701 434
51.81712 464
51.83723 413
51.85735 379
51.87746 447
51.89757 432
51.91769 464
51.9378 422
51.95792 431
51.97803 429
51.99814 435
52.01826 391
52.03837 392
52.05848 447
52.0786 414
52.09871 413
52.11883 386
52.13894 435
52.15905 401
52.17917 408
52.19928 445
52.21939 391
52.23951 421
52.25962 458
52.27974 414
52.29985 428
52.31996 459
52.34008 445
52.36019 440
52.3803 439
52.40042 423
52.42053 433
52.44064 472
52.46076 414
52.48087 431
52.50099 466
52.5211 420
52.54121 445
52.56133 430
52.58144 412
52.60155 443
52.62167 454
52.64178 462
52.6619 490
52.68201 483
52.70212 446
52.72224 493
52.74235 441
52.76246 444
52.78258 476
52.80269 474
52.8228 448
52.84292 473
52.86303 443
52.88315 410
52.90326 511
52.92337 480
52.94349 445
52.9636 422
52.98371 456
53.00383 450
53.02394 460
53.04406 459
53.06417 445
53.08428 430
53.1044 469
53.12451 451
53.14462 483
53.16474 469
53.18485 458
53.20497 452
53.22508 458
53.24519 525
53.26531 469
53.28542 505
53.30553 477
53.32565 479
53.34576 443
53.36587 443
53.38599 507
53.4061 520
53.42622 484
53.44633 485
53.46644 490
53.48656 515
53.50667 518
53.52678 473
53.5469 536
53.56701 531
53.58713 506
53.60724 519
53.62735 465
53.64747 526
53.66758 519
53.68769 540
53.70781 540
53.72792 527
53.74804 488
53.76815 546
53.78826 566
53.80838 522
53.82849 576
53.8486 522
53.86872 548
53.88883 574
53.90894 521
53.92906 543
53.94917 553
53.96929 586
53.9894 601
54.00951 569
54.02963 613
54.04974 582
54.06985 583
54.08997 552
54.11008 573
54.1302 565
54.15031 523
54.17042 535
54.19054 576
54.21065 523
54.23076 557
54.25088 576
54.27099 604
54.29111 546
54.31122 544
54.33133 558
54.35145 502
54.37156 563
54.39167 568
54.41179 554
54.4319 543
54.45201 566
54.47213 546
54.49224 549
54.51236 533
54.53247 486
54.55258 549
54.5727 555
54.59281 549
54.61292 562
54.63304 571
54.65315 550
54.67327 550
54.69338 533
54.71349 575
54.73361 595
54.75372 673
54.77383 649
54.79395 684
54.81406 645
54.83417 687
54.85429 615
54.8744 631
54.89452 584
54.91463 593
54.93474 580
54.95486 616
54.97497 560
54.99508 562
55.0152 541
55.03531 554
55.05543 499
55.07554 590
55.09565 512
55.11577 543
55.13588 556
55.15599 522
55.17611 528
55.19622 593
55.21634 541
55.23645 512
55.25656 548
55.27668 552
55.29679 561
55.3169 542
55.33702 534
55.35713 561
55.37724 477
55.39736 509
55.41747 532
55.43759 504
55.4577 492
55.47781 459
55.49793 502
55.51804 495
55.53815 525
55.55827 457
55.57838 483
55.5985 474
55.61861 464
55.63872 495
55.65884 454
55.67895 463
55.69906 481
55.71918 501
55.73929 500
55.75941 477
55.77952 459
55.79963 488
55.81975 439
55.83986 462
55.85997 471
55.88009 435
55.9002 460
55.92031 488
55.94043 455
55.96054 472
55.98066 457
56.00077 451
56.02088 427
56.041 472
56.06111 447
56.08122 472
56.10134 476
56.12145 439
56.14157 475
56.16168 484
56.18179 457
56.20191 430
56.22202 464
56.24213 473
56.26225 486
56.28236 468
56.30248 429
56.32259 432
56.3427 484
56.36282 431
56.38293 458
56.40304 433
56.42316 429
56.44327 434
56.46338 459
56.4835 450
56.50361 479
56.52373 485
56.54384 440
56.56395 471
56.58407 474
56.60418 466
56.62429 488
56.64441 445
56.66452 471
56.68464 526
56.70475 475
56.72486 477
56.74498 460
56.76509 400
56.7852 437
56.80532 424
56.82543 471
56.84554 469
56.86566 449
56.88577 465
56.90589 490
56.926 436
56.94611 453
56.96623 462
56.98634 500
57.00645 457
57.02657 436
57.04668 464
57.0668 488
57.08691 482
57.10702 452
57.12714 474
57.14725 479
57.16736 454
57.18748 454
57.20759 472
57.22771 468
57.24782 452
57.26793 475
57.28805 464
57.30816 459
57.32827 483
57.34839 462
57.3685 490
57.38861 449
57.40873 444
57.42884 426
57.44896 447
57.46907 480
57.48918 441
57.5093 439
57.52941 463
57.54952 467
57.56964 447
57.58975 466
57.60987 449
57.62998 445
57.65009 450
57.67021 459
57.69032 441
57.71043 434
57.73055 427
57.75066 440
57.77078 487
57.79089 422
57.811 449
57.83112 410
57.85123 452
57.87134 423
57.89146 435
57.91157 439
57.93168 432
57.9518 437
57.97191 428
57.99203 404
58.01214 435
58.03225 431
58.05237 436
58.07248 428
58.09259 431
58.11271 422
58.13282 453
58.15294 437
58.17305 422
58.19316 460
58.21328 418
58.23339 381
58.2535 447
58.27362 454
58.29373 409
58.31385 433
58.33396 437
58.35407 435
58.37419 441
58.3943 399
58.41441 404
58.43453 432
58.45464 439
58.47475 427
58.49487 418
58.51498 437
58.5351 395
58.55521 462
58.57532 425
58.59544 428
58.61555 423
58.63566 398
58.65578 440
58.67589 422
58.69601 469
58.71612 424
58.73623 407
58.75635 423
58.77646 437
58.79657 458
58.81669 466
58.8368 397
58.85691 434
58.87703 417
58.89714 442
58.91726 432
58.93737 435
58.95748 469
58.9776 480
58.99771 414
59.01782 461
59.03794 426
59.05805 442
59.07817 458
59.09828 455
59.11839 418
59.13851 426
59.15862 434
59.17873 456
59.19885 447
59.21896 477
59.23908 438
59.25919 437
59.2793 434
59.29942 452
59.31953 456
59.33964 408
59.35976 436
59.37987 461
59.39998 439
59.4201 431
59.44021 442
59.46033 417
59.48044 440
59.50055 419
59.52067 430
59.54078 422
59.56089 432
59.58101 424
59.60112 501
59.62124 451
59.64135 423
59.66146 495
59.68158 467
59.70169 496
59.7218 511
59.74192 585
59.76203 583
59.78215 593
59.80226 653
59.82237 719
59.84249 737
59.8626 744
59.88271 760
59.90283 803
59.92294 732
59.94305 648
59.96317 594
59.98328 595
60.0034 595
60.02351 620
60.04362 610
60.06374 578
60.08385 579
60.10396 580
60.12408 539
60.14419 480
60.16431 450
60.18442 445
60.20453 467
60.22465 431
60.24476 440
60.26487 454
60.28499 421
60.3051 422
60.32522 458
60.34533 443
60.36544 444
60.38556 447
60.40567 443
60.42578 440
60.4459 402
60.46601 451
60.48612 407
60.50624 424
60.52635 458
60.54647 426
60.56658 418
60.58669 437
60.60681 453
60.62692 434
60.64703 439
60.66715 437
60.68726 461
60.70738 415
60.72749 425
60.7476 434
60.76772 429
60.78783 448
60.80794 429
60.82806 458
60.84817 439
60.86828 429
60.8884 427
60.90851 429
60.92863 452
60.94874 417
60.96885 430
60.98897 450
61.00908 456
61.02919 409
61.04931 415
61.06942 452
61.08954 431
61.10965 474
61.12976 436
61.14988 423
61.16999 438
61.1901 463
61.21022 479
61.23033 420
61.25045 433
61.27056 459
61.29067 440
61.31079 419
61.3309 484
61.35101 475
61.37113 441
61.39124 457
61.41135 456
61.43147 449
61.45158 469
61.4717 476
61.49181 520
61.51192 480
61.53204 504
61.55215 499
61.57226 462
61.59238 504
61.61249 453
61.63261 488
61.65272 482
61.67283 470
61.69295 487
61.71306 484
61.73317 522
61.75329 503
61.7734 504
61.79352 509
61.81363 507
61.83374 508
61.85386 521
61.87397 532
61.89408 532
61.9142 505
61.93431 513
61.95442 550
61.97454 545
61.99465 552
62.01477 548
62.03488 529
62.05499 543
62.07511 580
62.09522 535
62.11533 571
62.13545 585
62.15556 594
62.17568 600
62.19579 577
62.2159 597
62.23602 611
62.25613 609
62.27624 585
62.29636 618
62.31647 590
62.33659 579
62.3567 535
62.37681 569
62.39693 560
62.41704 622
62.43715 533
62.45727 562
62.47738 562
62.49749 550
62.51761 538
62.53772 528
62.55784 495
62.57795 512
62.59806 527
62.61818 519
62.63829 480
62.6584 516
62.67852 492
62.69863 502
62.71875 488
62.73886 499
62.75897 479
62.77909 485
62.7992 503
62.81931 497
62.83943 470
62.85954 444
62.87965 521
62.89977 474
62.91988 472
62.94 468
62.96011 472
62.98022 445
63.00034 450
63.02045 451
63.04056 465
63.06068 422
63.08079 477
63.10091 416
63.12102 490
63.14113 454
63.16125 447
63.18136 442
63.20147 451
63.22159 449
63.2417 449
63.26182 452
63.28193 442
63.30204 465
63.32216 489
63.34227 443
63.36238 480
63.3825 473
63.40261 459
63.42272 502
63.44284 450
63.46295 426
63.48307 422
63.50318 449
63.52329 462
63.54341 457
63.56352 428
63.58363 447
63.60375 460
63.62386 473
63.64398 467
63.66409 441
63.6842 446
63.70432 483
63.72443 476
63.74454 463
63.76466 440
63.78477 457
63.80489 505
63.825 508
63.84511 504
63.86523 497
63.88534 510
63.90545 536
63.92557 511
63.94568 550
63.96579 569
63.98591 547
64.00602 534
64.02614 512
64.04625 503
64.06636 498
64.08648 530
64.10659 521
64.1267 512
64.14682 540
64.16693 463
64.18705 489
64.20716 490
64.22727 482
64.24739 477
64.2675 426
64.28761 448
64.30773 473
64.32784 470
64.34796 456
64.36807 454
64.38818 443
64.4083 446
64.42841 456
64.44852 483
64.46864 434
64.48875 442
64.50886 425
64.52898 425
64.54909 460
64.56921 373
64.58932 427
64.60943 375
64.62955 430
64.64966 413
64.66977 390
64.68989 429
64.71 434
64.73012 435
64.75023 409
64.77034 417
64.79046 431
64.81057 395
64.83068 411
64.8508 434
64.87091 410
64.89102 421
64.91114 406
64.93125 404
64.95137 368
64.97148 390
64.99159 395
65.01171 418
65.03182 393
65.05193 410
65.07205 421
65.09216 397
65.11228 413
65.13239 429
65.1525 419
65.17262 395
65.19273 407
65.21284 428
65.23296 417
65.25307 436
65.27319 421
65.2933 400
65.31341 413
65.33353 417
65.35364 389
65.37375 406
65.39387 402
65.41398 377
65.43409 420
65.45421 415
65.47432 404
65.49444 375
65.51455 399
65.53466 420
65.55478 388
65.57489 391
65.595 437
65.61512 430
65.63523 430
65.65535 431
65.67546 371
65.69557 375
65.71569 421
65.7358 435
65.75591 411
65.77603 403
65.79614 440
65.81626 369
65.83637 375
65.85648 400
65.8766 431
65.89671 434
65.91682 396
65.93694 384
65.95705 401
65.97716 402
65.99728 436
66.01739 387
66.03751 435
66.05762 430
66.07773 397
66.09785 404
66.11796 402
66.13807 401
66.15819 392
66.1783 403
66.19842 400
66.21853 409
66.23864 397
66.25876 403
66.27887 412
66.29898 411
66.3191 373
66.33921 377
66.35933 438
66.37944 433
66.39955 388
66.41967 421
66.43978 402
66.45989 409
66.48001 385
66.50012 393
66.52023 376
66.54035 392
66.56046 394
66.58058 366
66.60069 360
66.6208 412
66.64092 387
66.66103 386
66.68114 372
66.70126 382
66.72137 383
66.74149 382
66.7616 371
66.78171 375
66.80183 413
66.82194 396
66.84205 382
66.86217 408
66.88228 375
66.90239 400
66.92251 376
66.94262 415
66.96274 369
66.98285 413
67.00296 380
67.02308 400
67.04319 386
67.0633 398
67.08342 410
67.10353 419
67.12365 353
67.14376 382
67.16387 427
67.18399 399
67.2041 370
67.22421 412
67.24433 392
67.26444 386
67.28456 400
67.30467 435
67.32478 449
67.3449 390
67.36501 389
67.38512 416
67.40524 414
67.42535 453
67.44546 406
67.46558 392
67.48569 453
67.50581 412
67.52592 442
67.54603 481
67.56615 493
67.58626 521
67.60637 555
67.62649 571
67.6466 592
67.66672 636
67.68683 581
67.70694 567
67.72706 536
67.74717 510
67.76728 531
67.7874 519
67.80751 479
67.82763 576
67.84774 524
67.86785 543
67.88797 490
67.90808 553
67.92819 552
67.94831 572
67.96842 558
67.98853 602
68.00865 625
68.02876 657
68.04888 672
68.06899 645
68.0891 702
68.10922 634
68.12933 623
68.14944 616
68.16956 646
68.18967 632
68.20979 637
68.2299 634
68.25001 620
68.27013 639
68.29024 572
68.31035 557
68.33047 578
68.35058 497
68.3707 519
68.39081 511
68.41092 447
68.43104 453
68.45115 478
68.47126 457
68.49138 464
68.51149 422
68.5316 465
68.55172 415
68.57183 423
68.59195 401
68.61206 381
68.63217 377
68.65229 414
68.6724 400
68.69251 386
68.71263 406
68.73274 379
68.75286 366
68.77297 398
68.79308 389
68.8132 396
68.83331 390
68.85342 382
68.87354 388
68.89365 400
68.91376 399
68.93388 429
68.95399 397
68.97411 368
68.99422 386
69.01433 421
69.03445 383
69.05456 373
69.07467 371
69.09479 388
69.1149 401
69.13502 405
69.15513 369
69.17524 349
69.19536 369
69.21547 363
69.23558 406
69.2557 404
69.27581 362
69.29593 408
69.31604 378
69.33615 346
69.35627 365
69.37638 399
69.39649 404
69.41661 386
69.43672 384
69.45683 374
69.47695 389
69.49706 401
69.51718 357
69.53729 408
69.5574 395
69.57752 371
69.59763 395
69.61774 398
69.63786 384
69.65797 359
69.67809 368
69.6982 388
69.71831 378
69.73843 395
69.75854 374
69.77865 401
69.79877 376
69.81888 399
69.839 393
69.85911 412
69.87922 396
69.89934 344
69.91945 387
69.93956 384
69.95968 370
69.97979 369
69.9999 412
70.02002 355
70.04013 348
70.06025 366
70.08036 371
70.10047 372
70.12059 390
70.1407 404
70.16081 345
70.18093 404
70.20104 397
70.22116 365
70.24127 384
70.26138 398
70.2815 359
70.30161 404
70.32172 351
70.34184 358
70.36195 380
70.38207 381
70.40218 358
70.42229 364
70.44241 352
70.46252 378
70.48263 391
70.50275 372
70.52286 408
70.54297 368
70.56309 401
70.5832 368
70.60332 389
70.62343 377
70.64354 376
70.66366 387
70.68377 368
70.70388 378
70.724 353
70.74411 389
70.76423 334
70.78434 401
70.80445 372
70.82457 380
70.84468 378
70.86479 350
70.88491 382
70.90502 358
70.92513 380
70.94525 359
70.96536 395
70.98548 376
71.00559 382
71.0257 389
71.04582 369
71.06593 389
71.08604 374
71.10616 326
71.12627 346
71.14639 388
71.1665 353
71.18661 357
71.20673 347
71.22684 356
71.24695 354
71.26707 392
71.28718 365
71.3073 352
71.32741 359
71.34752 368
71.36764 392
71.38775 381
71.40786 354
71.42798 406
71.44809 367
71.4682 376
71.48832 390
71.50843 370
71.52855 384
71.54866 374
71.56877 384
71.58889 359
71.609 403
71.62911 347
71.64923 413
71.66934 388
71.68946 330
71.70957 383
71.72968 341
71.7498 359
71.76991 363
71.79002 356
71.81014 368
71.83025 388
71.85037 393
71.87048 380
71.89059 380
71.91071 400
71.93082 372
71.95093 377
71.97105 391
71.99116 402
72.01127 433
72.03139 349
72.0515 383
72.07162 390
72.09173 384
72.11184 374
72.13196 400
72.15207 402
72.17218 379
72.1923 359
72.21241 375
72.23253 392
72.25264 401
72.27275 361
72.29287 396
72.31298 364
72.33309 400
72.35321 380
72.37332 363
72.39344 403
72.41355 363
72.43366 359
72.45378 365
72.47389 380
72.494 380
72.51412 394
72.53423 363
72.55434 379
72.57446 352
72.59457 393
72.61469 373
72.6348 392
72.65491 396
72.67503 378
72.69514 384
72.71525 402
72.73537 383
72.75548 359
72.7756 381
72.79571 399
72.81582 339
72.83594 363
72.85605 413
72.87616 419
72.89628 356
72.91639 385
72.9365 370
72.95662 395
72.97673 417
72.99685 356
73.01696 396
73.03707 358
73.05719 375
73.0773 385
73.09741 386
73.11753 371
73.13764 374
73.15776 389
73.17787 396
73.19798 403
73.2181 403
73.23821 428
73.25832 413
73.27844 397
73.29855 432
73.31867 456
73.33878 417
73.35889 437
73.37901 436
73.39912 456
73.41923 457
73.43935 440
73.45946 416
73.47957 432
73.49969 415
73.5198 392
73.53992 399
73.56003 434
73.58014 403
73.60026 414
73.62037 428
73.64048 402
73.6606 428
73.68071 411
73.70083 417
73.72094 393
73.74105 380
73.76117 391
73.78128 400
73.80139 391
73.82151 411
73.84162 372
73.86174 380
73.88185 368
73.90196 403
73.92208 370
73.94219 360
73.9623 377
73.98242 367
74.00253 351
74.02264 357
74.04276 362
74.06287 386
74.08299 346
74.1031 389
74.12321 405
74.14333 389
74.16344 374
74.18355 356
74.20367 399
74.22378 377
74.2439 403
74.26401 371
74.28412 387
74.30424 378
74.32435 370
74.34446 383
74.36458 403
74.38469 373
74.40481 394
74.42492 359
74.44503 395
74.46515 360
74.48526 371
74.50537 406
74.52549 362
74.5456 370
74.56571 344
74.58583 408
74.60594 373
74.62606 397
74.64617 352
74.66628 352
74.6864 386
74.70651 381
74.72662 397
74.74674 367
74.76685 354
74.78697 368
74.80708 350
74.82719 383
74.84731 353
74.86742 363
74.88753 347
74.90765 376
74.92776 349
74.94787 396
74.96799 383
74.9881 351
75.00822 384
