3.00117 20781
3.02128 20085
3.0414 19505
3.06151 19202
3.08162 18473
3.10174 18142
3.12185 17997
3.14197 16946
3.16208 16686
3.18219 16107
3.20231 15743
3.22242 15290
3.24253 14805
3.26265 14495
3.28276 13761
3.30288 13792
3.32299 12912
3.3431 12752
3.36322 12211
3.38333 11720
3.40344 11611
3.42356 11195
3.44367 10708
3.46379 10388
3.4839 10017
3.50401 9781
3.52413 9391
3.54424 8935
3.56435 8795
3.58447 8539
3.60458 8189
3.62469 8028
3.64481 7606
3.66492 7359
3.68504 7181
3.70515 6735
3.72526 6531
3.74538 6159
3.76549 6093
3.7856 5680
3.80572 5595
3.82583 5272
3.84595 5155
3.86606 5054
3.88617 4662
3.90629 4598
3.9264 4211
3.94651 4169
3.96663 4141
3.98674 3732
4.00686 3762
4.02697 3534
4.04708 3303
4.0672 3267
4.08731 3036
4.10742 2927
4.12754 2824
4.14765 2634
4.16776 2722
4.18788 2549
4.20799 2367
4.22811 2402
4.24822 2227
4.26833 2309
4.28845 2196
4.30856 2130
4.32867 2073
4.34879 1973
4.3689 1929
4.38902 1930
4.40913 1837
4.42924 1811
4.44936 1684
4.46947 1739
4.48958 1764
4.5097 1679
4.52981 1665
4.54992 1671
4.57004 1501
4.59015 1556
4.61027 1530
4.63038 1439
4.65049 1451
4.67061 1479
4.69072 1456
4.71083 1336
4.73095 1314
4.75106 1296
4.77118 1245
4.79129 1281
4.8114 1195
4.83152 1217
4.85163 1219
4.87174 1232
4.89186 1152
4.91197 1108
4.93209 1086
4.9522 1004
4.97231 1131
4.99243 1001
5.01254 1060
5.03265 1071
5.05277 1019
5.07288 920
5.09299 1035
5.11311 960
5.13322 919
5.15334 908
5.17345 927
5.19356 959
5.21368 900
5.23379 937
5.2539 806
5.27402 838
5.29413 855
5.31425 840
5.33436 857
5.35447 799
5.37459 808
5.3947 869
5.41481 736
5.43493 784
5.45504 752
5.47516 702
5.49527 755
5.51538 708
5.5355 773
5.55561 730
5.57572 709
5.59584 775
5.61595 721
5.63606 700
5.65618 656
5.67629 723
5.69641 676
5.71652 617
5.73663 616
5.75675 649
5.77686 645
5.79697 641
5.81709 629
5.8372 619
5.85732 598
5.87743 634
5.89754 573
5.91766 638
5.93777 606
5.95788 581
5.978 637
5.99811 667
6.01823 644
6.03834 612
6.05845 586
6.07857 612
6.09868 657
6.11879 558
6.13891 602
6.15902 624
6.17913 606
6.19925 628
6.21936 585
6.23948 565
6.25959 583
6.2797 610
6.29982 583
6.31993 550
6.34004 617
6.36016 564
6.38027 574
6.40039 569
6.4205 560
6.44061 564
6.46073 546
6.48084 602
6.50095 520
6.52107 560
6.54118 568
6.56129 556
6.58141 580
6.60152 586
6.62164 585
6.64175 606
6.66186 589
6.68198 601
6.70209 580
6.7222 559
6.74232 587
6.76243 565
6.78255 517
6.80266 559
6.82277 551
6.84289 546
6.863 558
6.88311 525
6.90323 553
6.92334 563
6.94346 536
6.96357 580
6.98368 593
7.0038 544
7.02391 590
7.04402 525
7.06414 522
7.08425 508
7.10436 519
7.12448 536
7.14459 518
7.16471 519
7.18482 544
7.20493 572
7.22505 512
7.24516 584
7.26527 521
7.28539 579
7.3055 518
7.32562 521
7.34573 537
7.36584 542
7.38596 528
7.40607 548
7.42618 544
7.4463 501
7.46641 573
7.48653 549
7.50664 521
7.52675 502
7.54687 517
7.56698 567
7.58709 492
7.60721 545
7.62732 542
7.64743 517
7.66755 542
7.68766 547
7.70778 563
7.72789 535
7.748 499
7.76812 499
7.78823 525
7.80834 566
7.82846 516
7.84857 523
7.86869 548
7.8888 563
7.90891 509
7.92903 548
7.94914 538
7.96925 560
7.98937 548
8.00948 539
8.0296 567
8.04971 531
8.06982 558
8.08994 528
8.11005 561
8.13016 531
8.15028 563
8.17039 558
8.1905 530
8.21062 489
8.23073 537
8.25085 542
8.27096 533
8.29107 527
8.31119 525
8.3313 528
8.35141 517
8.37153 533
8.39164 561
8.41176 544
8.43187 566
8.45198 574
8.4721 530
8.49221 575
8.51232 588
8.53244 585
8.55255 542
8.57266 519
8.59278 513
8.61289 539
8.63301 536
8.65312 577
8.67323 540
8.69335 536
8.71346 579
8.73357 510
8.75369 526
8.7738 571
8.79392 502
8.81403 565
8.83414 521
8.85426 551
8.87437 528
8.89448 525
8.9146 561
8.93471 566
8.95483 532
8.97494 568
8.99505 540
9.01517 567
9.03528 562
9.05539 532
9.07551 555
9.09562 575
9.11573 521
9.13585 512
9.15596 579
9.17608 534
9.19619 521
9.2163 525
9.23642 576
9.25653 565
9.27664 465
9.29676 538
9.31687 517
9.33699 550
9.3571 520
9.37721 522
9.39733 522
9.41744 531
9.43755 517
9.45767 528
9.47778 581
9.4979 519
9.51801 528
9.53812 560
9.55824 565
9.57835 552
9.59846 528
9.61858 533
9.63869 506
9.6588 546
9.67892 535
9.69903 536
9.71915 543
9.73926 523
9.75937 511
9.77949 528
9.7996 472
9.81971 561
9.83983 519
9.85994 513
9.88006 539
9.90017 570
9.92028 603
9.9404 516
9.96051 543
9.98062 549
10.00074 536
10.02085 561
10.04097 538
10.06108 524
10.08119 542
10.10131 552
10.12142 564
10.14153 534
10.16165 564
10.18176 573
10.20187 563
10.22199 511
10.2421 544
10.26222 530
10.28233 506
10.30244 538
10.32256 527
10.34267 556
10.36278 567
10.3829 556
10.40301 546
10.42313 542
10.44324 537
10.46335 548
10.48347 511
10.50358 531
10.52369 549
10.54381 540
10.56392 525
10.58403 526
10.60415 543
10.62426 558
10.64438 469
10.66449 540
10.6846 491
10.70472 498
10.72483 581
10.74494 593
10.76506 537
10.78517 543
10.80529 520
10.8254 519
10.84551 617
10.86563 485
10.88574 569
10.90585 539
10.92597 547
10.94608 559
10.9662 536
10.98631 568
11.00642 519
11.02654 579
11.04665 578
11.06676 548
11.08688 565
11.10699 530
11.1271 525
11.14722 556
11.16733 551
11.18745 539
11.20756 570
11.22767 547
11.24779 591
11.2679 610
11.28801 532
11.30813 570
11.32824 539
11.34836 567
11.36847 598
11.38858 606
11.4087 565
11.42881 517
11.44892 589
11.46904 602
11.48915 577
11.50927 618
11.52938 583
11.54949 567
11.56961 597
11.58972 599
11.60983 608
11.62995 592
11.65006 606
11.67017 614
11.69029 651
11.7104 587
11.73052 576
11.75063 621
11.77074 625
11.79086 640
11.81097 670
11.83108 615
11.8512 654
11.87131 650
11.89143 721
11.91154 697
11.93165 714
11.95177 677
11.97188 738
11.99199 666
12.01211 758
12.03222 777
12.05234 781
12.07245 758
12.09256 800
12.11268 884
12.13279 825
12.1529 917
12.17302 880
12.19313 951
12.21324 984
12.23336 998
12.25347 985
12.27359 1004
12.2937 1060
12.31381 1038
12.33393 1070
12.35404 1060
12.37415 1084
12.39427 1076
12.41438 975
12.4345 989
12.45461 904
12.47472 856
12.49484 920
12.51495 815
12.53506 835
12.55518 743
12.57529 763
12.5954 723
12.61552 659
12.63563 711
12.65575 657
12.67586 709
12.69597 654
12.71609 611
12.7362 608
12.75631 640
12.77643 596
12.79654 631
12.81666 596
12.83677 599
12.85688 570
12.877 567
12.89711 575
12.91722 548
12.93734 528
12.95745 565
12.97757 532
12.99768 530
13.01779 547
13.03791 581
13.05802 557
13.07813 535
13.09825 535
13.11836 509
13.13847 534
13.15859 491
13.1787 508
13.19882 557
13.21893 542
13.23904 535
13.25916 525
13.27927 538
13.29938 553
13.3195 496
13.33961 565
13.35973 551
13.37984 529
13.39995 487
13.42007 530
13.44018 501
13.46029 478
13.48041 509
13.50052 498
13.52064 531
13.54075 531
13.56086 506
13.58098 546
13.60109 546
13.6212 504
13.64132 551
13.66143 488
13.68154 494
13.70166 538
13.72177 510
13.74189 501
13.762 511
13.78211 493
13.80223 525
13.82234 494
13.84245 535
13.86257 534
13.88268 511
13.9028 516
13.92291 548
13.94302 501
13.96314 508
13.98325 541
14.00336 519
14.02348 526
14.04359 488
14.06371 490
14.08382 490
14.10393 514
14.12405 535
14.14416 535
14.16427 542
14.18439 528
14.2045 588
14.22461 537
14.24473 471
14.26484 528
14.28496 515
14.30507 543
14.32518 471
14.3453 516
14.36541 548
14.38552 495
14.40564 505
14.42575 526
14.44587 509
14.46598 518
14.48609 466
14.50621 535
14.52632 523
14.54643 504
14.56655 503
14.58666 503
14.60677 561
14.62689 527
14.647 519
14.66712 504
14.68723 497
14.70734 538
14.72746 478
14.74757 483
14.76768 579
14.7878 485
14.80791 518
14.82803 513
14.84814 539
14.86825 531
14.88837 515
14.90848 507
14.92859 512
14.94871 514
14.96882 496
14.98894 520
15.00905 519
15.02916 591
15.04928 516
15.06939 501
15.0895 512
15.10962 526
15.12973 502
15.14984 490
15.16996 479
15.19007 527
15.21019 523
15.2303 473
15.25041 492
15.27053 496
15.29064 453
15.31075 484
15.33087 489
15.35098 525
15.3711 509
15.39121 529
15.41132 500
15.43144 568
15.45155 521
15.47166 525
15.49178 512
15.51189 456
15.53201 496
15.55212 511
15.57223 540
15.59235 541
15.61246 527
15.63257 481
15.65269 510
15.6728 528
15.69291 500
15.71303 534
15.73314 553
15.75326 509
15.77337 507
15.79348 525
15.8136 527
15.83371 470
15.85382 554
15.87394 490
15.89405 536
15.91417 496
15.93428 533
15.95439 506
15.97451 554
15.99462 534
16.01473 515
16.03485 507
16.05496 504
16.07508 517
16.09519 536
16.1153 587
16.13542 508
16.15553 513
16.17564 515
16.19576 536
16.21587 542
16.23598 506
16.2561 495
16.27621 516
16.29633 505
16.31644 492
16.33655 523
16.35667 479
16.37678 506
16.39689 523
16.41701 517
16.43712 507
16.45724 517
16.47735 512
16.49746 528
16.51758 520
16.53769 487
16.5578 549
16.57792 539
16.59803 497
16.61814 507
16.63826 508
16.65837 535
16.67849 471
16.6986 516
16.71871 518
16.73883 517
16.75894 541
16.77905 518
16.79917 503
16.81928 478
16.8394 484
16.85951 520
16.87962 490
16.89974 541
16.91985 484
16.93996 519
16.96008 523
16.98019 529
17.00031 547
17.02042 532
17.04053 518
17.06065 510
17.08076 543
17.10087 472
17.12099 546
17.1411 499
17.16121 509
17.18133 521
17.20144 516
17.22156 517
17.24167 520
17.26178 518
17.2819 559
17.30201 482
17.32212 519
17.34224 564
17.36235 503
17.38247 562
17.40258 551
17.42269 500
17.44281 513
17.46292 548
17.48303 492
17.50315 534
17.52326 522
17.54338 487
17.56349 509
17.5836 529
17.60372 551
17.62383 551
17.64394 517
17.66406 503
17.68417 526
17.70428 535
17.7244 550
17.74451 571
17.76463 530
17.78474 594
17.80485 598
17.82497 566
17.84508 557
17.86519 559
17.88531 563
17.90542 574
17.92554 591
17.94565 560
17.96576 578
17.98588 589
18.00599 584
18.0261 588
18.04622 610
18.06633 621
18.08645 671
18.10656 736
18.12667 805
18.14679 832
18.1669 935
18.18701 1065
18.20713 1255
18.22724 1346
18.24735 1471
18.26747 1531
18.28758 1448
18.3077 1210
18.32781 1082
18.34792 932
18.36804 824
18.38815 690
18.40826 645
18.42838 603
18.44849 618
18.46861 612
18.48872 585
18.50883 583
18.52895 616
18.54906 583
18.56917 574
18.58929 531
18.6094 559
18.62951 603
18.64963 548
18.66974 586
18.68986 527
18.70997 543
18.73008 538
18.7502 579
18.77031 522
18.79042 541
18.81054 560
18.83065 501
18.85077 542
18.87088 525
18.89099 540
18.91111 547
18.93122 496
18.95133 595
18.97145 510
18.99156 547
19.01168 555
19.03179 498
19.0519 515
19.07202 546
19.09213 559
19.11224 496
19.13236 502
19.15247 579
19.17258 520
19.1927 568
19.21281 510
19.23293 500
19.25304 496
19.27315 550
19.29327 551
19.31338 554
19.33349 503
19.35361 576
19.37372 581
19.39384 522
19.41395 577
19.43406 562
19.45418 610
19.47429 556
19.4944 526
19.51452 544
19.53463 581
19.55475 602
19.57486 581
19.59497 562
19.61509 624
19.6352 638
19.65531 635
19.67543 667
19.69554 719
19.71565 758
19.73577 754
19.75588 758
19.776 880
19.79611 881
19.81622 911
19.83634 953
19.85645 937
19.87656 963
19.89668 908
19.91679 946
19.93691 929
19.95702 870
19.97713 882
19.99725 855
20.01736 859
20.03747 825
20.05759 803
20.0777 910
20.09782 876
20.11793 869
20.13804 899
20.15816 987
20.17827 1041
20.19838 1103
20.2185 1096
20.23861 1178
20.25872 1101
20.27884 1110
20.29895 1107
20.31907 987
20.33918 1050
20.35929 1009
20.37941 1011
20.39952 992
20.41963 998
20.43975 1011
20.45986 1076
20.47998 1033
20.50009 1061
20.5202 1094
20.54032 1035
20.56043 947
20.58054 954
20.60066 1024
20.62077 1012
20.64088 1040
20.661 1027
20.68111 1094
20.70123 1192
20.72134 1357
20.74145 1588
20.76157 1858
20.78168 2079
20.80179 2190
20.82191 2137
20.84202 2033
20.86214 1811
20.88225 1594
20.90236 1415
20.92248 1191
20.94259 1107
20.9627 986
20.98282 1052
21.00293 982
21.02305 1001
21.04316 978
21.06327 1056
21.08339 992
21.1035 1008
21.12361 1048
21.14373 1062
21.16384 1072
21.18395 1123
21.20407 1079
21.22418 1105
21.2443 1150
21.26441 1171
21.28452 1149
21.30464 1181
21.32475 1178
21.34486 1183
21.36498 1187
21.38509 1167
21.40521 1136
21.42532 1137
21.44543 1075
21.46555 1106
21.48566 1070
21.50577 1038
21.52589 1007
21.546 974
21.56612 987
21.58623 967
21.60634 923
21.62646 882
21.64657 947
21.66668 892
21.6868 877
21.70691 883
21.72702 857
21.74714 848
21.76725 867
21.78737 853
21.80748 781
21.82759 845
21.84771 831
21.86782 798
21.88793 843
21.90805 755
21.92816 802
21.94828 795
21.96839 742
21.9885 754
22.00862 717
22.02873 765
22.04884 758
22.06896 722
22.08907 761
22.10919 718
22.1293 764
22.14941 746
22.16953 767
22.18964 692
22.20975 682
22.22987 722
22.24998 710
22.27009 698
22.29021 721
22.31032 684
22.33044 684
22.35055 703
22.37066 696
22.39078 710
22.41089 667
22.431 736
22.45112 695
22.47123 663
22.49135 683
22.51146 684
22.53157 635
22.55169 682
22.5718 690
22.59191 679
22.61203 640
22.63214 695
22.65225 638
22.67237 649
22.69248 664
22.7126 649
22.73271 713
22.75282 662
22.77294 661
22.79305 646
22.81316 637
22.83328 644
22.85339 641
22.87351 603
22.89362 581
22.91373 691
22.93385 657
22.95396 637
22.97407 618
22.99419 614
23.0143 648
23.03442 607
23.05453 666
23.07464 671
23.09476 625
23.11487 671
23.13498 651
23.1551 619
23.17521 603
23.19532 624
23.21544 609
23.23555 652
23.25567 611
23.27578 631
23.29589 608
23.31601 613
23.33612 636
23.35623 598
23.37635 634
23.39646 590
23.41658 630
23.43669 599
23.4568 597
23.47692 597
23.49703 638
23.51714 649
23.53726 654
23.55737 635
23.57749 634
23.5976 583
23.61771 621
23.63783 629
23.65794 605
23.67805 658
23.69817 657
23.71828 647
23.73839 717
23.75851 675
23.77862 676
23.79874 669
23.81885 715
23.83896 678
23.85908 708
23.87919 625
23.8993 698
23.91942 676
23.93953 680
23.95965 675
23.97976 698
23.99987 648
24.01999 672
24.0401 598
24.06021 654
24.08033 632
24.10044 671
24.12056 609
24.14067 617
24.16078 642
24.1809 657
24.20101 659
24.22112 626
24.24124 686
24.26135 639
24.28146 645
24.30158 643
24.32169 698
24.34181 662
24.36192 627
24.38203 705
24.40215 706
24.42226 732
24.44237 726
24.46249 692
24.4826 791
24.50272 797
24.52283 712
24.54294 758
24.56306 798
24.58317 870
24.60328 818
24.6234 867
24.64351 919
24.66362 862
24.68374 1009
24.70385 941
24.72397 1054
24.74408 991
24.76419 1014
24.78431 1057
24.80442 1015
24.82453 1017
24.84465 1001
24.86476 1064
24.88488 1043
24.90499 1051
24.9251 963
24.94522 931
24.96533 943
24.98544 916
25.00556 839
25.02567 882
25.04579 872
25.0659 895
25.08601 915
25.10613 895
25.12624 868
25.14635 848
25.16647 899
25.18658 901
25.20669 815
25.22681 832
25.24692 782
25.26704 771
25.28715 729
25.30726 775
25.32738 694
25.34749 694
25.3676 700
25.38772 690
25.40783 665
25.42795 659
25.44806 648
25.46817 664
25.48829 671
25.5084 675
25.52851 650
25.54863 673
25.56874 624
25.58886 668
25.60897 697
25.62908 649
25.6492 600
25.66931 649
25.68942 669
25.70954 643
25.72965 681
25.74976 676
25.76988 648
25.78999 711
25.81011 680
25.83022 690
25.85033 652
25.87045 700
25.89056 676
25.91067 734
25.93079 696
25.9509 673
25.97102 610
25.99113 662
26.01124 678
26.03136 628
26.05147 715
26.07158 707
26.0917 680
26.11181 723
26.13193 747
26.15204 736
26.17215 721
26.19227 718
26.21238 827
26.23249 777
26.25261 864
26.27272 896
26.29283 900
26.31295 978
26.33306 978
26.35318 1035
26.37329 1103
26.3934 1200
26.41352 1420
26.43363 1706
26.45374 2075
26.47386 2590
26.49397 3329
26.51409 4244
26.5342 5349
26.55431 6234
26.57443 6963
26.59454 6855
26.61465 6371
26.63477 5502
26.65488 4503
26.67499 3445
26.69511 2594
26.71522 2002
26.73534 1474
26.75545 1214
26.77556 1033
26.79568 1021
26.81579 985
26.8359 922
26.85602 884
26.87613 842
26.89625 810
26.91636 771
26.93647 781
26.95659 771
26.9767 675
26.99681 698
27.01693 667
27.03704 651
27.05716 695
27.07727 597
27.09738 640
27.1175 651
27.13761 625
27.15772 597
27.17784 626
27.19795 624
27.21806 603
27.23818 577
27.25829 596
27.27841 621
27.29852 603
27.31863 622
27.33875 588
27.35886 645
27.37897 628
27.39909 619
27.4192 588
27.43932 590
27.45943 595
27.47954 600
27.49966 597
27.51977 555
27.53988 591
27.56 580
27.58011 589
27.60023 532
27.62034 532
27.64045 589
27.66057 535
27.68068 573
27.70079 594
27.72091 543
27.74102 614
27.76113 603
27.78125 583
27.80136 587
27.82148 547
27.84159 634
27.8617 594
27.88182 597
27.90193 613
27.92204 619
27.94216 590
27.96227 604
27.98239 578
28.0025 635
28.02261 634
28.04273 587
28.06284 614
28.08295 609
28.10307 600
28.12318 568
28.1433 602
28.16341 606
28.18352 591
28.20364 554
28.22375 554
28.24386 604
28.26398 539
28.28409 546
28.3042 611
28.32432 575
28.34443 567
28.36455 563
28.38466 606
28.40477 528
28.42489 563
28.445 575
28.46511 475
28.48523 475
28.50534 532
28.52546 588
28.54557 594
28.56568 538
28.5858 589
28.60591 563
28.62602 521
28.64614 592
28.66625 566
28.68636 619
28.70648 571
28.72659 561
28.74671 505
28.76682 556
28.78693 540
28.80705 541
28.82716 535
28.84727 557
28.86739 552
28.8875 577
28.90762 556
28.92773 541
28.94784 573
28.96796 527
28.98807 503
29.00818 539
29.0283 567
29.04841 604
29.06853 571
29.08864 535
29.10875 572
29.12887 504
29.14898 557
29.16909 499
29.18921 573
29.20932 561
29.22943 552
29.24955 545
29.26966 549
29.28978 573
29.30989 521
29.33 572
29.35012 538
29.37023 526
29.39034 518
29.41046 517
29.43057 534
29.45069 563
29.4708 565
29.49091 530
29.51103 490
29.53114 555
29.55125 518
29.57137 518
29.59148 527
29.6116 503
29.63171 575
29.65182 534
29.67194 574
29.69205 532
29.71216 526
29.73228 516
29.75239 522
29.7725 526
29.79262 560
29.81273 533
29.83285 541
29.85296 509
29.87307 518
29.89319 545
29.9133 527
29.93341 503
29.95353 533
29.97364 544
29.99376 576
30.01387 553
30.03398 586
30.0541 593
30.07421 584
30.09432 515
30.11444 552
30.13455 561
30.15467 529
30.17478 542
30.19489 607
30.21501 555
30.23512 557
30.25523 539
30.27535 570
30.29546 533
30.31557 553
30.33569 554
30.3558 539
30.37592 540
30.39603 534
30.41614 515
30.43626 548
30.45637 544
30.47648 539
30.4966 536
30.51671 549
30.53683 532
30.55694 489
30.57705 537
30.59717 513
30.61728 527
30.63739 481
30.65751 510
30.67762 525
30.69773 565
30.71785 530
30.73796 503
30.75808 540
30.77819 524
30.7983 561
30.81842 544
30.83853 538
30.85864 570
30.87876 551
30.89887 585
30.91899 538
30.9391 517
30.95921 563
30.97933 505
30.99944 516
31.01955 506
31.03967 543
31.05978 542
31.0799 537
31.10001 562
31.12012 542
31.14024 550
31.16035 555
31.18046 549
31.20058 554
31.22069 557
31.2408 531
31.26092 503
31.28103 560
31.30115 533
31.32126 498
31.34137 562
31.36149 534
31.3816 538
31.40171 544
31.42183 522
31.44194 511
31.46206 527
31.48217 534
31.50228 533
31.5224 522
31.54251 523
31.56262 508
31.58274 498
31.60285 564
31.62297 550
31.64308 505
31.66319 549
31.68331 517
31.70342 531
31.72353 555
31.74365 540
31.76376 560
31.78387 552
31.80399 503
31.8241 531
31.84422 510
31.86433 529
31.88444 547
31.90456 592
31.92467 534
31.94478 513
31.9649 557
31.98501 551
32.00513 535
32.02524 532
32.04535 558
32.06547 541
32.08558 578
32.10569 559
32.12581 541
32.14592 521
32.16604 574
32.18615 568
32.20626 560
32.22638 597
32.24649 619
32.2666 617
32.28672 576
32.30683 616
32.32694 652
32.34706 621
32.36717 646
32.38729 634
32.4074 685
32.42751 713
32.44763 683
32.46774 718
32.48785 765
32.50797 726
32.52808 749
32.5482 695
32.56831 735
32.58842 667
32.60854 667
32.62865 654
32.64876 654
32.66888 675
32.68899 675
32.7091 610
32.72922 624
32.74933 616
32.76945 619
32.78956 573
32.80967 649
32.82979 600
32.8499 571
32.87001 626
32.89013 645
32.91024 640
32.93036 634
32.95047 610
32.97058 630
32.9907 620
33.01081 590
33.03092 613
33.05104 621
33.07115 662
33.09127 648
33.11138 629
33.13149 634
33.15161 606
33.17172 641
33.19183 654
33.21195 629
33.23206 591
33.25217 611
33.27229 668
33.2924 636
33.31252 657
33.33263 645
33.35274 649
33.37286 628
33.39297 640
33.41308 680
33.4332 705
33.45331 638
33.47343 643
33.49354 615
33.51365 615
33.53377 688
33.55388 679
33.57399 664
33.59411 594
33.61422 645
33.63434 630
33.65445 646
33.67456 627
33.69468 644
33.71479 635
33.7349 639
33.75502 640
33.77513 643
33.79524 610
33.81536 621
33.83547 612
33.85559 617
33.8757 604
33.89581 567
33.91593 600
33.93604 588
33.95615 572
33.97627 557
33.99638 570
34.0165 537
34.03661 593
34.05672 563
34.07684 583
34.09695 593
34.11706 613
34.13718 526
34.15729 594
34.17741 560
34.19752 583
34.21763 541
34.23775 598
34.25786 556
34.27797 558
34.29809 532
34.3182 568
34.33831 582
34.35843 587
34.37854 555
34.39866 560
34.41877 571
34.43888 593
34.459 574
34.47911 539
34.49922 554
34.51934 584
34.53945 607
34.55957 570
34.57968 566
34.59979 589
34.61991 599
34.64002 629
34.66013 617
34.68025 608
34.70036 641
34.72047 655
34.74059 668
34.7607 700
34.78082 721
34.80093 760
34.82104 742
34.84116 746
34.86127 778
34.88138 787
34.9015 827
34.92161 778
34.94173 798
34.96184 772
34.98195 777
35.00207 794
35.02218 821
35.04229 822
35.06241 784
35.08252 794
35.10264 808
35.12275 796
35.14286 789
35.16298 834
35.18309 865
35.2032 857
35.22332 846
35.24343 846
35.26354 849
35.28366 899
35.30377 841
35.32389 870
35.344 822
35.36411 798
35.38423 817
35.40434 780
35.42445 775
35.44457 758
35.46468 769
35.4848 818
35.50491 739
35.52502 761
35.54514 709
35.56525 734
35.58536 716
35.60548 730
35.62559 691
35.64571 752
35.66582 725
35.68593 778
35.70605 778
35.72616 777
35.74627 770
35.76639 738
35.7865 811
35.80661 798
35.82673 823
35.84684 816
35.86696 777
35.88707 804
35.90718 775
35.9273 767
35.94741 738
35.96752 748
35.98764 791
36.00775 703
36.02787 746
36.04798 710
36.06809 740
36.08821 714
36.10832 725
36.12843 710
36.14855 695
36.16866 667
36.18878 682
36.20889 725
36.229 720
36.24912 719
36.26923 727
36.28934 722
36.30946 767
36.32957 811
36.34968 795
36.3698 841
36.38991 861
36.41003 962
36.43014 1019
36.45025 1029
36.47037 1083
36.49048 1124
36.51059 1097
36.53071 1077
36.55082 1063
36.57094 939
36.59105 919
36.61116 847
36.63128 832
36.65139 795
36.6715 780
36.69162 823
36.71173 726
36.73184 743
36.75196 803
36.77207 771
36.79219 752
36.8123 771
36.83241 778
36.85253 813
36.87264 763
36.89275 747
36.91287 797
36.93298 785
36.9531 851
36.97321 861
36.99332 870
37.01344 910
37.03355 881
37.05366 822
37.07378 840
37.09389 875
37.11401 866
37.13412 891
37.15423 893
37.17435 822
37.19446 858
37.21457 779
37.23469 804
37.2548 766
37.27491 796
37.29503 753
37.31514 749
37.33526 729
37.35537 750
37.37548 726
37.3956 753
37.41571 764
37.43582 733
37.45594 721
37.47605 723
37.49617 742
37.51628 769
37.53639 794
37.55651 766
37.57662 818
37.59673 780
37.61685 802
37.63696 813
37.65708 773
37.67719 767
37.6973 773
37.71742 759
37.73753 805
37.75764 704
37.77776 671
37.79787 715
37.81798 698
37.8381 710
37.85821 697
37.87833 667
37.89844 712
37.91855 726
37.93867 694
37.95878 633
37.97889 699
37.99901 681
38.01912 682
38.03924 681
38.05935 666
38.07946 710
38.09958 720
38.11969 668
38.1398 737
38.15992 755
38.18003 741
38.20015 798
38.22026 796
38.24037 802
38.26049 820
38.2806 792
38.30071 823
38.32083 830
38.34094 809
38.36105 785
38.38117 832
38.40128 859
38.4214 822
38.44151 822
38.46162 804
38.48174 785
38.50185 794
38.52196 756
38.54208 711
38.56219 692
38.58231 685
38.60242 706
38.62253 668
38.64265 672
38.66276 687
38.68287 682
38.70299 658
38.7231 677
38.74321 648
38.76333 707
38.78344 692
38.80356 715
38.82367 660
38.84378 684
38.8639 632
38.88401 725
38.90412 664
38.92424 690
38.94435 656
38.96447 659
38.98458 718
39.00469 694
39.02481 684
39.04492 737
39.06503 717
39.08515 798
39.10526 687
39.12538 751
39.14549 777
39.1656 751
39.18572 786
39.20583 773
39.22594 753
39.24606 795
39.26617 823
39.28628 825
39.3064 809
39.32651 909
39.34663 926
39.36674 1026
39.38685 947
39.40697 1000
39.42708 976
39.44719 905
39.46731 881
39.48742 789
39.50754 806
39.52765 803
39.54776 736
39.56788 665
39.58799 680
39.6081 645
39.62822 601
39.64833 600
39.66845 589
39.68856 654
39.70867 564
39.72879 598
39.7489 599
39.76901 620
39.78913 584
39.80924 588
39.82935 642
39.84947 574
39.86958 595
39.8897 584
39.90981 600
39.92992 631
39.95004 632
39.97015 608
39.99026 655
40.01038 654
40.03049 663
40.05061 697
40.07072 735
40.09083 740
40.11095 757
40.13106 784
40.15117 754
40.17129 796
40.1914 844
40.21152 836
40.23163 810
40.25174 794
40.27186 796
40.29197 823
40.31208 817
40.3322 791
40.35231 715
40.37242 677
40.39254 748
40.41265 671
40.43277 679
40.45288 666
40.47299 644
40.49311 692
40.51322 695
40.53333 675
40.55345 693
40.57356 646
40.59368 674
40.61379 633
40.6339 640
40.65402 643
40.67413 611
40.69424 610
40.71436 622
40.73447 610
40.75458 641
40.7747 633
40.79481 571
40.81493 617
40.83504 608
40.85515 594
40.87527 592
40.89538 589
40.91549 633
40.93561 619
40.95572 577
40.97584 620
40.99595 633
41.01606 633
41.03618 622
41.05629 585
41.0764 581
41.09652 609
41.11663 586
41.13675 631
41.15686 558
41.17697 580
41.19709 612
41.2172 626
41.23731 604
41.25743 622
41.27754 647
41.29765 602
41.31777 637
41.33788 650
41.358 644
41.37811 636
41.39822 600
41.41834 602
41.43845 643
41.45856 676
41.47868 598
41.49879 662
41.51891 627
41.53902 607
41.55913 614
41.57925 662
41.59936 651
41.61947 645
41.63959 673
41.6597 679
41.67982 651
41.69993 666
41.72004 635
41.74016 648
41.76027 593
41.78038 621
41.8005 645
41.82061 599
41.84072 603
41.86084 573
41.88095 576
41.90107 581
41.92118 554
41.94129 607
41.96141 586
41.98152 614
42.00163 593
42.02175 540
42.04186 591
42.06198 550
42.08209 605
42.1022 562
42.12232 556
42.14243 611
42.16254 596
42.18266 589
42.20277 557
42.22289 605
42.243 611
42.26311 640
42.28323 640
42.30334 683
42.32345 759
42.34357 772
42.36368 790
42.38379 723
42.40391 734
42.42402 714
42.44414 723
42.46425 678
42.48436 699
42.50448 658
42.52459 632
42.5447 608
42.56482 581
42.58493 572
42.60505 554
42.62516 540
42.64527 503
42.66539 553
42.6855 508
42.70561 536
42.72573 518
42.74584 534
42.76595 529
42.78607 513
42.80618 544
42.8263 502
42.84641 532
42.86652 487
42.88664 549
42.90675 517
42.92686 525
42.94698 565
42.96709 471
42.98721 575
43.00732 543
43.02743 520
43.04755 489
43.06766 499
43.08777 539
43.10789 557
43.128 484
43.14812 515
43.16823 554
43.18834 502
43.20846 521
43.22857 530
43.24868 504
43.2688 526
43.28891 500
43.30902 517
43.32914 523
43.34925 525
43.36937 552
43.38948 503
43.40959 546
43.42971 484
43.44982 517
43.46993 522
43.49005 551
43.51016 490
43.53028 503
43.55039 497
43.5705 521
43.59062 529
43.61073 529
43.63084 511
43.65096 523
43.67107 496
43.69119 539
43.7113 528
43.73141 567
43.75153 528
43.77164 503
43.79175 511
43.81187 519
43.83198 528
43.85209 537
43.87221 538
43.89232 538
43.91244 555
43.93255 540
43.95266 571
43.97278 526
43.99289 574
44.013 547
44.03312 547
44.05323 590
44.07335 620
44.09346 617
44.11357 578
44.13369 557
44.1538 580
44.17391 573
44.19403 561
44.21414 544
44.23426 607
44.25437 556
44.27448 518
44.2946 531
44.31471 523
44.33482 508
44.35494 511
44.37505 526
44.39516 557
44.41528 520
44.43539 542
44.45551 565
44.47562 531
44.49573 578
44.51585 512
44.53596 519
44.55607 537
44.57619 531
44.5963 520
44.61642 539
44.63653 533
44.65664 512
44.67676 535
44.69687 539
44.71698 498
44.7371 577
44.75721 532
44.77732 509
44.79744 560
44.81755 545
44.83767 508
44.85778 556
44.87789 518
44.89801 555
44.91812 545
44.93823 568
44.95835 600
44.97846 574
44.99858 538
45.01869 565
45.0388 582
45.05892 592
45.07903 543
45.09914 582
45.11926 549
45.13937 575
45.15949 610
45.1796 589
45.19971 555
45.21983 554
45.23994 588
45.26005 620
45.28017 593
45.30028 653
45.32039 655
45.34051 673
45.36062 654
45.38074 620
45.40085 706
45.42096 633
45.44108 637
45.46119 614
45.4813 649
45.50142 618
45.52153 645
45.54165 658
45.56176 669
45.58187 636
45.60199 620
45.6221 656
45.64221 716
45.66233 702
45.68244 738
45.70256 707
45.72267 759
45.74278 737
45.7629 708
45.78301 703
45.80312 642
45.82324 639
45.84335 601
45.86346 630
45.88358 607
45.90369 559
45.92381 593
45.94392 536
45.96403 580
45.98415 568
46.00426 589
46.02437 557
46.04449 541
46.0646 560
46.08472 551
46.10483 557
46.12494 514
46.14506 590
46.16517 545
46.18528 571
46.2054 516
46.22551 539
46.24563 551
46.26574 548
46.28585 556
46.30597 519
46.32608 534
46.34619 577
46.36631 534
46.38642 566
46.40653 533
46.42665 524
46.44676 542
46.46688 551
46.48699 535
46.5071 516
46.52722 534
46.54733 488
46.56744 507
46.58756 545
46.60767 516
46.62779 518
46.6479 522
46.66801 560
46.68813 555
46.70824 550
46.72835 581
46.74847 503
46.76858 562
46.78869 523
46.80881 575
46.82892 561
46.84904 563
46.86915 567
46.88926 488
46.90938 516
46.92949 544
46.9496 523
46.96972 495
46.98983 521
47.00995 484
47.03006 556
47.05017 511
47.07029 551
47.0904 549
47.11051 557
47.13063 533
47.15074 515
47.17086 593
47.19097 531
47.21108 595
47.2312 548
47.25131 586
47.27142 571
47.29154 611
47.31165 535
47.33176 609
47.35188 574
47.37199 554
47.39211 574
47.41222 584
47.43233 573
47.45245 544
47.47256 597
47.49267 556
47.51279 581
47.5329 542
47.55302 581
47.57313 575
47.59324 559
47.61336 586
47.63347 584
47.65358 603
47.6737 552
47.69381 581
47.71393 606
47.73404 603
47.75415 548
47.77427 557
47.79438 562
47.81449 591
47.83461 613
47.85472 609
47.87483 575
47.89495 584
47.91506 587
47.93518 603
47.95529 543
47.9754 544
47.99552 546
48.01563 535
48.03574 603
48.05586 578
48.07597 535
48.09609 539
48.1162 590
48.13631 548
48.15643 523
48.17654 559
48.19665 550
48.21677 565
48.23688 493
48.257 507
48.27711 571
48.29722 543
48.31734 547
48.33745 516
48.35756 547
48.37768 552
48.39779 522
48.4179 534
48.43802 524
48.45813 546
48.47825 564
48.49836 579
48.51847 563
48.53859 629
48.5587 548
48.57881 571
48.59893 545
48.61904 573
48.63916 533
48.65927 535
48.67938 589
48.6995 583
48.71961 604
48.73972 557
48.75984 589
48.77995 582
48.80006 555
48.82018 557
48.84029 544
48.86041 550
48.88052 514
48.90063 544
48.92075 516
48.94086 546
48.96097 534
48.98109 538
49.0012 548
49.02132 568
49.04143 489
49.06154 542
49.08166 522
49.10177 505
49.12188 537
49.142 547
49.16211 533
49.18223 552
49.20234 569
49.22245 542
49.24257 555
49.26268 554
49.28279 507
49.30291 589
49.32302 559
49.34313 521
49.36325 528
49.38336 508
49.40348 548
49.42359 542
49.4437 522
49.46382 554
49.48393 538
49.50404 501
49.52416 543
49.54427 534
49.56439 537
49.5845 543
49.60461 514
49.62473 555
49.64484 533
49.66495 538
49.68507 526
49.70518 557
49.7253 548
49.74541 571
49.76552 557
49.78564 624
49.80575 597
49.82586 556
49.84598 631
49.86609 624
49.8862 627
49.90632 650
49.92643 734
49.94655 775
49.96666 835
49.98677 893
50.00689 956
50.027 1045
50.04711 1055
50.06723 1105
50.08734 1105
50.10746 1016
50.12757 980
50.14768 889
50.1678 916
50.18791 792
50.20802 844
50.22814 802
50.24825 729
50.26837 630
50.28848 672
50.30859 559
50.32871 604
50.34882 576
50.36893 610
50.38905 586
50.40916 570
50.42927 608
50.44939 574
50.4695 606
50.48962 618
50.50973 622
50.52984 616
50.54996 568
50.57007 603
50.59018 547
50.6103 571
50.63041 574
50.65053 562
50.67064 561
50.69075 580
50.71087 583
50.73098 590
50.75109 578
50.77121 543
50.79132 553
50.81143 526
50.83155 541
50.85166 589
50.87178 533
50.89189 541
50.912 590
50.93212 553
50.95223 569
50.97234 562
50.99246 585
51.01257 541
51.03269 525
51.0528 530
51.07291 502
51.09303 568
51.11314 562
51.13325 517
51.15337 558
51.17348 521
51.1936 542
51.21371 549
51.23382 552
51.25394 528
51.27405 574
51.29416 499
51.31428 531
51.33439 542
51.3545 524
51.37462 513
51.39473 518
51.41485 515
51.43496 518
51.45507 536
51.47519 496
51.4953 512
51.51541 486
51.53553 540
51.55564 492
51.57576 510
51.59587 555
51.61598 501
51.6361 527
51.65621 497
51.67632 545
51.69644 525
51.71655 509
51.73667 529
51.75678 545
51.77689 499
51.79701 537
51.81712 471
51.83723 492
51.85735 503
51.87746 500
51.89757 553
51.91769 502
51.9378 511
51.95792 531
51.97803 544
51.99814 557
52.01826 527
52.03837 529
52.05848 528
52.0786 605
52.09871 596
52.11883 607
52.13894 540
52.15905 570
52.17917 587
52.19928 588
52.21939 572
52.23951 569
52.25962 594
52.27974 516
52.29985 561
52.31996 537
52.34008 528
52.36019 518
52.3803 499
52.40042 500
52.42053 509
52.44064 514
52.46076 486
52.48087 533
52.50099 508
52.5211 534
52.54121 508
52.56133 541
52.58144 514
52.60155 507
52.62167 517
52.64178 503
52.6619 514
52.68201 567
52.70212 523
52.72224 528
52.74235 575
52.76246 497
52.78258 547
52.80269 564
52.8228 568
52.84292 548
52.86303 540
52.88315 567
52.90326 522
52.92337 560
52.94349 573
52.9636 573
52.98371 589
53.00383 639
53.02394 581
53.04406 559
53.06417 615
53.08428 595
53.1044 583
53.12451 588
53.14462 562
53.16474 652
53.18485 554
53.20497 620
53.22508 593
53.24519 624
53.26531 595
53.28542 640
53.30553 629
53.32565 627
53.34576 615
53.36587 579
53.38599 596
53.4061 589
53.42622 617
53.44633 590
53.46644 617
53.48656 669
53.50667 609
53.52678 621
53.5469 602
53.56701 619
53.58713 673
53.60724 650
53.62735 653
53.64747 642
53.66758 700
53.68769 701
53.70781 677
53.72792 699
53.74804 695
53.76815 664
53.78826 672
53.80838 655
53.82849 699
53.8486 641
53.86872 685
53.88883 663
53.90894 728
53.92906 694
53.94917 703
53.96929 669
53.9894 637
54.00951 648
54.02963 643
54.04974 716
54.06985 669
54.08997 684
54.11008 641
54.1302 621
54.15031 680
54.17042 650
54.19054 657
54.21065 647
54.23076 680
54.25088 692
54.27099 639
54.29111 685
54.31122 687
54.33133 654
54.35145 697
54.37156 674
54.39167 618
54.41179 631
54.4319 733
54.45201 696
54.47213 619
54.49224 673
54.51236 714
54.53247 621
54.55258 642
54.5727 610
54.59281 693
54.61292 661
54.63304 680
54.65315 673
54.67327 742
54.69338 719
54.71349 736
54.73361 757
54.75372 760
54.77383 818
54.79395 803
54.81406 830
54.83417 759
54.85429 764
54.8744 736
54.89452 712
54.91463 739
54.93474 676
54.95486 725
54.97497 733
54.99508 730
55.0152 649
55.03531 684
55.05543 689
55.07554 650
55.09565 674
55.11577 654
55.13588 636
55.15599 716
55.17611 655
55.19622 684
55.21634 684
55.23645 671
55.25656 680
55.27668 694
55.29679 667
55.3169 669
55.33702 656
55.35713 628
55.37724 619
55.39736 603
55.41747 631
55.43759 621
55.4577 611
55.47781 579
55.49793 563
55.51804 586
55.53815 593
55.55827 565
55.57838 552
55.5985 563
55.61861 557
55.63872 566
55.65884 559
55.67895 569
55.69906 567
55.71918 576
55.73929 592
55.75941 501
55.77952 559
55.79963 540
55.81975 571
55.83986 548
55.85997 576
55.88009 546
55.9002 568
55.92031 576
55.94043 584
55.96054 530
55.98066 558
56.00077 530
56.02088 575
56.041 528
56.06111 555
56.08122 536
56.10134 591
56.12145 543
56.14157 583
56.16168 553
56.18179 578
56.20191 555
56.22202 546
56.24213 548
56.26225 563
56.28236 514
56.30248 564
56.32259 548
56.3427 572
56.36282 559
56.38293 526
56.40304 524
56.42316 554
56.44327 563
56.46338 524
56.4835 541
56.50361 532
56.52373 585
56.54384 566
56.56395 553
56.58407 540
56.60418 563
56.62429 507
56.64441 554
56.66452 539
56.68464 561
56.70475 552
56.72486 544
56.74498 490
56.76509 533
56.7852 536
56.80532 535
56.82543 515
56.84554 518
56.86566 527
56.88577 573
56.90589 535
56.926 520
56.94611 551
56.96623 503
56.98634 592
57.00645 505
57.02657 546
57.04668 501
57.0668 529
57.08691 532
57.10702 537
57.12714 515
57.14725 535
57.16736 497
57.18748 515
57.20759 510
57.22771 550
57.24782 534
57.26793 536
57.28805 527
57.30816 512
57.32827 528
57.34839 518
57.3685 516
57.38861 461
57.40873 537
57.42884 516
57.44896 477
57.46907 528
57.48918 492
57.5093 504
57.52941 489
57.54952 494
57.56964 526
57.58975 523
57.60987 487
57.62998 503
57.65009 522
57.67021 510
57.69032 524
57.71043 488
57.73055 501
57.75066 475
57.77078 535
57.79089 539
57.811 511
57.83112 543
57.85123 535
57.87134 564
57.89146 535
57.91157 530
57.93168 548
57.9518 509
57.97191 526
57.99203 527
58.01214 573
58.03225 540
58.05237 527
58.07248 495
58.09259 547
58.11271 561
58.13282 502
58.15294 529
58.17305 519
58.19316 554
58.21328 528
58.23339 523
58.2535 498
58.27362 545
58.29373 528
58.31385 548
58.33396 483
58.35407 455
58.37419 531
58.3943 545
58.41441 520
58.43453 524
58.45464 535
58.47475 531
58.49487 544
58.51498 513
58.5351 525
58.55521 567
58.57532 483
58.59544 506
58.61555 522
58.63566 489
58.65578 523
58.67589 533
58.69601 499
58.71612 541
58.73623 488
58.75635 530
58.77646 512
58.79657 503
58.81669 493
58.8368 502
58.85691 537
58.87703 517
58.89714 502
58.91726 527
58.93737 518
58.95748 484
58.9776 524
58.99771 507
59.01782 514
59.03794 542
59.05805 524
59.07817 491
59.09828 518
59.11839 518
59.13851 514
59.15862 545
59.17873 514
59.19885 495
59.21896 481
59.23908 537
59.25919 519
59.2793 536
59.29942 539
59.31953 545
59.33964 577
59.35976 554
59.37987 542
59.39998 555
59.4201 548
59.44021 585
59.46033 560
59.48044 541
59.50055 598
59.52067 568
59.54078 583
59.56089 557
59.58101 565
59.60112 602
59.62124 585
59.64135 581
59.66146 587
59.68158 637
59.70169 613
59.7218 672
59.74192 676
59.76203 702
59.78215 736
59.80226 801
59.82237 828
59.84249 935
59.8626 961
59.88271 891
59.90283 904
59.92294 831
59.94305 769
59.96317 767
59.98328 784
60.0034 746
60.02351 720
60.04362 721
60.06374 738
60.08385 641
60.10396 611
60.12408 621
60.14419 608
60.16431 568
60.18442 578
60.20453 586
60.22465 553
60.24476 540
60.26487 528
60.28499 522
60.3051 518
60.32522 570
60.34533 560
60.36544 530
60.38556 549
60.40567 533
60.42578 512
60.4459 517
60.46601 483
60.48612 503
60.50624 507
60.52635 489
60.54647 518
60.56658 539
60.58669 520
60.60681 525
60.62692 459
60.64703 492
60.66715 526
60.68726 520
60.70738 519
60.72749 526
60.7476 526
60.76772 489
60.78783 474
60.80794 511
60.82806 472
60.84817 472
60.86828 484
60.8884 504
60.90851 496
60.92863 504
60.94874 521
60.96885 487
60.98897 519
61.00908 489
61.02919 488
61.04931 540
61.06942 495
61.08954 499
61.10965 509
61.12976 510
61.14988 491
61.16999 522
61.1901 484
61.21022 477
61.23033 458
61.25045 501
61.27056 531
61.29067 512
61.31079 525
61.3309 528
61.35101 519
61.37113 551
61.39124 546
61.41135 525
61.43147 550
61.45158 529
61.4717 560
61.49181 549
61.51192 516
61.53204 519
61.55215 550
61.57226 571
61.59238 523
61.61249 524
61.63261 571
61.65272 515
61.67283 540
61.69295 576
61.71306 547
61.73317 590
61.75329 571
61.7734 572
61.79352 548
61.81363 573
61.83374 573
61.85386 559
61.87397 586
61.89408 550
61.9142 578
61.93431 557
61.95442 606
61.97454 623
61.99465 630
62.01477 635
62.03488 633
62.05499 650
62.07511 636
62.09522 696
62.11533 685
62.13545 724
62.15556 668
62.17568 686
62.19579 701
62.2159 687
62.23602 706
62.25613 725
62.27624 659
62.29636 723
62.31647 673
62.33659 670
62.3567 713
62.37681 679
62.39693 641
62.41704 654
62.43715 632
62.45727 659
62.47738 608
62.49749 616
62.51761 554
62.53772 594
62.55784 594
62.57795 556
62.59806 554
62.61818 562
62.63829 561
62.6584 567
62.67852 573
62.69863 528
62.71875 548
62.73886 548
62.75897 530
62.77909 533
62.7992 541
62.81931 507
62.83943 511
62.85954 504
62.87965 509
62.89977 487
62.91988 504
62.94 499
62.96011 505
62.98022 556
63.00034 521
63.02045 497
63.04056 515
63.06068 534
63.08079 533
63.10091 483
63.12102 537
63.14113 548
63.16125 511
63.18136 544
63.20147 551
63.22159 548
63.2417 568
63.26182 520
63.28193 531
63.30204 523
63.32216 568
63.34227 533
63.36238 530
63.3825 571
63.40261 547
63.42272 536
63.44284 530
63.46295 562
63.48307 527
63.50318 500
63.52329 536
63.54341 522
63.56352 546
63.58363 517
63.60375 557
63.62386 538
63.64398 547
63.66409 578
63.6842 566
63.70432 589
63.72443 570
63.74454 565
63.76466 595
63.78477 591
63.80489 601
63.825 547
63.84511 567
63.86523 625
63.88534 623
63.90545 579
63.92557 594
63.94568 595
63.96579 626
63.98591 605
64.00602 593
64.02614 586
64.04625 539
64.06636 574
64.08648 520
64.10659 549
64.1267 564
64.14682 585
64.16693 561
64.18705 518
64.20716 505
64.22727 516
64.24739 519
64.2675 548
64.28761 526
64.30773 535
64.32784 522
64.34796 455
64.36807 485
64.38818 503
64.4083 515
64.42841 487
64.44852 526
64.46864 521
64.48875 522
64.50886 535
64.52898 508
64.54909 518
64.56921 532
64.58932 535
64.60943 525
64.62955 506
64.64966 462
64.66977 495
64.68989 518
64.71 484
64.73012 501
64.75023 500
64.77034 502
64.79046 546
64.81057 537
64.83068 510
64.8508 535
64.87091 505
64.89102 519
64.91114 536
64.93125 492
64.95137 498
64.97148 479
64.99159 496
65.01171 515
65.03182 487
65.05193 522
65.07205 493
65.09216 492
65.11228 531
65.13239 491
65.1525 453
65.17262 527
65.19273 494
65.21284 488
65.23296 498
65.25307 514
65.27319 494
65.2933 478
65.31341 459
65.33353 513
65.35364 518
65.37375 497
65.39387 496
65.41398 457
65.43409 463
65.45421 488
65.47432 516
65.49444 486
65.51455 463
65.53466 491
65.55478 440
65.57489 495
65.595 483
65.61512 451
65.63523 485
65.65535 537
65.67546 525
65.69557 536
65.71569 514
65.7358 508
65.75591 498
65.77603 505
65.79614 495
65.81626 503
65.83637 511
65.85648 505
65.8766 451
65.89671 487
65.91682 474
65.93694 512
65.95705 484
65.97716 517
65.99728 456
66.01739 496
66.03751 510
66.05762 529
66.07773 482
66.09785 473
66.11796 505
66.13807 467
66.15819 521
66.1783 509
66.19842 490
66.21853 493
66.23864 503
66.25876 510
66.27887 461
66.29898 452
66.3191 461
66.33921 521
66.35933 469
66.37944 512
66.39955 515
66.41967 473
66.43978 500
66.45989 507
66.48001 494
66.50012 501
66.52023 509
66.54035 473
66.56046 502
66.58058 474
66.60069 476
66.6208 482
66.64092 499
66.66103 523
66.68114 494
66.70126 510
66.72137 491
66.74149 476
66.7616 478
66.78171 451
66.80183 492
66.82194 451
66.84205 500
66.86217 523
66.88228 491
66.90239 444
66.92251 520
66.94262 544
66.96274 501
66.98285 470
67.00296 492
67.02308 463
67.04319 469
67.0633 506
67.08342 507
67.10353 510
67.12365 471
67.14376 484
67.16387 472
67.18399 505
67.2041 499
67.22421 483
67.24433 510
67.26444 488
67.28456 504
67.30467 535
67.32478 515
67.3449 516
67.36501 509
67.38512 473
67.40524 500
67.42535 492
67.44546 531
67.46558 538
67.48569 494
67.50581 544
67.52592 560
67.54603 593
67.56615 638
67.58626 595
67.60637 661
67.62649 694
67.6466 683
67.66672 685
67.68683 710
67.70694 685
67.72706 578
67.74717 612
67.76728 653
67.7874 564
67.80751 632
67.82763 644
67.84774 628
67.86785 646
67.88797 604
67.90808 637
67.92819 647
67.94831 602
67.96842 619
67.98853 673
68.00865 749
68.02876 817
68.04888 777
68.06899 746
68.0891 754
68.10922 779
68.12933 722
68.14944 726
68.16956 732
68.18967 690
68.20979 734
68.2299 808
68.25001 730
68.27013 702
68.29024 680
68.31035 658
68.33047 566
68.35058 577
68.3707 555
68.39081 542
68.41092 571
68.43104 561
68.45115 533
68.47126 528
68.49138 516
68.51149 505
68.5316 531
68.55172 542
68.57183 484
68.59195 518
68.61206 478
68.63217 493
68.65229 491
68.6724 531
68.69251 537
68.71263 513
68.73274 489
68.75286 493
68.77297 460
68.79308 476
68.8132 511
68.83331 490
68.85342 466
68.87354 481
68.89365 473
68.91376 456
68.93388 474
68.95399 497
68.97411 500
68.99422 469
69.01433 483
69.03445 468
69.05456 469
69.07467 495
69.09479 483
69.1149 538
69.13502 480
69.15513 512
69.17524 441
69.19536 480
69.21547 452
69.23558 461
69.2557 464
69.27581 448
69.29593 495
69.31604 437
69.33615 495
69.35627 452
69.37638 478
69.39649 471
69.41661 492
69.43672 473
69.45683 461
69.47695 464
69.49706 478
69.51718 451
69.53729 481
69.5574 480
69.57752 477
69.59763 470
69.61774 476
69.63786 476
69.65797 456
69.67809 486
69.6982 465
69.71831 488
69.73843 478
69.75854 485
69.77865 489
69.79877 464
69.81888 499
69.839 493
69.85911 463
69.87922 479
69.89934 493
69.91945 476
69.93956 431
69.95968 547
69.97979 489
69.9999 463
70.02002 532
70.04013 493
70.06025 487
70.08036 497
70.10047 470
70.12059 487
70.1407 506
70.16081 489
70.18093 476
70.20104 460
70.22116 469
70.24127 473
70.26138 492
70.2815 463
70.30161 478
70.32172 513
70.34184 458
70.36195 484
70.38207 488
70.40218 477
70.42229 487
70.44241 492
70.46252 465
70.48263 474
70.50275 433
70.52286 461
70.54297 467
70.56309 456
70.5832 421
70.60332 446
70.62343 450
70.64354 433
70.66366 460
70.68377 474
70.70388 485
70.724 457
70.74411 482
70.76423 470
70.78434 469
70.80445 509
70.82457 455
70.84468 445
70.86479 449
70.88491 461
70.90502 444
70.92513 448
70.94525 423
70.96536 465
70.98548 477
71.00559 450
71.0257 418
71.04582 465
71.06593 484
71.08604 477
71.10616 438
71.12627 418
71.14639 471
71.1665 459
71.18661 470
71.20673 452
71.22684 461
71.24695 449
71.26707 426
71.28718 469
71.3073 440
71.32741 420
71.34752 461
71.36764 494
71.38775 466
71.40786 421
71.42798 450
71.44809 477
71.4682 457
71.48832 437
71.50843 481
71.52855 473
71.54866 452
71.56877 449
71.58889 471
71.609 431
71.62911 472
71.64923 447
71.66934 444
71.68946 449
71.70957 465
71.72968 455
71.7498 429
71.76991 498
71.79002 465
71.81014 469
71.83025 471
71.85037 473
71.87048 461
71.89059 450
71.91071 441
71.93082 475
71.95093 444
71.97105 441
71.99116 488
72.01127 458
72.03139 400
72.0515 508
72.07162 481
72.09173 455
72.11184 447
72.13196 471
72.15207 426
72.17218 475
72.1923 455
72.21241 455
72.23253 449
72.25264 449
72.27275 461
72.29287 437
72.31298 486
72.33309 492
72.35321 429
72.37332 465
72.39344 431
72.41355 438
72.43366 478
72.45378 456
72.47389 446
72.494 452
72.51412 439
72.53423 447
72.55434 492
72.57446 476
72.59457 438
72.61469 451
72.6348 427
72.65491 442
72.67503 451
72.69514 446
72.71525 444
72.73537 441
72.75548 423
72.7756 431
72.79571 465
72.81582 435
72.83594 485
72.85605 476
72.87616 444
72.89628 459
72.91639 432
72.9365 456
72.95662 427
72.97673 490
72.99685 454
73.01696 476
73.03707 429
73.05719 437
73.0773 451
73.09741 460
73.11753 465
73.13764 453
73.15776 466
73.17787 495
73.19798 463
73.2181 507
73.23821 492
73.25832 485
73.27844 526
73.29855 500
73.31867 498
73.33878 523
73.35889 546
73.37901 518
73.39912 514
73.41923 520
73.43935 519
73.45946 505
73.47957 497
73.49969 528
73.5198 469
73.53992 494
73.56003 489
73.58014 532
73.60026 479
73.62037 471
73.64048 505
73.6606 458
73.68071 478
73.70083 484
73.72094 468
73.74105 477
73.76117 444
73.78128 458
73.80139 437
73.82151 444
73.84162 435
73.86174 452
73.88185 454
73.90196 476
73.92208 466
73.94219 427
73.9623 458
73.98242 457
74.00253 437
74.02264 433
74.04276 444
74.06287 455
74.08299 416
74.1031 423
74.12321 437
74.14333 429
74.16344 435
74.18355 443
74.20367 466
74.22378 419
74.2439 415
74.26401 457
74.28412 443
74.30424 415
74.32435 428
74.34446 389
74.36458 442
74.38469 415
74.40481 431
74.42492 463
74.44503 423
74.46515 412
74.48526 446
74.50537 413
74.52549 477
74.5456 423
74.56571 458
74.58583 454
74.60594 424
74.62606 454
74.64617 460
74.66628 430
74.6864 465
74.70651 432
74.72662 426
74.74674 444
74.76685 440
74.78697 455
74.80708 456
74.82719 472
74.84731 431
74.86742 442
74.88753 471
74.90765 410
74.92776 455
74.94787 429
74.96799 433
74.9881 429
75.00822 466
