3.00117 33307
3.02128 32724
3.0414 32307
3.06151 31229
3.08162 30911
3.10174 30122
3.12185 29384
3.14197 28656
3.16208 28613
3.18219 27761
3.20231 27203
3.22242 26250
3.24253 25943
3.26265 25031
3.28276 24499
3.30288 24061
3.32299 23610
3.3431 23030
3.36322 22618
3.38333 21886
3.40344 21433
3.42356 20816
3.44367 20388
3.46379 19828
3.4839 19161
3.50401 19204
3.52413 18330
3.54424 17705
3.56435 17441
3.58447 17075
3.60458 16691
3.62469 16128
3.64481 15805
3.66492 15306
3.68504 14995
3.70515 14545
3.72526 14146
3.74538 13571
3.76549 13183
3.7856 13047
3.80572 12677
3.82583 12179
3.84595 11800
3.86606 11309
3.88617 11200
3.90629 10713
3.9264 10512
3.94651 10302
3.96663 9937
3.98674 9370
4.00686 9185
4.02697 9129
4.04708 8619
4.0672 8523
4.08731 8125
4.10742 8159
4.12754 7628
4.14765 7464
4.16776 7150
4.18788 6815
4.20799 6725
4.22811 6370
4.24822 6376
4.26833 6116
4.28845 5882
4.30856 5665
4.32867 5518
4.34879 5323
4.3689 4989
4.38902 4882
4.40913 4745
4.42924 4736
4.44936 4618
4.46947 4369
4.48958 4115
4.5097 4140
4.52981 3942
4.54992 3768
4.57004 3692
4.59015 3625
4.61027 3414
4.63038 3330
4.65049 3157
4.67061 3154
4.69072 3095
4.71083 2982
4.73095 2978
4.75106 2858
4.77118 2656
4.79129 2653
4.8114 2582
4.83152 2510
4.85163 2400
4.87174 2404
4.89186 2234
4.91197 2158
4.93209 2121
4.9522 1957
4.97231 1992
4.99243 1802
5.01254 1918
5.03265 1857
5.05277 1746
5.07288 1800
5.09299 1702
5.11311 1580
5.13322 1664
5.15334 1558
5.17345 1523
5.19356 1404
5.21368 1485
5.23379 1335
5.2539 1288
5.27402 1216
5.29413 1235
5.31425 1201
5.33436 1114
5.35447 1081
5.37459 1078
5.3947 1036
5.41481 959
5.43493 1033
5.45504 980
5.47516 921
5.49527 913
5.51538 892
5.5355 809
5.55561 776
5.57572 766
5.59584 776
5.61595 731
5.63606 698
5.65618 681
5.67629 665
5.69641 654
5.71652 585
5.73663 572
5.75675 567
5.77686 584
5.79697 550
5.81709 543
5.8372 525
5.85732 515
5.87743 532
5.89754 519
5.91766 517
5.93777 475
5.95788 470
5.978 478
5.99811 451
6.01823 486
6.03834 463
6.05845 452
6.07857 419
6.09868 440
6.11879 400
6.13891 444
6.15902 407
6.17913 416
6.19925 403
6.21936 422
6.23948 394
6.25959 393
6.2797 420
6.29982 389
6.31993 365
6.34004 405
6.36016 372
6.38027 384
6.40039 378
6.4205 402
6.44061 379
6.46073 404
6.48084 375
6.50095 370
6.52107 363
6.54118 373
6.56129 388
6.58141 349
6.60152 355
6.62164 353
6.64175 368
6.66186 349
6.68198 340
6.70209 350
6.7222 360
6.74232 338
6.76243 381
6.78255 349
6.80266 364
6.82277 332
6.84289 339
6.863 342
6.88311 351
6.90323 367
6.92334 359
6.94346 365
6.96357 338
6.98368 324
7.0038 394
7.02391 341
7.04402 331
7.06414 381
7.08425 298
7.10436 314
7.12448 292
7.14459 320
7.16471 334
7.18482 330
7.20493 357
7.22505 340
7.24516 339
7.26527 319
7.28539 370
7.3055 338
7.32562 321
7.34573 334
7.36584 356
7.38596 327
7.40607 307
7.42618 312
7.4463 346
7.46641 335
7.48653 306
7.50664 354
7.52675 351
7.54687 331
7.56698 339
7.58709 335
7.60721 336
7.62732 396
7.64743 333
7.66755 334
7.68766 326
7.70778 313
7.72789 319
7.748 344
7.76812 346
7.78823 322
7.80834 369
7.82846 350
7.84857 340
7.86869 362
7.8888 353
7.90891 366
7.92903 336
7.94914 338
7.96925 344
7.98937 351
8.00948 340
8.0296 342
8.04971 410
8.06982 333
8.08994 375
8.11005 308
8.13016 332
8.15028 365
8.17039 330
8.1905 362
8.21062 331
8.23073 322
8.25085 339
8.27096 363
8.29107 332
8.31119 330
8.3313 331
8.35141 318
8.37153 358
8.39164 373
8.41176 310
8.43187 363
8.45198 318
8.4721 316
8.49221 351
8.51232 365
8.53244 322
8.55255 344
8.57266 361
8.59278 352
8.61289 360
8.63301 375
8.65312 342
8.67323 368
8.69335 342
8.71346 364
8.73357 370
8.75369 350
8.7738 364
8.79392 355
8.81403 397
8.83414 333
8.85426 347
8.87437 375
8.89448 369
8.9146 333
8.93471 383
8.95483 326
8.97494 351
8.99505 295
9.01517 335
9.03528 341
9.05539 311
9.07551 329
9.09562 326
9.11573 325
9.13585 298
9.15596 292
9.17608 322
9.19619 319
9.2163 295
9.23642 338
9.25653 297
9.27664 376
9.29676 322
9.31687 323
9.33699 313
9.3571 294
9.37721 324
9.39733 338
9.41744 334
9.43755 330
9.45767 298
9.47778 371
9.4979 307
9.51801 338
9.53812 335
9.55824 309
9.57835 338
9.59846 280
9.61858 305
9.63869 316
9.6588 309
9.67892 335
9.69903 343
9.71915 337
9.73926 284
9.75937 348
9.77949 299
9.7996 327
9.81971 340
9.83983 305
9.85994 335
9.88006 333
9.90017 339
9.92028 330
9.9404 292
9.96051 297
9.98062 286
10.00074 309
10.02085 304
10.04097 295
10.06108 315
10.08119 319
10.10131 283
10.12142 292
10.14153 339
10.16165 300
10.18176 302
10.20187 305
10.22199 296
10.2421 334
10.26222 277
10.28233 288
10.30244 291
10.32256 284
10.34267 284
10.36278 318
10.3829 291
10.40301 306
10.42313 305
10.44324 310
10.46335 303
10.48347 306
10.50358 307
10.52369 308
10.54381 290
10.56392 296
10.58403 309
10.60415 330
10.62426 334
10.64438 308
10.66449 313
10.6846 318
10.70472 280
10.72483 330
10.74494 306
10.76506 287
10.78517 289
10.80529 315
10.8254 311
10.84551 330
10.86563 300
10.88574 301
10.90585 333
10.92597 291
10.94608 318
10.9662 337
10.98631 322
11.00642 315
11.02654 292
11.04665 302
11.06676 274
11.08688 315
11.10699 336
11.1271 300
11.14722 333
11.16733 348
11.18745 318
11.20756 314
11.22767 323
11.24779 316
11.2679 327
11.28801 290
11.30813 343
11.32824 318
11.34836 337
11.36847 319
11.38858 352
11.4087 320
11.42881 340
11.44892 344
11.46904 317
11.48915 325
11.50927 316
11.52938 325
11.54949 311
11.56961 328
11.58972 328
11.60983 333
11.62995 315
11.65006 348
11.67017 323
11.69029 328
11.7104 324
11.73052 301
11.75063 337
11.77074 373
11.79086 322
11.81097 311
11.83108 318
11.8512 346
11.87131 324
11.89143 330
11.91154 361
11.93165 348
11.95177 339
11.97188 313
11.99199 349
12.01211 336
12.03222 374
12.05234 375
12.07245 358
12.09256 377
12.11268 381
12.13279 383
12.1529 412
12.17302 383
12.19313 411
12.21324 438
12.23336 503
12.25347 461
12.27359 531
12.2937 508
12.31381 568
12.33393 538
12.35404 555
12.37415 583
12.39427 508
12.41438 445
12.4345 438
12.45461 432
12.47472 374
12.49484 369
12.51495 346
12.53506 341
12.55518 354
12.57529 304
12.5954 329
12.61552 308
12.63563 301
12.65575 291
12.67586 333
12.69597 314
12.71609 332
12.7362 343
12.75631 356
12.77643 303
12.79654 294
12.81666 303
12.83677 295
12.85688 322
12.877 289
12.89711 326
12.91722 247
12.93734 252
12.95745 294
12.97757 276
12.99768 304
13.01779 305
13.03791 345
13.05802 311
13.07813 323
13.09825 315
13.11836 316
13.13847 300
13.15859 315
13.1787 305
13.19882 313
13.21893 275
13.23904 304
13.25916 295
13.27927 311
13.29938 296
13.3195 287
13.33961 298
13.35973 291
13.37984 317
13.39995 333
13.42007 289
13.44018 314
13.46029 340
13.48041 342
13.50052 324
13.52064 314
13.54075 331
13.56086 333
13.58098 378
13.60109 366
13.6212 355
13.64132 324
13.66143 332
13.68154 358
13.70166 285
13.72177 299
13.74189 282
13.762 315
13.78211 259
13.80223 298
13.82234 318
13.84245 295
13.86257 289
13.88268 275
13.9028 319
13.92291 289
13.94302 260
13.96314 306
13.98325 311
14.00336 266
14.02348 299
14.04359 298
14.06371 338
14.08382 311
14.10393 258
14.12405 273
14.14416 314
14.16427 286
14.18439 272
14.2045 254
14.22461 251
14.24473 258
14.26484 270
14.28496 247
14.30507 252
14.32518 290
14.3453 311
14.36541 287
14.38552 266
14.40564 251
14.42575 288
14.44587 301
14.46598 278
14.48609 228
14.50621 263
14.52632 275
14.54643 268
14.56655 246
14.58666 282
14.60677 267
14.62689 228
14.647 277
14.66712 249
14.68723 263
14.70734 276
14.72746 247
14.74757 272
14.76768 294
14.7878 259
14.80791 281
14.82803 260
14.84814 308
14.86825 294
14.88837 295
14.90848 297
14.92859 329
14.94871 299
14.96882 305
14.98894 299
15.00905 292
15.02916 292
15.04928 319
15.06939 304
15.0895 320
15.10962 291
15.12973 264
15.14984 265
15.16996 272
15.19007 261
15.21019 286
15.2303 284
15.25041 309
15.27053 273
15.29064 281
15.31075 277
15.33087 280
15.35098 275
15.3711 304
15.39121 254
15.41132 280
15.43144 282
15.45155 252
15.47166 293
15.49178 268
15.51189 270
15.53201 255
15.55212 240
15.57223 254
15.59235 296
15.61246 274
15.63257 297
15.65269 244
15.6728 287
15.69291 250
15.71303 265
15.73314 275
15.75326 259
15.77337 269
15.79348 244
15.8136 255
15.83371 254
15.85382 234
15.87394 261
15.89405 260
15.91417 265
15.93428 233
15.95439 266
15.97451 281
15.99462 278
16.01473 270
16.03485 251
16.05496 234
16.07508 272
16.09519 250
16.1153 274
16.13542 242
16.15553 230
16.17564 287
16.19576 287
16.21587 269
16.23598 255
16.2561 267
16.27621 257
16.29633 280
16.31644 246
16.33655 267
16.35667 275
16.37678 253
16.39689 233
16.41701 243
16.43712 248
16.45724 260
16.47735 241
16.49746 270
16.51758 226
16.53769 262
16.5578 244
16.57792 265
16.59803 264
16.61814 256
16.63826 223
16.65837 298
16.67849 280
16.6986 228
16.71871 258
16.73883 271
16.75894 249
16.77905 265
16.79917 291
16.81928 251
16.8394 260
16.85951 255
16.87962 246
16.89974 270
16.91985 261
16.93996 274
16.96008 278
16.98019 251
17.00031 238
17.02042 257
17.04053 253
17.06065 264
17.08076 267
17.10087 287
17.12099 255
17.1411 306
17.16121 250
17.18133 288
17.20144 268
17.22156 284
17.24167 267
17.26178 281
17.2819 245
17.30201 273
17.32212 274
17.34224 265
17.36235 282
17.38247 257
17.40258 265
17.42269 267
17.44281 268
17.46292 273
17.48303 259
17.50315 277
17.52326 280
17.54338 244
17.56349 260
17.5836 261
17.60372 262
17.62383 273
17.64394 287
17.66406 294
17.68417 276
17.70428 270
17.7244 284
17.74451 292
17.76463 293
17.78474 308
17.80485 325
17.82497 304
17.84508 291
17.86519 282
17.88531 296
17.90542 274
17.92554 282
17.94565 287
17.96576 272
17.98588 255
18.00599 259
18.0261 313
18.04622 278
18.06633 275
18.08645 283
18.10656 265
18.12667 269
18.14679 297
18.1669 247
18.18701 268
18.20713 257
18.22724 289
18.24735 255
18.26747 271
18.28758 259
18.3077 282
18.32781 251
18.34792 270
18.36804 288
18.38815 262
18.40826 301
18.42838 284
18.44849 252
18.46861 263
18.48872 251
18.50883 269
18.52895 272
18.54906 296
18.56917 289
18.58929 266
18.6094 244
18.62951 294
18.64963 240
18.66974 274
18.68986 224
18.70997 269
18.73008 262
18.7502 242
18.77031 290
18.79042 286
18.81054 280
18.83065 256
18.85077 261
18.87088 273
18.89099 275
18.91111 263
18.93122 271
18.95133 292
18.97145 249
18.99156 303
19.01168 273
19.03179 271
19.0519 253
19.07202 256
19.09213 269
19.11224 263
19.13236 264
19.15247 298
19.17258 297
19.1927 298
19.21281 285
19.23293 312
19.25304 299
19.27315 292
19.29327 320
19.31338 286
19.33349 291
19.35361 298
19.37372 325
19.39384 328
19.41395 280
19.43406 301
19.45418 292
19.47429 312
19.4944 317
19.51452 288
19.53463 306
19.55475 325
19.57486 329
19.59497 316
19.61509 376
19.6352 374
19.65531 423
19.67543 435
19.69554 445
19.71565 468
19.73577 516
19.75588 508
19.776 489
19.79611 567
19.81622 558
19.83634 514
19.85645 540
19.87656 529
19.89668 516
19.91679 507
19.93691 457
19.95702 478
19.97713 511
19.99725 466
20.01736 440
20.03747 460
20.05759 477
20.0777 476
20.09782 448
20.11793 449
20.13804 455
20.15816 518
20.17827 451
20.19838 482
20.2185 508
20.23861 455
20.25872 493
20.27884 537
20.29895 542
20.31907 520
20.33918 504
20.35929 543
20.37941 537
20.39952 527
20.41963 545
20.43975 531
20.45986 501
20.47998 583
20.50009 534
20.5202 537
20.54032 559
20.56043 584
20.58054 646
20.60066 691
20.62077 754
20.64088 875
20.661 1032
20.68111 1200
20.70123 1519
20.72134 1937
20.74145 2454
20.76157 2969
20.78168 3504
20.80179 3907
20.82191 4039
20.84202 3927
20.86214 3565
20.88225 2874
20.90236 2307
20.92248 1854
20.94259 1448
20.9627 1247
20.98282 1062
21.00293 1050
21.02305 989
21.04316 912
21.06327 811
21.08339 790
21.1035 775
21.12361 654
21.14373 700
21.16384 661
21.18395 652
21.20407 650
21.22418 645
21.2443 622
21.26441 630
21.28452 667
21.30464 618
21.32475 572
21.34486 547
21.36498 561
21.38509 535
21.40521 521
21.42532 577
21.44543 570
21.46555 503
21.48566 471
21.50577 463
21.52589 453
21.546 464
21.56612 422
21.58623 453
21.60634 402
21.62646 400
21.64657 410
21.66668 433
21.6868 430
21.70691 413
21.72702 444
21.74714 397
21.76725 401
21.78737 441
21.80748 406
21.82759 385
21.84771 396
21.86782 385
21.88793 407
21.90805 429
21.92816 393
21.94828 493
21.96839 415
21.9885 468
22.00862 440
22.02873 430
22.04884 417
22.06896 426
22.08907 397
22.10919 426
22.1293 382
22.14941 376
22.16953 418
22.18964 412
22.20975 455
22.22987 429
22.24998 416
22.27009 428
22.29021 413
22.31032 461
22.33044 407
22.35055 431
22.37066 409
22.39078 421
22.41089 395
22.431 444
22.45112 389
22.47123 434
22.49135 428
22.51146 391
22.53157 400
22.55169 416
22.5718 412
22.59191 363
22.61203 391
22.63214 367
22.65225 353
22.67237 377
22.69248 372
22.7126 336
22.73271 387
22.75282 375
22.77294 352
22.79305 379
22.81316 374
22.83328 369
22.85339 378
22.87351 380
22.89362 369
22.91373 393
22.93385 379
22.95396 404
22.97407 417
22.99419 415
23.0143 424
23.03442 427
23.05453 464
23.07464 449
23.09476 493
23.11487 435
23.13498 453
23.1551 459
23.17521 477
23.19532 479
23.21544 491
23.23555 466
23.25567 465
23.27578 423
23.29589 476
23.31601 458
23.33612 445
23.35623 434
23.37635 447
23.39646 438
23.41658 460
23.43669 476
23.4568 482
23.47692 490
23.49703 435
23.51714 498
23.53726 508
23.55737 497
23.57749 443
23.5976 467
23.61771 496
23.63783 501
23.65794 454
23.67805 443
23.69817 462
23.71828 443
23.73839 455
23.75851 453
23.77862 437
23.79874 440
23.81885 438
23.83896 456
23.85908 477
23.87919 462
23.8993 481
23.91942 540
23.93953 524
23.95965 507
23.97976 449
23.99987 489
24.01999 468
24.0401 430
24.06021 435
24.08033 444
24.10044 435
24.12056 402
24.14067 434
24.16078 393
24.1809 446
24.20101 453
24.22112 428
24.24124 455
24.26135 447
24.28146 410
24.30158 410
24.32169 453
24.34181 408
24.36192 419
24.38203 412
24.40215 342
24.42226 408
24.44237 416
24.46249 430
24.4826 394
24.50272 423
24.52283 404
24.54294 430
24.56306 401
24.58317 455
24.60328 478
24.6234 473
24.64351 445
24.66362 451
24.68374 491
24.70385 465
24.72397 480
24.74408 521
24.76419 504
24.78431 559
24.80442 577
24.82453 594
24.84465 568
24.86476 564
24.88488 537
24.90499 527
24.9251 479
24.94522 493
24.96533 436
24.98544 439
25.00556 441
25.02567 446
25.04579 434
25.0659 456
25.08601 419
25.10613 433
25.12624 450
25.14635 448
25.16647 442
25.18658 456
25.20669 453
25.22681 479
25.24692 432
25.26704 475
25.28715 476
25.30726 513
25.32738 488
25.34749 499
25.3676 518
25.38772 480
25.40783 554
25.42795 524
25.44806 520
25.46817 621
25.48829 618
25.5084 653
25.52851 675
25.54863 682
25.56874 686
25.58886 695
25.60897 640
25.62908 646
25.6492 660
25.66931 622
25.68942 640
25.70954 566
25.72965 513
25.74976 503
25.76988 509
25.78999 509
25.81011 537
25.83022 499
25.85033 487
25.87045 495
25.89056 499
25.91067 502
25.93079 522
25.9509 517
25.97102 536
25.99113 513
26.01124 580
26.03136 607
26.05147 574
26.07158 573
26.0917 640
26.11181 622
26.13193 677
26.15204 738
26.17215 786
26.19227 766
26.21238 906
26.23249 929
26.25261 962
26.27272 1084
26.29283 1194
26.31295 1360
26.33306 1559
26.35318 1755
26.37329 2088
26.3934 2417
26.41352 3045
26.43363 3875
26.45374 5154
26.47386 6397
26.49397 8141
26.51409 10489
26.5342 12667
26.55431 14866
26.57443 16245
26.59454 16779
26.61465 16261
26.63477 15047
26.65488 12293
26.67499 9060
26.69511 6830
26.71522 5006
26.73534 3239
26.75545 2170
26.77556 1600
26.79568 1445
26.81579 1256
26.8359 1200
26.85602 1145
26.87613 1095
26.89625 1050
26.91636 1086
26.93647 1005
26.95659 1014
26.9767 1000
26.99681 1093
27.01693 1034
27.03704 1089
27.05716 1061
27.07727 956
27.09738 832
27.1175 814
27.13761 779
27.15772 782
27.17784 677
27.19795 672
27.21806 717
27.23818 706
27.25829 759
27.27841 782
27.29852 820
27.31863 928
27.33875 1017
27.35886 1124
27.37897 1187
27.39909 1236
27.4192 1224
27.43932 1299
27.45943 1222
27.47954 1212
27.49966 993
27.51977 878
27.53988 800
27.56 695
27.58011 606
27.60023 601
27.62034 547
27.64045 529
27.66057 510
27.68068 532
27.70079 491
27.72091 469
27.74102 496
27.76113 496
27.78125 452
27.80136 461
27.82148 486
27.84159 506
27.8617 500
27.88182 476
27.90193 524
27.92204 475
27.94216 518
27.96227 474
27.98239 395
28.0025 419
28.02261 382
28.04273 420
28.06284 411
28.08295 413
28.10307 380
28.12318 393
28.1433 399
28.16341 407
28.18352 425
28.20364 419
28.22375 383
28.24386 421
28.26398 382
28.28409 355
28.3042 329
28.32432 340
28.34443 375
28.36455 400
28.38466 348
28.40477 360
28.42489 352
28.445 345
28.46511 343
28.48523 339
28.50534 326
28.52546 335
28.54557 338
28.56568 324
28.5858 319
28.60591 314
28.62602 341
28.64614 317
28.66625 336
28.68636 347
28.70648 377
28.72659 312
28.74671 362
28.76682 372
28.78693 318
28.80705 336
28.82716 339
28.84727 296
28.86739 336
28.8875 334
28.90762 311
28.92773 366
28.94784 321
28.96796 381
28.98807 324
29.00818 332
29.0283 338
29.04841 298
29.06853 358
29.08864 332
29.10875 330
29.12887 338
29.14898 343
29.16909 323
29.18921 324
29.20932 363
29.22943 329
29.24955 349
29.26966 349
29.28978 368
29.30989 406
29.33 347
29.35012 384
29.37023 408
29.39034 426
29.41046 401
29.43057 429
29.45069 415
29.4708 384
29.49091 390
29.51103 388
29.53114 426
29.55125 415
29.57137 411
29.59148 395
29.6116 365
29.63171 395
29.65182 381
29.67194 421
29.69205 437
29.71216 400
29.73228 362
29.75239 423
29.7725 419
29.79262 455
29.81273 410
29.83285 421
29.85296 414
29.87307 422
29.89319 398
29.9133 434
29.93341 403
29.95353 396
29.97364 416
29.99376 413
30.01387 400
30.03398 389
30.0541 406
30.07421 429
30.09432 464
30.11444 456
30.13455 470
30.15467 444
30.17478 469
30.19489 434
30.21501 451
30.23512 433
30.25523 359
30.27535 402
30.29546 369
30.31557 388
30.33569 362
30.3558 363
30.37592 357
30.39603 355
30.41614 349
30.43626 386
30.45637 345
30.47648 345
30.4966 341
30.51671 386
30.53683 368
30.55694 381
30.57705 368
30.59717 387
30.61728 427
30.63739 410
30.65751 437
30.67762 466
30.69773 472
30.71785 496
30.73796 508
30.75808 479
30.77819 430
30.7983 490
30.81842 470
30.83853 424
30.85864 433
30.87876 401
30.89887 405
30.91899 360
30.9391 338
30.95921 335
30.97933 302
30.99944 311
31.01955 306
31.03967 335
31.05978 313
31.0799 315
31.10001 282
31.12012 289
31.14024 323
31.16035 313
31.18046 342
31.20058 306
31.22069 305
31.2408 278
31.26092 328
31.28103 340
31.30115 337
31.32126 334
31.34137 318
31.36149 284
31.3816 334
31.40171 280
31.42183 295
31.44194 285
31.46206 278
31.48217 301
31.50228 286
31.5224 287
31.54251 286
31.56262 302
31.58274 322
31.60285 289
31.62297 296
31.64308 310
31.66319 314
31.68331 280
31.70342 296
31.72353 324
31.74365 301
31.76376 267
31.78387 293
31.80399 295
31.8241 305
31.84422 279
31.86433 324
31.88444 279
31.90456 283
31.92467 295
31.94478 338
31.9649 272
31.98501 312
32.00513 312
32.02524 318
32.04535 345
32.06547 324
32.08558 318
32.10569 362
32.12581 371
32.14592 346
32.16604 336
32.18615 346
32.20626 340
32.22638 355
32.24649 375
32.2666 355
32.28672 319
32.30683 366
32.32694 324
32.34706 362
32.36717 357
32.38729 350
32.4074 371
32.42751 340
32.44763 356
32.46774 361
32.48785 364
32.50797 340
32.52808 286
32.5482 328
32.56831 312
32.58842 295
32.60854 302
32.62865 276
32.64876 285
32.66888 326
32.68899 299
32.7091 294
32.72922 291
32.74933 308
32.76945 295
32.78956 261
32.80967 291
32.82979 299
32.8499 290
32.87001 301
32.89013 287
32.91024 289
32.93036 306
32.95047 306
32.97058 297
32.9907 302
33.01081 293
33.03092 318
33.05104 277
33.07115 273
33.09127 322
33.11138 301
33.13149 313
33.15161 326
33.17172 361
33.19183 346
33.21195 348
33.23206 332
33.25217 306
33.27229 339
33.2924 306
33.31252 325
33.33263 344
33.35274 324
33.37286 319
33.39297 321
33.41308 330
33.4332 318
33.45331 336
33.47343 346
33.49354 330
33.51365 328
33.53377 338
33.55388 291
33.57399 323
33.59411 323
33.61422 327
33.63434 326
33.65445 312
33.67456 290
33.69468 288
33.71479 320
33.7349 289
33.75502 275
33.77513 285
33.79524 295
33.81536 281
33.83547 342
33.85559 297
33.8757 310
33.89581 321
33.91593 325
33.93604 272
33.95615 282
33.97627 286
33.99638 327
34.0165 291
34.03661 331
34.05672 380
34.07684 368
34.09695 393
34.11706 366
34.13718 377
34.15729 372
34.17741 404
34.19752 372
34.21763 384
34.23775 429
34.25786 414
34.27797 388
34.29809 407
34.3182 403
34.33831 407
34.35843 377
34.37854 399
34.39866 367
34.41877 368
34.43888 357
34.459 393
34.47911 398
34.49922 405
34.51934 381
34.53945 450
34.55957 446
34.57968 417
34.59979 442
34.61991 473
34.64002 436
34.66013 476
34.68025 436
34.70036 414
34.72047 459
34.74059 449
34.7607 520
34.78082 489
34.80093 532
34.82104 559
34.84116 517
34.86127 529
34.88138 522
34.9015 543
34.92161 556
34.94173 530
34.96184 560
34.98195 521
35.00207 539
35.02218 532
35.04229 537
35.06241 459
35.08252 489
35.10264 497
35.12275 478
35.14286 446
35.16298 453
35.18309 448
35.2032 462
35.22332 443
35.24343 424
35.26354 431
35.28366 397
35.30377 427
35.32389 452
35.344 441
35.36411 432
35.38423 443
35.40434 470
35.42445 468
35.44457 479
35.46468 438
35.4848 443
35.50491 450
35.52502 464
35.54514 418
35.56525 424
35.58536 465
35.60548 424
35.62559 398
35.64571 395
35.66582 431
35.68593 386
35.70605 374
35.72616 408
35.74627 419
35.76639 446
35.7865 411
35.80661 413
35.82673 430
35.84684 438
35.86696 463
35.88707 450
35.90718 417
35.9273 420
35.94741 450
35.96752 465
35.98764 390
36.00775 408
36.02787 475
36.04798 428
36.06809 377
36.08821 398
36.10832 426
36.12843 396
36.14855 426
36.16866 390
36.18878 467
36.20889 422
36.229 465
36.24912 472
36.26923 475
36.28934 563
36.30946 573
36.32957 669
36.34968 695
36.3698 814
36.38991 961
36.41003 1110
36.43014 1213
36.45025 1343
36.47037 1456
36.49048 1546
36.51059 1469
36.53071 1300
36.55082 1154
36.57094 1061
36.59105 902
36.61116 869
36.63128 726
36.65139 648
36.6715 574
36.69162 559
36.71173 496
36.73184 477
36.75196 469
36.77207 492
36.79219 531
36.8123 471
36.83241 493
36.85253 497
36.87264 477
36.89275 480
36.91287 481
36.93298 509
36.9531 499
36.97321 470
36.99332 466
37.01344 407
37.03355 489
37.05366 426
37.07378 424
37.09389 363
37.11401 357
37.13412 387
37.15423 408
37.17435 378
37.19446 377
37.21457 345
37.23469 356
37.2548 330
37.27491 383
37.29503 344
37.31514 365
37.33526 349
37.35537 321
37.37548 357
37.3956 360
37.41571 326
37.43582 363
37.45594 330
37.47605 347
37.49617 366
37.51628 368
37.53639 364
37.55651 378
37.57662 363
37.59673 335
37.61685 351
37.63696 369
37.65708 351
37.67719 333
37.6973 364
37.71742 388
37.73753 366
37.75764 386
37.77776 362
37.79787 350
37.81798 339
37.8381 346
37.85821 348
37.87833 340
37.89844 337
37.91855 337
37.93867 338
37.95878 324
37.97889 320
37.99901 359
38.01912 347
38.03924 351
38.05935 334
38.07946 338
38.09958 310
38.11969 339
38.1398 405
38.15992 368
38.18003 363
38.20015 379
38.22026 387
38.24037 422
38.26049 400
38.2806 418
38.30071 381
38.32083 424
38.34094 418
38.36105 378
38.38117 394
38.40128 439
38.4214 454
38.44151 429
38.46162 418
38.48174 467
38.50185 436
38.52196 407
38.54208 377
38.56219 399
38.58231 407
38.60242 382
38.62253 423
38.64265 371
38.66276 358
38.68287 345
38.70299 317
38.7231 335
38.74321 320
38.76333 318
38.78344 327
38.80356 317
38.82367 301
38.84378 326
38.8639 324
38.88401 339
38.90412 316
38.92424 320
38.94435 324
38.96447 315
38.98458 343
39.00469 340
39.02481 358
39.04492 373
39.06503 366
39.08515 407
39.10526 415
39.12538 428
39.14549 461
39.1656 431
39.18572 521
39.20583 509
39.22594 573
39.24606 603
39.26617 633
39.28628 730
39.3064 845
39.32651 923
39.34663 1033
39.36674 1159
39.38685 1334
39.40697 1293
39.42708 1310
39.44719 1265
39.46731 1113
39.48742 987
39.50754 834
39.52765 724
39.54776 642
39.56788 552
39.58799 471
39.6081 424
39.62822 370
39.64833 352
39.66845 370
39.68856 323
39.70867 329
39.72879 323
39.7489 340
39.76901 313
39.78913 304
39.80924 310
39.82935 332
39.84947 318
39.86958 350
39.8897 332
39.90981 364
39.92992 333
39.95004 351
39.97015 390
39.99026 383
40.01038 398
40.03049 397
40.05061 441
40.07072 443
40.09083 491
40.11095 546
40.13106 608
40.15117 634
40.17129 697
40.1914 701
40.21152 813
40.23163 805
40.25174 832
40.27186 795
40.29197 734
40.31208 620
40.3322 564
40.35231 511
40.37242 489
40.39254 447
40.41265 407
40.43277 352
40.45288 344
40.47299 337
40.49311 331
40.51322 358
40.53333 347
40.55345 345
40.57356 306
40.59368 344
40.61379 323
40.6339 298
40.65402 302
40.67413 301
40.69424 315
40.71436 287
40.73447 299
40.75458 304
40.7747 281
40.79481 344
40.81493 301
40.83504 317
40.85515 287
40.87527 311
40.89538 304
40.91549 299
40.93561 301
40.95572 303
40.97584 294
40.99595 313
41.01606 324
41.03618 322
41.05629 308
41.0764 362
41.09652 321
41.11663 308
41.13675 314
41.15686 362
41.17697 326
41.19709 339
41.2172 351
41.23731 356
41.25743 325
41.27754 323
41.29765 302
41.31777 355
41.33788 343
41.358 351
41.37811 313
41.39822 367
41.41834 336
41.43845 364
41.45856 348
41.47868 369
41.49879 353
41.51891 362
41.53902 406
41.55913 368
41.57925 375
41.59936 412
41.61947 427
41.63959 441
41.6597 479
41.67982 461
41.69993 463
41.72004 432
41.74016 481
41.76027 483
41.78038 469
41.8005 377
41.82061 396
41.84072 395
41.86084 369
41.88095 377
41.90107 343
41.92118 340
41.94129 336
41.96141 336
41.98152 347
42.00163 322
42.02175 338
42.04186 348
42.06198 353
42.08209 337
42.1022 348
42.12232 377
42.14243 373
42.16254 395
42.18266 403
42.20277 410
42.22289 512
42.243 511
42.26311 637
42.28323 631
42.30334 748
42.32345 803
42.34357 899
42.36368 916
42.38379 955
42.40391 1041
42.42402 908
42.44414 865
42.46425 799
42.48436 712
42.50448 586
42.52459 588
42.5447 515
42.56482 510
42.58493 418
42.60505 416
42.62516 339
42.64527 339
42.66539 354
42.6855 333
42.70561 353
42.72573 335
42.74584 337
42.76595 331
42.78607 325
42.80618 294
42.8263 283
42.84641 264
42.86652 281
42.88664 284
42.90675 317
42.92686 296
42.94698 262
42.96709 278
42.98721 299
43.00732 289
43.02743 261
43.04755 264
43.06766 266
43.08777 288
43.10789 286
43.128 294
43.14812 261
43.16823 253
43.18834 284
43.20846 287
43.22857 287
43.24868 274
43.2688 263
43.28891 284
43.30902 299
43.32914 291
43.34925 266
43.36937 247
43.38948 309
43.40959 259
43.42971 275
43.44982 309
43.46993 314
43.49005 295
43.51016 270
43.53028 275
43.55039 274
43.5705 278
43.59062 281
43.61073 291
43.63084 285
43.65096 259
43.67107 313
43.69119 259
43.7113 263
43.73141 274
43.75153 275
43.77164 298
43.79175 274
43.81187 233
43.83198 279
43.85209 280
43.87221 285
43.89232 273
43.91244 292
43.93255 274
43.95266 287
43.97278 281
43.99289 266
44.013 291
44.03312 275
44.05323 275
44.07335 282
44.09346 281
44.11357 296
44.13369 288
44.1538 300
44.17391 259
44.19403 299
44.21414 278
44.23426 265
44.25437 274
44.27448 269
44.2946 273
44.31471 275
44.33482 245
44.35494 303
44.37505 313
44.39516 250
44.41528 257
44.43539 266
44.45551 252
44.47562 269
44.49573 272
44.51585 238
44.53596 285
44.55607 272
44.57619 264
44.5963 279
44.61642 271
44.63653 318
44.65664 268
44.67676 282
44.69687 283
44.71698 261
44.7371 252
44.75721 283
44.77732 276
44.79744 258
44.81755 278
44.83767 253
44.85778 297
44.87789 301
44.89801 295
44.91812 254
44.93823 247
44.95835 275
44.97846 287
44.99858 263
45.01869 277
45.0388 294
45.05892 283
45.07903 308
45.09914 315
45.11926 288
45.13937 280
45.15949 316
45.1796 325
45.19971 297
45.21983 315
45.23994 298
45.26005 350
45.28017 336
45.30028 314
45.32039 353
45.34051 299
45.36062 325
45.38074 344
45.40085 341
45.42096 359
45.44108 351
45.46119 379
45.4813 379
45.50142 408
45.52153 412
45.54165 435
45.56176 442
45.58187 461
45.60199 515
45.6221 565
45.64221 622
45.66233 623
45.68244 699
45.70256 736
45.72267 758
45.74278 808
45.7629 742
45.78301 675
45.80312 638
45.82324 559
45.84335 532
45.86346 519
45.88358 464
45.90369 471
45.92381 441
45.94392 379
45.96403 328
45.98415 331
46.00426 289
46.02437 335
46.04449 305
46.0646 296
46.08472 312
46.10483 315
46.12494 292
46.14506 283
46.16517 277
46.18528 310
46.2054 298
46.22551 314
46.24563 286
46.26574 317
46.28585 277
46.30597 301
46.32608 284
46.34619 289
46.36631 270
46.38642 295
46.40653 266
46.42665 304
46.44676 279
46.46688 269
46.48699 262
46.5071 255
46.52722 267
46.54733 265
46.56744 268
46.58756 262
46.60767 267
46.62779 295
46.6479 256
46.66801 280
46.68813 257
46.70824 261
46.72835 304
46.74847 292
46.76858 276
46.78869 278
46.80881 281
46.82892 276
46.84904 261
46.86915 260
46.88926 313
46.90938 295
46.92949 281
46.9496 288
46.96972 270
46.98983 259
47.00995 316
47.03006 317
47.05017 301
47.07029 308
47.0904 318
47.11051 313
47.13063 309
47.15074 315
47.17086 298
47.19097 307
47.21108 281
47.2312 340
47.25131 312
47.27142 326
47.29154 300
47.31165 282
47.33176 285
47.35188 306
47.37199 277
47.39211 320
47.41222 310
47.43233 278
47.45245 305
47.47256 303
47.49267 311
47.51279 277
47.5329 297
47.55302 259
47.57313 297
47.59324 315
47.61336 302
47.63347 288
47.65358 274
47.6737 269
47.69381 296
47.71393 265
47.73404 276
47.75415 281
47.77427 293
47.79438 273
47.81449 272
47.83461 255
47.85472 285
47.87483 278
47.89495 289
47.91506 313
47.93518 292
47.95529 290
47.9754 282
47.99552 289
48.01563 318
48.03574 274
48.05586 292
48.07597 258
48.09609 297
48.1162 274
48.13631 278
48.15643 274
48.17654 265
48.19665 248
48.21677 228
48.23688 260
48.257 260
48.27711 285
48.29722 276
48.31734 282
48.33745 245
48.35756 267
48.37768 265
48.39779 279
48.4179 235
48.43802 262
48.45813 241
48.47825 250
48.49836 245
48.51847 275
48.53859 252
48.5587 284
48.57881 275
48.59893 273
48.61904 291
48.63916 293
48.65927 292
48.67938 309
48.6995 271
48.71961 263
48.73972 313
48.75984 307
48.77995 296
48.80006 286
48.82018 284
48.84029 294
48.86041 291
48.88052 292
48.90063 317
48.92075 290
48.94086 289
48.96097 325
48.98109 324
49.0012 275
49.02132 280
49.04143 330
49.06154 304
49.08166 314
49.10177 279
49.12188 274
49.142 311
49.16211 279
49.18223 267
49.20234 302
49.22245 277
49.24257 303
49.26268 275
49.28279 283
49.30291 286
49.32302 273
49.34313 289
49.36325 283
49.38336 248
49.40348 270
49.42359 305
49.4437 325
49.46382 311
49.48393 291
49.50404 302
49.52416 322
49.54427 296
49.56439 322
49.5845 312
49.60461 324
49.62473 323
49.64484 332
49.66495 355
49.68507 353
49.70518 377
49.7253 412
49.74541 424
49.76552 426
49.78564 450
49.80575 476
49.82586 508
49.84598 607
49.86609 659
49.8862 703
49.90632 838
49.92643 892
49.94655 1019
49.96666 1264
49.98677 1406
50.00689 1626
50.027 1760
50.04711 1817
50.06723 1917
50.08734 1956
50.10746 1819
50.12757 1655
50.14768 1442
50.1678 1238
50.18791 1200
50.20802 1058
50.22814 963
50.24825 864
50.26837 730
50.28848 588
50.30859 505
50.32871 483
50.34882 452
50.36893 441
50.38905 440
50.40916 484
50.42927 497
50.44939 471
50.4695 459
50.48962 515
50.50973 462
50.52984 500
50.54996 470
50.57007 449
50.59018 472
50.6103 449
50.63041 443
50.65053 448
50.67064 387
50.69075 408
50.71087 389
50.73098 348
50.75109 359
50.77121 346
50.79132 327
50.81143 371
50.83155 353
50.85166 339
50.87178 326
50.89189 329
50.912 316
50.93212 308
50.95223 332
50.97234 290
50.99246 301
51.01257 284
51.03269 280
51.0528 267
51.07291 271
51.09303 303
51.11314 297
51.13325 279
51.15337 306
51.17348 257
51.1936 257
51.21371 255
51.23382 255
51.25394 268
51.27405 271
51.29416 259
51.31428 239
51.33439 290
51.3545 265
51.37462 278
51.39473 252
51.41485 257
51.43496 272
51.45507 250
51.47519 258
51.4953 273
51.51541 264
51.53553 261
51.55564 269
51.57576 284
51.59587 235
51.61598 256
51.6361 253
51.65621 250
51.67632 267
51.69644 259
51.71655 254
51.73667 271
51.75678 240
51.77689 262
51.79701 253
51.81712 243
51.83723 246
51.85735 261
51.87746 261
51.89757 256
51.91769 298
51.9378 266
51.95792 248
51.97803 255
51.99814 268
52.01826 250
52.03837 244
52.05848 250
52.0786 229
52.09871 242
52.11883 211
52.13894 233
52.15905 255
52.17917 249
52.19928 272
52.21939 228
52.23951 265
52.25962 225
52.27974 269
52.29985 240
52.31996 258
52.34008 240
52.36019 247
52.3803 240
52.40042 244
52.42053 267
52.44064 269
52.46076 301
52.48087 275
52.50099 294
52.5211 254
52.54121 264
52.56133 257
52.58144 268
52.60155 254
52.62167 256
52.64178 264
52.6619 268
52.68201 268
52.70212 273
52.72224 242
52.74235 284
52.76246 237
52.78258 285
52.80269 278
52.8228 255
52.84292 256
52.86303 286
52.88315 293
52.90326 242
52.92337 259
52.94349 263
52.9636 287
52.98371 273
53.00383 287
53.02394 305
53.04406 316
53.06417 318
53.08428 282
53.1044 289
53.12451 305
53.14462 278
53.16474 288
53.18485 295
53.20497 310
53.22508 342
53.24519 321
53.26531 318
53.28542 323
53.30553 351
53.32565 327
53.34576 346
53.36587 306
53.38599 304
53.4061 298
53.42622 313
53.44633 295
53.46644 320
53.48656 296
53.50667 332
53.52678 309
53.5469 322
53.56701 331
53.58713 312
53.60724 315
53.62735 315
53.64747 285
53.66758 301
53.68769 304
53.70781 285
53.72792 311
53.74804 330
53.76815 295
53.78826 302
53.80838 273
53.82849 288
53.8486 299
53.86872 296
53.88883 298
53.90894 287
53.92906 313
53.94917 284
53.96929 306
53.9894 304
54.00951 294
54.02963 277
54.04974 300
54.06985 303
54.08997 308
54.11008 305
54.1302 280
54.15031 327
54.17042 336
54.19054 270
54.21065 323
54.23076 317
54.25088 302
54.27099 314
54.29111 333
54.31122 323
54.33133 284
54.35145 303
54.37156 333
54.39167 314
54.41179 332
54.4319 321
54.45201 377
54.47213 334
54.49224 325
54.51236 358
54.53247 376
54.55258 377
54.5727 396
54.59281 393
54.61292 459
54.63304 483
54.65315 494
54.67327 539
54.69338 543
54.71349 607
54.73361 675
54.75372 711
54.77383 717
54.79395 732
54.81406 771
54.83417 775
54.85429 744
54.8744 675
54.89452 596
54.91463 620
54.93474 600
54.95486 535
54.97497 541
54.99508 492
55.0152 468
55.03531 471
55.05543 399
55.07554 402
55.09565 413
55.11577 448
55.13588 443
55.15599 451
55.17611 448
55.19622 516
55.21634 518
55.23645 496
55.25656 516
55.27668 537
55.29679 502
55.3169 466
55.33702 434
55.35713 432
55.37724 423
55.39736 403
55.41747 424
55.43759 402
55.4577 362
55.47781 356
55.49793 326
55.51804 351
55.53815 288
55.55827 349
55.57838 328
55.5985 299
55.61861 298
55.63872 296
55.65884 322
55.67895 283
55.69906 273
55.71918 325
55.73929 286
55.75941 277
55.77952 290
55.79963 295
55.81975 309
55.83986 323
55.85997 290
55.88009 276
55.9002 280
55.92031 296
55.94043 280
55.96054 300
55.98066 266
56.00077 268
56.02088 257
56.041 257
56.06111 308
56.08122 288
56.10134 268
56.12145 294
56.14157 290
56.16168 281
56.18179 249
56.20191 290
56.22202 248
56.24213 253
56.26225 278
56.28236 301
56.30248 284
56.32259 279
56.3427 282
56.36282 264
56.38293 287
56.40304 258
56.42316 254
56.44327 270
56.46338 260
56.4835 270
56.50361 285
56.52373 291
56.54384 289
56.56395 294
56.58407 287
56.60418 306
56.62429 310
56.64441 268
56.66452 285
56.68464 280
56.70475 292
56.72486 297
56.74498 294
56.76509 301
56.7852 302
56.80532 301
56.82543 273
56.84554 276
56.86566 260
56.88577 266
56.90589 293
56.926 280
56.94611 292
56.96623 254
56.98634 275
57.00645 263
57.02657 280
57.04668 262
57.0668 254
57.08691 282
57.10702 283
57.12714 308
57.14725 296
57.16736 296
57.18748 297
57.20759 302
57.22771 293
57.24782 300
57.26793 299
57.28805 266
57.30816 295
57.32827 270
57.34839 253
57.3685 251
57.38861 294
57.40873 283
57.42884 265
57.44896 282
57.46907 260
57.48918 298
57.5093 256
57.52941 257
57.54952 287
57.56964 252
57.58975 255
57.60987 269
57.62998 244
57.65009 255
57.67021 253
57.69032 257
57.71043 291
57.73055 262
57.75066 279
57.77078 281
57.79089 255
57.811 265
57.83112 296
57.85123 299
57.87134 257
57.89146 264
57.91157 262
57.93168 264
57.9518 266
57.97191 284
57.99203 270
58.01214 285
58.03225 279
58.05237 250
58.07248 294
58.09259 276
58.11271 239
58.13282 282
58.15294 254
58.17305 260
58.19316 281
58.21328 255
58.23339 268
58.2535 255
58.27362 284
58.29373 279
58.31385 255
58.33396 278
58.35407 257
58.37419 286
58.3943 271
58.41441 271
58.43453 252
58.45464 274
58.47475 285
58.49487 273
58.51498 273
58.5351 292
58.55521 289
58.57532 306
58.59544 289
58.61555 264
58.63566 262
58.65578 296
58.67589 273
58.69601 256
58.71612 278
58.73623 285
58.75635 247
58.77646 281
58.79657 262
58.81669 273
58.8368 237
58.85691 281
58.87703 273
58.89714 288
58.91726 288
58.93737 260
58.95748 257
58.9776 270
58.99771 275
59.01782 247
59.03794 270
59.05805 276
59.07817 269
59.09828 284
59.11839 274
59.13851 262
59.15862 270
59.17873 291
59.19885 280
59.21896 317
59.23908 334
59.25919 316
59.2793 294
59.29942 290
59.31953 305
59.33964 345
59.35976 302
59.37987 309
59.39998 284
59.4201 316
59.44021 318
59.46033 352
59.48044 360
59.50055 373
59.52067 352
59.54078 381
59.56089 373
59.58101 406
59.60112 413
59.62124 448
59.64135 467
59.66146 528
59.68158 550
59.70169 584
59.7218 597
59.74192 727
59.76203 782
59.78215 881
59.80226 1044
59.82237 1169
59.84249 1221
59.8626 1317
59.88271 1308
59.90283 1175
59.92294 1211
59.94305 1121
59.96317 979
59.98328 893
60.0034 829
60.02351 790
60.04362 750
60.06374 683
60.08385 663
60.10396 607
60.12408 502
60.14419 443
60.16431 366
60.18442 321
60.20453 337
60.22465 313
60.24476 327
60.26487 344
60.28499 300
60.3051 309
60.32522 321
60.34533 305
60.36544 289
60.38556 302
60.40567 281
60.42578 304
60.4459 294
60.46601 268
60.48612 291
60.50624 285
60.52635 260
60.54647 263
60.56658 246
60.58669 249
60.60681 288
60.62692 273
60.64703 278
60.66715 300
60.68726 287
60.70738 269
60.72749 243
60.7476 266
60.76772 268
60.78783 275
60.80794 299
60.82806 276
60.84817 257
60.86828 258
60.8884 266
60.90851 312
60.92863 266
60.94874 285
60.96885 259
60.98897 298
61.00908 266
61.02919 265
61.04931 297
61.06942 285
61.08954 291
61.10965 320
61.12976 293
61.14988 302
61.16999 283
61.1901 317
61.21022 285
61.23033 308
61.25045 276
61.27056 273
61.29067 282
61.31079 320
61.3309 301
61.35101 299
61.37113 268
61.39124 300
61.41135 270
61.43147 319
61.45158 267
61.4717 301
61.49181 307
61.51192 308
61.53204 288
61.55215 324
61.57226 311
61.59238 313
61.61249 276
61.63261 318
61.65272 332
61.67283 279
61.69295 341
61.71306 327
61.73317 300
61.75329 314
61.7734 334
61.79352 329
61.81363 340
61.83374 310
61.85386 313
61.87397 319
61.89408 316
61.9142 333
61.93431 344
61.95442 350
61.97454 355
61.99465 304
62.01477 340
62.03488 356
62.05499 348
62.07511 351
62.09522 368
62.11533 332
62.13545 345
62.15556 342
62.17568 354
62.19579 325
62.2159 350
62.23602 359
62.25613 347
62.27624 302
62.29636 336
62.31647 318
62.33659 321
62.3567 303
62.37681 329
62.39693 316
62.41704 315
62.43715 292
62.45727 318
62.47738 309
62.49749 324
62.51761 325
62.53772 280
62.55784 300
62.57795 269
62.59806 256
62.61818 257
62.63829 272
62.6584 277
62.67852 289
62.69863 283
62.71875 288
62.73886 285
62.75897 267
62.77909 306
62.7992 295
62.81931 291
62.83943 291
62.85954 269
62.87965 278
62.89977 265
62.91988 261
62.94 251
62.96011 297
62.98022 273
63.00034 317
63.02045 283
63.04056 275
63.06068 282
63.08079 258
63.10091 342
63.12102 287
63.14113 290
63.16125 240
63.18136 267
63.20147 295
63.22159 280
63.2417 267
63.26182 254
63.28193 279
63.30204 298
63.32216 253
63.34227 282
63.36238 278
63.3825 277
63.40261 256
63.42272 256
63.44284 281
63.46295 286
63.48307 271
63.50318 299
63.52329 290
63.54341 282
63.56352 293
63.58363 253
63.60375 312
63.62386 312
63.64398 294
63.66409 310
63.6842 299
63.70432 312
63.72443 336
63.74454 354
63.76466 371
63.78477 337
63.80489 374
63.825 396
63.84511 364
63.86523 403
63.88534 390
63.90545 462
63.92557 457
63.94568 457
63.96579 440
63.98591 430
64.00602 444
64.02614 413
64.04625 375
64.06636 383
64.08648 393
64.10659 377
64.1267 384
64.14682 392
64.16693 327
64.18705 348
64.20716 334
64.22727 294
64.24739 296
64.2675 286
64.28761 267
64.30773 304
64.32784 265
64.34796 262
64.36807 281
64.38818 252
64.4083 267
64.42841 280
64.44852 238
64.46864 284
64.48875 249
64.50886 240
64.52898 283
64.54909 226
64.56921 255
64.58932 245
64.60943 241
64.62955 269
64.64966 254
64.66977 229
64.68989 236
64.71 207
64.73012 237
64.75023 253
64.77034 241
64.79046 260
64.81057 249
64.83068 258
64.8508 281
64.87091 255
64.89102 269
64.91114 240
64.93125 252
64.95137 273
64.97148 271
64.99159 266
65.01171 272
65.03182 255
65.05193 253
65.07205 279
65.09216 247
65.11228 249
65.13239 272
65.1525 265
65.17262 277
65.19273 249
65.21284 281
65.23296 289
65.25307 295
65.27319 278
65.2933 270
65.31341 276
65.33353 252
65.35364 252
65.37375 273
65.39387 240
65.41398 248
65.43409 258
65.45421 258
65.47432 267
65.49444 257
65.51455 283
65.53466 255
65.55478 278
65.57489 266
65.595 288
65.61512 284
65.63523 295
65.65535 277
65.67546 284
65.69557 277
65.71569 307
65.7358 290
65.75591 258
65.77603 281
65.79614 274
65.81626 257
65.83637 255
65.85648 289
65.8766 286
65.89671 265
65.91682 249
65.93694 263
65.95705 266
65.97716 254
65.99728 250
66.01739 262
66.03751 256
66.05762 269
66.07773 288
66.09785 281
66.11796 283
66.13807 287
66.15819 253
66.1783 240
66.19842 241
66.21853 289
66.23864 273
66.25876 261
66.27887 282
66.29898 277
66.3191 302
66.33921 253
66.35933 275
66.37944 242
66.39955 280
66.41967 234
66.43978 289
66.45989 239
66.48001 269
66.50012 273
66.52023 259
66.54035 287
66.56046 274
66.58058 235
66.60069 249
66.6208 240
66.64092 253
66.66103 242
66.68114 246
66.70126 285
66.72137 240
66.74149 239
66.7616 263
66.78171 251
66.80183 244
66.82194 250
66.84205 257
66.86217 256
66.88228 266
66.90239 260
66.92251 268
66.94262 250
66.96274 259
66.98285 260
67.00296 269
67.02308 278
67.04319 271
67.0633 258
67.08342 295
67.10353 282
67.12365 300
67.14376 288
67.16387 291
67.18399 276
67.2041 296
67.22421 278
67.24433 311
67.26444 298
67.28456 309
67.30467 298
67.32478 325
67.3449 355
67.36501 352
67.38512 377
67.40524 332
67.42535 424
67.44546 410
67.46558 426
67.48569 440
67.50581 508
67.52592 475
67.54603 560
67.56615 672
67.58626 673
67.60637 750
67.62649 756
67.6466 806
67.66672 836
67.68683 818
67.70694 798
67.72706 781
67.74717 718
67.76728 709
67.7874 661
67.80751 677
67.82763 683
67.84774 714
67.86785 761
67.88797 736
67.90808 742
67.92819 780
67.94831 805
67.96842 812
67.98853 917
68.00865 997
68.02876 1008
68.04888 1067
68.06899 1092
68.0891 1086
68.10922 1070
68.12933 1035
68.14944 1003
68.16956 983
68.18967 962
68.20979 991
68.2299 1008
68.25001 989
68.27013 927
68.29024 815
68.31035 776
68.33047 710
68.35058 643
68.3707 549
68.39081 539
68.41092 541
68.43104 481
68.45115 453
68.47126 423
68.49138 409
68.51149 346
68.5316 351
68.55172 300
68.57183 304
68.59195 278
68.61206 277
68.63217 268
68.65229 314
68.6724 293
68.69251 282
68.71263 276
68.73274 242
68.75286 261
68.77297 270
68.79308 293
68.8132 268
68.83331 274
68.85342 269
68.87354 252
68.89365 253
68.91376 251
68.93388 247
68.95399 249
68.97411 257
68.99422 254
69.01433 245
69.03445 261
69.05456 227
69.07467 268
69.09479 238
69.1149 274
69.13502 230
69.15513 239
69.17524 245
69.19536 235
69.21547 238
69.23558 253
69.2557 272
69.27581 247
69.29593 258
69.31604 251
69.33615 250
69.35627 254
69.37638 247
69.39649 239
69.41661 245
69.43672 250
69.45683 250
69.47695 230
69.49706 252
69.51718 238
69.53729 256
69.5574 244
69.57752 248
69.59763 227
69.61774 248
69.63786 220
69.65797 239
69.67809 242
69.6982 246
69.71831 256
69.73843 254
69.75854 245
69.77865 248
69.79877 230
69.81888 265
69.839 220
69.85911 248
69.87922 259
69.89934 236
69.91945 234
69.93956 256
69.95968 260
69.97979 251
69.9999 249
70.02002 238
70.04013 213
70.06025 274
70.08036 252
70.10047 245
70.12059 238
70.1407 239
70.16081 243
70.18093 257
70.20104 249
70.22116 260
70.24127 255
70.26138 250
70.2815 225
70.30161 239
70.32172 263
70.34184 242
70.36195 262
70.38207 256
70.40218 229
70.42229 255
70.44241 231
70.46252 247
70.48263 239
70.50275 241
70.52286 207
70.54297 243
70.56309 259
70.5832 249
70.60332 228
70.62343 235
70.64354 218
70.66366 215
70.68377 244
70.70388 249
70.724 253
70.74411 256
70.76423 228
70.78434 248
70.80445 250
70.82457 224
70.84468 219
70.86479 228
70.88491 259
70.90502 247
70.92513 253
70.94525 217
70.96536 211
70.98548 233
71.00559 225
71.0257 231
71.04582 232
71.06593 229
71.08604 227
71.10616 234
71.12627 237
71.14639 224
71.1665 239
71.18661 226
71.20673 223
71.22684 228
71.24695 230
71.26707 231
71.28718 250
71.3073 233
71.32741 229
71.34752 234
71.36764 266
71.38775 238
71.40786 268
71.42798 231
71.44809 235
71.4682 281
71.48832 235
71.50843 292
71.52855 244
71.54866 265
71.56877 220
71.58889 267
71.609 254
71.62911 224
71.64923 243
71.66934 246
71.68946 264
71.70957 234
71.72968 257
71.7498 262
71.76991 264
71.79002 251
71.81014 239
71.83025 232
71.85037 270
71.87048 257
71.89059 242
71.91071 251
71.93082 242
71.95093 237
71.97105 254
71.99116 254
72.01127 248
72.03139 283
72.0515 254
72.07162 261
72.09173 272
72.11184 288
72.13196 280
72.15207 239
72.17218 259
72.1923 272
72.21241 254
72.23253 244
72.25264 260
72.27275 273
72.29287 274
72.31298 223
72.33309 230
72.35321 262
72.37332 235
72.39344 237
72.41355 283
72.43366 247
72.45378 240
72.47389 243
72.494 254
72.51412 273
72.53423 237
72.55434 217
72.57446 265
72.59457 234
72.61469 245
72.6348 269
72.65491 231
72.67503 245
72.69514 247
72.71525 248
72.73537 245
72.75548 257
72.7756 249
72.79571 270
72.81582 265
72.83594 247
72.85605 273
72.87616 276
72.89628 262
72.91639 299
72.9365 259
72.95662 277
72.97673 284
72.99685 272
73.01696 254
73.03707 281
73.05719 270
73.0773 316
73.09741 303
73.11753 293
73.13764 306
73.15776 305
73.17787 317
73.19798 318
73.2181 335
73.23821 349
73.25832 345
73.27844 365
73.29855 399
73.31867 448
73.33878 431
73.35889 453
73.37901 479
73.39912 445
73.41923 436
73.43935 382
73.45946 407
73.47957 362
73.49969 347
73.5198 353
73.53992 351
73.56003 345
73.58014 387
73.60026 354
73.62037 327
73.64048 297
73.6606 319
73.68071 310
73.70083 294
73.72094 319
73.74105 260
73.76117 247
73.78128 271
73.80139 220
73.82151 256
73.84162 229
73.86174 237
73.88185 260
73.90196 282
73.92208 242
73.94219 285
73.9623 263
73.98242 252
74.00253 244
74.02264 224
74.04276 221
74.06287 224
74.08299 243
74.1031 230
74.12321 270
74.14333 251
74.16344 265
74.18355 242
74.20367 216
74.22378 245
74.2439 242
74.26401 232
74.28412 222
74.30424 245
74.32435 227
74.34446 251
74.36458 213
74.38469 231
74.40481 215
74.42492 236
74.44503 244
74.46515 222
74.48526 265
74.50537 264
74.52549 238
74.5456 227
74.56571 248
74.58583 223
74.60594 243
74.62606 243
74.64617 255
74.66628 251
74.6864 244
74.70651 269
74.72662 236
74.74674 260
74.76685 256
74.78697 258
74.80708 242
74.82719 247
74.84731 275
74.86742 216
74.88753 252
74.90765 241
74.92776 240
74.94787 258
74.96799 239
74.9881 235
75.00822 255
