3.00117 19394
3.02128 19055
3.0414 18082
3.06151 18424
3.08162 17548
3.10174 17059
3.12185 16468
3.14197 15945
3.16208 15957
3.18219 15301
3.20231 14739
3.22242 14169
3.24253 13683
3.26265 13398
3.28276 12735
3.30288 12814
3.32299 12294
3.3431 11648
3.36322 11397
3.38333 11033
3.40344 10638
3.42356 10450
3.44367 9831
3.46379 9637
3.4839 9147
3.50401 8858
3.52413 8539
3.54424 8166
3.56435 7946
3.58447 7471
3.60458 7387
3.62469 7148
3.64481 6589
3.66492 6463
3.68504 6203
3.70515 6047
3.72526 5914
3.74538 5551
3.76549 5506
3.7856 5113
3.80572 4774
3.82583 4732
3.84595 4419
3.86606 4324
3.88617 3930
3.90629 3868
3.9264 3678
3.94651 3545
3.96663 3554
3.98674 3164
4.00686 3205
4.02697 2932
4.04708 2792
4.0672 2822
4.08731 2585
4.10742 2497
4.12754 2399
4.14765 2298
4.16776 2308
4.18788 2029
4.20799 1931
4.22811 1847
4.24822 1912
4.26833 1788
4.28845 1523
4.30856 1681
4.32867 1627
4.34879 1547
4.3689 1557
4.38902 1416
4.40913 1409
4.42924 1432
4.44936 1365
4.46947 1369
4.48958 1242
4.5097 1289
4.52981 1252
4.54992 1134
4.57004 1225
4.59015 1144
4.61027 1118
4.63038 1115
4.65049 1159
4.67061 1082
4.69072 984
4.71083 969
4.73095 1015
4.75106 979
4.77118 930
4.79129 863
4.8114 809
4.83152 865
4.85163 850
4.87174 805
4.89186 795
4.91197 754
4.93209 709
4.9522 808
4.97231 701
4.99243 664
5.01254 694
5.03265 693
5.05277 675
5.07288 630
5.09299 606
5.11311 559
5.13322 572
5.15334 626
5.17345 584
5.19356 554
5.21368 585
5.23379 523
5.2539 520
5.27402 493
5.29413 508
5.31425 480
5.33436 482
5.35447 516
5.37459 424
5.3947 449
5.41481 418
5.43493 439
5.45504 438
5.47516 360
5.49527 400
5.51538 386
5.5355 363
5.55561 338
5.57572 376
5.59584 363
5.61595 345
5.63606 387
5.65618 336
5.67629 360
5.69641 318
5.71652 304
5.73663 312
5.75675 320
5.77686 361
5.79697 286
5.81709 286
5.8372 279
5.85732 284
5.87743 296
5.89754 258
5.91766 326
5.93777 256
5.95788 239
5.978 313
5.99811 220
6.01823 289
6.03834 276
6.05845 322
6.07857 266
6.09868 231
6.11879 239
6.13891 282
6.15902 237
6.17913 276
6.19925 239
6.21936 249
6.23948 253
6.25959 257
6.2797 253
6.29982 201
6.31993 243
6.34004 231
6.36016 218
6.38027 253
6.40039 235
6.4205 198
6.44061 221
6.46073 240
6.48084 231
6.50095 225
6.52107 216
6.54118 209
6.56129 271
6.58141 203
6.60152 214
6.62164 207
6.64175 218
6.66186 200
6.68198 204
6.70209 233
6.7222 218
6.74232 254
6.76243 213
6.78255 223
6.80266 212
6.82277 217
6.84289 234
6.863 228
6.88311 236
6.90323 223
6.92334 204
6.94346 228
6.96357 206
6.98368 227
7.0038 229
7.02391 230
7.04402 207
7.06414 210
7.08425 188
7.10436 223
7.12448 214
7.14459 212
7.16471 181
7.18482 233
7.20493 235
7.22505 223
7.24516 202
7.26527 194
7.28539 198
7.3055 191
7.32562 188
7.34573 220
7.36584 202
7.38596 229
7.40607 214
7.42618 222
7.4463 220
7.46641 237
7.48653 220
7.50664 227
7.52675 230
7.54687 212
7.56698 234
7.58709 214
7.60721 204
7.62732 242
7.64743 227
7.66755 254
7.68766 244
7.70778 198
7.72789 213
7.748 222
7.76812 220
7.78823 207
7.80834 193
7.82846 241
7.84857 216
7.86869 241
7.8888 196
7.90891 226
7.92903 230
7.94914 174
7.96925 225
7.98937 225
8.00948 222
8.0296 217
8.04971 236
8.06982 232
8.08994 223
8.11005 257
8.13016 227
8.15028 218
8.17039 250
8.1905 249
8.21062 196
8.23073 217
8.25085 203
8.27096 225
8.29107 231
8.31119 244
8.3313 239
8.35141 228
8.37153 226
8.39164 205
8.41176 257
8.43187 241
8.45198 240
8.4721 254
8.49221 266
8.51232 248
8.53244 247
8.55255 237
8.57266 240
8.59278 209
8.61289 248
8.63301 220
8.65312 237
8.67323 233
8.69335 258
8.71346 261
8.73357 256
8.75369 226
8.7738 256
8.79392 246
8.81403 242
8.83414 213
8.85426 243
8.87437 247
8.89448 266
8.9146 260
8.93471 227
8.95483 224
8.97494 240
8.99505 243
9.01517 212
9.03528 212
9.05539 229
9.07551 235
9.09562 242
9.11573 229
9.13585 231
9.15596 268
9.17608 262
9.19619 263
9.2163 250
9.23642 245
9.25653 232
9.27664 230
9.29676 268
9.31687 236
9.33699 240
9.3571 200
9.37721 249
9.39733 248
9.41744 257
9.43755 236
9.45767 236
9.47778 271
9.4979 233
9.51801 245
9.53812 242
9.55824 218
9.57835 210
9.59846 231
9.61858 230
9.63869 212
9.6588 261
9.67892 232
9.69903 271
9.71915 264
9.73926 251
9.75937 291
9.77949 259
9.7996 255
9.81971 232
9.83983 248
9.85994 232
9.88006 235
9.90017 214
9.92028 234
9.9404 241
9.96051 271
9.98062 235
10.00074 223
10.02085 237
10.04097 247
10.06108 208
10.08119 237
10.10131 282
10.12142 215
10.14153 235
10.16165 243
10.18176 235
10.20187 215
10.22199 214
10.2421 261
10.26222 243
10.28233 253
10.30244 242
10.32256 255
10.34267 289
10.36278 254
10.3829 253
10.40301 335
10.42313 371
10.44324 381
10.46335 436
10.48347 417
10.50358 425
10.52369 385
10.54381 367
10.56392 373
10.58403 307
10.60415 304
10.62426 267
10.64438 246
10.66449 268
10.6846 253
10.70472 222
10.72483 234
10.74494 229
10.76506 254
10.78517 213
10.80529 252
10.8254 243
10.84551 255
10.86563 235
10.88574 269
10.90585 232
10.92597 243
10.94608 212
10.9662 245
10.98631 258
11.00642 243
11.02654 228
11.04665 241
11.06676 221
11.08688 240
11.10699 241
11.1271 246
11.14722 192
11.16733 241
11.18745 260
11.20756 222
11.22767 223
11.24779 259
11.2679 237
11.28801 235
11.30813 221
11.32824 197
11.34836 241
11.36847 231
11.38858 247
11.4087 225
11.42881 235
11.44892 207
11.46904 224
11.48915 215
11.50927 263
11.52938 208
11.54949 221
11.56961 233
11.58972 221
11.60983 219
11.62995 244
11.65006 231
11.67017 240
11.69029 227
11.7104 239
11.73052 246
11.75063 221
11.77074 235
11.79086 229
11.81097 253
11.83108 229
11.8512 251
11.87131 212
11.89143 244
11.91154 225
11.93165 212
11.95177 207
11.97188 203
11.99199 222
12.01211 207
12.03222 229
12.05234 216
12.07245 237
12.09256 235
12.11268 243
12.13279 199
12.1529 243
12.17302 231
12.19313 215
12.21324 246
12.23336 225
12.25347 200
12.27359 222
12.2937 247
12.31381 236
12.33393 232
12.35404 270
12.37415 244
12.39427 233
12.41438 233
12.4345 245
12.45461 225
12.47472 225
12.49484 217
12.51495 215
12.53506 217
12.55518 215
12.57529 212
12.5954 230
12.61552 218
12.63563 244
12.65575 196
12.67586 238
12.69597 222
12.71609 249
12.7362 239
12.75631 219
12.77643 216
12.79654 192
12.81666 241
12.83677 246
12.85688 231
12.877 217
12.89711 225
12.91722 213
12.93734 203
12.95745 220
12.97757 224
12.99768 246
13.01779 207
13.03791 241
13.05802 214
13.07813 222
13.09825 227
13.11836 224
13.13847 237
13.15859 253
13.1787 250
13.19882 246
13.21893 226
13.23904 242
13.25916 263
13.27927 238
13.29938 206
13.3195 240
13.33961 241
13.35973 225
13.37984 202
13.39995 241
13.42007 213
13.44018 221
13.46029 222
13.48041 262
13.50052 232
13.52064 259
13.54075 248
13.56086 255
13.58098 275
13.60109 279
13.6212 261
13.64132 337
13.66143 326
13.68154 305
13.70166 292
13.72177 284
13.74189 275
13.762 232
13.78211 270
13.80223 301
13.82234 299
13.84245 319
13.86257 319
13.88268 318
13.9028 325
13.92291 281
13.94302 286
13.96314 280
13.98325 271
14.00336 245
14.02348 243
14.04359 249
14.06371 245
14.08382 249
14.10393 213
14.12405 224
14.14416 227
14.16427 231
14.18439 209
14.2045 206
14.22461 205
14.24473 211
14.26484 211
14.28496 217
14.30507 214
14.32518 231
14.3453 210
14.36541 192
14.38552 211
14.40564 199
14.42575 194
14.44587 205
14.46598 201
14.48609 202
14.50621 192
14.52632 205
14.54643 200
14.56655 186
14.58666 232
14.60677 245
14.62689 219
14.647 206
14.66712 210
14.68723 201
14.70734 206
14.72746 185
14.74757 224
14.76768 216
14.7878 251
14.80791 242
14.82803 205
14.84814 223
14.86825 241
14.88837 230
14.90848 245
14.92859 268
14.94871 253
14.96882 257
14.98894 235
15.00905 239
15.02916 233
15.04928 279
15.06939 265
15.0895 223
15.10962 219
15.12973 242
15.14984 234
15.16996 247
15.19007 211
15.21019 215
15.2303 225
15.25041 211
15.27053 215
15.29064 202
15.31075 207
15.33087 209
15.35098 182
15.3711 196
15.39121 193
15.41132 216
15.43144 165
15.45155 201
15.47166 209
15.49178 181
15.51189 210
15.53201 198
15.55212 214
15.57223 187
15.59235 199
15.61246 219
15.63257 204
15.65269 210
15.6728 242
15.69291 170
15.71303 233
15.73314 199
15.75326 215
15.77337 224
15.79348 222
15.8136 216
15.83371 206
15.85382 188
15.87394 224
15.89405 192
15.91417 203
15.93428 207
15.95439 175
15.97451 181
15.99462 198
16.01473 212
16.03485 214
16.05496 209
16.07508 204
16.09519 175
16.1153 175
16.13542 191
16.15553 217
16.17564 183
16.19576 210
16.21587 219
16.23598 187
16.2561 205
16.27621 193
16.29633 156
16.31644 228
16.33655 176
16.35667 184
16.37678 220
16.39689 181
16.41701 176
16.43712 181
16.45724 176
16.47735 183
16.49746 176
16.51758 202
16.53769 196
16.5578 202
16.57792 189
16.59803 193
16.61814 185
16.63826 205
16.65837 188
16.67849 184
16.6986 188
16.71871 226
16.73883 215
16.75894 185
16.77905 210
16.79917 197
16.81928 198
16.8394 187
16.85951 182
16.87962 180
16.89974 214
16.91985 185
16.93996 196
16.96008 168
16.98019 194
17.00031 174
17.02042 188
17.04053 191
17.06065 194
17.08076 206
17.10087 202
17.12099 198
17.1411 169
17.16121 197
17.18133 209
17.20144 193
17.22156 191
17.24167 196
17.26178 194
17.2819 212
17.30201 192
17.32212 237
17.34224 190
17.36235 199
17.38247 212
17.40258 206
17.42269 211
17.44281 176
17.46292 191
17.48303 164
17.50315 203
17.52326 203
17.54338 200
17.56349 212
17.5836 213
17.60372 193
17.62383 212
17.64394 239
17.66406 204
17.68417 202
17.70428 225
17.7244 179
17.74451 204
17.76463 206
17.78474 222
17.80485 163
17.82497 205
17.84508 212
17.86519 193
17.88531 190
17.90542 186
17.92554 170
17.94565 176
17.96576 223
17.98588 215
18.00599 229
18.0261 220
18.04622 223
18.06633 218
18.08645 233
18.10656 217
18.12667 201
18.14679 187
18.1669 203
18.18701 193
18.20713 214
18.22724 211
18.24735 207
18.26747 208
18.28758 190
18.3077 180
18.32781 185
18.34792 209
18.36804 206
18.38815 202
18.40826 198
18.42838 191
18.44849 198
18.46861 198
18.48872 171
18.50883 188
18.52895 194
18.54906 194
18.56917 215
18.58929 199
18.6094 202
18.62951 210
18.64963 198
18.66974 177
18.68986 186
18.70997 203
18.73008 217
18.7502 202
18.77031 212
18.79042 208
18.81054 224
18.83065 200
18.85077 213
18.87088 218
18.89099 199
18.91111 190
18.93122 195
18.95133 171
18.97145 220
18.99156 199
19.01168 205
19.03179 184
19.0519 193
19.07202 200
19.09213 212
19.11224 185
19.13236 183
19.15247 235
19.17258 255
19.1927 212
19.21281 229
19.23293 227
19.25304 231
19.27315 221
19.29327 245
19.31338 232
19.33349 203
19.35361 219
19.37372 232
19.39384 217
19.41395 241
19.43406 193
19.45418 223
19.47429 241
19.4944 223
19.51452 217
19.53463 243
19.55475 228
19.57486 262
19.59497 252
19.61509 284
19.6352 276
19.65531 284
19.67543 222
19.69554 249
19.71565 217
19.73577 241
19.75588 257
19.776 242
19.79611 260
19.81622 242
19.83634 209
19.85645 253
19.87656 257
19.89668 266
19.91679 251
19.93691 249
19.95702 247
19.97713 272
19.99725 250
20.01736 249
20.03747 295
20.05759 260
20.0777 255
20.09782 252
20.11793 272
20.13804 252
20.15816 266
20.17827 241
20.19838 276
20.2185 288
20.23861 267
20.25872 263
20.27884 290
20.29895 302
20.31907 279
20.33918 293
20.35929 330
20.37941 300
20.39952 291
20.41963 318
20.43975 321
20.45986 350
20.47998 325
20.50009 343
20.5202 349
20.54032 363
20.56043 361
20.58054 377
20.60066 432
20.62077 418
20.64088 455
20.661 592
20.68111 692
20.70123 901
20.72134 1047
20.74145 1616
20.76157 2212
20.78168 2966
20.80179 4057
20.82191 4938
20.84202 5638
20.86214 5545
20.88225 4718
20.90236 3678
20.92248 2481
20.94259 1802
20.9627 1285
20.98282 1041
21.00293 918
21.02305 937
21.04316 856
21.06327 794
21.08339 628
21.1035 538
21.12361 486
21.14373 390
21.16384 390
21.18395 396
21.20407 354
21.22418 356
21.2443 352
21.26441 313
21.28452 327
21.30464 341
21.32475 311
21.34486 299
21.36498 303
21.38509 314
21.40521 279
21.42532 291
21.44543 294
21.46555 290
21.48566 262
21.50577 260
21.52589 285
21.546 272
21.56612 267
21.58623 254
21.60634 277
21.62646 261
21.64657 264
21.66668 240
21.6868 255
21.70691 277
21.72702 299
21.74714 278
21.76725 271
21.78737 262
21.80748 280
21.82759 274
21.84771 325
21.86782 387
21.88793 366
21.90805 443
21.92816 557
21.94828 572
21.96839 752
21.9885 751
22.00862 782
22.02873 758
22.04884 638
22.06896 535
22.08907 438
22.10919 399
22.1293 367
22.14941 304
22.16953 316
22.18964 309
22.20975 312
22.22987 304
22.24998 289
22.27009 341
22.29021 350
22.31032 329
22.33044 323
22.35055 325
22.37066 281
22.39078 316
22.41089 290
22.431 290
22.45112 287
22.47123 324
22.49135 293
22.51146 281
22.53157 261
22.55169 292
22.5718 277
22.59191 259
22.61203 297
22.63214 260
22.65225 247
22.67237 271
22.69248 270
22.7126 264
22.73271 256
22.75282 256
22.77294 245
22.79305 268
22.81316 271
22.83328 282
22.85339 295
22.87351 316
22.89362 323
22.91373 312
22.93385 341
22.95396 290
22.97407 347
22.99419 301
23.0143 349
23.03442 328
23.05453 322
23.07464 334
23.09476 314
23.11487 357
23.13498 357
23.1551 384
23.17521 369
23.19532 414
23.21544 415
23.23555 401
23.25567 414
23.27578 333
23.29589 316
23.31601 371
23.33612 350
23.35623 339
23.37635 361
23.39646 327
23.41658 346
23.43669 370
23.4568 433
23.47692 452
23.49703 471
23.51714 475
23.53726 556
23.55737 600
23.57749 586
23.5976 567
23.61771 518
23.63783 509
23.65794 430
23.67805 387
23.69817 378
23.71828 379
23.73839 375
23.75851 436
23.77862 391
23.79874 381
23.81885 424
23.83896 409
23.85908 441
23.87919 439
23.8993 433
23.91942 456
23.93953 512
23.95965 512
23.97976 517
23.99987 533
24.01999 509
24.0401 460
24.06021 451
24.08033 410
24.10044 378
24.12056 364
24.14067 391
24.16078 397
24.1809 429
24.20101 413
24.22112 447
24.24124 461
24.26135 434
24.28146 502
24.30158 456
24.32169 480
24.34181 449
24.36192 452
24.38203 377
24.40215 361
24.42226 318
24.44237 312
24.46249 276
24.4826 292
24.50272 281
24.52283 292
24.54294 271
24.56306 273
24.58317 285
24.60328 329
24.6234 295
24.64351 286
24.66362 317
24.68374 334
24.70385 298
24.72397 280
24.74408 309
24.76419 270
24.78431 298
24.80442 267
24.82453 292
24.84465 252
24.86476 254
24.88488 273
24.90499 250
24.9251 276
24.94522 299
24.96533 262
24.98544 279
25.00556 265
25.02567 270
25.04579 261
25.0659 300
25.08601 239
25.10613 286
25.12624 244
25.14635 261
25.16647 268
25.18658 247
25.20669 291
25.22681 283
25.24692 260
25.26704 320
25.28715 326
25.30726 289
25.32738 318
25.34749 323
25.3676 361
25.38772 346
25.40783 380
25.42795 419
25.44806 399
25.46817 429
25.48829 518
25.5084 553
25.52851 586
25.54863 593
25.56874 640
25.58886 710
25.60897 616
25.62908 673
25.6492 620
25.66931 592
25.68942 583
25.70954 516
25.72965 501
25.74976 480
25.76988 440
25.78999 443
25.81011 402
25.83022 450
25.85033 442
25.87045 434
25.89056 415
25.91067 462
25.93079 385
25.9509 465
25.97102 466
25.99113 483
26.01124 478
26.03136 497
26.05147 508
26.07158 499
26.0917 541
26.11181 531
26.13193 610
26.15204 604
26.17215 664
26.19227 680
26.21238 754
26.23249 753
26.25261 892
26.27272 944
26.29283 1054
26.31295 1100
26.33306 1197
26.35318 1411
26.37329 1499
26.3934 1818
26.41352 2075
26.43363 2437
26.45374 3111
26.47386 3987
26.49397 5217
26.51409 7370
26.5342 10168
26.55431 13620
26.57443 17788
26.59454 21765
26.61465 24274
26.63477 23548
26.65488 20348
26.67499 15774
26.69511 11987
26.71522 8827
26.73534 5430
26.75545 3146
26.77556 2036
26.79568 1629
26.81579 1459
26.8359 1323
26.85602 1236
26.87613 1096
26.89625 1074
26.91636 1053
26.93647 935
26.95659 910
26.9767 935
26.99681 967
27.01693 1089
27.03704 1140
27.05716 1078
27.07727 1029
27.09738 916
27.1175 844
27.13761 766
27.15772 666
27.17784 625
27.19795 606
27.21806 553
27.23818 641
27.25829 642
27.27841 651
27.29852 704
27.31863 663
27.33875 792
27.35886 898
27.37897 945
27.39909 1000
27.4192 1066
27.43932 1169
27.45943 1210
27.47954 1293
27.49966 1200
27.51977 1063
27.53988 913
27.56 889
27.58011 738
27.60023 657
27.62034 664
27.64045 630
27.66057 685
27.68068 774
27.70079 900
27.72091 1014
27.74102 1036
27.76113 1114
27.78125 1143
27.80136 1128
27.82148 1203
27.84159 1056
27.8617 1118
27.88182 1211
27.90193 1112
27.92204 1256
27.94216 1213
27.96227 1278
27.98239 1484
28.0025 1335
28.02261 1003
28.04273 875
28.06284 873
28.08295 696
28.10307 520
28.12318 510
28.1433 505
28.16341 461
28.18352 460
28.20364 475
28.22375 461
28.24386 492
28.26398 512
28.28409 517
28.3042 483
28.32432 471
28.34443 457
28.36455 450
28.38466 444
28.40477 359
28.42489 371
28.445 320
28.46511 353
28.48523 349
28.50534 347
28.52546 344
28.54557 380
28.56568 345
28.5858 319
28.60591 356
28.62602 319
28.64614 331
28.66625 289
28.68636 298
28.70648 283
28.72659 266
28.74671 270
28.76682 247
28.78693 242
28.80705 262
28.82716 234
28.84727 267
28.86739 287
28.8875 228
28.90762 251
28.92773 269
28.94784 237
28.96796 264
28.98807 250
29.00818 252
29.0283 251
29.04841 291
29.06853 271
29.08864 243
29.10875 288
29.12887 236
29.14898 285
29.16909 300
29.18921 250
29.20932 271
29.22943 264
29.24955 253
29.26966 292
29.28978 267
29.30989 290
29.33 278
29.35012 318
29.37023 327
29.39034 336
29.41046 368
29.43057 339
29.45069 360
29.4708 338
29.49091 305
29.51103 315
29.53114 323
29.55125 327
29.57137 290
29.59148 334
29.6116 353
29.63171 319
29.65182 418
29.67194 360
29.69205 405
29.71216 420
29.73228 407
29.75239 420
29.7725 390
29.79262 371
29.81273 393
29.83285 401
29.85296 412
29.87307 397
29.89319 376
29.9133 376
29.93341 352
29.95353 333
29.97364 315
29.99376 388
30.01387 339
30.03398 373
30.0541 348
30.07421 378
30.09432 373
30.11444 398
30.13455 445
30.15467 423
30.17478 438
30.19489 466
30.21501 421
30.23512 469
30.25523 463
30.27535 437
30.29546 420
30.31557 440
30.33569 443
30.3558 412
30.37592 449
30.39603 463
30.41614 451
30.43626 463
30.45637 490
30.47648 525
30.4966 424
30.51671 393
30.53683 373
30.55694 361
30.57705 370
30.59717 367
30.61728 357
30.63739 341
30.65751 347
30.67762 398
30.69773 443
30.71785 426
30.73796 473
30.75808 441
30.77819 458
30.7983 457
30.81842 470
30.83853 440
30.85864 428
30.87876 429
30.89887 368
30.91899 315
30.9391 308
30.95921 281
30.97933 271
30.99944 228
31.01955 234
31.03967 252
31.05978 259
31.0799 266
31.10001 242
31.12012 244
31.14024 220
31.16035 249
31.18046 261
31.20058 255
31.22069 268
31.2408 278
31.26092 240
31.28103 289
31.30115 289
31.32126 280
31.34137 269
31.36149 293
31.3816 303
31.40171 308
31.42183 289
31.44194 260
31.46206 254
31.48217 258
31.50228 262
31.5224 276
31.54251 222
31.56262 239
31.58274 265
31.60285 274
31.62297 258
31.64308 238
31.66319 259
31.68331 279
31.70342 264
31.72353 251
31.74365 260
31.76376 255
31.78387 249
31.80399 251
31.8241 250
31.84422 276
31.86433 242
31.88444 209
31.90456 251
31.92467 232
31.94478 223
31.9649 214
31.98501 250
32.00513 261
32.02524 229
32.04535 237
32.06547 259
32.08558 227
32.10569 255
32.12581 253
32.14592 269
32.16604 277
32.18615 301
32.20626 238
32.22638 274
32.24649 293
32.2666 293
32.28672 292
32.30683 285
32.32694 286
32.34706 269
32.36717 335
32.38729 295
32.4074 337
32.42751 298
32.44763 295
32.46774 335
32.48785 295
32.50797 319
32.52808 311
32.5482 292
32.56831 299
32.58842 282
32.60854 259
32.62865 282
32.64876 271
32.66888 251
32.68899 253
32.7091 241
32.72922 237
32.74933 234
32.76945 244
32.78956 244
32.80967 237
32.82979 213
32.8499 238
32.87001 290
32.89013 229
32.91024 290
32.93036 270
32.95047 265
32.97058 326
32.9907 257
33.01081 263
33.03092 278
33.05104 263
33.07115 284
33.09127 263
33.11138 238
33.13149 253
33.15161 222
33.17172 244
33.19183 220
33.21195 241
33.23206 258
33.25217 226
33.27229 236
33.2924 225
33.31252 265
33.33263 256
33.35274 230
33.37286 214
33.39297 213
33.41308 203
33.4332 269
33.45331 207
33.47343 225
33.49354 189
33.51365 199
33.53377 196
33.55388 177
33.57399 224
33.59411 221
33.61422 208
33.63434 219
33.65445 181
33.67456 229
33.69468 219
33.71479 262
33.7349 231
33.75502 209
33.77513 252
33.79524 242
33.81536 241
33.83547 253
33.85559 241
33.8757 255
33.89581 290
33.91593 242
33.93604 257
33.95615 211
33.97627 253
33.99638 216
34.0165 244
34.03661 196
34.05672 244
34.07684 254
34.09695 255
34.11706 287
34.13718 291
34.15729 291
34.17741 293
34.19752 295
34.21763 289
34.23775 310
34.25786 291
34.27797 294
34.29809 343
34.3182 319
34.33831 316
34.35843 310
34.37854 355
34.39866 303
34.41877 285
34.43888 338
34.459 295
34.47911 298
34.49922 317
34.51934 277
34.53945 312
34.55957 321
34.57968 291
34.59979 298
34.61991 315
34.64002 300
34.66013 296
34.68025 298
34.70036 305
34.72047 318
34.74059 287
34.7607 346
34.78082 311
34.80093 310
34.82104 277
34.84116 319
34.86127 312
34.88138 301
34.9015 341
34.92161 334
34.94173 322
34.96184 332
34.98195 331
35.00207 351
35.02218 355
35.04229 396
35.06241 381
35.08252 361
35.10264 380
35.12275 390
35.14286 352
35.16298 384
35.18309 389
35.2032 393
35.22332 366
35.24343 396
35.26354 367
35.28366 349
35.30377 408
35.32389 357
35.344 393
35.36411 378
35.38423 378
35.40434 369
35.42445 352
35.44457 339
35.46468 323
35.4848 369
35.50491 355
35.52502 359
35.54514 319
35.56525 323
35.58536 325
35.60548 299
35.62559 314
35.64571 285
35.66582 282
35.68593 284
35.70605 278
35.72616 258
35.74627 254
35.76639 244
35.7865 228
35.80661 271
35.82673 254
35.84684 251
35.86696 271
35.88707 234
35.90718 254
35.9273 264
35.94741 226
35.96752 269
35.98764 303
36.00775 256
36.02787 285
36.04798 277
36.06809 290
36.08821 246
36.10832 299
36.12843 284
36.14855 282
36.16866 262
36.18878 305
36.20889 290
36.229 301
36.24912 309
36.26923 295
36.28934 344
36.30946 350
36.32957 406
36.34968 435
36.3698 513
36.38991 617
36.41003 777
36.43014 927
36.45025 1199
36.47037 1415
36.49048 1628
36.51059 1712
36.53071 1694
36.55082 1531
36.57094 1314
36.59105 1118
36.61116 993
36.63128 938
36.65139 651
36.6715 491
36.69162 412
36.71173 391
36.73184 382
36.75196 294
36.77207 316
36.79219 295
36.8123 305
36.83241 303
36.85253 301
36.87264 293
36.89275 306
36.91287 318
36.93298 290
36.9531 308
36.97321 295
36.99332 324
37.01344 283
37.03355 312
37.05366 285
37.07378 309
37.09389 247
37.11401 268
37.13412 253
37.15423 246
37.17435 291
37.19446 237
37.21457 263
37.23469 257
37.2548 228
37.27491 266
37.29503 248
37.31514 256
37.33526 255
37.35537 259
37.37548 267
37.3956 250
37.41571 278
37.43582 269
37.45594 265
37.47605 247
37.49617 238
37.51628 231
37.53639 268
37.55651 256
37.57662 250
37.59673 260
37.61685 268
37.63696 283
37.65708 279
37.67719 279
37.6973 231
37.71742 240
37.73753 237
37.75764 231
37.77776 235
37.79787 219
37.81798 207
37.8381 215
37.85821 207
37.87833 222
37.89844 196
37.91855 213
37.93867 195
37.95878 247
37.97889 221
37.99901 230
38.01912 249
38.03924 225
38.05935 225
38.07946 235
38.09958 210
38.11969 209
38.1398 238
38.15992 206
38.18003 214
38.20015 206
38.22026 243
38.24037 231
38.26049 227
38.2806 246
38.30071 243
38.32083 230
38.34094 264
38.36105 245
38.38117 204
38.40128 238
38.4214 221
38.44151 253
38.46162 285
38.48174 253
38.50185 254
38.52196 259
38.54208 262
38.56219 269
38.58231 248
38.60242 256
38.62253 219
38.64265 259
38.66276 221
38.68287 234
38.70299 212
38.7231 242
38.74321 252
38.76333 223
38.78344 242
38.80356 207
38.82367 244
38.84378 207
38.8639 214
38.88401 237
38.90412 220
38.92424 250
38.94435 223
38.96447 270
38.98458 253
39.00469 256
39.02481 258
39.04492 272
39.06503 271
39.08515 254
39.10526 272
39.12538 277
39.14549 288
39.1656 305
39.18572 352
39.20583 341
39.22594 319
39.24606 396
39.26617 438
39.28628 526
39.3064 553
39.32651 712
39.34663 796
39.36674 1002
39.38685 1149
39.40697 1419
39.42708 1556
39.44719 1558
39.46731 1396
39.48742 1260
39.50754 1013
39.52765 933
39.54776 843
39.56788 754
39.58799 585
39.6081 399
39.62822 314
39.64833 317
39.66845 310
39.68856 279
39.70867 240
39.72879 252
39.7489 251
39.76901 279
39.78913 246
39.80924 227
39.82935 227
39.84947 215
39.86958 268
39.8897 235
39.90981 219
39.92992 235
39.95004 245
39.97015 227
39.99026 229
40.01038 268
40.03049 266
40.05061 275
40.07072 303
40.09083 330
40.11095 366
40.13106 380
40.15117 464
40.17129 537
40.1914 656
40.21152 762
40.23163 870
40.25174 910
40.27186 876
40.29197 815
40.31208 697
40.3322 644
40.35231 553
40.37242 526
40.39254 473
40.41265 396
40.43277 325
40.45288 261
40.47299 240
40.49311 247
40.51322 254
40.53333 238
40.55345 213
40.57356 230
40.59368 244
40.61379 238
40.6339 204
40.65402 216
40.67413 218
40.69424 226
40.71436 218
40.73447 217
40.75458 208
40.7747 217
40.79481 176
40.81493 229
40.83504 251
40.85515 216
40.87527 220
40.89538 207
40.91549 224
40.93561 206
40.95572 248
40.97584 236
40.99595 204
41.01606 232
41.03618 219
41.05629 235
41.0764 240
41.09652 254
41.11663 244
41.13675 243
41.15686 251
41.17697 202
41.19709 278
41.2172 210
41.23731 271
41.25743 239
41.27754 224
41.29765 236
41.31777 213
41.33788 258
41.358 244
41.37811 238
41.39822 216
41.41834 235
41.43845 228
41.45856 237
41.47868 209
41.49879 237
41.51891 250
41.53902 248
41.55913 262
41.57925 303
41.59936 273
41.61947 275
41.63959 274
41.6597 312
41.67982 333
41.69993 377
41.72004 370
41.74016 416
41.76027 396
41.78038 397
41.8005 404
41.82061 329
41.84072 362
41.86084 335
41.88095 310
41.90107 312
41.92118 268
41.94129 278
41.96141 249
41.98152 253
42.00163 257
42.02175 260
42.04186 238
42.06198 243
42.08209 236
42.1022 255
42.12232 274
42.14243 284
42.16254 315
42.18266 313
42.20277 328
42.22289 358
42.243 390
42.26311 453
42.28323 479
42.30334 579
42.32345 702
42.34357 798
42.36368 968
42.38379 1014
42.40391 1219
42.42402 1232
42.44414 1174
42.46425 1016
42.48436 877
42.50448 727
42.52459 757
42.5447 720
42.56482 568
42.58493 464
42.60505 360
42.62516 360
42.64527 300
42.66539 284
42.6855 297
42.70561 294
42.72573 301
42.74584 258
42.76595 273
42.78607 261
42.80618 272
42.8263 292
42.84641 274
42.86652 278
42.88664 246
42.90675 237
42.92686 256
42.94698 250
42.96709 229
42.98721 228
43.00732 247
43.02743 243
43.04755 239
43.06766 233
43.08777 222
43.10789 224
43.128 233
43.14812 207
43.16823 210
43.18834 213
43.20846 223
43.22857 229
43.24868 233
43.2688 210
43.28891 215
43.30902 207
43.32914 183
43.34925 187
43.36937 207
43.38948 189
43.40959 202
43.42971 202
43.44982 212
43.46993 203
43.49005 220
43.51016 192
43.53028 218
43.55039 208
43.5705 213
43.59062 203
43.61073 185
43.63084 201
43.65096 221
43.67107 200
43.69119 229
43.7113 182
43.73141 224
43.75153 206
43.77164 178
43.79175 216
43.81187 198
43.83198 209
43.85209 220
43.87221 207
43.89232 211
43.91244 185
43.93255 190
43.95266 198
43.97278 208
43.99289 236
44.013 219
44.03312 217
44.05323 194
44.07335 213
44.09346 206
44.11357 200
44.13369 214
44.1538 180
44.17391 200
44.19403 202
44.21414 213
44.23426 197
44.25437 188
44.27448 204
44.2946 218
44.31471 200
44.33482 183
44.35494 199
44.37505 199
44.39516 199
44.41528 201
44.43539 194
44.45551 215
44.47562 199
44.49573 203
44.51585 191
44.53596 187
44.55607 215
44.57619 217
44.5963 195
44.61642 191
44.63653 194
44.65664 222
44.67676 204
44.69687 221
44.71698 201
44.7371 204
44.75721 213
44.77732 202
44.79744 207
44.81755 209
44.83767 210
44.85778 213
44.87789 236
44.89801 218
44.91812 242
44.93823 224
44.95835 192
44.97846 214
44.99858 216
45.01869 232
45.0388 194
45.05892 195
45.07903 214
45.09914 234
45.11926 200
45.13937 202
45.15949 206
45.1796 220
45.19971 200
45.21983 204
45.23994 209
45.26005 238
45.28017 216
45.30028 222
45.32039 252
45.34051 207
45.36062 233
45.38074 240
45.40085 233
45.42096 217
45.44108 249
45.46119 277
45.4813 250
45.50142 259
45.52153 279
45.54165 299
45.56176 303
45.58187 318
45.60199 341
45.6221 373
45.64221 470
45.66233 513
45.68244 599
45.70256 700
45.72267 736
45.74278 859
45.7629 870
45.78301 858
45.80312 678
45.82324 625
45.84335 517
45.86346 539
45.88358 505
45.90369 444
45.92381 372
45.94392 298
45.96403 274
45.98415 264
46.00426 247
46.02437 225
46.04449 227
46.0646 224
46.08472 210
46.10483 244
46.12494 216
46.14506 187
46.16517 222
46.18528 201
46.2054 207
46.22551 187
46.24563 195
46.26574 205
46.28585 188
46.30597 211
46.32608 196
46.34619 201
46.36631 170
46.38642 174
46.40653 178
46.42665 184
46.44676 186
46.46688 206
46.48699 170
46.5071 189
46.52722 173
46.54733 172
46.56744 152
46.58756 193
46.60767 182
46.62779 150
46.6479 180
46.66801 179
46.68813 199
46.70824 174
46.72835 169
46.74847 197
46.76858 196
46.78869 205
46.80881 179
46.82892 210
46.84904 204
46.86915 182
46.88926 225
46.90938 217
46.92949 202
46.9496 206
46.96972 203
46.98983 213
47.00995 183
47.03006 205
47.05017 239
47.07029 250
47.0904 217
47.11051 225
47.13063 213
47.15074 236
47.17086 255
47.19097 199
47.21108 193
47.2312 187
47.25131 216
47.27142 212
47.29154 192
47.31165 223
47.33176 192
47.35188 192
47.37199 206
47.39211 202
47.41222 239
47.43233 203
47.45245 209
47.47256 227
47.49267 206
47.51279 218
47.5329 191
47.55302 183
47.57313 201
47.59324 206
47.61336 198
47.63347 185
47.65358 189
47.6737 199
47.69381 184
47.71393 202
47.73404 184
47.75415 203
47.77427 200
47.79438 193
47.81449 185
47.83461 184
47.85472 196
47.87483 188
47.89495 185
47.91506 194
47.93518 187
47.95529 214
47.9754 216
47.99552 196
48.01563 218
48.03574 195
48.05586 207
48.07597 207
48.09609 187
48.1162 209
48.13631 191
48.15643 191
48.17654 195
48.19665 228
48.21677 217
48.23688 205
48.257 226
48.27711 207
48.29722 209
48.31734 235
48.33745 221
48.35756 220
48.37768 215
48.39779 185
48.4179 241
48.43802 222
48.45813 196
48.47825 204
48.49836 198
48.51847 218
48.53859 228
48.5587 189
48.57881 203
48.59893 205
48.61904 220
48.63916 226
48.65927 236
48.67938 224
48.6995 243
48.71961 242
48.73972 250
48.75984 210
48.77995 232
48.80006 253
48.82018 229
48.84029 223
48.86041 226
48.88052 233
48.90063 253
48.92075 229
48.94086 234
48.96097 256
48.98109 227
49.0012 235
49.02132 229
49.04143 227
49.06154 236
49.08166 233
49.10177 279
49.12188 255
49.142 264
49.16211 253
49.18223 233
49.20234 268
49.22245 227
49.24257 218
49.26268 249
49.28279 240
49.30291 254
49.32302 236
49.34313 204
49.36325 210
49.38336 248
49.40348 196
49.42359 217
49.4437 240
49.46382 214
49.48393 248
49.50404 233
49.52416 256
49.54427 219
49.56439 230
49.5845 241
49.60461 260
49.62473 245
49.64484 287
49.66495 286
49.68507 303
49.70518 314
49.7253 345
49.74541 322
49.76552 349
49.78564 390
49.80575 390
49.82586 449
49.84598 449
49.86609 465
49.8862 538
49.90632 633
49.92643 631
49.94655 796
49.96666 928
49.98677 1083
50.00689 1272
50.027 1581
50.04711 1878
50.06723 2237
50.08734 2479
50.10746 2429
50.12757 2262
50.14768 1893
50.1678 1616
50.18791 1374
50.20802 1419
50.22814 1356
50.24825 1232
50.26837 1024
50.28848 848
50.30859 566
50.32871 427
50.34882 414
50.36893 332
50.38905 357
50.40916 336
50.42927 364
50.44939 368
50.4695 397
50.48962 419
50.50973 479
50.52984 416
50.54996 488
50.57007 399
50.59018 408
50.6103 401
50.63041 390
50.65053 373
50.67064 354
50.69075 381
50.71087 373
50.73098 313
50.75109 338
50.77121 314
50.79132 293
50.81143 269
50.83155 287
50.85166 267
50.87178 270
50.89189 283
50.912 226
50.93212 232
50.95223 234
50.97234 234
50.99246 238
51.01257 218
51.03269 241
51.0528 233
51.07291 233
51.09303 241
51.11314 235
51.13325 240
51.15337 246
51.17348 240
51.1936 274
51.21371 207
51.23382 246
51.25394 246
51.27405 265
51.29416 253
51.31428 217
51.33439 243
51.3545 218
51.37462 245
51.39473 231
51.41485 218
51.43496 216
51.45507 189
51.47519 200
51.4953 191
51.51541 179
51.53553 208
51.55564 199
51.57576 191
51.59587 192
51.61598 171
51.6361 182
51.65621 197
51.67632 190
51.69644 170
51.71655 187
51.73667 180
51.75678 174
51.77689 193
51.79701 181
51.81712 198
51.83723 165
51.85735 186
51.87746 197
51.89757 167
51.91769 188
51.9378 179
51.95792 178
51.97803 181
51.99814 171
52.01826 168
52.03837 170
52.05848 168
52.0786 174
52.09871 193
52.11883 206
52.13894 175
52.15905 168
52.17917 187
52.19928 182
52.21939 162
52.23951 195
52.25962 201
52.27974 168
52.29985 183
52.31996 190
52.34008 199
52.36019 217
52.3803 183
52.40042 175
52.42053 182
52.44064 191
52.46076 221
52.48087 201
52.50099 214
52.5211 186
52.54121 180
52.56133 205
52.58144 161
52.60155 205
52.62167 199
52.64178 232
52.6619 188
52.68201 204
52.70212 196
52.72224 190
52.74235 185
52.76246 193
52.78258 180
52.80269 209
52.8228 199
52.84292 204
52.86303 201
52.88315 213
52.90326 195
52.92337 219
52.94349 201
52.9636 232
52.98371 228
53.00383 216
53.02394 229
53.04406 225
53.06417 242
53.08428 220
53.1044 201
53.12451 223
53.14462 216
53.16474 219
53.18485 230
53.20497 222
53.22508 223
53.24519 234
53.26531 246
53.28542 250
53.30553 219
53.32565 200
53.34576 193
53.36587 199
53.38599 203
53.4061 200
53.42622 198
53.44633 180
53.46644 186
53.48656 222
53.50667 196
53.52678 191
53.5469 214
53.56701 220
53.58713 197
53.60724 191
53.62735 219
53.64747 221
53.66758 190
53.68769 202
53.70781 199
53.72792 226
53.74804 224
53.76815 180
53.78826 208
53.80838 191
53.82849 191
53.8486 189
53.86872 214
53.88883 208
53.90894 223
53.92906 209
53.94917 217
53.96929 190
53.9894 221
54.00951 209
54.02963 204
54.04974 208
54.06985 180
54.08997 217
54.11008 200
54.1302 210
54.15031 236
54.17042 187
54.19054 217
54.21065 212
54.23076 208
54.25088 196
54.27099 210
54.29111 208
54.31122 210
54.33133 212
54.35145 179
54.37156 233
54.39167 234
54.41179 236
54.4319 205
54.45201 202
54.47213 215
54.49224 219
54.51236 221
54.53247 225
54.55258 248
54.5727 261
54.59281 242
54.61292 269
54.63304 296
54.65315 326
54.67327 341
54.69338 363
54.71349 423
54.73361 467
54.75372 538
54.77383 651
54.79395 683
54.81406 767
54.83417 791
54.85429 768
54.8744 677
54.89452 537
54.91463 510
54.93474 498
54.95486 505
54.97497 500
54.99508 491
55.0152 444
55.03531 378
55.05543 327
55.07554 295
55.09565 283
55.11577 266
55.13588 300
55.15599 313
55.17611 304
55.19622 360
55.21634 378
55.23645 417
55.25656 428
55.27668 484
55.29679 498
55.3169 422
55.33702 398
55.35713 328
55.37724 348
55.39736 323
55.41747 340
55.43759 312
55.4577 300
55.47781 320
55.49793 263
55.51804 237
55.53815 241
55.55827 188
55.57838 237
55.5985 206
55.61861 208
55.63872 194
55.65884 182
55.67895 215
55.69906 183
55.71918 182
55.73929 190
55.75941 207
55.77952 208
55.79963 194
55.81975 199
55.83986 207
55.85997 183
55.88009 184
55.9002 199
55.92031 199
55.94043 162
55.96054 203
55.98066 193
56.00077 200
56.02088 205
56.041 204
56.06111 197
56.08122 203
56.10134 191
56.12145 193
56.14157 197
56.16168 182
56.18179 177
56.20191 152
56.22202 185
56.24213 180
56.26225 168
56.28236 187
56.30248 207
56.32259 187
56.3427 139
56.36282 165
56.38293 182
56.40304 181
56.42316 166
56.44327 208
56.46338 182
56.4835 197
56.50361 155
56.52373 177
56.54384 185
56.56395 215
56.58407 175
56.60418 186
56.62429 159
56.64441 206
56.66452 210
56.68464 199
56.70475 190
56.72486 196
56.74498 193
56.76509 176
56.7852 165
56.80532 184
56.82543 164
56.84554 161
56.86566 185
56.88577 176
56.90589 192
56.926 191
56.94611 174
56.96623 185
56.98634 177
57.00645 183
57.02657 206
57.04668 171
57.0668 176
57.08691 192
57.10702 201
57.12714 194
57.14725 200
57.16736 204
57.18748 198
57.20759 199
57.22771 220
57.24782 184
57.26793 198
57.28805 208
57.30816 227
57.32827 206
57.34839 190
57.3685 191
57.38861 189
57.40873 183
57.42884 166
57.44896 180
57.46907 209
57.48918 196
57.5093 164
57.52941 187
57.54952 184
57.56964 173
57.58975 167
57.60987 162
57.62998 198
57.65009 184
57.67021 183
57.69032 181
57.71043 166
57.73055 212
57.75066 175
57.77078 190
57.79089 195
57.811 165
57.83112 183
57.85123 191
57.87134 196
57.89146 173
57.91157 213
57.93168 191
57.9518 196
57.97191 178
57.99203 177
58.01214 193
58.03225 179
58.05237 218
58.07248 211
58.09259 200
58.11271 177
58.13282 180
58.15294 174
58.17305 184
58.19316 193
58.21328 194
58.23339 187
58.2535 171
58.27362 173
58.29373 185
58.31385 220
58.33396 184
58.35407 197
58.37419 184
58.3943 189
58.41441 192
58.43453 176
58.45464 198
58.47475 211
58.49487 209
58.51498 218
58.5351 219
58.55521 197
58.57532 217
58.59544 203
58.61555 199
58.63566 209
58.65578 217
58.67589 213
58.69601 228
58.71612 206
58.73623 187
58.75635 182
58.77646 173
58.79657 204
58.81669 200
58.8368 195
58.85691 189
58.87703 199
58.89714 188
58.91726 207
58.93737 182
58.95748 166
58.9776 181
58.99771 177
59.01782 183
59.03794 174
59.05805 181
59.07817 185
59.09828 172
59.11839 184
59.13851 184
59.15862 192
59.17873 195
59.19885 185
59.21896 194
59.23908 191
59.25919 197
59.2793 197
59.29942 192
59.31953 188
59.33964 225
59.35976 207
59.37987 185
59.39998 197
59.4201 196
59.44021 220
59.46033 196
59.48044 218
59.50055 248
59.52067 216
59.54078 261
59.56089 257
59.58101 278
59.60112 252
59.62124 286
59.64135 278
59.66146 335
59.68158 350
59.70169 379
59.7218 415
59.74192 519
59.76203 564
59.78215 662
59.80226 732
59.82237 887
59.84249 1015
59.8626 1241
59.88271 1424
59.90283 1518
59.92294 1443
59.94305 1365
59.96317 1103
59.98328 969
60.0034 793
60.02351 804
60.04362 818
60.06374 840
60.08385 844
60.10396 735
60.12408 671
60.14419 502
60.16431 384
60.18442 321
60.20453 279
60.22465 286
60.24476 232
60.26487 234
60.28499 195
60.3051 227
60.32522 250
60.34533 228
60.36544 233
60.38556 201
60.40567 237
60.42578 211
60.4459 192
60.46601 199
60.48612 173
60.50624 216
60.52635 197
60.54647 157
60.56658 198
60.58669 221
60.60681 194
60.62692 195
60.64703 201
60.66715 204
60.68726 218
60.70738 202
60.72749 177
60.7476 193
60.76772 194
60.78783 193
60.80794 189
60.82806 174
60.84817 194
60.86828 178
60.8884 189
60.90851 203
60.92863 180
60.94874 190
60.96885 184
60.98897 216
61.00908 178
61.02919 202
61.04931 187
61.06942 196
61.08954 184
61.10965 188
61.12976 206
61.14988 216
61.16999 200
61.1901 214
61.21022 191
61.23033 183
61.25045 207
61.27056 199
61.29067 214
61.31079 207
61.3309 197
61.35101 206
61.37113 188
61.39124 183
61.41135 216
61.43147 219
61.45158 210
61.4717 208
61.49181 194
61.51192 199
61.53204 204
61.55215 230
61.57226 210
61.59238 213
61.61249 191
61.63261 218
61.65272 199
61.67283 211
61.69295 198
61.71306 210
61.73317 212
61.75329 181
61.7734 220
61.79352 200
61.81363 181
61.83374 208
61.85386 176
61.87397 201
61.89408 179
61.9142 192
61.93431 185
61.95442 192
61.97454 173
61.99465 176
62.01477 192
62.03488 201
62.05499 179
62.07511 181
62.09522 184
62.11533 177
62.13545 178
62.15556 203
62.17568 175
62.19579 182
62.2159 183
62.23602 184
62.25613 174
62.27624 184
62.29636 175
62.31647 164
62.33659 206
62.3567 178
62.37681 191
62.39693 175
62.41704 193
62.43715 184
62.45727 169
62.47738 178
62.49749 171
62.51761 174
62.53772 193
62.55784 181
62.57795 178
62.59806 196
62.61818 192
62.63829 179
62.6584 193
62.67852 185
62.69863 184
62.71875 186
62.73886 208
62.75897 184
62.77909 193
62.7992 174
62.81931 195
62.83943 173
62.85954 163
62.87965 200
62.89977 163
62.91988 197
62.94 192
62.96011 180
62.98022 190
63.00034 188
63.02045 197
63.04056 205
63.06068 202
63.08079 192
63.10091 185
63.12102 220
63.14113 204
63.16125 200
63.18136 202
63.20147 210
63.22159 223
63.2417 200
63.26182 177
63.28193 176
63.30204 218
63.32216 218
63.34227 176
63.36238 183
63.3825 204
63.40261 178
63.42272 186
63.44284 175
63.46295 195
63.48307 193
63.50318 177
63.52329 184
63.54341 217
63.56352 174
63.58363 199
63.60375 198
63.62386 189
63.64398 213
63.66409 215
63.6842 235
63.70432 242
63.72443 273
63.74454 275
63.76466 247
63.78477 273
63.80489 289
63.825 291
63.84511 284
63.86523 301
63.88534 314
63.90545 348
63.92557 355
63.94568 456
63.96579 412
63.98591 449
64.00602 442
64.02614 432
64.04625 333
64.06636 323
64.08648 299
64.10659 314
64.1267 281
64.14682 288
64.16693 304
64.18705 254
64.20716 262
64.22727 252
64.24739 206
64.2675 191
64.28761 188
64.30773 184
64.32784 177
64.34796 189
64.36807 171
64.38818 168
64.4083 183
64.42841 174
64.44852 187
64.46864 179
64.48875 166
64.50886 191
64.52898 183
64.54909 182
64.56921 181
64.58932 180
64.60943 173
64.62955 167
64.64966 184
64.66977 192
64.68989 182
64.71 188
64.73012 198
64.75023 162
64.77034 183
64.79046 172
64.81057 188
64.83068 207
64.8508 188
64.87091 162
64.89102 188
64.91114 176
64.93125 191
64.95137 186
64.97148 201
64.99159 187
65.01171 186
65.03182 172
65.05193 167
65.07205 192
65.09216 179
65.11228 205
65.13239 186
65.1525 194
65.17262 219
65.19273 185
65.21284 185
65.23296 186
65.25307 183
65.27319 181
65.2933 204
65.31341 209
65.33353 171
65.35364 215
65.37375 199
65.39387 194
65.41398 211
65.43409 187
65.45421 183
65.47432 180
65.49444 184
65.51455 183
65.53466 199
65.55478 208
65.57489 192
65.595 197
65.61512 211
65.63523 216
65.65535 198
65.67546 199
65.69557 231
65.71569 218
65.7358 238
65.75591 262
65.77603 219
65.79614 203
65.81626 187
65.83637 196
65.85648 170
65.8766 226
65.89671 194
65.91682 213
65.93694 191
65.95705 190
65.97716 206
65.99728 187
66.01739 166
66.03751 173
66.05762 173
66.07773 179
66.09785 188
66.11796 182
66.13807 174
66.15819 177
66.1783 177
66.19842 198
66.21853 170
66.23864 187
66.25876 173
66.27887 203
66.29898 200
66.3191 179
66.33921 173
66.35933 162
66.37944 159
66.39955 181
66.41967 166
66.43978 185
66.45989 185
66.48001 188
66.50012 201
66.52023 164
66.54035 188
66.56046 173
66.58058 178
66.60069 188
66.6208 206
66.64092 192
66.66103 185
66.68114 162
66.70126 169
66.72137 171
66.74149 193
66.7616 201
66.78171 174
66.80183 162
66.82194 185
66.84205 191
66.86217 191
66.88228 186
66.90239 204
66.92251 178
66.94262 197
66.96274 163
66.98285 181
67.00296 178
67.02308 177
67.04319 213
67.0633 179
67.08342 166
67.10353 197
67.12365 209
67.14376 209
67.16387 215
67.18399 197
67.2041 197
67.22421 228
67.24433 199
67.26444 190
67.28456 182
67.30467 233
67.32478 235
67.3449 220
67.36501 251
67.38512 250
67.40524 256
67.42535 243
67.44546 257
67.46558 283
67.48569 298
67.50581 368
67.52592 388
67.54603 441
67.56615 446
67.58626 525
67.60637 602
67.62649 744
67.6466 745
67.66672 844
67.68683 901
67.70694 881
67.72706 834
67.74717 780
67.76728 674
67.7874 580
67.80751 554
67.82763 601
67.84774 627
67.86785 656
67.88797 703
67.90808 712
67.92819 711
67.94831 718
67.96842 707
67.98853 733
68.00865 787
68.02876 905
68.04888 996
68.06899 1074
68.0891 1136
68.10922 1157
68.12933 1103
68.14944 1059
68.16956 882
68.18967 913
68.20979 932
68.2299 977
68.25001 1016
68.27013 1076
68.29024 1010
68.31035 970
68.33047 775
68.35058 681
68.3707 560
68.39081 507
68.41092 506
68.43104 482
68.45115 463
68.47126 456
68.49138 378
68.51149 338
68.5316 297
68.55172 277
68.57183 220
68.59195 235
68.61206 243
68.63217 190
68.65229 232
68.6724 226
68.69251 196
68.71263 192
68.73274 219
68.75286 193
68.77297 169
68.79308 190
68.8132 178
68.83331 189
68.85342 188
68.87354 200
68.89365 197
68.91376 190
68.93388 189
68.95399 177
68.97411 159
68.99422 161
69.01433 172
69.03445 193
69.05456 173
69.07467 166
69.09479 177
69.1149 189
69.13502 166
69.15513 185
69.17524 196
69.19536 171
69.21547 192
69.23558 168
69.2557 166
69.27581 146
69.29593 158
69.31604 191
69.33615 171
69.35627 184
69.37638 185
69.39649 192
69.41661 173
69.43672 200
69.45683 174
69.47695 157
69.49706 185
69.51718 186
69.53729 141
69.5574 168
69.57752 157
69.59763 176
69.61774 182
69.63786 174
69.65797 165
69.67809 157
69.6982 176
69.71831 180
69.73843 190
69.75854 195
69.77865 176
69.79877 171
69.81888 180
69.839 171
69.85911 166
69.87922 180
69.89934 162
69.91945 170
69.93956 173
69.95968 167
69.97979 159
69.9999 157
70.02002 158
70.04013 155
70.06025 162
70.08036 170
70.10047 172
70.12059 158
70.1407 161
70.16081 178
70.18093 171
70.20104 170
70.22116 180
70.24127 175
70.26138 165
70.2815 156
70.30161 145
70.32172 148
70.34184 159
70.36195 144
70.38207 150
70.40218 156
70.42229 147
70.44241 167
70.46252 164
70.48263 170
70.50275 155
70.52286 158
70.54297 157
70.56309 160
70.5832 162
70.60332 183
70.62343 157
70.64354 167
70.66366 158
70.68377 160
70.70388 153
70.724 134
70.74411 163
70.76423 160
70.78434 148
70.80445 160
70.82457 153
70.84468 161
70.86479 175
70.88491 145
70.90502 165
70.92513 167
70.94525 159
70.96536 144
70.98548 156
71.00559 141
71.0257 147
71.04582 138
71.06593 147
71.08604 156
71.10616 154
71.12627 140
71.14639 166
71.1665 171
71.18661 122
71.20673 155
71.22684 147
71.24695 169
71.26707 153
71.28718 153
71.3073 164
71.32741 138
71.34752 144
71.36764 157
71.38775 156
71.40786 164
71.42798 176
71.44809 171
71.4682 150
71.48832 169
71.50843 176
71.52855 145
71.54866 170
71.56877 173
71.58889 168
71.609 149
71.62911 150
71.64923 154
71.66934 175
71.68946 137
71.70957 158
71.72968 171
71.7498 162
71.76991 177
71.79002 156
71.81014 147
71.83025 165
71.85037 156
71.87048 162
71.89059 163
71.91071 160
71.93082 150
71.95093 156
71.97105 152
71.99116 175
72.01127 149
72.03139 155
72.0515 151
72.07162 150
72.09173 152
72.11184 169
72.13196 158
72.15207 157
72.17218 164
72.1923 158
72.21241 161
72.23253 175
72.25264 159
72.27275 171
72.29287 156
72.31298 139
72.33309 167
72.35321 154
72.37332 151
72.39344 175
72.41355 156
72.43366 160
72.45378 159
72.47389 153
72.494 155
72.51412 151
72.53423 141
72.55434 153
72.57446 129
72.59457 162
72.61469 158
72.6348 138
72.65491 150
72.67503 168
72.69514 153
72.71525 147
72.73537 151
72.75548 162
72.7756 176
72.79571 164
72.81582 151
72.83594 156
72.85605 144
72.87616 170
72.89628 151
72.91639 155
72.9365 159
72.95662 165
72.97673 167
72.99685 169
73.01696 184
73.03707 153
73.05719 182
73.0773 192
73.09741 177
73.11753 181
73.13764 173
73.15776 188
73.17787 200
73.19798 183
73.2181 207
73.23821 205
73.25832 219
73.27844 249
73.29855 237
73.31867 277
73.33878 307
73.35889 344
73.37901 359
73.39912 358
73.41923 403
73.43935 407
73.45946 365
73.47957 314
73.49969 278
73.5198 251
73.53992 266
73.56003 239
73.58014 244
73.60026 261
73.62037 282
73.64048 273
73.6606 254
73.68071 240
73.70083 225
73.72094 191
73.74105 179
73.76117 179
73.78128 179
73.80139 177
73.82151 173
73.84162 199
73.86174 167
73.88185 174
73.90196 155
73.92208 164
73.94219 193
73.9623 135
73.98242 156
74.00253 167
74.02264 153
74.04276 150
74.06287 168
74.08299 172
74.1031 160
74.12321 166
74.14333 174
74.16344 161
74.18355 166
74.20367 154
74.22378 159
74.2439 147
74.26401 145
74.28412 148
74.30424 166
74.32435 143
74.34446 166
74.36458 140
74.38469 171
74.40481 158
74.42492 165
74.44503 153
74.46515 147
74.48526 188
74.50537 169
74.52549 183
74.5456 157
74.56571 168
74.58583 168
74.60594 164
74.62606 149
74.64617 173
74.66628 164
74.6864 148
74.70651 181
74.72662 171
74.74674 165
74.76685 171
74.78697 164
74.80708 175
74.82719 142
74.84731 155
74.86742 163
74.88753 155
74.90765 181
74.92776 144
74.94787 165
74.96799 155
74.9881 176
75.00822 169
