3.00117 20300
3.02128 20022
3.0414 19391
3.06151 18652
3.08162 18357
3.10174 17735
3.12185 17322
3.14197 16902
3.16208 16467
3.18219 16063
3.20231 15408
3.22242 14838
3.24253 14852
3.26265 14197
3.28276 13953
3.30288 13042
3.32299 12917
3.3431 12510
3.36322 12057
3.38333 11811
3.40344 11218
3.42356 11052
3.44367 10471
3.46379 10345
3.4839 9997
3.50401 9715
3.52413 9598
3.54424 8929
3.56435 8601
3.58447 8472
3.60458 8110
3.62469 7835
3.64481 7428
3.66492 7296
3.68504 7045
3.70515 6930
3.72526 6633
3.74538 6367
3.76549 5970
3.7856 6045
3.80572 5686
3.82583 5381
3.84595 5351
3.86606 4974
3.88617 5011
3.90629 4649
3.9264 4754
3.94651 4332
3.96663 4186
3.98674 4128
4.00686 3791
4.02697 3863
4.04708 3643
4.0672 3512
4.08731 3433
4.10742 3214
4.12754 3093
4.14765 3090
4.16776 2875
4.18788 2869
4.20799 2770
4.22811 2758
4.24822 2830
4.26833 2535
4.28845 2452
4.30856 2517
4.32867 2442
4.34879 2348
4.3689 2183
4.38902 2208
4.40913 2244
4.42924 2230
4.44936 2214
4.46947 2164
4.48958 2122
4.5097 2093
4.52981 2099
4.54992 2071
4.57004 1909
4.59015 1917
4.61027 1911
4.63038 1938
4.65049 1821
4.67061 1739
4.69072 1811
4.71083 1836
4.73095 1769
4.75106 1838
4.77118 1634
4.79129 1684
4.8114 1625
4.83152 1708
4.85163 1738
4.87174 1590
4.89186 1615
4.91197 1562
4.93209 1561
4.9522 1491
4.97231 1463
4.99243 1444
5.01254 1537
5.03265 1527
5.05277 1490
5.07288 1429
5.09299 1429
5.11311 1435
5.13322 1451
5.15334 1494
5.17345 1407
5.19356 1352
5.21368 1353
5.23379 1348
5.2539 1368
5.27402 1349
5.29413 1369
5.31425 1286
5.33436 1297
5.35447 1197
5.37459 1299
5.3947 1315
5.41481 1301
5.43493 1250
5.45504 1210
5.47516 1174
5.49527 1237
5.51538 1239
5.5355 1276
5.55561 1214
5.57572 1197
5.59584 1159
5.61595 1200
5.63606 1175
5.65618 1205
5.67629 1178
5.69641 1099
5.71652 1064
5.73663 1175
5.75675 1094
5.77686 1099
5.79697 1133
5.81709 1081
5.8372 1043
5.85732 1053
5.87743 1108
5.89754 1074
5.91766 1019
5.93777 1033
5.95788 1065
5.978 1063
5.99811 1089
6.01823 1058
6.03834 1041
6.05845 1019
6.07857 1015
6.09868 1097
6.11879 1018
6.13891 1032
6.15902 1041
6.17913 1031
6.19925 1021
6.21936 986
6.23948 990
6.25959 986
6.2797 960
6.29982 945
6.31993 1007
6.34004 992
6.36016 971
6.38027 942
6.40039 934
6.4205 930
6.44061 883
6.46073 921
6.48084 906
6.50095 916
6.52107 933
6.54118 864
6.56129 946
6.58141 900
6.60152 858
6.62164 869
6.64175 903
6.66186 857
6.68198 844
6.70209 865
6.7222 828
6.74232 844
6.76243 796
6.78255 828
6.80266 834
6.82277 824
6.84289 898
6.863 826
6.88311 849
6.90323 809
6.92334 778
6.94346 780
6.96357 811
6.98368 742
7.0038 799
7.02391 807
7.04402 775
7.06414 806
7.08425 799
7.10436 797
7.12448 761
7.14459 694
7.16471 760
7.18482 717
7.20493 739
7.22505 668
7.24516 742
7.26527 753
7.28539 716
7.3055 734
7.32562 760
7.34573 692
7.36584 693
7.38596 731
7.40607 724
7.42618 746
7.4463 699
7.46641 658
7.48653 698
7.50664 691
7.52675 686
7.54687 697
7.56698 638
7.58709 689
7.60721 662
7.62732 612
7.64743 684
7.66755 657
7.68766 685
7.70778 672
7.72789 616
7.748 668
7.76812 676
7.78823 612
7.80834 621
7.82846 670
7.84857 628
7.86869 659
7.8888 657
7.90891 692
7.92903 677
7.94914 611
7.96925 691
7.98937 652
8.00948 634
8.0296 642
8.04971 662
8.06982 605
8.08994 610
8.11005 596
8.13016 676
8.15028 671
8.17039 658
8.1905 627
8.21062 662
8.23073 657
8.25085 654
8.27096 708
8.29107 686
8.31119 680
8.3313 699
8.35141 670
8.37153 694
8.39164 653
8.41176 702
8.43187 705
8.45198 746
8.4721 714
8.49221 662
8.51232 712
8.53244 689
8.55255 705
8.57266 614
8.59278 698
8.61289 610
8.63301 639
8.65312 650
8.67323 631
8.69335 573
8.71346 629
8.73357 543
8.75369 538
8.7738 540
8.79392 537
8.81403 493
8.83414 552
8.85426 509
8.87437 483
8.89448 489
8.9146 511
8.93471 459
8.95483 473
8.97494 462
8.99505 501
9.01517 474
9.03528 486
9.05539 438
9.07551 424
9.09562 444
9.11573 490
9.13585 416
9.15596 408
9.17608 446
9.19619 420
9.2163 457
9.23642 424
9.25653 448
9.27664 411
9.29676 423
9.31687 429
9.33699 388
9.3571 391
9.37721 388
9.39733 406
9.41744 392
9.43755 423
9.45767 395
9.47778 433
9.4979 392
9.51801 415
9.53812 409
9.55824 385
9.57835 390
9.59846 383
9.61858 426
9.63869 364
9.6588 375
9.67892 398
9.69903 369
9.71915 378
9.73926 427
9.75937 399
9.77949 386
9.7996 371
9.81971 373
9.83983 375
9.85994 334
9.88006 344
9.90017 375
9.92028 337
9.9404 349
9.96051 363
9.98062 340
10.00074 338
10.02085 359
10.04097 361
10.06108 364
10.08119 380
10.10131 355
10.12142 335
10.14153 362
10.16165 377
10.18176 379
10.20187 316
10.22199 348
10.2421 346
10.26222 392
10.28233 326
10.30244 401
10.32256 357
10.34267 346
10.36278 368
10.3829 358
10.40301 347
10.42313 359
10.44324 382
10.46335 375
10.48347 366
10.50358 345
10.52369 320
10.54381 341
10.56392 339
10.58403 359
10.60415 373
10.62426 339
10.64438 326
10.66449 324
10.6846 373
10.70472 311
10.72483 340
10.74494 322
10.76506 321
10.78517 338
10.80529 339
10.8254 364
10.84551 371
10.86563 317
10.88574 321
10.90585 320
10.92597 333
10.94608 354
10.9662 342
10.98631 317
11.00642 342
11.02654 359
11.04665 392
11.06676 332
11.08688 340
11.10699 355
11.1271 365
11.14722 345
11.16733 335
11.18745 345
11.20756 357
11.22767 341
11.24779 343
11.2679 359
11.28801 354
11.30813 396
11.32824 389
11.34836 365
11.36847 382
11.38858 412
11.4087 374
11.42881 404
11.44892 407
11.46904 449
11.48915 557
11.50927 577
11.52938 558
11.54949 670
11.56961 695
11.58972 739
11.60983 663
11.62995 634
11.65006 522
11.67017 529
11.69029 441
11.7104 390
11.73052 380
11.75063 376
11.77074 365
11.79086 323
11.81097 360
11.83108 322
11.8512 334
11.87131 361
11.89143 325
11.91154 375
11.93165 326
11.95177 380
11.97188 330
11.99199 331
12.01211 332
12.03222 339
12.05234 359
12.07245 355
12.09256 378
12.11268 384
12.13279 365
12.1529 337
12.17302 359
12.19313 388
12.21324 324
12.23336 375
12.25347 377
12.27359 354
12.2937 334
12.31381 406
12.33393 365
12.35404 339
12.37415 381
12.39427 347
12.41438 335
12.4345 369
12.45461 320
12.47472 382
12.49484 332
12.51495 366
12.53506 318
12.55518 356
12.57529 357
12.5954 320
12.61552 350
12.63563 333
12.65575 322
12.67586 341
12.69597 338
12.71609 338
12.7362 306
12.75631 304
12.77643 347
12.79654 307
12.81666 342
12.83677 318
12.85688 339
12.877 319
12.89711 341
12.91722 314
12.93734 352
12.95745 318
12.97757 366
12.99768 361
13.01779 338
13.03791 348
13.05802 339
13.07813 361
13.09825 336
13.11836 304
13.13847 327
13.15859 325
13.1787 312
13.19882 306
13.21893 338
13.23904 317
13.25916 325
13.27927 350
13.29938 327
13.3195 321
13.33961 346
13.35973 295
13.37984 328
13.39995 348
13.42007 349
13.44018 344
13.46029 325
13.48041 350
13.50052 316
13.52064 326
13.54075 364
13.56086 361
13.58098 361
13.60109 339
13.6212 354
13.64132 357
13.66143 356
13.68154 351
13.70166 390
13.72177 337
13.74189 388
13.762 379
13.78211 391
13.80223 385
13.82234 359
13.84245 392
13.86257 332
13.88268 356
13.9028 379
13.92291 370
13.94302 382
13.96314 359
13.98325 354
14.00336 326
14.02348 380
14.04359 315
14.06371 332
14.08382 331
14.10393 337
14.12405 297
14.14416 353
14.16427 327
14.18439 324
14.2045 308
14.22461 313
14.24473 331
14.26484 336
14.28496 308
14.30507 308
14.32518 331
14.3453 341
14.36541 340
14.38552 315
14.40564 353
14.42575 297
14.44587 324
14.46598 329
14.48609 360
14.50621 305
14.52632 345
14.54643 326
14.56655 314
14.58666 313
14.60677 292
14.62689 294
14.647 330
14.66712 353
14.68723 316
14.70734 299
14.72746 356
14.74757 295
14.76768 296
14.7878 298
14.80791 334
14.82803 346
14.84814 330
14.86825 338
14.88837 340
14.90848 356
14.92859 317
14.94871 344
14.96882 323
14.98894 345
15.00905 333
15.02916 331
15.04928 340
15.06939 306
15.0895 339
15.10962 339
15.12973 328
15.14984 348
15.16996 339
15.19007 352
15.21019 315
15.2303 345
15.25041 344
15.27053 335
15.29064 334
15.31075 328
15.33087 336
15.35098 325
15.3711 316
15.39121 329
15.41132 341
15.43144 333
15.45155 315
15.47166 335
15.49178 301
15.51189 335
15.53201 331
15.55212 378
15.57223 321
15.59235 329
15.61246 290
15.63257 344
15.65269 332
15.6728 346
15.69291 333
15.71303 334
15.73314 325
15.75326 310
15.77337 343
15.79348 340
15.8136 333
15.83371 375
15.85382 306
15.87394 342
15.89405 308
15.91417 298
15.93428 332
15.95439 353
15.97451 311
15.99462 314
16.01473 311
16.03485 347
16.05496 314
16.07508 329
16.09519 348
16.1153 339
16.13542 353
16.15553 373
16.17564 333
16.19576 356
16.21587 360
16.23598 333
16.2561 337
16.27621 332
16.29633 353
16.31644 348
16.33655 327
16.35667 355
16.37678 307
16.39689 366
16.41701 322
16.43712 336
16.45724 318
16.47735 369
16.49746 378
16.51758 346
16.53769 317
16.5578 327
16.57792 330
16.59803 351
16.61814 342
16.63826 333
16.65837 359
16.67849 321
16.6986 310
16.71871 308
16.73883 328
16.75894 327
16.77905 330
16.79917 315
16.81928 346
16.8394 331
16.85951 342
16.87962 328
16.89974 301
16.91985 322
16.93996 324
16.96008 343
16.98019 316
17.00031 348
17.02042 328
17.04053 329
17.06065 349
17.08076 343
17.10087 350
17.12099 343
17.1411 328
17.16121 371
17.18133 329
17.20144 314
17.22156 331
17.24167 330
17.26178 298
17.2819 306
17.30201 320
17.32212 347
17.34224 350
17.36235 376
17.38247 352
17.40258 350
17.42269 340
17.44281 319
17.46292 354
17.48303 345
17.50315 323
17.52326 353
17.54338 364
17.56349 357
17.5836 334
17.60372 339
17.62383 356
17.64394 319
17.66406 361
17.68417 345
17.70428 325
17.7244 391
17.74451 358
17.76463 339
17.78474 333
17.80485 364
17.82497 339
17.84508 358
17.86519 384
17.88531 349
17.90542 349
17.92554 349
17.94565 357
17.96576 366
17.98588 383
18.00599 369
18.0261 358
18.04622 367
18.06633 346
18.08645 330
18.10656 349
18.12667 354
18.14679 336
18.1669 370
18.18701 326
18.20713 365
18.22724 353
18.24735 354
18.26747 336
18.28758 347
18.3077 349
18.32781 344
18.34792 363
18.36804 305
18.38815 345
18.40826 337
18.42838 360
18.44849 353
18.46861 350
18.48872 328
18.50883 342
18.52895 352
18.54906 350
18.56917 367
18.58929 329
18.6094 332
18.62951 337
18.64963 363
18.66974 384
18.68986 365
18.70997 378
18.73008 372
18.7502 366
18.77031 316
18.79042 354
18.81054 342
18.83065 358
18.85077 343
18.87088 355
18.89099 352
18.91111 380
18.93122 335
18.95133 371
18.97145 360
18.99156 378
19.01168 380
19.03179 381
19.0519 385
19.07202 381
19.09213 405
19.11224 446
19.13236 394
19.15247 403
19.17258 428
19.1927 396
19.21281 447
19.23293 442
19.25304 508
19.27315 496
19.29327 511
19.31338 527
19.33349 546
19.35361 526
19.37372 537
19.39384 519
19.41395 609
19.43406 637
19.45418 608
19.47429 731
19.4944 659
19.51452 751
19.53463 767
19.55475 777
19.57486 802
19.59497 880
19.61509 878
19.6352 925
19.65531 951
19.67543 947
19.69554 976
19.71565 1037
19.73577 947
19.75588 1049
19.776 1013
19.79611 995
19.81622 1009
19.83634 977
19.85645 917
19.87656 876
19.89668 888
19.91679 955
19.93691 874
19.95702 822
19.97713 839
19.99725 840
20.01736 844
20.03747 792
20.05759 759
20.0777 737
20.09782 719
20.11793 721
20.13804 750
20.15816 698
20.17827 683
20.19838 704
20.2185 692
20.23861 699
20.25872 650
20.27884 640
20.29895 612
20.31907 650
20.33918 663
20.35929 654
20.37941 634
20.39952 637
20.41963 648
20.43975 645
20.45986 658
20.47998 638
20.50009 700
20.5202 732
20.54032 800
20.56043 794
20.58054 851
20.60066 922
20.62077 980
20.64088 991
20.661 1120
20.68111 1146
20.70123 1131
20.72134 1162
20.74145 1291
20.76157 1237
20.78168 1273
20.80179 1264
20.82191 1235
20.84202 1139
20.86214 1027
20.88225 888
20.90236 799
20.92248 758
20.94259 752
20.9627 637
20.98282 687
21.00293 630
21.02305 627
21.04316 616
21.06327 567
21.08339 556
21.1035 541
21.12361 536
21.14373 555
21.16384 527
21.18395 560
21.20407 536
21.22418 512
21.2443 547
21.26441 512
21.28452 499
21.30464 567
21.32475 538
21.34486 550
21.36498 523
21.38509 500
21.40521 547
21.42532 524
21.44543 546
21.46555 566
21.48566 491
21.50577 498
21.52589 526
21.546 535
21.56612 515
21.58623 475
21.60634 555
21.62646 500
21.64657 516
21.66668 551
21.6868 512
21.70691 486
21.72702 492
21.74714 521
21.76725 555
21.78737 533
21.80748 494
21.82759 550
21.84771 566
21.86782 596
21.88793 619
21.90805 625
21.92816 687
21.94828 708
21.96839 664
21.9885 704
22.00862 600
22.02873 535
22.04884 510
22.06896 523
22.08907 494
22.10919 472
22.1293 467
22.14941 498
22.16953 471
22.18964 470
22.20975 497
22.22987 433
22.24998 462
22.27009 478
22.29021 479
22.31032 436
22.33044 441
22.35055 464
22.37066 483
22.39078 428
22.41089 520
22.431 482
22.45112 490
22.47123 495
22.49135 476
22.51146 482
22.53157 462
22.55169 427
22.5718 463
22.59191 490
22.61203 501
22.63214 465
22.65225 449
22.67237 476
22.69248 459
22.7126 477
22.73271 472
22.75282 500
22.77294 502
22.79305 452
22.81316 477
22.83328 481
22.85339 494
22.87351 491
22.89362 484
22.91373 541
22.93385 542
22.95396 553
22.97407 528
22.99419 556
23.0143 553
23.03442 536
23.05453 531
23.07464 513
23.09476 503
23.11487 518
23.13498 549
23.1551 531
23.17521 513
23.19532 486
23.21544 507
23.23555 557
23.25567 524
23.27578 539
23.29589 591
23.31601 565
23.33612 566
23.35623 559
23.37635 558
23.39646 554
23.41658 532
23.43669 558
23.4568 606
23.47692 608
23.49703 602
23.51714 589
23.53726 607
23.55737 527
23.57749 578
23.5976 584
23.61771 523
23.63783 515
23.65794 555
23.67805 485
23.69817 539
23.71828 494
23.73839 603
23.75851 546
23.77862 527
23.79874 573
23.81885 569
23.83896 545
23.85908 539
23.87919 523
23.8993 581
23.91942 583
23.93953 529
23.95965 530
23.97976 543
23.99987 516
24.01999 575
24.0401 554
24.06021 564
24.08033 511
24.10044 554
24.12056 525
24.14067 545
24.16078 553
24.1809 563
24.20101 590
24.22112 544
24.24124 591
24.26135 614
24.28146 607
24.30158 569
24.32169 543
24.34181 523
24.36192 511
24.38203 520
24.40215 525
24.42226 458
24.44237 544
24.46249 480
24.4826 446
24.50272 502
24.52283 450
24.54294 460
24.56306 518
24.58317 437
24.60328 499
24.6234 444
24.64351 450
24.66362 514
24.68374 460
24.70385 500
24.72397 468
24.74408 491
24.76419 476
24.78431 481
24.80442 507
24.82453 489
24.84465 500
24.86476 500
24.88488 497
24.90499 492
24.9251 476
24.94522 481
24.96533 522
24.98544 466
25.00556 514
25.02567 461
25.04579 505
25.0659 512
25.08601 471
25.10613 494
25.12624 502
25.14635 512
25.16647 535
25.18658 523
25.20669 538
25.22681 538
25.24692 490
25.26704 539
25.28715 522
25.30726 510
25.32738 502
25.34749 515
25.3676 524
25.38772 484
25.40783 554
25.42795 533
25.44806 531
25.46817 494
25.48829 574
25.5084 605
25.52851 549
25.54863 553
25.56874 594
25.58886 544
25.60897 536
25.62908 574
25.6492 541
25.66931 526
25.68942 519
25.70954 508
25.72965 491
25.74976 533
25.76988 494
25.78999 538
25.81011 481
25.83022 491
25.85033 513
25.87045 544
25.89056 543
25.91067 486
25.93079 498
25.9509 489
25.97102 504
25.99113 495
26.01124 523
26.03136 468
26.05147 519
26.07158 511
26.0917 512
26.11181 530
26.13193 547
26.15204 575
26.17215 566
26.19227 633
26.21238 647
26.23249 605
26.25261 611
26.27272 657
26.29283 682
26.31295 697
26.33306 761
26.35318 795
26.37329 884
26.3934 981
26.41352 1151
26.43363 1298
26.45374 1651
26.47386 1975
26.49397 2288
26.51409 2645
26.5342 3044
26.55431 3388
26.57443 3403
26.59454 3228
26.61465 2995
26.63477 2457
26.65488 2005
26.67499 1679
26.69511 1300
26.71522 1023
26.73534 895
26.75545 764
26.77556 718
26.79568 683
26.81579 643
26.8359 687
26.85602 682
26.87613 693
26.89625 641
26.91636 652
26.93647 621
26.95659 644
26.9767 677
26.99681 654
27.01693 613
27.03704 708
27.05716 662
27.07727 676
27.09738 625
27.1175 565
27.13761 632
27.15772 615
27.17784 600
27.19795 627
27.21806 594
27.23818 648
27.25829 604
27.27841 641
27.29852 648
27.31863 668
27.33875 703
27.35886 759
27.37897 775
27.39909 801
27.4192 752
27.43932 787
27.45943 759
27.47954 746
27.49966 748
27.51977 698
27.53988 728
27.56 714
27.58011 713
27.60023 735
27.62034 722
27.64045 812
27.66057 885
27.68068 913
27.70079 938
27.72091 905
27.74102 927
27.76113 912
27.78125 829
27.80136 865
27.82148 903
27.84159 806
27.8617 846
27.88182 911
27.90193 879
27.92204 805
27.94216 793
27.96227 788
27.98239 713
28.0025 703
28.02261 666
28.04273 691
28.06284 621
28.08295 617
28.10307 623
28.12318 571
28.1433 604
28.16341 609
28.18352 608
28.20364 609
28.22375 577
28.24386 614
28.26398 612
28.28409 603
28.3042 607
28.32432 604
28.34443 549
28.36455 561
28.38466 517
28.40477 506
28.42489 505
28.445 495
28.46511 505
28.48523 513
28.50534 518
28.52546 510
28.54557 518
28.56568 523
28.5858 492
28.60591 506
28.62602 523
28.64614 487
28.66625 522
28.68636 467
28.70648 530
28.72659 486
28.74671 532
28.76682 548
28.78693 520
28.80705 564
28.82716 515
28.84727 581
28.86739 609
28.8875 627
28.90762 634
28.92773 642
28.94784 680
28.96796 699
28.98807 709
29.00818 745
29.0283 768
29.04841 743
29.06853 695
29.08864 707
29.10875 662
29.12887 677
29.14898 658
29.16909 722
29.18921 698
29.20932 697
29.22943 729
29.24955 810
29.26966 865
29.28978 952
29.30989 941
29.33 923
29.35012 936
29.37023 988
29.39034 917
29.41046 844
29.43057 805
29.45069 696
29.4708 709
29.49091 671
29.51103 613
29.53114 592
29.55125 575
29.57137 537
29.59148 570
29.6116 555
29.63171 552
29.65182 562
29.67194 529
29.69205 545
29.71216 599
29.73228 535
29.75239 530
29.7725 499
29.79262 560
29.81273 504
29.83285 508
29.85296 488
29.87307 518
29.89319 478
29.9133 563
29.93341 471
29.95353 464
29.97364 472
29.99376 505
30.01387 509
30.03398 537
30.0541 493
30.07421 520
30.09432 510
30.11444 509
30.13455 502
30.15467 490
30.17478 493
30.19489 486
30.21501 503
30.23512 568
30.25523 501
30.27535 553
30.29546 512
30.31557 475
30.33569 511
30.3558 500
30.37592 487
30.39603 522
30.41614 500
30.43626 506
30.45637 441
30.47648 513
30.4966 471
30.51671 473
30.53683 461
30.55694 450
30.57705 473
30.59717 450
30.61728 449
30.63739 475
30.65751 470
30.67762 453
30.69773 461
30.71785 508
30.73796 474
30.75808 465
30.77819 502
30.7983 531
30.81842 489
30.83853 522
30.85864 478
30.87876 517
30.89887 522
30.91899 546
30.9391 508
30.95921 547
30.97933 562
30.99944 565
31.01955 607
31.03967 550
31.05978 559
31.0799 551
31.10001 540
31.12012 543
31.14024 515
31.16035 487
31.18046 493
31.20058 470
31.22069 506
31.2408 471
31.26092 476
31.28103 437
31.30115 454
31.32126 466
31.34137 483
31.36149 452
31.3816 436
31.40171 444
31.42183 387
31.44194 457
31.46206 427
31.48217 385
31.50228 394
31.5224 419
31.54251 402
31.56262 405
31.58274 407
31.60285 409
31.62297 429
31.64308 429
31.66319 380
31.68331 433
31.70342 405
31.72353 435
31.74365 424
31.76376 398
31.78387 417
31.80399 417
31.8241 392
31.84422 397
31.86433 407
31.88444 427
31.90456 420
31.92467 414
31.94478 463
31.9649 427
31.98501 413
32.00513 436
32.02524 466
32.04535 443
32.06547 441
32.08558 423
32.10569 417
32.12581 414
32.14592 432
32.16604 412
32.18615 444
32.20626 443
32.22638 432
32.24649 426
32.2666 380
32.28672 406
32.30683 445
32.32694 447
32.34706 422
32.36717 405
32.38729 430
32.4074 418
32.42751 424
32.44763 447
32.46774 431
32.48785 420
32.50797 423
32.52808 393
32.5482 431
32.56831 416
32.58842 413
32.60854 403
32.62865 436
32.64876 395
32.66888 397
32.68899 424
32.7091 397
32.72922 423
32.74933 452
32.76945 431
32.78956 446
32.80967 421
32.82979 425
32.8499 473
32.87001 466
32.89013 445
32.91024 452
32.93036 442
32.95047 439
32.97058 455
32.9907 492
33.01081 440
33.03092 463
33.05104 444
33.07115 431
33.09127 502
33.11138 507
33.13149 514
33.15161 490
33.17172 477
33.19183 531
33.21195 523
33.23206 515
33.25217 543
33.27229 501
33.2924 517
33.31252 544
33.33263 487
33.35274 504
33.37286 468
33.39297 454
33.41308 492
33.4332 443
33.45331 418
33.47343 448
33.49354 427
33.51365 386
33.53377 416
33.55388 403
33.57399 403
33.59411 424
33.61422 400
33.63434 452
33.65445 404
33.67456 443
33.69468 422
33.71479 408
33.7349 436
33.75502 428
33.77513 452
33.79524 406
33.81536 447
33.83547 446
33.85559 432
33.8757 426
33.89581 457
33.91593 418
33.93604 452
33.95615 441
33.97627 453
33.99638 426
34.0165 463
34.03661 455
34.05672 497
34.07684 493
34.09695 492
34.11706 478
34.13718 534
34.15729 521
34.17741 519
34.19752 557
34.21763 540
34.23775 552
34.25786 600
34.27797 533
34.29809 655
34.3182 584
34.33831 598
34.35843 642
34.37854 611
34.39866 651
34.41877 657
34.43888 631
34.459 680
34.47911 688
34.49922 700
34.51934 672
34.53945 698
34.55957 716
34.57968 719
34.59979 687
34.61991 683
34.64002 699
34.66013 666
34.68025 682
34.70036 745
34.72047 673
34.74059 716
34.7607 696
34.78082 695
34.80093 674
34.82104 700
34.84116 639
34.86127 722
34.88138 713
34.9015 707
34.92161 703
34.94173 663
34.96184 713
34.98195 682
35.00207 723
35.02218 680
35.04229 675
35.06241 653
35.08252 733
35.10264 692
35.12275 671
35.14286 721
35.16298 661
35.18309 667
35.2032 653
35.22332 634
35.24343 675
35.26354 705
35.28366 631
35.30377 659
35.32389 673
35.344 670
35.36411 642
35.38423 656
35.40434 652
35.42445 650
35.44457 680
35.46468 592
35.4848 659
35.50491 644
35.52502 690
35.54514 679
35.56525 724
35.58536 652
35.60548 618
35.62559 613
35.64571 674
35.66582 636
35.68593 604
35.70605 601
35.72616 565
35.74627 613
35.76639 605
35.7865 636
35.80661 593
35.82673 589
35.84684 621
35.86696 643
35.88707 593
35.90718 673
35.9273 658
35.94741 643
35.96752 637
35.98764 594
36.00775 577
36.02787 583
36.04798 613
36.06809 580
36.08821 609
36.10832 560
36.12843 589
36.14855 529
36.16866 567
36.18878 555
36.20889 546
36.229 573
36.24912 564
36.26923 537
36.28934 570
36.30946 599
36.32957 563
36.34968 591
36.3698 638
36.38991 671
36.41003 689
36.43014 696
36.45025 733
36.47037 737
36.49048 710
36.51059 673
36.53071 656
36.55082 671
36.57094 642
36.59105 662
36.61116 611
36.63128 592
36.65139 561
36.6715 535
36.69162 544
36.71173 563
36.73184 557
36.75196 551
36.77207 528
36.79219 512
36.8123 574
36.83241 516
36.85253 555
36.87264 562
36.89275 517
36.91287 527
36.93298 507
36.9531 508
36.97321 559
36.99332 550
37.01344 551
37.03355 546
37.05366 549
37.07378 557
37.09389 522
37.11401 540
37.13412 531
37.15423 507
37.17435 528
37.19446 507
37.21457 515
37.23469 484
37.2548 504
37.27491 470
37.29503 538
37.31514 520
37.33526 495
37.35537 486
37.37548 502
37.3956 486
37.41571 521
37.43582 501
37.45594 482
37.47605 471
37.49617 505
37.51628 511
37.53639 469
37.55651 476
37.57662 518
37.59673 491
37.61685 484
37.63696 498
37.65708 476
37.67719 483
37.6973 457
37.71742 494
37.73753 469
37.75764 432
37.77776 483
37.79787 452
37.81798 512
37.8381 449
37.85821 470
37.87833 492
37.89844 446
37.91855 450
37.93867 454
37.95878 448
37.97889 424
37.99901 418
38.01912 436
38.03924 455
38.05935 424
38.07946 478
38.09958 449
38.11969 392
38.1398 441
38.15992 440
38.18003 414
38.20015 445
38.22026 414
38.24037 446
38.26049 405
38.2806 411
38.30071 433
38.32083 461
38.34094 426
38.36105 447
38.38117 413
38.40128 423
38.4214 397
38.44151 425
38.46162 435
38.48174 421
38.50185 428
38.52196 423
38.54208 407
38.56219 420
38.58231 433
38.60242 428
38.62253 461
38.64265 419
38.66276 412
38.68287 410
38.70299 433
38.7231 422
38.74321 395
38.76333 396
38.78344 417
38.80356 431
38.82367 402
38.84378 392
38.8639 387
38.88401 375
38.90412 424
38.92424 400
38.94435 390
38.96447 444
38.98458 428
39.00469 445
39.02481 438
39.04492 427
39.06503 367
39.08515 406
39.10526 456
39.12538 408
39.14549 437
39.1656 468
39.18572 511
39.20583 458
39.22594 459
39.24606 479
39.26617 517
39.28628 563
39.3064 569
39.32651 600
39.34663 622
39.36674 704
39.38685 675
39.40697 631
39.42708 595
39.44719 622
39.46731 579
39.48742 536
39.50754 554
39.52765 554
39.54776 479
39.56788 484
39.58799 462
39.6081 454
39.62822 487
39.64833 445
39.66845 467
39.68856 451
39.70867 451
39.72879 476
39.7489 420
39.76901 433
39.78913 452
39.80924 431
39.82935 439
39.84947 432
39.86958 423
39.8897 427
39.90981 440
39.92992 428
39.95004 438
39.97015 459
39.99026 444
40.01038 495
40.03049 441
40.05061 442
40.07072 444
40.09083 474
40.11095 472
40.13106 510
40.15117 506
40.17129 452
40.1914 510
40.21152 514
40.23163 519
40.25174 523
40.27186 494
40.29197 468
40.31208 454
40.3322 448
40.35231 505
40.37242 434
40.39254 457
40.41265 470
40.43277 407
40.45288 452
40.47299 474
40.49311 452
40.51322 489
40.53333 461
40.55345 457
40.57356 445
40.59368 413
40.61379 446
40.6339 448
40.65402 443
40.67413 419
40.69424 471
40.71436 451
40.73447 415
40.75458 413
40.7747 424
40.79481 430
40.81493 437
40.83504 400
40.85515 411
40.87527 399
40.89538 448
40.91549 406
40.93561 429
40.95572 411
40.97584 423
40.99595 438
41.01606 416
41.03618 407
41.05629 418
41.0764 389
41.09652 440
41.11663 432
41.13675 435
41.15686 385
41.17697 424
41.19709 409
41.2172 429
41.23731 400
41.25743 417
41.27754 423
41.29765 388
41.31777 417
41.33788 450
41.358 414
41.37811 423
41.39822 401
41.41834 411
41.43845 427
41.45856 424
41.47868 374
41.49879 386
41.51891 378
41.53902 430
41.55913 451
41.57925 416
41.59936 396
41.61947 443
41.63959 408
41.6597 426
41.67982 436
41.69993 436
41.72004 474
41.74016 456
41.76027 412
41.78038 417
41.8005 411
41.82061 432
41.84072 436
41.86084 432
41.88095 404
41.90107 378
41.92118 390
41.94129 411
41.96141 402
41.98152 393
42.00163 394
42.02175 419
42.04186 407
42.06198 389
42.08209 419
42.1022 374
42.12232 416
42.14243 413
42.16254 405
42.18266 397
42.20277 426
42.22289 426
42.243 421
42.26311 458
42.28323 521
42.30334 474
42.32345 475
42.34357 550
42.36368 526
42.38379 521
42.40391 544
42.42402 489
42.44414 479
42.46425 455
42.48436 454
42.50448 424
42.52459 459
42.5447 423
42.56482 407
42.58493 427
42.60505 387
42.62516 384
42.64527 427
42.66539 416
42.6855 398
42.70561 427
42.72573 426
42.74584 421
42.76595 377
42.78607 422
42.80618 402
42.8263 422
42.84641 429
42.86652 409
42.88664 400
42.90675 401
42.92686 379
42.94698 436
42.96709 433
42.98721 477
43.00732 413
43.02743 438
43.04755 443
43.06766 453
43.08777 470
43.10789 447
43.128 505
43.14812 479
43.16823 468
43.18834 510
43.20846 527
43.22857 506
43.24868 454
43.2688 443
43.28891 461
43.30902 488
43.32914 449
43.34925 478
43.36937 446
43.38948 495
43.40959 433
43.42971 460
43.44982 412
43.46993 453
43.49005 414
43.51016 419
43.53028 425
43.55039 397
43.5705 420
43.59062 383
43.61073 373
43.63084 437
43.65096 389
43.67107 400
43.69119 397
43.7113 366
43.73141 366
43.75153 388
43.77164 371
43.79175 398
43.81187 348
43.83198 382
43.85209 365
43.87221 363
43.89232 364
43.91244 384
43.93255 379
43.95266 381
43.97278 356
43.99289 403
44.013 397
44.03312 406
44.05323 373
44.07335 394
44.09346 382
44.11357 382
44.13369 381
44.1538 365
44.17391 383
44.19403 400
44.21414 378
44.23426 378
44.25437 378
44.27448 376
44.2946 371
44.31471 383
44.33482 383
44.35494 385
44.37505 399
44.39516 330
44.41528 383
44.43539 368
44.45551 355
44.47562 357
44.49573 325
44.51585 374
44.53596 392
44.55607 415
44.57619 378
44.5963 374
44.61642 339
44.63653 350
44.65664 387
44.67676 392
44.69687 362
44.71698 374
44.7371 359
44.75721 383
44.77732 361
44.79744 376
44.81755 363
44.83767 347
44.85778 399
44.87789 376
44.89801 350
44.91812 397
44.93823 404
44.95835 383
44.97846 375
44.99858 392
45.01869 377
45.0388 384
45.05892 390
45.07903 357
45.09914 433
45.11926 374
45.13937 364
45.15949 387
45.1796 362
45.19971 376
45.21983 391
45.23994 387
45.26005 362
45.28017 390
45.30028 336
45.32039 349
45.34051 376
45.36062 381
45.38074 387
45.40085 390
45.42096 372
45.44108 359
45.46119 359
45.4813 385
45.50142 365
45.52153 404
45.54165 397
45.56176 405
45.58187 369
45.60199 432
45.6221 434
45.64221 441
45.66233 468
45.68244 429
45.70256 455
45.72267 367
45.74278 431
45.7629 456
45.78301 417
45.80312 435
45.82324 408
45.84335 389
45.86346 380
45.88358 382
45.90369 395
45.92381 326
45.94392 358
45.96403 343
45.98415 371
46.00426 379
46.02437 353
46.04449 321
46.0646 345
46.08472 348
46.10483 327
46.12494 338
46.14506 322
46.16517 327
46.18528 373
46.2054 340
46.22551 345
46.24563 360
46.26574 371
46.28585 328
46.30597 378
46.32608 338
46.34619 367
46.36631 356
46.38642 334
46.40653 340
46.42665 358
46.44676 299
46.46688 348
46.48699 347
46.5071 336
46.52722 339
46.54733 363
46.56744 333
46.58756 357
46.60767 351
46.62779 335
46.6479 339
46.66801 316
46.68813 355
46.70824 338
46.72835 341
46.74847 363
46.76858 333
46.78869 350
46.80881 334
46.82892 359
46.84904 365
46.86915 353
46.88926 355
46.90938 315
46.92949 362
46.9496 353
46.96972 389
46.98983 390
47.00995 342
47.03006 358
47.05017 370
47.07029 391
47.0904 358
47.11051 389
47.13063 378
47.15074 381
47.17086 372
47.19097 339
47.21108 400
47.2312 398
47.25131 365
47.27142 408
47.29154 381
47.31165 405
47.33176 382
47.35188 392
47.37199 438
47.39211 397
47.41222 410
47.43233 426
47.45245 438
47.47256 448
47.49267 479
47.51279 419
47.5329 406
47.55302 419
47.57313 368
47.59324 367
47.61336 438
47.63347 432
47.65358 420
47.6737 380
47.69381 399
47.71393 381
47.73404 413
47.75415 423
47.77427 388
47.79438 366
47.81449 364
47.83461 396
47.85472 373
47.87483 370
47.89495 388
47.91506 370
47.93518 369
47.95529 329
47.9754 377
47.99552 364
48.01563 337
48.03574 369
48.05586 376
48.07597 402
48.09609 386
48.1162 396
48.13631 380
48.15643 352
48.17654 366
48.19665 401
48.21677 361
48.23688 366
48.257 399
48.27711 389
48.29722 382
48.31734 425
48.33745 394
48.35756 391
48.37768 431
48.39779 406
48.4179 428
48.43802 413
48.45813 439
48.47825 441
48.49836 376
48.51847 399
48.53859 412
48.5587 403
48.57881 389
48.59893 376
48.61904 398
48.63916 384
48.65927 375
48.67938 370
48.6995 365
48.71961 360
48.73972 344
48.75984 350
48.77995 350
48.80006 358
48.82018 367
48.84029 330
48.86041 347
48.88052 341
48.90063 343
48.92075 369
48.94086 368
48.96097 338
48.98109 344
49.0012 366
49.02132 364
49.04143 340
49.06154 380
49.08166 345
49.10177 359
49.12188 358
49.142 343
49.16211 327
49.18223 362
49.20234 359
49.22245 351
49.24257 350
49.26268 329
49.28279 350
49.30291 352
49.32302 356
49.34313 323
49.36325 355
49.38336 338
49.40348 359
49.42359 320
49.4437 373
49.46382 393
49.48393 367
49.50404 368
49.52416 345
49.54427 321
49.56439 368
49.5845 381
49.60461 404
49.62473 387
49.64484 338
49.66495 355
49.68507 380
49.70518 376
49.7253 429
49.74541 411
49.76552 392
49.78564 424
49.80575 412
49.82586 393
49.84598 425
49.86609 411
49.8862 444
49.90632 425
49.92643 492
49.94655 494
49.96666 484
49.98677 601
50.00689 584
50.027 637
50.04711 654
50.06723 598
50.08734 651
50.10746 597
50.12757 547
50.14768 553
50.1678 502
50.18791 480
50.20802 487
50.22814 485
50.24825 459
50.26837 412
50.28848 403
50.30859 347
50.32871 405
50.34882 368
50.36893 381
50.38905 352
50.40916 360
50.42927 356
50.44939 362
50.4695 388
50.48962 387
50.50973 342
50.52984 421
50.54996 379
50.57007 375
50.59018 390
50.6103 384
50.63041 354
50.65053 381
50.67064 377
50.69075 367
50.71087 351
50.73098 356
50.75109 376
50.77121 337
50.79132 360
50.81143 351
50.83155 357
50.85166 361
50.87178 331
50.89189 326
50.912 312
50.93212 339
50.95223 327
50.97234 339
50.99246 331
51.01257 349
51.03269 358
51.0528 372
51.07291 343
51.09303 350
51.11314 335
51.13325 339
51.15337 353
51.17348 380
51.1936 355
51.21371 333
51.23382 377
51.25394 359
51.27405 385
51.29416 366
51.31428 340
51.33439 347
51.3545 353
51.37462 348
51.39473 340
51.41485 328
51.43496 334
51.45507 328
51.47519 304
51.4953 325
51.51541 319
51.53553 322
51.55564 320
51.57576 337
51.59587 331
51.61598 304
51.6361 289
51.65621 337
51.67632 297
51.69644 278
51.71655 309
51.73667 338
51.75678 274
51.77689 320
51.79701 272
51.81712 271
51.83723 329
51.85735 314
51.87746 335
51.89757 324
51.91769 322
51.9378 304
51.95792 334
51.97803 328
51.99814 308
52.01826 293
52.03837 310
52.05848 296
52.0786 354
52.09871 317
52.11883 307
52.13894 368
52.15905 306
52.17917 328
52.19928 339
52.21939 312
52.23951 298
52.25962 319
52.27974 309
52.29985 341
52.31996 293
52.34008 314
52.36019 344
52.3803 325
52.40042 320
52.42053 307
52.44064 304
52.46076 357
52.48087 274
52.50099 353
52.5211 313
52.54121 317
52.56133 350
52.58144 351
52.60155 307
52.62167 310
52.64178 369
52.6619 336
52.68201 332
52.70212 341
52.72224 349
52.74235 372
52.76246 364
52.78258 319
52.80269 332
52.8228 322
52.84292 318
52.86303 337
52.88315 345
52.90326 345
52.92337 344
52.94349 360
52.9636 313
52.98371 344
53.00383 337
53.02394 322
53.04406 359
53.06417 369
53.08428 380
53.1044 391
53.12451 376
53.14462 365
53.16474 360
53.18485 360
53.20497 395
53.22508 358
53.24519 352
53.26531 376
53.28542 392
53.30553 363
53.32565 358
53.34576 400
53.36587 404
53.38599 383
53.4061 381
53.42622 382
53.44633 408
53.46644 364
53.48656 359
53.50667 404
53.52678 419
53.5469 412
53.56701 397
53.58713 389
53.60724 394
53.62735 464
53.64747 450
53.66758 415
53.68769 426
53.70781 412
53.72792 425
53.74804 402
53.76815 434
53.78826 415
53.80838 412
53.82849 433
53.8486 392
53.86872 439
53.88883 425
53.90894 408
53.92906 458
53.94917 440
53.96929 439
53.9894 416
54.00951 429
54.02963 423
54.04974 418
54.06985 404
54.08997 384
54.11008 432
54.1302 418
54.15031 393
54.17042 433
54.19054 422
54.21065 429
54.23076 409
54.25088 402
54.27099 362
54.29111 403
54.31122 416
54.33133 401
54.35145 413
54.37156 443
54.39167 409
54.41179 409
54.4319 402
54.45201 423
54.47213 427
54.49224 406
54.51236 415
54.53247 449
54.55258 418
54.5727 409
54.59281 404
54.61292 406
54.63304 419
54.65315 434
54.67327 442
54.69338 453
54.71349 416
54.73361 485
54.75372 457
54.77383 438
54.79395 504
54.81406 458
54.83417 445
54.85429 465
54.8744 470
54.89452 458
54.91463 451
54.93474 423
54.95486 464
54.97497 416
54.99508 419
55.0152 439
55.03531 411
55.05543 408
55.07554 425
55.09565 414
55.11577 403
55.13588 391
55.15599 422
55.17611 404
55.19622 426
55.21634 454
55.23645 409
55.25656 446
55.27668 421
55.29679 392
55.3169 396
55.33702 403
55.35713 409
55.37724 431
55.39736 385
55.41747 423
55.43759 380
55.4577 394
55.47781 377
55.49793 386
55.51804 392
55.53815 392
55.55827 399
55.57838 390
55.5985 378
55.61861 363
55.63872 375
55.65884 392
55.67895 404
55.69906 385
55.71918 349
55.73929 369
55.75941 364
55.77952 356
55.79963 401
55.81975 358
55.83986 373
55.85997 384
55.88009 358
55.9002 382
55.92031 377
55.94043 347
55.96054 369
55.98066 375
56.00077 382
56.02088 378
56.041 340
56.06111 344
56.08122 357
56.10134 373
56.12145 414
56.14157 359
56.16168 341
56.18179 351
56.20191 347
56.22202 354
56.24213 365
56.26225 376
56.28236 363
56.30248 355
56.32259 364
56.3427 351
56.36282 378
56.38293 367
56.40304 376
56.42316 370
56.44327 345
56.46338 375
56.4835 386
56.50361 414
56.52373 383
56.54384 402
56.56395 387
56.58407 374
56.60418 393
56.62429 381
56.64441 393
56.66452 385
56.68464 391
56.70475 372
56.72486 372
56.74498 362
56.76509 387
56.7852 369
56.80532 370
56.82543 349
56.84554 353
56.86566 391
56.88577 364
56.90589 365
56.926 365
56.94611 401
56.96623 348
56.98634 346
57.00645 363
57.02657 359
57.04668 360
57.0668 368
57.08691 366
57.10702 355
57.12714 367
57.14725 384
57.16736 372
57.18748 363
57.20759 375
57.22771 411
57.24782 354
57.26793 407
57.28805 366
57.30816 373
57.32827 383
57.34839 338
57.3685 381
57.38861 385
57.40873 348
57.42884 358
57.44896 376
57.46907 369
57.48918 383
57.5093 342
57.52941 374
57.54952 329
57.56964 357
57.58975 346
57.60987 392
57.62998 340
57.65009 343
57.67021 336
57.69032 376
57.71043 365
57.73055 358
57.75066 320
57.77078 354
57.79089 349
57.811 365
57.83112 323
57.85123 355
57.87134 352
57.89146 354
57.91157 343
57.93168 337
57.9518 350
57.97191 345
57.99203 357
58.01214 326
58.03225 346
58.05237 373
58.07248 352
58.09259 366
58.11271 366
58.13282 355
58.15294 330
58.17305 326
58.19316 363
58.21328 322
58.23339 350
58.2535 339
58.27362 343
58.29373 355
58.31385 335
58.33396 364
58.35407 367
58.37419 340
58.3943 356
58.41441 325
58.43453 328
58.45464 370
58.47475 357
58.49487 408
58.51498 382
58.5351 323
58.55521 333
58.57532 349
58.59544 336
58.61555 340
58.63566 327
58.65578 337
58.67589 331
58.69601 333
58.71612 340
58.73623 361
58.75635 345
58.77646 342
58.79657 351
58.81669 367
58.8368 345
58.85691 336
58.87703 350
58.89714 324
58.91726 334
58.93737 386
58.95748 337
58.9776 352
58.99771 350
59.01782 315
59.03794 333
59.05805 319
59.07817 342
59.09828 340
59.11839 336
59.13851 331
59.15862 341
59.17873 344
59.19885 343
59.21896 319
59.23908 346
59.25919 304
59.2793 329
59.29942 336
59.31953 321
59.33964 316
59.35976 343
59.37987 348
59.39998 349
59.4201 333
59.44021 334
59.46033 347
59.48044 334
59.50055 354
59.52067 350
59.54078 370
59.56089 340
59.58101 384
59.60112 352
59.62124 372
59.64135 397
59.66146 396
59.68158 391
59.70169 388
59.7218 390
59.74192 474
59.76203 439
59.78215 469
59.80226 499
59.82237 541
59.84249 463
59.8626 493
59.88271 513
59.90283 490
59.92294 445
59.94305 457
59.96317 461
59.98328 456
60.0034 437
60.02351 440
60.04362 467
60.06374 416
60.08385 404
60.10396 433
60.12408 408
60.14419 386
60.16431 373
60.18442 379
60.20453 360
60.22465 373
60.24476 346
60.26487 367
60.28499 408
60.3051 371
60.32522 368
60.34533 338
60.36544 383
60.38556 346
60.40567 350
60.42578 327
60.4459 386
60.46601 388
60.48612 367
60.50624 338
60.52635 340
60.54647 360
60.56658 380
60.58669 388
60.60681 389
60.62692 349
60.64703 408
60.66715 373
60.68726 386
60.70738 430
60.72749 388
60.7476 364
60.76772 370
60.78783 346
60.80794 394
60.82806 411
60.84817 394
60.86828 383
60.8884 397
60.90851 419
60.92863 380
60.94874 376
60.96885 399
60.98897 397
61.00908 410
61.02919 382
61.04931 422
61.06942 362
61.08954 425
61.10965 427
61.12976 446
61.14988 419
61.16999 442
61.1901 428
61.21022 457
61.23033 452
61.25045 475
61.27056 459
61.29067 468
61.31079 488
61.3309 486
61.35101 465
61.37113 467
61.39124 509
61.41135 512
61.43147 470
61.45158 486
61.4717 538
61.49181 486
61.51192 499
61.53204 527
61.55215 492
61.57226 466
61.59238 524
61.61249 533
61.63261 492
61.65272 508
61.67283 500
61.69295 500
61.71306 497
61.73317 488
61.75329 527
61.7734 452
61.79352 458
61.81363 483
61.83374 487
61.85386 480
61.87397 427
61.89408 463
61.9142 478
61.93431 421
61.95442 453
61.97454 457
61.99465 466
62.01477 467
62.03488 449
62.05499 474
62.07511 422
62.09522 455
62.11533 460
62.13545 424
62.15556 423
62.17568 411
62.19579 400
62.2159 421
62.23602 367
62.25613 400
62.27624 388
62.29636 410
62.31647 377
62.33659 377
62.3567 398
62.37681 417
62.39693 427
62.41704 385
62.43715 403
62.45727 431
62.47738 374
62.49749 384
62.51761 410
62.53772 374
62.55784 376
62.57795 383
62.59806 365
62.61818 362
62.63829 365
62.6584 401
62.67852 359
62.69863 384
62.71875 352
62.73886 360
62.75897 371
62.77909 338
62.7992 367
62.81931 369
62.83943 346
62.85954 376
62.87965 358
62.89977 346
62.91988 360
62.94 343
62.96011 336
62.98022 371
63.00034 333
63.02045 346
63.04056 350
63.06068 330
63.08079 330
63.10091 347
63.12102 332
63.14113 339
63.16125 317
63.18136 333
63.20147 334
63.22159 335
63.2417 336
63.26182 323
63.28193 331
63.30204 326
63.32216 326
63.34227 347
63.36238 304
63.3825 361
63.40261 328
63.42272 319
63.44284 328
63.46295 348
63.48307 346
63.50318 295
63.52329 325
63.54341 323
63.56352 345
63.58363 340
63.60375 358
63.62386 346
63.64398 350
63.66409 344
63.6842 340
63.70432 351
63.72443 349
63.74454 309
63.76466 355
63.78477 353
63.80489 378
63.825 356
63.84511 393
63.86523 393
63.88534 399
63.90545 355
63.92557 365
63.94568 409
63.96579 356
63.98591 392
64.00602 348
64.02614 346
64.04625 359
64.06636 373
64.08648 365
64.10659 333
64.1267 346
64.14682 368
64.16693 348
64.18705 331
64.20716 377
64.22727 364
64.24739 324
64.2675 332
64.28761 342
64.30773 328
64.32784 337
64.34796 332
64.36807 304
64.38818 318
64.4083 333
64.42841 313
64.44852 318
64.46864 361
64.48875 342
64.50886 332
64.52898 344
64.54909 326
64.56921 316
64.58932 350
64.60943 347
64.62955 330
64.64966 315
64.66977 354
64.68989 340
64.71 350
64.73012 347
64.75023 369
64.77034 338
64.79046 332
64.81057 322
64.83068 328
64.8508 351
64.87091 317
64.89102 341
64.91114 364
64.93125 302
64.95137 319
64.97148 317
64.99159 342
65.01171 351
65.03182 324
65.05193 326
65.07205 355
65.09216 323
65.11228 317
65.13239 311
65.1525 332
65.17262 324
65.19273 332
65.21284 356
65.23296 318
65.25307 344
65.27319 281
65.2933 338
65.31341 338
65.33353 333
65.35364 348
65.37375 345
65.39387 316
65.41398 359
65.43409 314
65.45421 315
65.47432 318
65.49444 344
65.51455 327
65.53466 290
65.55478 304
65.57489 319
65.595 322
65.61512 302
65.63523 310
65.65535 330
65.67546 309
65.69557 315
65.71569 337
65.7358 285
65.75591 322
65.77603 323
65.79614 307
65.81626 299
65.83637 287
65.85648 293
65.8766 332
65.89671 317
65.91682 303
65.93694 288
65.95705 301
65.97716 319
65.99728 283
66.01739 274
66.03751 300
66.05762 320
66.07773 302
66.09785 300
66.11796 327
66.13807 326
66.15819 307
66.1783 300
66.19842 306
66.21853 302
66.23864 294
66.25876 322
66.27887 267
66.29898 311
66.3191 315
66.33921 293
66.35933 277
66.37944 281
66.39955 302
66.41967 319
66.43978 318
66.45989 327
66.48001 315
66.50012 320
66.52023 309
66.54035 316
66.56046 300
66.58058 324
66.60069 336
66.6208 304
66.64092 306
66.66103 340
66.68114 316
66.70126 314
66.72137 305
66.74149 294
66.7616 309
66.78171 301
66.80183 284
66.82194 322
66.84205 338
66.86217 293
66.88228 295
66.90239 347
66.92251 284
66.94262 295
66.96274 298
66.98285 303
67.00296 291
67.02308 327
67.04319 312
67.0633 277
67.08342 287
67.10353 305
67.12365 318
67.14376 328
67.16387 326
67.18399 343
67.2041 318
67.22421 301
67.24433 304
67.26444 310
67.28456 301
67.30467 284
67.32478 328
67.3449 325
67.36501 340
67.38512 336
67.40524 313
67.42535 334
67.44546 332
67.46558 357
67.48569 369
67.50581 351
67.52592 373
67.54603 414
67.56615 404
67.58626 368
67.60637 417
67.62649 452
67.6466 454
67.66672 411
67.68683 419
67.70694 402
67.72706 400
67.74717 373
67.76728 355
67.7874 405
67.80751 377
67.82763 390
67.84774 373
67.86785 374
67.88797 385
67.90808 367
67.92819 421
67.94831 419
67.96842 440
67.98853 421
68.00865 478
68.02876 503
68.04888 474
68.06899 468
68.0891 473
68.10922 459
68.12933 451
68.14944 456
68.16956 436
68.18967 432
68.20979 444
68.2299 428
68.25001 424
68.27013 424
68.29024 447
68.31035 383
68.33047 402
68.35058 387
68.3707 398
68.39081 354
68.41092 354
68.43104 348
68.45115 343
68.47126 331
68.49138 333
68.51149 337
68.5316 327
68.55172 331
68.57183 317
68.59195 343
68.61206 298
68.63217 323
68.65229 332
68.6724 318
68.69251 326
68.71263 330
68.73274 329
68.75286 339
68.77297 303
68.79308 311
68.8132 306
68.83331 316
68.85342 318
68.87354 292
68.89365 314
68.91376 300
68.93388 297
68.95399 313
68.97411 325
68.99422 315
69.01433 295
69.03445 358
69.05456 313
69.07467 321
69.09479 319
69.1149 326
69.13502 317
69.15513 302
69.17524 342
69.19536 306
69.21547 319
69.23558 312
69.2557 294
69.27581 279
69.29593 323
69.31604 347
69.33615 338
69.35627 309
69.37638 315
69.39649 308
69.41661 334
69.43672 331
69.45683 308
69.47695 341
69.49706 325
69.51718 332
69.53729 304
69.5574 319
69.57752 281
69.59763 299
69.61774 297
69.63786 291
69.65797 347
69.67809 326
69.6982 329
69.71831 314
69.73843 293
69.75854 322
69.77865 315
69.79877 302
69.81888 334
69.839 282
69.85911 337
69.87922 311
69.89934 333
69.91945 328
69.93956 319
69.95968 323
69.97979 293
69.9999 340
70.02002 311
70.04013 308
70.06025 314
70.08036 336
70.10047 312
70.12059 312
70.1407 314
70.16081 318
70.18093 320
70.20104 310
70.22116 302
70.24127 318
70.26138 339
70.2815 307
70.30161 298
70.32172 312
70.34184 297
70.36195 290
70.38207 320
70.40218 314
70.42229 321
70.44241 329
70.46252 326
70.48263 339
70.50275 292
70.52286 287
70.54297 295
70.56309 302
70.5832 312
70.60332 295
70.62343 274
70.64354 332
70.66366 291
70.68377 339
70.70388 317
70.724 317
70.74411 305
70.76423 300
70.78434 308
70.80445 302
70.82457 313
70.84468 291
70.86479 301
70.88491 296
70.90502 305
70.92513 346
70.94525 272
70.96536 305
70.98548 308
71.00559 332
71.0257 311
71.04582 350
71.06593 332
71.08604 326
71.10616 354
71.12627 272
71.14639 312
71.1665 320
71.18661 323
71.20673 308
71.22684 331
71.24695 311
71.26707 314
71.28718 326
71.3073 324
71.32741 309
71.34752 321
71.36764 317
71.38775 323
71.40786 297
71.42798 321
71.44809 307
71.4682 329
71.48832 294
71.50843 360
71.52855 315
71.54866 320
71.56877 312
71.58889 304
71.609 328
71.62911 319
71.64923 321
71.66934 288
71.68946 328
71.70957 358
71.72968 322
71.7498 325
71.76991 324
71.79002 308
71.81014 306
71.83025 324
71.85037 321
71.87048 306
71.89059 348
71.91071 325
71.93082 291
71.95093 326
71.97105 367
71.99116 343
72.01127 326
72.03139 297
72.0515 345
72.07162 343
72.09173 330
72.11184 358
72.13196 354
72.15207 341
72.17218 329
72.1923 311
72.21241 353
72.23253 326
72.25264 310
72.27275 340
72.29287 337
72.31298 361
72.33309 360
72.35321 318
72.37332 339
72.39344 360
72.41355 338
72.43366 363
72.45378 374
72.47389 364
72.494 368
72.51412 347
72.53423 337
72.55434 367
72.57446 374
72.59457 364
72.61469 331
72.6348 352
72.65491 357
72.67503 325
72.69514 377
72.71525 346
72.73537 367
72.75548 354
72.7756 347
72.79571 346
72.81582 373
72.83594 364
72.85605 344
72.87616 358
72.89628 357
72.91639 358
72.9365 364
72.95662 366
72.97673 363
72.99685 382
73.01696 364
73.03707 361
73.05719 329
73.0773 340
73.09741 367
73.11753 385
73.13764 358
73.15776 352
73.17787 338
73.19798 354
73.2181 362
73.23821 403
73.25832 386
73.27844 407
73.29855 345
73.31867 370
73.33878 357
73.35889 367
73.37901 378
73.39912 396
73.41923 355
73.43935 367
73.45946 361
73.47957 356
73.49969 386
73.5198 362
73.53992 357
73.56003 333
73.58014 356
73.60026 317
73.62037 355
73.64048 375
73.6606 317
73.68071 310
73.70083 323
73.72094 347
73.74105 320
73.76117 346
73.78128 341
73.80139 336
73.82151 316
73.84162 330
73.86174 329
73.88185 343
73.90196 323
73.92208 326
73.94219 340
73.9623 341
73.98242 295
74.00253 351
74.02264 358
74.04276 307
74.06287 321
74.08299 316
74.1031 320
74.12321 352
74.14333 305
74.16344 330
74.18355 339
74.20367 325
74.22378 329
74.2439 332
74.26401 308
74.28412 349
74.30424 340
74.32435 325
74.34446 322
74.36458 316
74.38469 304
74.40481 331
74.42492 317
74.44503 303
74.46515 345
74.48526 338
74.50537 314
74.52549 330
74.5456 311
74.56571 313
74.58583 303
74.60594 304
74.62606 334
74.64617 318
74.66628 310
74.6864 315
74.70651 274
74.72662 302
74.74674 349
74.76685 297
74.78697 335
74.80708 334
74.82719 282
74.84731 327
74.86742 331
74.88753 331
74.90765 298
74.92776 292
74.94787 331
74.96799 302
74.9881 329
75.00822 305
