3.00117 22054
3.02128 21596
3.0414 20689
3.06151 20163
3.08162 19983
3.10174 19091
3.12185 18908
3.14197 18309
3.16208 17505
3.18219 17214
3.20231 16687
3.22242 16163
3.24253 15681
3.26265 15167
3.28276 14725
3.30288 14126
3.32299 13622
3.3431 13360
3.36322 13111
3.38333 12689
3.40344 12193
3.42356 11661
3.44367 11289
3.46379 10995
3.4839 10666
3.50401 10207
3.52413 9925
3.54424 9398
3.56435 8999
3.58447 8824
3.60458 8397
3.62469 8169
3.64481 7858
3.66492 7412
3.68504 7468
3.70515 6945
3.72526 6788
3.74538 6510
3.76549 6134
3.7856 6102
3.80572 5645
3.82583 5461
3.84595 5199
3.86606 5067
3.88617 4854
3.90629 4646
3.9264 4400
3.94651 4133
3.96663 3830
3.98674 3897
4.00686 3779
4.02697 3476
4.04708 3277
4.0672 3165
4.08731 3065
4.10742 2901
4.12754 2668
4.14765 2569
4.16776 2446
4.18788 2469
4.20799 2332
4.22811 2178
4.24822 2129
4.26833 1869
4.28845 1989
4.30856 1963
4.32867 1810
4.34879 1766
4.3689 1614
4.38902 1630
4.40913 1693
4.42924 1437
4.44936 1462
4.46947 1376
4.48958 1441
4.5097 1363
4.52981 1283
4.54992 1241
4.57004 1171
4.59015 1213
4.61027 1299
4.63038 1225
4.65049 1113
4.67061 1129
4.69072 1054
4.71083 1118
4.73095 945
4.75106 1007
4.77118 966
4.79129 1011
4.8114 932
4.83152 848
4.85163 942
4.87174 808
4.89186 805
4.91197 911
4.93209 727
4.9522 755
4.97231 815
4.99243 709
5.01254 799
5.03265 667
5.05277 699
5.07288 682
5.09299 674
5.11311 657
5.13322 593
5.15334 570
5.17345 608
5.19356 556
5.21368 600
5.23379 559
5.2539 529
5.27402 525
5.29413 495
5.31425 525
5.33436 474
5.35447 462
5.37459 468
5.3947 453
5.41481 489
5.43493 405
5.45504 427
5.47516 414
5.49527 435
5.51538 408
5.5355 408
5.55561 366
5.57572 388
5.59584 348
5.61595 370
5.63606 336
5.65618 348
5.67629 359
5.69641 328
5.71652 309
5.73663 345
5.75675 299
5.77686 313
5.79697 291
5.81709 265
5.8372 340
5.85732 319
5.87743 296
5.89754 281
5.91766 267
5.93777 281
5.95788 272
5.978 276
5.99811 273
6.01823 267
6.03834 252
6.05845 256
6.07857 245
6.09868 249
6.11879 236
6.13891 250
6.15902 261
6.17913 230
6.19925 259
6.21936 227
6.23948 236
6.25959 239
6.2797 260
6.29982 250
6.31993 226
6.34004 225
6.36016 232
6.38027 219
6.40039 238
6.4205 256
6.44061 221
6.46073 231
6.48084 216
6.50095 216
6.52107 243
6.54118 195
6.56129 226
6.58141 214
6.60152 245
6.62164 229
6.64175 228
6.66186 211
6.68198 199
6.70209 200
6.7222 210
6.74232 184
6.76243 201
6.78255 224
6.80266 177
6.82277 236
6.84289 202
6.863 216
6.88311 217
6.90323 217
6.92334 213
6.94346 224
6.96357 210
6.98368 205
7.0038 193
7.02391 199
7.04402 192
7.06414 237
7.08425 216
7.10436 251
7.12448 218
7.14459 235
7.16471 207
7.18482 210
7.20493 177
7.22505 238
7.24516 212
7.26527 212
7.28539 209
7.3055 220
7.32562 242
7.34573 206
7.36584 208
7.38596 223
7.40607 213
7.42618 224
7.4463 212
7.46641 239
7.48653 216
7.50664 209
7.52675 206
7.54687 228
7.56698 197
7.58709 201
7.60721 247
7.62732 215
7.64743 221
7.66755 214
7.68766 188
7.70778 199
7.72789 233
7.748 220
7.76812 233
7.78823 211
7.80834 197
7.82846 192
7.84857 215
7.86869 223
7.8888 228
7.90891 203
7.92903 248
7.94914 216
7.96925 231
7.98937 228
8.00948 222
8.0296 193
8.04971 252
8.06982 229
8.08994 205
8.11005 187
8.13016 225
8.15028 220
8.17039 251
8.1905 223
8.21062 230
8.23073 220
8.25085 262
8.27096 230
8.29107 236
8.31119 254
8.3313 220
8.35141 239
8.37153 233
8.39164 226
8.41176 209
8.43187 221
8.45198 236
8.4721 221
8.49221 272
8.51232 249
8.53244 261
8.55255 245
8.57266 220
8.59278 218
8.61289 247
8.63301 256
8.65312 247
8.67323 254
8.69335 230
8.71346 204
8.73357 240
8.75369 234
8.7738 265
8.79392 266
8.81403 233
8.83414 247
8.85426 251
8.87437 220
8.89448 222
8.9146 246
8.93471 216
8.95483 270
8.97494 243
8.99505 233
9.01517 237
9.03528 244
9.05539 246
9.07551 218
9.09562 261
9.11573 257
9.13585 223
9.15596 264
9.17608 252
9.19619 240
9.2163 246
9.23642 287
9.25653 232
9.27664 237
9.29676 247
9.31687 204
9.33699 213
9.3571 258
9.37721 238
9.39733 231
9.41744 241
9.43755 234
9.45767 255
9.47778 247
9.4979 239
9.51801 243
9.53812 271
9.55824 245
9.57835 237
9.59846 246
9.61858 252
9.63869 245
9.6588 230
9.67892 222
9.69903 217
9.71915 240
9.73926 260
9.75937 240
9.77949 245
9.7996 254
9.81971 227
9.83983 260
9.85994 256
9.88006 223
9.90017 220
9.92028 265
9.9404 244
9.96051 248
9.98062 258
10.00074 249
10.02085 241
10.04097 252
10.06108 246
10.08119 280
10.10131 248
10.12142 233
10.14153 243
10.16165 228
10.18176 250
10.20187 220
10.22199 241
10.2421 220
10.26222 228
10.28233 231
10.30244 243
10.32256 237
10.34267 240
10.36278 250
10.3829 238
10.40301 260
10.42313 236
10.44324 268
10.46335 267
10.48347 238
10.50358 252
10.52369 289
10.54381 244
10.56392 222
10.58403 233
10.60415 241
10.62426 246
10.64438 249
10.66449 232
10.6846 224
10.70472 261
10.72483 269
10.74494 249
10.76506 262
10.78517 207
10.80529 234
10.8254 235
10.84551 252
10.86563 264
10.88574 207
10.90585 273
10.92597 230
10.94608 222
10.9662 237
10.98631 283
11.00642 225
11.02654 236
11.04665 227
11.06676 220
11.08688 241
11.10699 236
11.1271 241
11.14722 261
11.16733 241
11.18745 228
11.20756 267
11.22767 251
11.24779 242
11.2679 225
11.28801 242
11.30813 226
11.32824 245
11.34836 229
11.36847 292
11.38858 272
11.4087 241
11.42881 233
11.44892 207
11.46904 228
11.48915 235
11.50927 241
11.52938 263
11.54949 249
11.56961 273
11.58972 259
11.60983 260
11.62995 246
11.65006 237
11.67017 228
11.69029 248
11.7104 257
11.73052 252
11.75063 279
11.77074 268
11.79086 271
11.81097 280
11.83108 250
11.8512 248
11.87131 280
11.89143 266
11.91154 268
11.93165 272
11.95177 261
11.97188 275
11.99199 274
12.01211 282
12.03222 302
12.05234 296
12.07245 312
12.09256 307
12.11268 325
12.13279 335
12.1529 342
12.17302 317
12.19313 344
12.21324 369
12.23336 362
12.25347 392
12.27359 391
12.2937 363
12.31381 406
12.33393 392
12.35404 391
12.37415 362
12.39427 375
12.41438 425
12.4345 360
12.45461 311
12.47472 335
12.49484 305
12.51495 321
12.53506 292
12.55518 319
12.57529 307
12.5954 306
12.61552 270
12.63563 285
12.65575 264
12.67586 269
12.69597 267
12.71609 257
12.7362 260
12.75631 255
12.77643 274
12.79654 264
12.81666 221
12.83677 229
12.85688 247
12.877 246
12.89711 236
12.91722 227
12.93734 227
12.95745 246
12.97757 234
12.99768 224
13.01779 239
13.03791 248
13.05802 227
13.07813 226
13.09825 239
13.11836 219
13.13847 242
13.15859 235
13.1787 249
13.19882 228
13.21893 212
13.23904 217
13.25916 217
13.27927 213
13.29938 232
13.3195 227
13.33961 202
13.35973 226
13.37984 228
13.39995 204
13.42007 224
13.44018 239
13.46029 213
13.48041 218
13.50052 213
13.52064 246
13.54075 191
13.56086 221
13.58098 193
13.60109 207
13.6212 203
13.64132 204
13.66143 202
13.68154 209
13.70166 218
13.72177 193
13.74189 183
13.762 206
13.78211 221
13.80223 212
13.82234 210
13.84245 207
13.86257 205
13.88268 227
13.9028 239
13.92291 213
13.94302 231
13.96314 197
13.98325 216
14.00336 210
14.02348 215
14.04359 201
14.06371 224
14.08382 207
14.10393 210
14.12405 230
14.14416 198
14.16427 203
14.18439 215
14.2045 196
14.22461 234
14.24473 217
14.26484 203
14.28496 208
14.30507 187
14.32518 190
14.3453 201
14.36541 199
14.38552 212
14.40564 224
14.42575 201
14.44587 190
14.46598 200
14.48609 185
14.50621 224
14.52632 212
14.54643 204
14.56655 197
14.58666 205
14.60677 227
14.62689 189
14.647 189
14.66712 227
14.68723 221
14.70734 196
14.72746 190
14.74757 207
14.76768 215
14.7878 206
14.80791 186
14.82803 215
14.84814 202
14.86825 214
14.88837 198
14.90848 196
14.92859 194
14.94871 203
14.96882 200
14.98894 175
15.00905 208
15.02916 194
15.04928 209
15.06939 212
15.0895 193
15.10962 198
15.12973 185
15.14984 186
15.16996 171
15.19007 216
15.21019 224
15.2303 180
15.25041 210
15.27053 180
15.29064 207
15.31075 224
15.33087 182
15.35098 214
15.3711 200
15.39121 228
15.41132 203
15.43144 200
15.45155 198
15.47166 169
15.49178 217
15.51189 165
15.53201 169
15.55212 217
15.57223 173
15.59235 187
15.61246 168
15.63257 191
15.65269 192
15.6728 222
15.69291 193
15.71303 210
15.73314 204
15.75326 216
15.77337 200
15.79348 194
15.8136 188
15.83371 195
15.85382 181
15.87394 178
15.89405 194
15.91417 207
15.93428 206
15.95439 205
15.97451 185
15.99462 184
16.01473 209
16.03485 202
16.05496 151
16.07508 205
16.09519 211
16.1153 196
16.13542 217
16.15553 189
16.17564 175
16.19576 176
16.21587 179
16.23598 175
16.2561 192
16.27621 206
16.29633 190
16.31644 179
16.33655 203
16.35667 208
16.37678 192
16.39689 178
16.41701 176
16.43712 168
16.45724 178
16.47735 170
16.49746 218
16.51758 173
16.53769 171
16.5578 204
16.57792 194
16.59803 184
16.61814 183
16.63826 195
16.65837 190
16.67849 166
16.6986 174
16.71871 183
16.73883 181
16.75894 198
16.77905 200
16.79917 192
16.81928 181
16.8394 183
16.85951 197
16.87962 216
16.89974 212
16.91985 180
16.93996 183
16.96008 179
16.98019 185
17.00031 174
17.02042 201
17.04053 229
17.06065 203
17.08076 208
17.10087 198
17.12099 212
17.1411 210
17.16121 190
17.18133 204
17.20144 174
17.22156 206
17.24167 171
17.26178 202
17.2819 171
17.30201 187
17.32212 178
17.34224 202
17.36235 193
17.38247 176
17.40258 174
17.42269 199
17.44281 169
17.46292 181
17.48303 173
17.50315 184
17.52326 181
17.54338 181
17.56349 189
17.5836 191
17.60372 226
17.62383 201
17.64394 177
17.66406 203
17.68417 190
17.70428 178
17.7244 181
17.74451 209
17.76463 172
17.78474 223
17.80485 199
17.82497 185
17.84508 192
17.86519 153
17.88531 184
17.90542 195
17.92554 192
17.94565 161
17.96576 171
17.98588 158
18.00599 185
18.0261 184
18.04622 169
18.06633 203
18.08645 186
18.10656 190
18.12667 184
18.14679 209
18.1669 235
18.18701 195
18.20713 210
18.22724 199
18.24735 221
18.26747 199
18.28758 233
18.3077 238
18.32781 221
18.34792 236
18.36804 240
18.38815 215
18.40826 237
18.42838 222
18.44849 202
18.46861 232
18.48872 205
18.50883 180
18.52895 187
18.54906 199
18.56917 178
18.58929 199
18.6094 184
18.62951 197
18.64963 209
18.66974 219
18.68986 177
18.70997 174
18.73008 199
18.7502 203
18.77031 195
18.79042 233
18.81054 223
18.83065 217
18.85077 229
18.87088 192
18.89099 198
18.91111 206
18.93122 186
18.95133 174
18.97145 233
18.99156 189
19.01168 204
19.03179 202
19.0519 192
19.07202 207
19.09213 197
19.11224 171
19.13236 216
19.15247 195
19.17258 186
19.1927 170
19.21281 212
19.23293 155
19.25304 195
19.27315 167
19.29327 198
19.31338 195
19.33349 216
19.35361 180
19.37372 196
19.39384 204
19.41395 194
19.43406 207
19.45418 187
19.47429 194
19.4944 184
19.51452 206
19.53463 183
19.55475 201
19.57486 201
19.59497 210
19.61509 209
19.6352 201
19.65531 247
19.67543 206
19.69554 253
19.71565 214
19.73577 231
19.75588 246
19.776 278
19.79611 248
19.81622 262
19.83634 285
19.85645 295
19.87656 305
19.89668 318
19.91679 340
19.93691 331
19.95702 318
19.97713 306
19.99725 322
20.01736 280
20.03747 304
20.05759 317
20.0777 315
20.09782 332
20.11793 352
20.13804 341
20.15816 351
20.17827 381
20.19838 323
20.2185 371
20.23861 385
20.25872 352
20.27884 332
20.29895 339
20.31907 345
20.33918 368
20.35929 371
20.37941 337
20.39952 420
20.41963 393
20.43975 364
20.45986 394
20.47998 383
20.50009 415
20.5202 420
20.54032 389
20.56043 427
20.58054 474
20.60066 487
20.62077 486
20.64088 545
20.661 532
20.68111 599
20.70123 792
20.72134 995
20.74145 1373
20.76157 2112
20.78168 3058
20.80179 4812
20.82191 6716
20.84202 8914
20.86214 10502
20.88225 10050
20.90236 8197
20.92248 5889
20.94259 3946
20.9627 2122
20.98282 1225
21.00293 757
21.02305 629
21.04316 552
21.06327 479
21.08339 510
21.1035 446
21.12361 451
21.14373 443
21.16384 424
21.18395 420
21.20407 371
21.22418 354
21.2443 373
21.26441 354
21.28452 347
21.30464 313
21.32475 315
21.34486 325
21.36498 331
21.38509 336
21.40521 330
21.42532 327
21.44543 299
21.46555 331
21.48566 280
21.50577 337
21.52589 347
21.546 314
21.56612 322
21.58623 313
21.60634 311
21.62646 276
21.64657 307
21.66668 298
21.6868 300
21.70691 297
21.72702 304
21.74714 267
21.76725 257
21.78737 250
21.80748 276
21.82759 264
21.84771 265
21.86782 267
21.88793 270
21.90805 280
21.92816 291
21.94828 261
21.96839 259
21.9885 248
22.00862 284
22.02873 259
22.04884 263
22.06896 266
22.08907 269
22.10919 259
22.1293 276
22.14941 263
22.16953 219
22.18964 268
22.20975 270
22.22987 275
22.24998 265
22.27009 259
22.29021 260
22.31032 250
22.33044 248
22.35055 245
22.37066 259
22.39078 224
22.41089 266
22.431 235
22.45112 248
22.47123 267
22.49135 251
22.51146 217
22.53157 248
22.55169 242
22.5718 227
22.59191 242
22.61203 252
22.63214 258
22.65225 247
22.67237 238
22.69248 219
22.7126 232
22.73271 230
22.75282 253
22.77294 243
22.79305 222
22.81316 220
22.83328 243
22.85339 236
22.87351 213
22.89362 230
22.91373 239
22.93385 232
22.95396 231
22.97407 221
22.99419 214
23.0143 233
23.03442 231
23.05453 232
23.07464 242
23.09476 229
23.11487 228
23.13498 235
23.1551 231
23.17521 236
23.19532 242
23.21544 238
23.23555 232
23.25567 255
23.27578 219
23.29589 220
23.31601 222
23.33612 213
23.35623 235
23.37635 221
23.39646 221
23.41658 227
23.43669 252
23.4568 234
23.47692 220
23.49703 223
23.51714 205
23.53726 243
23.55737 228
23.57749 241
23.5976 228
23.61771 212
23.63783 239
23.65794 229
23.67805 260
23.69817 225
23.71828 236
23.73839 218
23.75851 218
23.77862 252
23.79874 229
23.81885 235
23.83896 220
23.85908 225
23.87919 253
23.8993 232
23.91942 265
23.93953 268
23.95965 283
23.97976 331
23.99987 340
24.01999 319
24.0401 310
24.06021 338
24.08033 283
24.10044 245
24.12056 255
24.14067 255
24.16078 223
24.1809 259
24.20101 219
24.22112 236
24.24124 237
24.26135 291
24.28146 247
24.30158 257
24.32169 219
24.34181 248
24.36192 244
24.38203 254
24.40215 256
24.42226 254
24.44237 258
24.46249 234
24.4826 245
24.50272 260
24.52283 214
24.54294 252
24.56306 258
24.58317 276
24.60328 283
24.6234 284
24.64351 274
24.66362 261
24.68374 324
24.70385 280
24.72397 316
24.74408 297
24.76419 303
24.78431 316
24.80442 321
24.82453 331
24.84465 314
24.86476 335
24.88488 358
24.90499 333
24.9251 338
24.94522 329
24.96533 322
24.98544 308
25.00556 322
25.02567 282
25.04579 268
25.0659 298
25.08601 281
25.10613 300
25.12624 263
25.14635 267
25.16647 306
25.18658 244
25.20669 248
25.22681 282
25.24692 269
25.26704 261
25.28715 284
25.30726 279
25.32738 275
25.34749 277
25.3676 245
25.38772 275
25.40783 266
25.42795 247
25.44806 268
25.46817 244
25.48829 241
25.5084 289
25.52851 234
25.54863 256
25.56874 239
25.58886 253
25.60897 243
25.62908 295
25.6492 305
25.66931 293
25.68942 326
25.70954 367
25.72965 380
25.74976 427
25.76988 376
25.78999 429
25.81011 442
25.83022 450
25.85033 443
25.87045 446
25.89056 439
25.91067 451
25.93079 413
25.9509 457
25.97102 457
25.99113 467
26.01124 487
26.03136 524
26.05147 499
26.07158 483
26.0917 541
26.11181 527
26.13193 594
26.15204 616
26.17215 643
26.19227 718
26.21238 743
26.23249 765
26.25261 818
26.27272 890
26.29283 1024
26.31295 1074
26.33306 1063
26.35318 1176
26.37329 1251
26.3934 1393
26.41352 1630
26.43363 1928
26.45374 2621
26.47386 3323
26.49397 4415
26.51409 6399
26.5342 9460
26.55431 13967
26.57443 20739
26.59454 30027
26.61465 39394
26.63477 46500
26.65488 45155
26.67499 36514
26.69511 28138
26.71522 22239
26.73534 15110
26.75545 8083
26.77556 4020
26.79568 2413
26.81579 1938
26.8359 1609
26.85602 1512
26.87613 1316
26.89625 1181
26.91636 1094
26.93647 1040
26.95659 942
26.9767 895
26.99681 772
27.01693 679
27.03704 594
27.05716 555
27.07727 547
27.09738 492
27.1175 540
27.13761 463
27.15772 426
27.17784 457
27.19795 418
27.21806 442
27.23818 425
27.25829 392
27.27841 417
27.29852 379
27.31863 389
27.33875 405
27.35886 364
27.37897 348
27.39909 373
27.4192 380
27.43932 373
27.45943 368
27.47954 402
27.49966 358
27.51977 363
27.53988 346
27.56 334
27.58011 340
27.60023 328
27.62034 321
27.64045 319
27.66057 341
27.68068 329
27.70079 303
27.72091 320
27.74102 318
27.76113 316
27.78125 293
27.80136 287
27.82148 319
27.84159 301
27.8617 310
27.88182 309
27.90193 310
27.92204 298
27.94216 291
27.96227 310
27.98239 298
28.0025 319
28.02261 280
28.04273 279
28.06284 300
28.08295 265
28.10307 296
28.12318 271
28.1433 298
28.16341 296
28.18352 245
28.20364 242
28.22375 281
28.24386 274
28.26398 268
28.28409 281
28.3042 300
28.32432 282
28.34443 298
28.36455 305
28.38466 277
28.40477 294
28.42489 292
28.445 300
28.46511 299
28.48523 268
28.50534 247
28.52546 274
28.54557 274
28.56568 229
28.5858 256
28.60591 265
28.62602 275
28.64614 258
28.66625 270
28.68636 274
28.70648 255
28.72659 239
28.74671 263
28.76682 255
28.78693 275
28.80705 238
28.82716 260
28.84727 252
28.86739 249
28.8875 253
28.90762 270
28.92773 255
28.94784 247
28.96796 247
28.98807 252
29.00818 260
29.0283 255
29.04841 251
29.06853 252
29.08864 251
29.10875 233
29.12887 243
29.14898 220
29.16909 277
29.18921 254
29.20932 241
29.22943 230
29.24955 225
29.26966 248
29.28978 249
29.30989 256
29.33 240
29.35012 245
29.37023 264
29.39034 232
29.41046 247
29.43057 234
29.45069 244
29.4708 243
29.49091 243
29.51103 249
29.53114 215
29.55125 259
29.57137 216
29.59148 245
29.6116 249
29.63171 240
29.65182 245
29.67194 198
29.69205 227
29.71216 229
29.73228 242
29.75239 222
29.7725 213
29.79262 219
29.81273 219
29.83285 218
29.85296 202
29.87307 219
29.89319 206
29.9133 215
29.93341 251
29.95353 229
29.97364 224
29.99376 205
30.01387 203
30.03398 204
30.0541 242
30.07421 216
30.09432 231
30.11444 207
30.13455 215
30.15467 235
30.17478 216
30.19489 218
30.21501 217
30.23512 231
30.25523 242
30.27535 223
30.29546 243
30.31557 204
30.33569 234
30.3558 214
30.37592 231
30.39603 209
30.41614 228
30.43626 230
30.45637 198
30.47648 195
30.4966 197
30.51671 214
30.53683 202
30.55694 212
30.57705 188
30.59717 198
30.61728 203
30.63739 204
30.65751 203
30.67762 209
30.69773 204
30.71785 186
30.73796 194
30.75808 208
30.77819 197
30.7983 200
30.81842 202
30.83853 207
30.85864 194
30.87876 203
30.89887 234
30.91899 225
30.9391 189
30.95921 217
30.97933 200
30.99944 222
31.01955 188
31.03967 201
31.05978 202
31.0799 193
31.10001 228
31.12012 196
31.14024 199
31.16035 201
31.18046 198
31.20058 212
31.22069 215
31.2408 195
31.26092 201
31.28103 229
31.30115 196
31.32126 199
31.34137 176
31.36149 187
31.3816 182
31.40171 224
31.42183 230
31.44194 192
31.46206 208
31.48217 172
31.50228 185
31.5224 219
31.54251 190
31.56262 189
31.58274 183
31.60285 185
31.62297 189
31.64308 181
31.66319 207
31.68331 203
31.70342 206
31.72353 205
31.74365 174
31.76376 183
31.78387 186
31.80399 178
31.8241 172
31.84422 183
31.86433 208
31.88444 167
31.90456 198
31.92467 187
31.94478 201
31.9649 205
31.98501 200
32.00513 216
32.02524 186
32.04535 173
32.06547 188
32.08558 199
32.10569 192
32.12581 212
32.14592 190
32.16604 206
32.18615 212
32.20626 182
32.22638 202
32.24649 189
32.2666 210
32.28672 198
32.30683 164
32.32694 187
32.34706 178
32.36717 206
32.38729 198
32.4074 167
32.42751 194
32.44763 194
32.46774 175
32.48785 199
32.50797 169
32.52808 172
32.5482 191
32.56831 189
32.58842 216
32.60854 177
32.62865 200
32.64876 205
32.66888 206
32.68899 175
32.7091 180
32.72922 193
32.74933 194
32.76945 202
32.78956 214
32.80967 219
32.82979 251
32.8499 179
32.87001 210
32.89013 207
32.91024 180
32.93036 193
32.95047 210
32.97058 189
32.9907 186
33.01081 211
33.03092 208
33.05104 223
33.07115 205
33.09127 211
33.11138 236
33.13149 231
33.15161 218
33.17172 213
33.19183 233
33.21195 220
33.23206 218
33.25217 219
33.27229 221
33.2924 221
33.31252 206
33.33263 217
33.35274 202
33.37286 213
33.39297 188
33.41308 193
33.4332 190
33.45331 200
33.47343 177
33.49354 181
33.51365 187
33.53377 182
33.55388 185
33.57399 203
33.59411 198
33.61422 182
33.63434 168
33.65445 186
33.67456 183
33.69468 195
33.71479 181
33.7349 149
33.75502 232
33.77513 178
33.79524 175
33.81536 190
33.83547 177
33.85559 202
33.8757 179
33.89581 201
33.91593 189
33.93604 182
33.95615 186
33.97627 195
33.99638 175
34.0165 184
34.03661 176
34.05672 189
34.07684 182
34.09695 191
34.11706 165
34.13718 174
34.15729 181
34.17741 167
34.19752 167
34.21763 166
34.23775 141
34.25786 143
34.27797 163
34.29809 171
34.3182 189
34.33831 181
34.35843 174
34.37854 170
34.39866 156
34.41877 162
34.43888 171
34.459 171
34.47911 175
34.49922 166
34.51934 170
34.53945 199
34.55957 173
34.57968 171
34.59979 189
34.61991 174
34.64002 197
34.66013 180
34.68025 192
34.70036 180
34.72047 216
34.74059 194
34.7607 181
34.78082 184
34.80093 206
34.82104 210
34.84116 201
34.86127 200
34.88138 198
34.9015 228
34.92161 235
34.94173 230
34.96184 228
34.98195 207
35.00207 217
35.02218 235
35.04229 232
35.06241 220
35.08252 193
35.10264 210
35.12275 223
35.14286 215
35.16298 207
35.18309 197
35.2032 196
35.22332 231
35.24343 211
35.26354 213
35.28366 196
35.30377 180
35.32389 241
35.344 223
35.36411 222
35.38423 227
35.40434 215
35.42445 214
35.44457 202
35.46468 251
35.4848 220
35.50491 255
35.52502 228
35.54514 270
35.56525 236
35.58536 249
35.60548 284
35.62559 247
35.64571 268
35.66582 256
35.68593 261
35.70605 273
35.72616 267
35.74627 275
35.76639 253
35.7865 230
35.80661 235
35.82673 269
35.84684 279
35.86696 243
35.88707 239
35.90718 257
35.9273 257
35.94741 274
35.96752 272
35.98764 252
36.00775 223
36.02787 226
36.04798 296
36.06809 262
36.08821 245
36.10832 249
36.12843 240
36.14855 239
36.16866 237
36.18878 280
36.20889 268
36.229 274
36.24912 296
36.26923 313
36.28934 298
36.30946 342
36.32957 422
36.34968 415
36.3698 500
36.38991 586
36.41003 739
36.43014 981
36.45025 1286
36.47037 1601
36.49048 2194
36.51059 2866
36.53071 3175
36.55082 3141
36.57094 2432
36.59105 1928
36.61116 1766
36.63128 1644
36.65139 1411
36.6715 904
36.69162 562
36.71173 418
36.73184 337
36.75196 305
36.77207 289
36.79219 269
36.8123 270
36.83241 264
36.85253 270
36.87264 220
36.89275 249
36.91287 226
36.93298 262
36.9531 232
36.97321 195
36.99332 221
37.01344 230
37.03355 210
37.05366 235
37.07378 195
37.09389 228
37.11401 198
37.13412 209
37.15423 230
37.17435 220
37.19446 240
37.21457 191
37.23469 229
37.2548 243
37.27491 231
37.29503 198
37.31514 192
37.33526 227
37.35537 214
37.37548 213
37.3956 207
37.41571 188
37.43582 252
37.45594 211
37.47605 220
37.49617 229
37.51628 224
37.53639 222
37.55651 206
37.57662 205
37.59673 229
37.61685 195
37.63696 216
37.65708 222
37.67719 205
37.6973 203
37.71742 222
37.73753 215
37.75764 210
37.77776 229
37.79787 170
37.81798 224
37.8381 219
37.85821 201
37.87833 182
37.89844 226
37.91855 189
37.93867 193
37.95878 199
37.97889 202
37.99901 198
38.01912 212
38.03924 223
38.05935 195
38.07946 224
38.09958 243
38.11969 208
38.1398 229
38.15992 231
38.18003 204
38.20015 200
38.22026 223
38.24037 217
38.26049 209
38.2806 221
38.30071 229
38.32083 225
38.34094 240
38.36105 236
38.38117 227
38.40128 231
38.4214 234
38.44151 234
38.46162 253
38.48174 250
38.50185 238
38.52196 243
38.54208 221
38.56219 224
38.58231 229
38.60242 253
38.62253 220
38.64265 241
38.66276 208
38.68287 230
38.70299 234
38.7231 231
38.74321 242
38.76333 186
38.78344 223
38.80356 253
38.82367 214
38.84378 211
38.8639 228
38.88401 256
38.90412 214
38.92424 231
38.94435 220
38.96447 226
38.98458 200
39.00469 214
39.02481 243
39.04492 225
39.06503 239
39.08515 248
39.10526 263
39.12538 275
39.14549 285
39.1656 270
39.18572 272
39.20583 315
39.22594 330
39.24606 377
39.26617 412
39.28628 467
39.3064 561
39.32651 669
39.34663 826
39.36674 1167
39.38685 1527
39.40697 1947
39.42708 2386
39.44719 2782
39.46731 2848
39.48742 2323
39.50754 1694
39.52765 1479
39.54776 1444
39.56788 1327
39.58799 1114
39.6081 690
39.62822 450
39.64833 401
39.66845 317
39.68856 246
39.70867 245
39.72879 276
39.7489 233
39.76901 247
39.78913 235
39.80924 208
39.82935 236
39.84947 240
39.86958 215
39.8897 246
39.90981 228
39.92992 243
39.95004 238
39.97015 236
39.99026 229
40.01038 241
40.03049 255
40.05061 244
40.07072 297
40.09083 311
40.11095 336
40.13106 367
40.15117 459
40.17129 582
40.1914 709
40.21152 821
40.23163 1083
40.25174 1295
40.27186 1546
40.29197 1459
40.31208 1196
40.3322 934
40.35231 834
40.37242 907
40.39254 856
40.41265 667
40.43277 469
40.45288 342
40.47299 276
40.49311 274
40.51322 236
40.53333 228
40.55345 224
40.57356 223
40.59368 219
40.61379 205
40.6339 220
40.65402 206
40.67413 194
40.69424 207
40.71436 198
40.73447 201
40.75458 189
40.7747 211
40.79481 202
40.81493 221
40.83504 193
40.85515 201
40.87527 223
40.89538 208
40.91549 218
40.93561 210
40.95572 193
40.97584 190
40.99595 191
41.01606 193
41.03618 222
41.05629 205
41.0764 195
41.09652 194
41.11663 188
41.13675 217
41.15686 217
41.17697 207
41.19709 195
41.2172 181
41.23731 216
41.25743 197
41.27754 218
41.29765 201
41.31777 184
41.33788 173
41.358 213
41.37811 166
41.39822 199
41.41834 185
41.43845 168
41.45856 184
41.47868 184
41.49879 186
41.51891 178
41.53902 200
41.55913 178
41.57925 183
41.59936 193
41.61947 190
41.63959 178
41.6597 175
41.67982 181
41.69993 159
41.72004 178
41.74016 197
41.76027 185
41.78038 196
41.8005 202
41.82061 188
41.84072 184
41.86084 207
41.88095 194
41.90107 213
41.92118 188
41.94129 206
41.96141 184
41.98152 205
42.00163 197
42.02175 201
42.04186 194
42.06198 200
42.08209 219
42.1022 220
42.12232 224
42.14243 237
42.16254 270
42.18266 296
42.20277 290
42.22289 296
42.243 298
42.26311 388
42.28323 434
42.30334 548
42.32345 663
42.34357 891
42.36368 1081
42.38379 1358
42.40391 1737
42.42402 2049
42.44414 2142
42.46425 1952
42.48436 1512
42.50448 1191
42.52459 1095
42.5447 1179
42.56482 1073
42.58493 828
42.60505 479
42.62516 348
42.64527 306
42.66539 225
42.6855 250
42.70561 218
42.72573 211
42.74584 207
42.76595 201
42.78607 202
42.80618 183
42.8263 189
42.84641 182
42.86652 204
42.88664 201
42.90675 169
42.92686 187
42.94698 191
42.96709 165
42.98721 177
43.00732 192
43.02743 168
43.04755 141
43.06766 175
43.08777 174
43.10789 205
43.128 162
43.14812 183
43.16823 192
43.18834 190
43.20846 172
43.22857 181
43.24868 157
43.2688 166
43.28891 172
43.30902 175
43.32914 165
43.34925 167
43.36937 179
43.38948 173
43.40959 176
43.42971 155
43.44982 174
43.46993 166
43.49005 141
43.51016 179
43.53028 173
43.55039 158
43.5705 161
43.59062 190
43.61073 152
43.63084 190
43.65096 156
43.67107 168
43.69119 152
43.7113 162
43.73141 183
43.75153 168
43.77164 163
43.79175 179
43.81187 170
43.83198 158
43.85209 179
43.87221 182
43.89232 165
43.91244 180
43.93255 162
43.95266 168
43.97278 157
43.99289 161
44.013 180
44.03312 185
44.05323 158
44.07335 171
44.09346 167
44.11357 147
44.13369 145
44.1538 173
44.17391 186
44.19403 187
44.21414 162
44.23426 175
44.25437 183
44.27448 177
44.2946 194
44.31471 149
44.33482 185
44.35494 172
44.37505 156
44.39516 167
44.41528 169
44.43539 151
44.45551 168
44.47562 177
44.49573 167
44.51585 172
44.53596 196
44.55607 180
44.57619 159
44.5963 148
44.61642 185
44.63653 157
44.65664 165
44.67676 162
44.69687 169
44.71698 175
44.7371 170
44.75721 157
44.77732 165
44.79744 159
44.81755 157
44.83767 189
44.85778 143
44.87789 152
44.89801 173
44.91812 165
44.93823 194
44.95835 170
44.97846 163
44.99858 203
45.01869 190
45.0388 175
45.05892 184
45.07903 176
45.09914 184
45.11926 158
45.13937 171
45.15949 174
45.1796 171
45.19971 173
45.21983 177
45.23994 179
45.26005 163
45.28017 170
45.30028 168
45.32039 187
45.34051 178
45.36062 191
45.38074 213
45.40085 201
45.42096 192
45.44108 189
45.46119 198
45.4813 202
45.50142 198
45.52153 214
45.54165 267
45.56176 256
45.58187 283
45.60199 305
45.6221 343
45.64221 419
45.66233 516
45.68244 611
45.70256 751
45.72267 916
45.74278 1102
45.7629 1321
45.78301 1377
45.80312 1280
45.82324 1043
45.84335 766
45.86346 702
45.88358 744
45.90369 765
45.92381 714
45.94392 538
45.96403 343
45.98415 263
46.00426 226
46.02437 220
46.04449 212
46.0646 177
46.08472 200
46.10483 203
46.12494 184
46.14506 185
46.16517 184
46.18528 199
46.2054 157
46.22551 178
46.24563 188
46.26574 179
46.28585 164
46.30597 195
46.32608 167
46.34619 166
46.36631 182
46.38642 165
46.40653 181
46.42665 177
46.44676 177
46.46688 159
46.48699 168
46.5071 165
46.52722 149
46.54733 183
46.56744 156
46.58756 179
46.60767 182
46.62779 170
46.6479 172
46.66801 158
46.68813 160
46.70824 175
46.72835 149
46.74847 178
46.76858 165
46.78869 174
46.80881 175
46.82892 163
46.84904 164
46.86915 185
46.88926 169
46.90938 170
46.92949 162
46.9496 164
46.96972 158
46.98983 148
47.00995 161
47.03006 163
47.05017 159
47.07029 148
47.0904 171
47.11051 161
47.13063 182
47.15074 177
47.17086 147
47.19097 147
47.21108 149
47.2312 150
47.25131 154
47.27142 161
47.29154 148
47.31165 149
47.33176 188
47.35188 164
47.37199 160
47.39211 164
47.41222 146
47.43233 167
47.45245 166
47.47256 146
47.49267 153
47.51279 154
47.5329 160
47.55302 123
47.57313 153
47.59324 160
47.61336 180
47.63347 150
47.65358 152
47.6737 147
47.69381 163
47.71393 173
47.73404 150
47.75415 145
47.77427 153
47.79438 162
47.81449 173
47.83461 167
47.85472 162
47.87483 156
47.89495 184
47.91506 174
47.93518 138
47.95529 155
47.9754 163
47.99552 180
48.01563 148
48.03574 156
48.05586 171
48.07597 172
48.09609 145
48.1162 155
48.13631 166
48.15643 161
48.17654 181
48.19665 144
48.21677 157
48.23688 167
48.257 183
48.27711 164
48.29722 167
48.31734 156
48.33745 173
48.35756 167
48.37768 188
48.39779 165
48.4179 161
48.43802 155
48.45813 157
48.47825 188
48.49836 159
48.51847 162
48.53859 167
48.5587 164
48.57881 173
48.59893 146
48.61904 166
48.63916 168
48.65927 173
48.67938 172
48.6995 171
48.71961 160
48.73972 168
48.75984 197
48.77995 193
48.80006 156
48.82018 161
48.84029 172
48.86041 197
48.88052 161
48.90063 173
48.92075 184
48.94086 190
48.96097 163
48.98109 178
49.0012 175
49.02132 172
49.04143 196
49.06154 162
49.08166 151
49.10177 163
49.12188 174
49.142 177
49.16211 180
49.18223 177
49.20234 176
49.22245 177
49.24257 160
49.26268 167
49.28279 189
49.30291 211
49.32302 169
49.34313 181
49.36325 193
49.38336 190
49.40348 205
49.42359 173
49.4437 226
49.46382 208
49.48393 219
49.50404 215
49.52416 202
49.54427 202
49.56439 184
49.5845 196
49.60461 221
49.62473 223
49.64484 218
49.66495 238
49.68507 226
49.70518 245
49.7253 245
49.74541 291
49.76552 262
49.78564 302
49.80575 360
49.82586 356
49.84598 399
49.86609 428
49.8862 490
49.90632 537
49.92643 620
49.94655 729
49.96666 901
49.98677 1168
50.00689 1457
50.027 1913
50.04711 2383
50.06723 3019
50.08734 3758
50.10746 4509
50.12757 4759
50.14768 4347
50.1678 3272
50.18791 2429
50.20802 2139
50.22814 2166
50.24825 2313
50.26837 2333
50.28848 1857
50.30859 1165
50.32871 732
50.34882 485
50.36893 375
50.38905 360
50.40916 307
50.42927 303
50.44939 297
50.4695 276
50.48962 264
50.50973 239
50.52984 260
50.54996 287
50.57007 278
50.59018 276
50.6103 270
50.63041 280
50.65053 270
50.67064 222
50.69075 244
50.71087 215
50.73098 257
50.75109 234
50.77121 240
50.79132 180
50.81143 182
50.83155 185
50.85166 162
50.87178 184
50.89189 167
50.912 187
50.93212 177
50.95223 173
50.97234 160
50.99246 151
51.01257 154
51.03269 161
51.0528 194
51.07291 163
51.09303 182
51.11314 171
51.13325 179
51.15337 176
51.17348 155
51.1936 193
51.21371 150
51.23382 174
51.25394 153
51.27405 154
51.29416 154
51.31428 146
51.33439 169
51.3545 162
51.37462 161
51.39473 159
51.41485 185
51.43496 151
51.45507 177
51.47519 161
51.4953 158
51.51541 146
51.53553 166
51.55564 155
51.57576 153
51.59587 169
51.61598 135
51.6361 142
51.65621 151
51.67632 148
51.69644 143
51.71655 149
51.73667 166
51.75678 148
51.77689 158
51.79701 142
51.81712 146
51.83723 154
51.85735 157
51.87746 164
51.89757 176
51.91769 163
51.9378 155
51.95792 153
51.97803 144
51.99814 169
52.01826 149
52.03837 139
52.05848 183
52.0786 150
52.09871 146
52.11883 157
52.13894 167
52.15905 163
52.17917 192
52.19928 136
52.21939 154
52.23951 139
52.25962 177
52.27974 133
52.29985 168
52.31996 140
52.34008 134
52.36019 173
52.3803 142
52.40042 149
52.42053 179
52.44064 166
52.46076 161
52.48087 144
52.50099 151
52.5211 146
52.54121 158
52.56133 159
52.58144 163
52.60155 128
52.62167 151
52.64178 138
52.6619 144
52.68201 140
52.70212 146
52.72224 129
52.74235 143
52.76246 162
52.78258 180
52.80269 173
52.8228 160
52.84292 171
52.86303 159
52.88315 158
52.90326 154
52.92337 145
52.94349 153
52.9636 140
52.98371 149
53.00383 184
53.02394 143
53.04406 150
53.06417 161
53.08428 143
53.1044 142
53.12451 171
53.14462 151
53.16474 161
53.18485 149
53.20497 177
53.22508 183
53.24519 143
53.26531 178
53.28542 169
53.30553 148
53.32565 140
53.34576 160
53.36587 158
53.38599 192
53.4061 157
53.42622 163
53.44633 152
53.46644 178
53.48656 183
53.50667 185
53.52678 176
53.5469 181
53.56701 205
53.58713 181
53.60724 182
53.62735 160
53.64747 174
53.66758 155
53.68769 187
53.70781 177
53.72792 159
53.74804 176
53.76815 215
53.78826 201
53.80838 185
53.82849 184
53.8486 174
53.86872 155
53.88883 158
53.90894 204
53.92906 160
53.94917 193
53.96929 180
53.9894 175
54.00951 216
54.02963 188
54.04974 188
54.06985 198
54.08997 196
54.11008 198
54.1302 164
54.15031 212
54.17042 189
54.19054 209
54.21065 209
54.23076 195
54.25088 219
54.27099 221
54.29111 184
54.31122 188
54.33133 191
54.35145 201
54.37156 210
54.39167 223
54.41179 192
54.4319 202
54.45201 226
54.47213 208
54.49224 233
54.51236 196
54.53247 242
54.55258 231
54.5727 256
54.59281 238
54.61292 299
54.63304 284
54.65315 300
54.67327 384
54.69338 362
54.71349 438
54.73361 564
54.75372 593
54.77383 787
54.79395 913
54.81406 1163
54.83417 1283
54.85429 1444
54.8744 1369
54.89452 1114
54.91463 880
54.93474 661
54.95486 696
54.97497 799
54.99508 832
55.0152 797
55.03531 675
55.05543 484
55.07554 395
55.09565 353
55.11577 320
55.13588 293
55.15599 291
55.17611 347
55.19622 376
55.21634 400
55.23645 421
55.25656 507
55.27668 660
55.29679 722
55.3169 723
55.33702 624
55.35713 516
55.37724 433
55.39736 410
55.41747 390
55.43759 448
55.4577 443
55.47781 386
55.49793 324
55.51804 274
55.53815 227
55.55827 213
55.57838 215
55.5985 183
55.61861 185
55.63872 198
55.65884 186
55.67895 166
55.69906 185
55.71918 185
55.73929 175
55.75941 173
55.77952 185
55.79963 145
55.81975 191
55.83986 170
55.85997 166
55.88009 165
55.9002 189
55.92031 205
55.94043 176
55.96054 154
55.98066 161
56.00077 151
56.02088 145
56.041 189
56.06111 161
56.08122 148
56.10134 161
56.12145 174
56.14157 166
56.16168 168
56.18179 162
56.20191 160
56.22202 149
56.24213 153
56.26225 157
56.28236 141
56.30248 153
56.32259 165
56.3427 158
56.36282 189
56.38293 156
56.40304 178
56.42316 134
56.44327 158
56.46338 178
56.4835 175
56.50361 150
56.52373 171
56.54384 144
56.56395 152
56.58407 180
56.60418 168
56.62429 148
56.64441 160
56.66452 164
56.68464 180
56.70475 147
56.72486 166
56.74498 161
56.76509 157
56.7852 174
56.80532 165
56.82543 163
56.84554 147
56.86566 147
56.88577 139
56.90589 175
56.926 164
56.94611 160
56.96623 146
56.98634 160
57.00645 156
57.02657 162
57.04668 156
57.0668 168
57.08691 178
57.10702 182
57.12714 178
57.14725 200
57.16736 200
57.18748 215
57.20759 233
57.22771 230
57.24782 197
57.26793 211
57.28805 178
57.30816 171
57.32827 204
57.34839 158
57.3685 193
57.38861 169
57.40873 181
57.42884 178
57.44896 167
57.46907 164
57.48918 161
57.5093 129
57.52941 134
57.54952 168
57.56964 161
57.58975 133
57.60987 140
57.62998 163
57.65009 159
57.67021 153
57.69032 162
57.71043 153
57.73055 155
57.75066 163
57.77078 147
57.79089 142
57.811 163
57.83112 187
57.85123 150
57.87134 155
57.89146 173
57.91157 173
57.93168 152
57.9518 150
57.97191 158
57.99203 190
58.01214 140
58.03225 160
58.05237 149
58.07248 152
58.09259 152
58.11271 147
58.13282 152
58.15294 137
58.17305 166
58.19316 171
58.21328 169
58.23339 136
58.2535 150
58.27362 188
58.29373 159
58.31385 130
58.33396 146
58.35407 139
58.37419 160
58.3943 173
58.41441 155
58.43453 164
58.45464 157
58.47475 162
58.49487 156
58.51498 152
58.5351 164
58.55521 173
58.57532 143
58.59544 150
58.61555 178
58.63566 156
58.65578 162
58.67589 168
58.69601 130
58.71612 186
58.73623 153
58.75635 185
58.77646 167
58.79657 166
58.81669 144
58.8368 155
58.85691 165
58.87703 155
58.89714 154
58.91726 148
58.93737 157
58.95748 181
58.9776 169
58.99771 143
59.01782 175
59.03794 169
59.05805 163
59.07817 160
59.09828 170
59.11839 195
59.13851 158
59.15862 157
59.17873 162
59.19885 152
59.21896 151
59.23908 190
59.25919 165
59.2793 170
59.29942 158
59.31953 175
59.33964 185
59.35976 183
59.37987 182
59.39998 176
59.4201 188
59.44021 195
59.46033 178
59.48044 199
59.50055 231
59.52067 204
59.54078 219
59.56089 227
59.58101 255
59.60112 257
59.62124 276
59.64135 297
59.66146 344
59.68158 365
59.70169 412
59.7218 432
59.74192 491
59.76203 638
59.78215 753
59.80226 871
59.82237 1160
59.84249 1386
59.8626 1703
59.88271 2164
59.90283 2604
59.92294 2749
59.94305 3003
59.96317 2665
59.98328 2089
60.0034 1448
60.02351 1285
60.04362 1305
60.06374 1386
60.08385 1586
60.10396 1574
60.12408 1374
60.14419 1095
60.16431 695
60.18442 491
60.20453 376
60.22465 324
60.24476 280
60.26487 258
60.28499 227
60.3051 199
60.32522 213
60.34533 210
60.36544 215
60.38556 188
60.40567 198
60.42578 193
60.4459 188
60.46601 186
60.48612 188
60.50624 206
60.52635 162
60.54647 174
60.56658 164
60.58669 162
60.60681 166
60.62692 146
60.64703 163
60.66715 164
60.68726 162
60.70738 164
60.72749 155
60.7476 166
60.76772 159
60.78783 147
60.80794 159
60.82806 160
60.84817 152
60.86828 171
60.8884 158
60.90851 150
60.92863 163
60.94874 173
60.96885 143
60.98897 166
61.00908 155
61.02919 136
61.04931 143
61.06942 134
61.08954 171
61.10965 146
61.12976 178
61.14988 142
61.16999 160
61.1901 146
61.21022 146
61.23033 151
61.25045 157
61.27056 168
61.29067 152
61.31079 146
61.3309 164
61.35101 154
61.37113 141
61.39124 128
61.41135 161
61.43147 154
61.45158 136
61.4717 165
61.49181 155
61.51192 160
61.53204 149
61.55215 163
61.57226 159
61.59238 157
61.61249 148
61.63261 154
61.65272 159
61.67283 139
61.69295 134
61.71306 166
61.73317 173
61.75329 142
61.7734 155
61.79352 170
61.81363 162
61.83374 172
61.85386 148
61.87397 154
61.89408 161
61.9142 148
61.93431 181
61.95442 175
61.97454 144
61.99465 158
62.01477 164
62.03488 153
62.05499 171
62.07511 178
62.09522 183
62.11533 179
62.13545 191
62.15556 199
62.17568 200
62.19579 192
62.2159 218
62.23602 196
62.25613 191
62.27624 190
62.29636 206
62.31647 199
62.33659 226
62.3567 211
62.37681 200
62.39693 205
62.41704 186
62.43715 192
62.45727 196
62.47738 178
62.49749 180
62.51761 187
62.53772 171
62.55784 177
62.57795 183
62.59806 171
62.61818 161
62.63829 180
62.6584 175
62.67852 158
62.69863 175
62.71875 168
62.73886 171
62.75897 161
62.77909 173
62.7992 167
62.81931 180
62.83943 159
62.85954 163
62.87965 171
62.89977 161
62.91988 182
62.94 152
62.96011 137
62.98022 154
63.00034 162
63.02045 152
63.04056 163
63.06068 129
63.08079 148
63.10091 144
63.12102 150
63.14113 148
63.16125 155
63.18136 162
63.20147 153
63.22159 154
63.2417 152
63.26182 149
63.28193 148
63.30204 186
63.32216 155
63.34227 152
63.36238 161
63.3825 157
63.40261 140
63.42272 175
63.44284 158
63.46295 150
63.48307 161
63.50318 177
63.52329 163
63.54341 175
63.56352 182
63.58363 154
63.60375 184
63.62386 176
63.64398 176
63.66409 173
63.6842 168
63.70432 187
63.72443 172
63.74454 184
63.76466 198
63.78477 242
63.80489 210
63.825 215
63.84511 239
63.86523 276
63.88534 311
63.90545 346
63.92557 395
63.94568 459
63.96579 526
63.98591 611
64.00602 618
64.02614 580
64.04625 575
64.06636 479
64.08648 369
64.10659 347
64.1267 349
64.14682 365
64.16693 400
64.18705 419
64.20716 369
64.22727 344
64.24739 275
64.2675 216
64.28761 222
64.30773 209
64.32784 167
64.34796 159
64.36807 161
64.38818 163
64.4083 159
64.42841 170
64.44852 173
64.46864 145
64.48875 135
64.50886 141
64.52898 166
64.54909 149
64.56921 144
64.58932 163
64.60943 149
64.62955 157
64.64966 150
64.66977 164
64.68989 136
64.71 155
64.73012 154
64.75023 154
64.77034 132
64.79046 135
64.81057 142
64.83068 142
64.8508 150
64.87091 130
64.89102 146
64.91114 143
64.93125 144
64.95137 140
64.97148 158
64.99159 137
65.01171 139
65.03182 159
65.05193 166
65.07205 145
65.09216 174
65.11228 139
65.13239 168
65.1525 146
65.17262 156
65.19273 177
65.21284 141
65.23296 141
65.25307 158
65.27319 147
65.2933 168
65.31341 148
65.33353 160
65.35364 146
65.37375 190
65.39387 163
65.41398 163
65.43409 141
65.45421 141
65.47432 130
65.49444 175
65.51455 157
65.53466 167
65.55478 176
65.57489 171
65.595 180
65.61512 166
65.63523 195
65.65535 212
65.67546 200
65.69557 236
65.71569 237
65.7358 243
65.75591 258
65.77603 261
65.79614 262
65.81626 215
65.83637 238
65.85648 196
65.8766 201
65.89671 203
65.91682 206
65.93694 199
65.95705 214
65.97716 194
65.99728 195
66.01739 151
66.03751 158
66.05762 165
66.07773 184
66.09785 168
66.11796 162
66.13807 164
66.15819 169
66.1783 151
66.19842 144
66.21853 156
66.23864 160
66.25876 166
66.27887 151
66.29898 157
66.3191 142
66.33921 149
66.35933 181
66.37944 149
66.39955 148
66.41967 162
66.43978 166
66.45989 164
66.48001 158
66.50012 144
66.52023 163
66.54035 173
66.56046 146
66.58058 147
66.60069 157
66.6208 166
66.64092 173
66.66103 158
66.68114 152
66.70126 156
66.72137 151
66.74149 176
66.7616 155
66.78171 162
66.80183 150
66.82194 160
66.84205 152
66.86217 147
66.88228 168
66.90239 159
66.92251 157
66.94262 170
66.96274 151
66.98285 189
67.00296 172
67.02308 149
67.04319 167
67.0633 152
67.08342 181
67.10353 174
67.12365 169
67.14376 178
67.16387 162
67.18399 167
67.2041 181
67.22421 169
67.24433 190
67.26444 194
67.28456 203
67.30467 182
67.32478 228
67.3449 219
67.36501 221
67.38512 220
67.40524 252
67.42535 252
67.44546 314
67.46558 327
67.48569 331
67.50581 368
67.52592 416
67.54603 515
67.56615 525
67.58626 644
67.60637 777
67.62649 897
67.6466 1113
67.66672 1335
67.68683 1548
67.70694 1644
67.72706 1678
67.74717 1604
67.76728 1235
67.7874 962
67.80751 866
67.82763 864
67.84774 917
67.86785 986
67.88797 1090
67.90808 1221
67.92819 1178
67.94831 1156
67.96842 1081
67.98853 996
68.00865 1060
68.02876 1208
68.04888 1451
68.06899 1661
68.0891 1944
68.10922 2116
68.12933 2295
68.14944 2151
68.16956 1827
68.18967 1555
68.20979 1482
68.2299 1623
68.25001 1760
68.27013 1975
68.29024 2161
68.31035 2023
68.33047 1844
68.35058 1503
68.3707 1029
68.39081 821
68.41092 797
68.43104 764
68.45115 787
68.47126 783
68.49138 765
68.51149 668
68.5316 551
68.55172 382
68.57183 352
68.59195 261
68.61206 257
68.63217 204
68.65229 222
68.6724 214
68.69251 184
68.71263 193
68.73274 207
68.75286 210
68.77297 168
68.79308 202
68.8132 188
68.83331 177
68.85342 186
68.87354 188
68.89365 164
68.91376 142
68.93388 160
68.95399 146
68.97411 145
68.99422 182
69.01433 151
69.03445 155
69.05456 165
69.07467 152
69.09479 158
69.1149 153
69.13502 156
69.15513 150
69.17524 150
69.19536 180
69.21547 173
69.23558 156
69.2557 152
69.27581 155
69.29593 140
69.31604 160
69.33615 159
69.35627 168
69.37638 168
69.39649 138
69.41661 166
69.43672 151
69.45683 165
69.47695 159
69.49706 155
69.51718 149
69.53729 133
69.5574 139
69.57752 133
69.59763 159
69.61774 153
69.63786 144
69.65797 156
69.67809 134
69.6982 124
69.71831 173
69.73843 149
69.75854 141
69.77865 161
69.79877 152
69.81888 135
69.839 141
69.85911 167
69.87922 146
69.89934 139
69.91945 149
69.93956 145
69.95968 156
69.97979 133
69.9999 169
70.02002 162
70.04013 143
70.06025 138
70.08036 156
70.10047 146
70.12059 142
70.1407 136
70.16081 141
70.18093 136
70.20104 156
70.22116 132
70.24127 152
70.26138 171
70.2815 160
70.30161 145
70.32172 119
70.34184 165
70.36195 141
70.38207 118
70.40218 152
70.42229 142
70.44241 151
70.46252 141
70.48263 133
70.50275 132
70.52286 133
70.54297 145
70.56309 146
70.5832 148
70.60332 163
70.62343 140
70.64354 135
70.66366 127
70.68377 138
70.70388 156
70.724 139
70.74411 115
70.76423 114
70.78434 160
70.80445 146
70.82457 142
70.84468 133
70.86479 142
70.88491 141
70.90502 143
70.92513 150
70.94525 146
70.96536 142
70.98548 143
71.00559 136
71.0257 148
71.04582 128
71.06593 139
71.08604 154
71.10616 128
71.12627 152
71.14639 123
71.1665 147
71.18661 136
71.20673 139
71.22684 147
71.24695 163
71.26707 147
71.28718 160
71.3073 126
71.32741 145
71.34752 127
71.36764 127
71.38775 120
71.40786 124
71.42798 131
71.44809 151
71.4682 141
71.48832 150
71.50843 151
71.52855 153
71.54866 145
71.56877 131
71.58889 151
71.609 139
71.62911 154
71.64923 149
71.66934 144
71.68946 152
71.70957 147
71.72968 142
71.7498 125
71.76991 134
71.79002 153
71.81014 135
71.83025 134
71.85037 154
71.87048 144
71.89059 133
71.91071 138
71.93082 141
71.95093 125
71.97105 151
71.99116 145
72.01127 139
72.03139 149
72.0515 145
72.07162 152
72.09173 125
72.11184 124
72.13196 146
72.15207 133
72.17218 117
72.1923 138
72.21241 147
72.23253 134
72.25264 142
72.27275 144
72.29287 141
72.31298 138
72.33309 165
72.35321 138
72.37332 145
72.39344 157
72.41355 136
72.43366 128
72.45378 138
72.47389 160
72.494 154
72.51412 142
72.53423 130
72.55434 128
72.57446 136
72.59457 160
72.61469 139
72.6348 145
72.65491 144
72.67503 153
72.69514 165
72.71525 143
72.73537 125
72.75548 139
72.7756 164
72.79571 147
72.81582 138
72.83594 154
72.85605 157
72.87616 134
72.89628 135
72.91639 138
72.9365 181
72.95662 155
72.97673 136
72.99685 174
73.01696 143
73.03707 153
73.05719 152
73.0773 155
73.09741 159
73.11753 172
73.13764 177
73.15776 167
73.17787 162
73.19798 191
73.2181 200
73.23821 222
73.25832 248
73.27844 245
73.29855 275
73.31867 333
73.33878 393
73.35889 459
73.37901 488
73.39912 605
73.41923 631
73.43935 692
73.45946 647
73.47957 567
73.49969 471
73.5198 353
73.53992 332
73.56003 307
73.58014 317
73.60026 337
73.62037 385
73.64048 386
73.6606 406
73.68071 384
73.70083 330
73.72094 277
73.74105 218
73.76117 215
73.78128 176
73.80139 164
73.82151 154
73.84162 154
73.86174 170
73.88185 150
73.90196 158
73.92208 147
73.94219 166
73.9623 139
73.98242 128
74.00253 154
74.02264 168
74.04276 154
74.06287 141
74.08299 142
74.1031 137
74.12321 158
74.14333 115
74.16344 142
74.18355 143
74.20367 136
74.22378 139
74.2439 144
74.26401 148
74.28412 135
74.30424 141
74.32435 150
74.34446 143
74.36458 139
74.38469 148
74.40481 165
74.42492 123
74.44503 117
74.46515 143
74.48526 136
74.50537 137
74.52549 135
74.5456 145
74.56571 134
74.58583 134
74.60594 163
74.62606 148
74.64617 128
74.66628 128
74.6864 155
74.70651 143
74.72662 153
74.74674 128
74.76685 139
74.78697 140
74.80708 153
74.82719 135
74.84731 156
74.86742 143
74.88753 151
74.90765 156
74.92776 154
74.94787 137
74.96799 138
74.9881 151
75.00822 144
