3.00117 21455.8616037256
3.02128 21380.4108930513
3.0414 20678
3.06151 19991.6721993355
3.08162 19327.3616154542
3.10174 18758.0579159265
3.12185 18428.3980090369
3.14197 18180.9230507662
3.16208 17361.56170127
3.18219 16994.339777236
3.20231 16112.7780066438
3.22242 16155.955873629
3.24253 15713.1413172027
3.26265 15194.6704401229
3.28276 14635.0325652799
3.30288 14218.3147743109
3.32299 13952.1305060384
3.3431 13541
3.36322 12897.7638789863
3.38333 12829.22857448
3.40344 11936.8480426814
3.42356 11899.9104681757
3.44367 11608.8761959743
3.46379 11028.1546168541
3.4839 10855
3.50401 10226.8138770276
3.52413 10242.1313081276
3.54424 9947.37968870165
3.56435 9046.02903806794
3.58447 9087.16284275957
3.60458 8631.38855233328
3.62469 8470.08982686759
3.64481 8121.79392009362
3.66492 7827.9123648105
3.68504 7740.25082622691
3.70515 7232.51863251995
3.72526 7279.46167789727
3.74538 6660.59142688293
3.76549 6408.00183969669
3.7856 6362
3.80572 5913.66593896901
3.82583 5844.11353186577
3.84595 5810.30861365273
3.86606 5416.48777938134
3.88617 5282.48386750722
3.90629 4808.13944052645
3.9264 4817
3.94651 4683.85477979002
3.96663 4384.73390106893
3.98674 4319.82913751035
4.00686 4133.46092119751
4.02697 3961.09326326713
4.04708 3930.12755176224
4.0672 3723
4.08731 3654.92820041804
4.10742 3442.87578218338
4.12754 3439.99858805249
4.14765 3326.55095122266
4.16776 3089.32777422702
4.18788 3012.06234079003
4.20799 2959.98599164697
4.22811 3016.98242775422
4.24822 2842.76282130443
4.26833 2657.86853966317
4.28845 2667.1580923226
4.30856 2709.02649828558
4.32867 2648.10100594183
4.34879 2560.08107094887
4.3689 2380
4.38902 2416.06785694786
4.40913 2417.88831599491
4.42924 2345.03561823337
4.44936 2362.32616335863
4.46947 2095.16679078788
4.48958 2176.94587989594
4.5097 2124
4.52981 2165.99330116346
4.54992 2075.92842878287
4.57004 2070.02684560404
4.59015 2062.05933980285
4.61027 2034.03875709675
4.63038 2023.98639900719
4.65049 1999.06654580511
4.67061 1853.00440001927
4.69072 1982.04759108845
4.71083 1893.88374619676
4.73095 1888.96306204184
4.75106 1830.10779870963
4.77118 1812.99601143393
4.79129 1799.02734263235
4.8114 1733
4.83152 1753.0130734697
4.85163 1712.86746371561
4.87174 1652.0777685507
4.89186 1747.92666775491
4.91197 1683.14045984026
4.93209 1647.98028597883
4.9522 1671
4.97231 1525.99852782121
4.99243 1664.13698311476
5.01254 1609.77447294112
5.03265 1566.82458589546
5.05277 1666.99624667954
5.07288 1575.05551103355
5.09299 1577.02468111956
5.11311 1508.02662210965
5.13322 1647.04567453573
5.15334 1561.849206823
5.17345 1568.05218409672
5.19356 1560.02788930962
5.21368 1549.0218467114
5.23379 1510.02392819135
5.2539 1488
5.27402 1536.0005199005
5.29413 1490.96302878167
5.31425 1514.08182152
5.33436 1536.9387104489
5.35447 1544.09908709258
5.37459 1449.01424905055
5.3947 1497
5.41481 1527.05143447413
5.43493 1656.03524282006
5.45504 1579.92075346348
5.47516 1623.92166592108
5.49527 1613.02793876035
5.51538 1624.96172411885
5.5355 1666
5.55561 1633.94707838074
5.57572 1560.08345975686
5.59584 1736.15396911036
5.61595 1662.21677303646
5.63606 1662.89635446783
5.65618 1719.94785555837
5.67629 1756.98988371545
5.69641 1776.0170773943
5.71652 1824.0431978252
5.73663 1858.05667185972
5.75675 1905.11882482617
5.77686 1933.00871536002
5.79697 1899.07246592123
5.81709 1873.98923406739
5.8372 1918
5.85732 1896.97207260494
5.87743 1908.0949462943
5.89754 1964.95567862784
5.91766 1871.1684811003
5.93777 1846.98844195905
5.95788 1854.99453137651
5.978 1830
5.99811 1710.94297416141
6.01823 1685.15604317418
6.03834 1798.92208754624
6.05845 1620.35197847257
6.07857 1594.01308817434
6.09868 1550.03336449571
6.11879 1555.98567748017
6.13891 1565.98322196116
6.15902 1510.97118459328
6.17913 1511.98169381617
6.19925 1439.66316128179
6.21936 1318.05382585629
6.23948 1369.96533521259
6.25959 1358.9946499037
6.2797 1367
6.29982 1219.92046426667
6.31993 1240.03924258029
6.34004 1213.91337259388
6.36016 1190.99793508
6.38027 1200.00340239956
6.40039 1153.05261425618
6.4205 1045
6.44061 1081.02378590231
6.46073 1109.06005247494
6.48084 1140.94281171242
6.50095 1074.074226915
6.52107 1101.9531548937
6.54118 1075.09214629384
6.56129 990.996854286733
6.58141 1058.00794271888
6.60152 1002.96569153285
6.62164 1020.01628305664
6.64175 988.898914299391
6.66186 971.97907169794
6.68198 983.019064136676
6.70209 950.998378011752
6.7222 972
6.74232 905.969905252415
6.76243 921.997439960419
6.78255 901.054701324361
6.80266 950.004611916315
6.82277 886.086437851843
6.84289 891.970265896639
6.863 931
6.88311 863.019260383958
6.90323 976.039689644198
6.92334 873.774678053875
6.94346 845.92719716816
6.96357 880.021598524449
6.98368 833.017226772357
7.0038 847
7.02391 792.979732324093
7.04402 808.061313987736
7.06414 835.84694107944
7.08425 725.006042500609
7.10436 834.832806105838
7.12448 835.003007055843
7.14459 845.020821462097
7.16471 764.980418373157
7.18482 783.013449616897
7.20493 764.977826394107
7.22505 770.017483868432
7.24516 760.055906739864
7.26527 728.030640848961
7.28539 750.958681411838
7.3055 832
7.32562 754.928813930917
7.34573 739.010998776107
7.36584 741.000204794213
7.38596 734.045049270951
7.40607 713.985759552401
7.42618 750.964960743461
7.4463 746
7.46641 687.996671190583
7.48653 733.063059154268
7.50664 724.897176798242
7.52675 685.941463235736
7.54687 747.960216429092
7.56698 724.015766167534
7.58709 747.98177667717
7.60721 753.97973164583
7.62732 697.976408225494
7.64743 706.992198783052
7.66755 704.155849098071
7.68766 786.017221687004
7.70778 689.073109483414
7.72789 682.00475206759
7.748 651
7.76812 670.985810351124
7.78823 629.994242905641
7.80834 663.011981527238
7.82846 640.974550301658
7.84857 698.924221857171
7.86869 706.010301428211
7.8888 678
7.90891 640.974648363177
7.92903 601.005572072702
7.94914 632.018563015053
7.96925 627.901321947522
7.98937 690.987142365105
8.00948 643.028540447432
8.0296 657
8.04971 634.994460915011
8.06982 651.022566018996
8.08994 645.907018336582
8.11005 606.072349608568
8.13016 669.0013787774
8.15028 590.074161913365
8.17039 578.985677390475
8.1905 604
8.21062 584.984267815403
8.23073 602.083815777429
8.25085 650.973142114333
8.27096 587.114698603783
8.29107 579.95703254813
8.31119 601.00783076312
8.3313 575
8.35141 624.003798657732
8.37153 579.947863858402
8.39164 585.030668621756
8.41176 582.040971304597
8.43187 574.944944921404
8.45198 627.989323139682
8.4721 598
8.49221 618.000700821275
8.51232 592.98985527258
8.53244 593.935137823899
8.55255 546.00042243847
8.57266 607.850045691942
8.59278 638.025042313369
8.61289 592.011137451523
8.63301 609.013747805703
8.65312 614.98085122753
8.67323 588.983995515539
8.69335 590.975722014114
8.71346 570.014182394383
8.73357 593.929328510117
8.75369 617.020592886992
8.7738 542
8.79392 572.056541449897
8.81403 599.976356717538
8.83414 562.958771335918
8.85426 567.99449077651
8.87437 559.998919832547
8.89448 574.984833838114
8.9146 576
8.93471 552.986810388799
8.95483 543.031037420634
8.97494 575.01888265424
8.99505 559.026618751707
9.01517 563.999552503596
9.03528 553.00841245624
9.05539 550.004229517005
9.07551 536.997256694203
9.09562 542.006564272402
9.11573 536.968770379593
9.13585 527.079980458105
9.15596 574.987798900363
9.17608 542.011934355432
9.19619 567.9896799582
9.2163 559
9.23642 545.993173556686
9.25653 554.04847377876
9.27664 584.988089889786
9.29676 564.951460764722
9.31687 604.051476633696
9.33699 511.023754180886
9.3571 540
9.37721 541.001999299041
9.39733 553.988820376211
9.41744 522.943725723596
9.43755 524.916660159938
9.45767 551.032441750072
9.47778 506.003204430391
9.4979 533
9.51801 475.995962763155
9.53812 534.055057580631
9.55824 541.969288727538
9.57835 526.963509021696
9.59846 512.031169585173
9.61858 493.024323653135
9.63869 491.973416011778
9.6588 569
9.67892 551.972505469642
9.69903 530.937379808157
9.71915 482.97113044591
9.73926 511.937641008058
9.75937 529.959571320878
9.77949 558.999389504892
9.7996 539
9.81971 563.015177449432
9.83983 575.990804456794
9.85994 553.934315434333
9.88006 520.058460797624
9.90017 512.958350004784
9.92028 552.98357218339
9.9404 539
9.96051 531.9918705685
9.98062 505.982201914115
10.00074 504.00790011501
10.02085 510.958019756101
10.04097 513.066496196944
10.06108 448.027199498712
10.08119 477.975800955409
10.10131 508.006324209425
10.12142 513.005472796808
10.14153 515.983995899212
10.16165 489.921046526662
10.18176 491.869755793228
10.20187 568.989734621273
10.22199 499.03545960902
10.2421 478
10.26222 479.99307029227
10.28233 472.006778400644
10.30244 491.043626027657
10.32256 517.909812950424
10.34267 553.026223178868
10.36278 503.019532394372
10.3829 529
10.40301 514.980142982018
10.42313 475.965384464138
10.44324 472.00766382194
10.46335 492.854806439358
10.48347 548.014537713948
10.50358 490.027765930152
10.52369 513.990474169091
10.54381 512.00863751609
10.56392 537.983546214837
10.58403 483.94709169216
10.60415 491.043852487879
10.62426 491.027940069753
10.64438 486.973673118612
10.66449 514.011406103558
10.6846 457
10.70472 480.019242664941
10.72483 480.024040991256
10.74494 515.042571461419
10.76506 502.070690577538
10.78517 485.949686245167
10.80529 533.003341001777
10.8254 477
10.84551 495.013766638279
10.86563 494.965600602148
10.88574 478.026871314108
10.90585 508.97299984009
10.92597 497.995611894269
10.94608 533.948027534789
10.9662 556
10.98631 501.000297438769
11.00642 548.011630612914
11.02654 505.935103805947
11.04665 502.047122757977
11.06676 471.986647757785
11.08688 507.990388666337
11.10699 492.99116129891
11.1271 525
11.14722 460.002627337322
11.16733 530.051835776387
11.18745 490.87791193946
11.20756 485.940949847447
11.22767 524.951411675256
11.24779 533.009349346559
11.2679 509
11.28801 521.001973945454
11.30813 513.002094535333
11.32824 523.999046710136
11.34836 506.040390167461
11.36847 496.998782389486
11.38858 501.995062909462
11.4087 519
11.42881 558.992350282958
11.44892 497.953259603625
11.46904 492.004905375632
11.48915 488.974920287863
11.50927 513.96556011993
11.52938 523.997359286874
11.54949 530.991375118723
11.56961 543.994004196501
11.58972 512.976920879382
11.60983 490.919174282379
11.62995 445.089146551655
11.65006 539.885909789519
11.67017 508.114607670213
11.69029 457.997986982478
11.7104 506
11.73052 516.955303349778
11.75063 463.998708710451
11.77074 519.109194192367
11.79086 538.987913918559
11.81097 545.99787372672
11.83108 547.984815928471
11.8512 552
11.87131 492.998993762926
11.89143 545.047394892656
11.91154 524.941434614935
11.93165 519.972698666072
11.95177 528.007960072613
11.97188 513.010484956958
11.99199 517.991323591809
12.01211 536.004842503439
12.03222 534.994616876667
12.05234 521.94000606897
12.07245 505.089597492804
12.09256 554.035736176745
12.11268 484.027251527557
12.13279 521.984431555853
12.1529 527
12.17302 571.993711867474
12.19313 505.896503773315
12.21324 491.081599988608
12.23336 532.033441681469
12.25347 466.073227923632
12.27359 476.976228038804
12.2937 512
12.31381 483.995075089839
12.33393 502.020711328237
12.35404 492.962614900763
12.37415 484.974430796949
12.39427 501.992961901114
12.41438 495.996067980743
12.4345 490
12.45461 422.000239354017
12.47472 478.018745188049
12.49484 451.021815958182
12.51495 498.007012518411
12.53506 446.029291026332
12.55518 500.930264614141
12.57529 534.999349548205
12.5954 512
12.61552 474.987676948557
12.63563 476.980392619289
12.65575 455.012102482633
12.67586 479.99467506745
12.69597 467.965253995077
12.71609 504.011994989838
12.7362 432
12.75631 445.994496802228
12.77643 417.050695769582
12.79654 494.039185900011
12.81666 454.997374267028
12.83677 498.019232854686
12.85688 431.021174025334
12.877 472
12.89711 451.001271963134
12.91722 487.01514214243
12.93734 474.010839035895
12.95745 491.061944610268
12.97757 435.033786008493
12.99768 470.945153067932
13.01779 492.013374471219
13.03791 443.985861937564
13.05802 452.02058924204
13.07813 459.990463928545
13.09825 442.944672282983
13.11836 425.01875564142
13.13847 423.995267531156
13.15859 431.991189241953
13.1787 450
13.19882 449.017390680185
13.21893 484.042161015483
13.23904 485.960903345027
13.25916 466.007022248704
13.27927 471.016438052918
13.29938 444.018183046944
13.3195 450
13.33961 461.994066602827
13.35973 447.026406372641
13.37984 476.972830823795
13.39995 431.026981178821
13.42007 478.905880730421
13.44018 500.034237072159
13.46029 439.022457228789
13.48041 436.011403885463
13.50052 465.03128451077
13.52064 478.960627347793
13.54075 445.976240974805
13.56086 464.968211762954
13.58098 465.99442614694
13.60109 476.002681909712
13.6212 463
13.64132 481.995345205208
13.66143 448.95450679085
13.68154 449.055302319492
13.70166 475.999701527799
13.72177 449.042716471997
13.74189 446.986429695659
13.762 481
13.78211 469.99007456667
13.80223 455.984183782103
13.82234 439.944898098222
13.84245 417.981356013718
13.86257 457.922760507787
13.88268 483.019416329252
13.9028 433
13.92291 423.016587271514
13.94302 460.999092100651
13.96314 426.964448516297
13.98325 449.902581592303
14.00336 464.055399861896
14.02348 426.996428129768
14.04359 465.99041094393
14.06371 447.991239871569
14.08382 451.006225084063
14.10393 443.970938088417
14.12405 430.021504519077
14.14416 452.97651271914
14.16427 434.065612207076
14.18439 403.991449862423
14.2045 449
14.22461 442.008193079111
14.24473 474.988123283488
14.26484 425.934243434013
14.28496 425.019280316073
14.30507 405.982094918452
14.32518 449.963759208481
14.3453 453
14.36541 441.001517983264
14.38552 455.01037962336
14.40564 447.95250017782
14.42575 426.997048572917
14.44587 441.00259120694
14.46598 417.023982148707
14.48609 415.988502347417
14.50621 444.006254323575
14.52632 436.989586050939
14.54643 442.034861122112
14.56655 457.950291412318
14.58666 409.083720173744
14.60677 413.915494732349
14.62689 472.996404379333
14.647 434
14.66712 446.013327431351
14.68723 449.02499014044
14.70734 462.941606156543
14.72746 415.996207691514
14.74757 452.01626661199
14.76768 399.008860948005
14.7878 451
14.80791 445.988563887695
14.82803 436.005672091682
14.84814 454.0634929488
14.86825 466.102792396515
14.88837 408.006747889614
14.90848 458.962224124324
14.92859 442.022486266995
14.94871 424.018881117297
14.96882 475.995458739752
14.98894 412.894522348088
15.00905 421.129694814163
15.02916 472.952080737732
15.04928 459.034818663241
15.06939 431.004973897082
15.0895 442
15.10962 449.971352581
15.12973 409.992725170317
15.14984 437.019069605144
15.16996 421.000810928982
15.19007 446.967110973344
15.21019 444.009273525787
15.2303 430
15.25041 435.994166298734
15.27053 408.973562551487
15.29064 423.087193925282
15.31075 454.05632028556
15.33087 402.024388813622
15.35098 442.945606616365
15.3711 466
15.39121 434.981481240055
15.41132 406.982358799726
15.43144 411.072187201253
15.45155 445.033593639105
15.47166 397.048517855757
15.49178 424.949640429284
15.51189 447.014012127864
15.53201 406.002611073162
15.55212 448.010265582001
15.57223 410.952574342883
15.59235 422.097167742763
15.61246 452.997370520423
15.63257 426.048728827124
15.65269 406.005835870836
15.6728 409
15.69291 443.004257538825
15.71303 435.022709628624
15.73314 468.011510631993
15.75326 447.004552604748
15.77337 465.008289973358
15.79348 443.984386386245
15.8136 476
15.83371 409.990123556224
15.85382 440.999028938808
15.87394 403.005174341892
15.89405 448.96419743607
15.91417 415.036111133257
15.93428 434.959952943447
15.95439 457.0054020353
15.97451 432.998662131925
15.99462 458.024597898445
16.01473 444.909904830971
16.03485 380.964233696857
16.05496 418.920733379808
16.07508 437.974277020706
16.09519 450.024987066255
16.1153 384
16.13542 466.044991587597
16.15553 432.928972418468
16.17564 415.990600158797
16.19576 410.004756994122
16.21587 426.929439774464
16.23598 463.027719626659
16.2561 392
16.27621 414.021255912569
16.29633 441.024616423056
16.31644 438.932681142779
16.33655 398.024591651498
16.35667 427.939437873912
16.37678 444.014372789303
16.39689 427.991372807172
16.41701 461.999472299867
16.43712 420.965919179651
16.45724 424.048248937963
16.47735 446.03065312363
16.49746 438.062563489003
16.51758 406.006433393816
16.53769 427.986489181897
16.5578 436
16.57792 427.018518435812
16.59803 455.996762733677
16.61814 423.961778334446
16.63826 431.986089308581
16.65837 423.017450804961
16.67849 422.99364872348
16.6986 443
16.71871 449.992972703422
16.73883 435.017820164246
16.75894 466.029005691663
16.77905 464.951342585735
16.79917 487.044816519865
16.81928 418.039853763107
16.8394 434
16.85951 448.002938092693
16.87962 442.972469983799
16.89974 425.071289382387
16.91985 487.952783976822
16.93996 448.085622119175
16.96008 437.997023903954
16.98019 437.999511755596
17.00031 435.993567765621
17.02042 418.993750407212
17.04053 433.043520907139
17.06065 466.076389798632
17.08076 472.069644973193
17.10087 426.016095211023
17.12099 439.01054495044
17.1411 402
17.16121 481.026208966157
17.18133 474.976861818201
17.20144 474.982981576046
17.22156 457.00822720705
17.24167 455.051817650232
17.26178 419.967958412476
17.2819 493
17.30201 436.970546181163
17.32212 425.013407505359
17.34224 446.064444149285
17.36235 466.04997002007
17.38247 435.973314728871
17.40258 486.988835717133
17.42269 442.022137975306
17.44281 429.997890148021
17.46292 435.040258367247
17.48303 499.073970962429
17.50315 500.897890635882
17.52326 452.051770164472
17.54338 459.977527380343
17.56349 472.002189731667
17.5836 461
17.60372 473.015051830555
17.62383 475.979642242587
17.64394 470.060552441016
17.66406 515.976966213807
17.68417 487.038954177592
17.70428 474.033068407665
17.7244 433
17.74451 457.998274225923
17.76463 440.056292001746
17.78474 506.999979424655
17.80485 452.003869027831
17.82497 506.990813806364
17.84508 445.043431223856
17.86519 450.999859562419
17.88531 427.995802229032
17.90542 460.06031729627
17.92554 490.910072576543
17.94565 415.969063420179
17.96576 478.883208166347
17.98588 472.054318139937
18.00599 432.989103378475
18.0261 490
18.04622 457.970054830597
18.06633 454.992176574153
18.08645 442.00753312049
18.10656 463.960205662342
18.12667 471.989835693471
18.14679 485.990671754495
18.1669 495
18.18701 460.978887399507
18.20713 441.030850046682
18.22724 471.985948677628
18.24735 438.003280243696
18.26747 478.950300093373
18.28758 475.020662022007
18.3077 457
18.32781 451.006687054158
18.34792 465.989459748267
18.36804 437.979782848236
18.38815 449.991903910982
18.40826 438.999620219873
18.42838 452.995203341906
18.44849 440.008171068331
18.46861 427.992975446058
18.48872 428.036754154113
18.50883 476.015630466694
18.52895 447.952384086109
18.54906 454.993618007873
18.56917 443.012811329229
18.58929 449.992009091577
18.6094 461
18.62951 455.002863679352
18.64963 475.030915657514
18.66974 479.972705457828
18.68986 455.050911533566
18.70997 445.978653697129
18.73008 474.971948343309
18.7502 478
18.77031 443.000030033201
18.79042 482.042711103263
18.81054 488.93246424163
18.83065 449.014760219308
18.85077 484.931579603833
18.87088 498.030278994536
18.89099 456.005427023349
18.91111 483.014404919385
18.93122 478.964137003346
18.95133 447.010724800061
18.97145 499.168352254146
18.99156 529.06393570588
19.01168 469.029331509167
19.03179 487.986629854354
19.0519 501
19.07202 525.0122168581
19.09213 506.926514334105
19.11224 479.09292964467
19.13236 560.952517317141
19.15247 514.056398115614
19.17258 548.909438252342
19.1927 635
19.21281 601.961284887956
19.23293 544.00289523175
19.25304 591.074659106877
19.27315 590.034980897062
19.29327 600.927635050121
19.31338 663.958357287102
19.33349 666.010315416015
19.35361 638.983158796983
19.37372 630.047974355982
19.39384 704.071929646329
19.41395 690.974195160641
19.43406 709.953876074364
19.45418 715.010356457491
19.47429 721.972881081133
19.4944 794
19.51452 772.981678041353
19.53463 812.147367553535
19.55475 914.115944996092
19.57486 897.06063238499
19.59497 901.941680934538
19.61509 951.980636707188
19.6352 987
19.65531 1044.99949765268
19.67543 985.911390977156
19.69554 975.05736746723
19.71565 1000.03470419669
19.73577 955.049325593612
19.75588 978.91747397586
19.776 1058
19.79611 1009.98516048049
19.81622 1024.00743477814
19.83634 1000.94587911715
19.85645 976.105016574005
19.87656 955.877848941704
19.89668 1037.02100867507
19.91679 929.02856160715
19.93691 977.035108381188
19.95702 981.934177288835
19.97713 903.962507569172
19.99725 923.98261185735
20.01736 884.013606539664
20.03747 908.020072238421
20.05759 860.005466801103
20.0777 891
20.09782 861.991678272618
20.11793 889.031857595913
20.13804 890.013624846228
20.15816 894.066906935075
20.17827 833.064534245562
20.19838 828.988707160465
20.2185 826
20.23861 810.012225852406
20.25872 860.026865347861
20.27884 848.968630560567
20.29895 847.007126940059
20.31907 834.026290523187
20.33918 804.055327516598
20.35929 762.986505371186
20.37941 840.02729207927
20.39952 830.957409167105
20.41963 793.967662134068
20.43975 794.046398442833
20.45986 822.932851746962
20.47998 836.027810938942
20.50009 798.996887974577
20.5202 841
20.54032 836.033429043791
20.56043 894.01048365753
20.58054 851.971865891571
20.60066 891.914131762873
20.62077 907.986154679865
20.64088 909.029044279671
20.661 880
20.68111 981.074913685458
20.70123 1121.14471061121
20.72134 1191.18168923322
20.74145 1343.49113788812
20.76157 1573.64609505479
20.78168 1761.89944832442
20.80179 1826.941239167
20.82191 1955.00259844625
20.84202 1824.85524823789
20.86214 1723.76879263804
20.88225 1553.49423103835
20.90236 1366.2827992873
20.92248 1248.14292318962
20.94259 1072.08219677628
20.9627 953
20.98282 895.959529676754
21.00293 851.910772081018
21.02305 786.882451505687
21.04316 784.904712120829
21.06327 827.035995200346
21.08339 756.018817902111
21.1035 769
21.12361 726.972771536088
21.14373 704.033827767644
21.16384 740.006523145371
21.18395 716.9919768505
21.20407 743.01082072498
21.22418 722.956246741009
21.2443 805
21.26441 745.978707823712
21.28452 754.001399118979
21.30464 725.954329960787
21.32475 731.939462237454
21.34486 752.986854145253
21.36498 739.029417930638
21.38509 712.005605537732
21.40521 705.987843594444
21.42532 659.953160051282
21.44543 654.084945182169
21.46555 725.036393710888
21.48566 676.098172620485
21.50577 665.991140373862
21.52589 667.999250701677
21.546 664
21.56612 647.007324149249
21.58623 685.077159461635
21.60634 698.88391572071
21.62646 606.108512235763
21.64657 616.953253711495
21.66668 629.001807261237
21.6868 640
21.70691 686.99786635632
21.72702 633.954222511481
21.74714 609.915211909642
21.76725 563.983255057591
21.78737 616.945036126287
21.80748 618.988943107104
21.82759 652.98674109276
21.84771 657.999658364207
21.86782 653.979209129746
21.88793 634.018275656756
21.90805 656.952810661881
21.92816 614.986769302489
21.94828 670.965670438474
21.96839 661.003258658439
21.9885 663
22.00862 608.979961275938
22.02873 636.048011577399
22.04884 632.926912074411
22.06896 601.974354103363
22.08907 638.994823409869
22.10919 606.007171449716
22.1293 627
22.14941 622.99635132042
22.16953 630.030155584492
22.18964 642.97314537065
22.20975 607.086741396109
22.22987 584.035346507736
22.24998 577.957673638468
22.27009 632.001345479302
22.29021 594.008219283264
22.31032 659.017739713193
22.33044 606.90212877496
22.35055 602.020661994858
22.37066 602.992085962091
22.39078 598.036077816341
22.41089 558.995426081266
22.431 606
22.45112 602.026353297379
22.47123 662.058146026603
22.49135 657.963618951394
22.51146 634.12729355138
22.53157 571.980767578195
22.55169 635.991168708697
22.5718 589
22.59191 601.004275344138
22.61203 567.903456689391
22.63214 531.080077606945
22.65225 610.919857869621
22.67237 564.105113404087
22.69248 547.939770272353
22.7126 630
22.73271 586.976595137317
22.75282 580.012371654918
22.77294 588.000623907741
22.79305 597.900484984968
22.81316 631.06270879592
22.83328 559.030085486459
22.85339 599.970536268404
22.87351 636.012086113373
22.89362 634.948803325597
22.91373 578.011070541558
22.93385 636.062737638478
22.95396 597.101837694785
22.97407 590.933487018747
22.99419 639.000718609686
23.0143 594
23.03442 597.99712790266
23.05453 575.980715440868
23.07464 590.061207819916
23.09476 609.022325190182
23.11487 576.04187420671
23.13498 569.993685630709
23.1551 580
23.17521 603.017016073794
23.19532 637.019478764323
23.21544 623.901105528226
23.23555 577.993767357661
23.25567 615.976218734362
23.27578 600.000057922792
23.29589 624.994432595747
23.31601 616.00167158792
23.33612 630.993463641974
23.35623 606.993740183966
23.37635 624.006234504731
23.39646 606.017520083431
23.41658 620.976374842203
23.43669 635.998116705836
23.4568 625
23.47692 609.022580467965
23.49703 640.976396973328
23.51714 587.954622656274
23.53726 611.960381012101
23.55737 597.044537146319
23.57749 602.963939822588
23.5976 675
23.61771 585.990901573396
23.63783 645.01429864338
23.65794 594.006679856275
23.67805 664.909161965329
23.69817 631.057553206069
23.71828 631.981390933958
23.73839 640.004632346644
23.75851 613.98238436833
23.77862 597.021898035624
23.79874 630.99691188845
23.81885 597.967105009616
23.83896 628.904094658723
23.85908 644.041514707581
23.87919 575.021394932654
23.8993 582
23.91942 609.034169364904
23.93953 649.053761009222
23.95965 656.913862987163
23.97976 617.980965837878
23.99987 673.928955205984
24.01999 678.009843997754
24.0401 656
24.06021 637.994627409577
24.08033 641.030745265667
24.10044 670.048754724656
24.12056 672.05090814829
24.14067 654.951159482069
24.16078 706.003644563528
24.1809 644
24.20101 652.022187133424
24.22112 677.974387835707
24.24124 631.996518329612
24.26135 664.022912396818
24.28146 605.084095191961
24.30158 628.927526045483
24.32169 676.018064147389
24.34181 592.982447178255
24.36192 632.045498118282
24.38203 644.007817375977
24.40215 655.005787598136
24.42226 641.046597293703
24.44237 622.011246324334
24.46249 631.986844694985
24.4826 657
24.50272 643.98281494387
24.52283 626.958788436728
24.54294 613.069189035387
24.56306 662.013374883049
24.58317 611.021267644751
24.60328 646.981742669453
24.6234 620
24.64351 609.999331794025
24.66362 602.986404176402
24.68374 600.051859813743
24.70385 642.927785813855
24.72397 636.051457150128
24.74408 616.969139340472
24.76419 660.008868413012
24.78431 605.002261899322
24.80442 668.023762205702
24.82453 617.908268832391
24.84465 599.037787749638
24.86476 618.992681556961
24.88488 601.023913191947
24.90499 599.982355919082
24.9251 665
24.94522 682.917516549624
24.96533 563.931658576853
24.98544 618.143015777131
25.00556 642.015757023133
25.02567 622.042721598907
25.04579 603.995794659142
25.0659 623
25.08601 612.012249488494
25.10613 664.04003179291
25.12624 655.999543066632
25.14635 667.041955806059
25.16647 624.041970726743
25.18658 632.972953949725
25.20669 670.970001129319
25.22681 711.984327728965
25.24692 647.996610259458
25.26704 702.030664940173
25.28715 658.935535073402
25.30726 670.015073135842
25.32738 640.000579720068
25.34749 685.971273602211
25.3676 706
25.38772 643.946235853401
25.40783 611.950281395447
25.42795 591.070624670203
25.44806 653.909773040065
25.46817 650.049626276617
25.48829 627.995111179854
25.5084 659
25.52851 635.965527726397
25.54863 576.011035520149
25.56874 643.121980851546
25.58886 649.066949119748
25.60897 614.020823375155
25.62908 626.976873119275
25.6492 642
25.66931 630.984568829901
25.68942 601.999134787727
25.70954 633.080941846495
25.72965 646.074270334531
25.74976 602.028504920159
25.76988 631.955498081878
25.78999 649.011758746704
25.81011 618.00396995777
25.83022 665.039661564572
25.85033 674.000644700744
25.87045 674.971088237666
25.89056 661.97999924861
25.91067 681.015655316196
25.93079 632.028752579091
25.9509 611
25.97102 651.990840041734
25.99113 610.002756950576
26.01124 680.17185073461
26.03136 717.052915405643
26.05147 657.07383046003
26.07158 660.944046538778
26.0917 730
26.11181 736.999368873135
26.13193 753.046094700114
26.15204 783.031371297298
26.17215 775.069265208816
26.19227 763.94233601525
26.21238 824.97716428921
26.23249 807.000598404699
26.25261 853.032739938228
26.27272 906.034724769883
26.29283 929.033610232714
26.31295 974.19696934211
26.33306 1073.811796602
26.35318 1147.93706598764
26.37329 1231.93708197072
26.3934 1404
26.41352 1625.25621796219
26.43363 1915.454382752
26.45374 2260.85580237011
26.47386 2793.79056993773
26.49397 3428.04746516887
26.51409 4130.57842521132
26.5342 5024
26.55431 5696.40798557121
26.57443 6563.86524390325
26.59454 6708.79394610211
26.61465 6552.49068837068
26.63477 6237.77707735698
26.65488 5496.88186590456
26.67499 4562.47688318571
26.69511 3652.59779339185
26.71522 2944.3448527799
26.73534 2302.79663014829
26.75545 1785.00748020959
26.77556 1476.55286692972
26.79568 1230.15207288031
26.81579 1157.03401664992
26.8359 1061
26.85602 998.917507388471
26.87613 899.894290452645
26.89625 870.956545350358
26.91636 836.100968395436
26.93647 806.957028369886
26.95659 849.012878624683
26.9767 757
26.99681 747.010110008119
27.01693 746.945850500634
27.03704 701.979385787217
27.05716 721.994626588524
27.07727 691.049902571983
27.09738 682.986092214968
27.1175 685
27.13761 639.008176589685
27.15772 698.013909422545
27.17784 651.933045150093
27.19795 668.916638806981
27.21806 670.092087711575
27.23818 611.021852679803
27.25829 637.981137408953
27.27841 645.987689804591
27.29852 626.024962898365
27.31863 678.030717254143
27.33875 648.903519946599
27.35886 631.012264676303
27.37897 633.97203323757
27.39909 649.007412292279
27.4192 605
27.43932 598.046022266309
27.45943 653.007703846469
27.47954 624.021389895206
27.49966 674.965223364338
27.51977 646.022351398847
27.53988 663.990801788201
27.56 651
27.58011 651.99125900579
27.60023 640.066057942547
27.62034 704.999698231826
27.64045 648.048311579691
27.66057 685.968852615801
27.68068 675.980024209322
27.70079 709.016082386715
27.72091 620.972379019831
27.74102 640.047455000472
27.76113 654.950217185987
27.78125 616.033836716433
27.80136 674.923003221024
27.82148 667.015666788367
27.84159 665.002812923204
27.8617 646
27.88182 640.029082518221
27.90193 682.023619559122
27.92204 668.988500107595
27.94216 677.015339101929
27.96227 635.097417873787
27.98239 606.970704732257
28.0025 684
28.02261 591.99514105429
28.04273 681.080290241166
28.06284 642.894168177071
28.08295 619.066412723798
28.10307 584.024542474533
28.12318 587.003661518246
28.1433 581
28.16341 618.003867866839
28.18352 604.015534158155
28.20364 645.02167935813
28.22375 609.896256667082
28.24386 598.964125759908
28.26398 617.009139281952
28.28409 583.014498282782
28.3042 589
28.32432 621.979183636643
28.34443 568.972690756484
28.36455 597.048402909649
28.38466 583.03490889386
28.40477 570.045164071752
28.42489 552.975769246884
28.445 622
28.46511 556.999132768581
28.48523 626.041552590951
28.50534 575.89393748649
28.52546 560.024621646786
28.54557 544.984811772129
28.56568 573.986605696368
28.5858 554
28.60591 526.996622284851
28.62602 541.024995753088
28.64614 561.016499304623
28.66625 561.988527774352
28.68636 571.987732401779
28.70648 562.029034613907
28.72659 548.979292068395
28.74671 606.998734617807
28.76682 550.974472281487
28.78693 570.996141473099
28.80705 537.992018924776
28.82716 577.927891466514
28.84727 585.996978677417
28.86739 592.999661532924
28.8875 572
28.90762 543.036198425897
28.92773 600.982726046205
28.94784 530.946981328637
28.96796 581.879223295618
28.98807 584.085563583523
29.00818 532.978153754128
29.0283 594
29.04841 524.979008759103
29.06853 556.083488058945
29.08864 584.996611844683
29.10875 561.084359984879
29.12887 531.036387915026
29.14898 527.967826927639
29.16909 573.988126643183
29.18921 575.006613916069
29.20932 591.977113065928
29.22943 540.964964626555
29.24955 558.03780658464
29.26966 547.038347672032
29.28978 552.95338306863
29.30989 607.992701619324
29.33 581
29.35012 579.987029194231
29.37023 557.002182415704
29.39034 581.02068542655
29.41046 565.03761802083
29.43057 558.005516477816
29.45069 564.983255310704
29.4708 600
29.49091 544.963363879961
29.51103 504.017456926029
29.53114 545.054089637245
29.55125 547.97170107871
29.57137 579.952261375249
29.59148 592.007240066212
29.6116 583
29.63171 593.99421374286
29.65182 568.998265113129
29.67194 586.995418879438
29.69205 563.989245030903
29.71216 580.996787605139
29.73228 563.005107220024
29.75239 588.978687363769
29.7725 624
29.79262 641.046072173546
29.81273 686.980772689161
29.83285 623.885057101874
29.85296 618.017650161626
29.87307 585.052108448903
29.89319 558.015672052883
29.9133 541
29.93341 602.023782420428
29.95353 606.966770634838
29.97364 574.920679920097
29.99376 555.942693390718
30.01387 605.973360381788
30.03398 573.048603946652
30.0541 551
30.07421 568.993248258967
30.09432 529.978723165938
30.11444 562.15599725786
30.13455 622.041177392348
30.15467 557.041056781602
30.17478 590.966920930553
30.19489 592.000208043269
30.21501 596.993239407386
30.23512 584.030607357455
30.25523 632.998051269398
30.27535 582.928025115365
30.29546 594.993529226001
30.31557 580.984999377514
30.33569 592.026200806308
30.3558 514
30.37592 590.047311642364
30.39603 570.971066911937
30.41614 585.030230371318
30.43626 582.016601970159
30.45637 580.990851423081
30.47648 576.034014963255
30.4966 538
30.51671 573.00897746522
30.53683 552.956610307302
30.55694 537.98672643367
30.57705 540.951032901377
30.59717 568.968944256126
30.61728 557.054512544691
30.63739 500.004214896765
30.65751 535.01119099637
30.67762 511.954538383489
30.69773 491.042296235364
30.71785 546.086089807457
30.73796 537.057450240007
30.75808 530.964416176915
30.77819 569.009139563936
30.7983 511
30.81842 544.031657383982
30.83853 544.995004932892
30.85864 542.957345778766
30.87876 516.989554041448
30.89887 538.021381513501
30.91899 496.005277641343
30.9391 531
30.95921 536.995390384695
30.97933 535.01998147815
30.99944 539.929773664021
31.01955 486.046838842926
31.03967 503.995632847159
31.05978 483.001748366348
31.0799 501
31.10001 479.004935048993
31.12012 521.025337453528
31.14024 511.974244920039
31.16035 515.971978976626
31.18046 520.016073701754
31.20058 508.002823449788
31.22069 499.021689614985
31.2408 456
31.26092 530.050973446305
31.28103 522.961795170794
31.30115 508.97057422189
31.32126 497.00983170728
31.34137 507.957194051273
31.36149 529.00691199052
31.3816 496
31.40171 508.994996215028
31.42183 472.970440124034
31.44194 485.034925927586
31.46206 502.921835332543
31.48217 534.041689635916
31.50228 479.996138975462
31.5224 540
31.54251 496.963654356021
31.56262 453.001289346131
31.58274 483.051840160662
31.60285 494.949742723372
31.62297 518.003264162261
31.64308 497.005237869965
31.66319 510.998933367382
31.68331 491.990912943482
31.70342 479.978065777824
31.72353 446.957278375641
31.74365 449.108855313559
31.76376 500.969626101266
31.78387 480.018346292423
31.80399 483.01006128677
31.8241 455
31.84422 505.013173381799
31.86433 471.969408300291
31.88444 490.047788636995
31.90456 498.989414234645
31.92467 497.036484303843
31.94478 467.003373853501
31.9649 496
31.98501 504.989052819138
32.00513 476.994320597839
32.02524 491.996869985178
32.04535 471.019348972341
32.06547 480.004880444884
32.08558 469.982160532305
32.10569 493.014715180356
32.12581 432.994827292564
32.14592 487.053147572648
32.16604 498.989175582675
32.18615 495.988349517813
32.20626 490.99958072103
32.22638 494.002107630578
32.24649 488.998863716391
32.2666 502
32.28672 498.960010615868
32.30683 451.990614873181
32.32694 494.100997685489
32.34706 505.075079028131
32.36717 451.043275924799
32.38729 458.992320380463
32.4074 480
32.42751 542.008330167344
32.44763 503.926391437333
32.46774 478.983458005339
32.48785 476.995848304741
32.50797 478.001962734026
32.52808 476.99641439742
32.5482 491
32.56831 509.995959420179
32.58842 486.994597374674
32.60854 492.957980400973
32.62865 454.022063931051
32.64876 472.012323982606
32.66888 446.987111652945
32.68899 498.982492214063
32.7091 500
32.72922 521.009420344981
32.74933 515.002518619696
32.76945 529.019569417185
32.78956 511.089368801569
32.80967 472.99411995417
32.82979 508.988669610678
32.8499 487
32.87001 460.021119418143
32.89013 538.054152098738
32.91024 511.936059223888
32.93036 509.983562272287
32.95047 520.960885235382
32.97058 559.963399610621
32.9907 579
33.01081 564.987802979574
33.03092 533.962545341715
33.05104 525.109952996493
33.07115 603.935145113964
33.09127 565.059655921591
33.11138 559.998237418505
33.13149 556.995591646712
33.15161 575.003848382829
33.17172 561.975245888737
33.19183 547.011645897202
33.21195 557.954536294524
33.23206 522.01901232987
33.25217 534.022719648672
33.27229 493.008099843323
33.2924 513
33.31252 505.986087925063
33.33263 493.972592477163
33.35274 487.060661926936
33.37286 534.962119517233
33.39297 504.08356212927
33.41308 466.001982979956
33.4332 499
33.45331 519.984541834649
33.47343 467.973914434127
33.49354 498.070457223554
33.51365 501.062444783072
33.53377 478.988175951546
33.55388 498.015707069403
33.57399 469.985873418803
33.59411 533.003465939359
33.61422 469.943749459263
33.63434 476.096440591464
33.65445 514.994438939505
33.67456 491.983401551498
33.69468 537.962348452527
33.71479 540.007786625048
33.7349 525
33.75502 516.000393128873
33.77513 519.996465643361
33.79524 503.946222075856
33.81536 484.988828890693
33.83547 498.019697667688
33.85559 469.000290541097
33.8757 511
33.89581 539.997818154474
33.91593 512.953736670181
33.93604 511.08269234602
33.95615 551.053024923177
33.97627 496.002059360572
33.99638 558.949868146452
34.0165 559
34.03661 550.984925537257
34.05672 512.994208940804
34.07684 543.059244365244
34.09695 556.954147130554
34.11706 583.961903949519
34.13718 580.025725294279
34.15729 570.977434217117
34.17741 627.994123645876
34.19752 569.998711286702
34.21763 630.034852922002
34.23775 589.919005654054
34.25786 602.948416776201
34.27797 628.931526391379
34.29809 675.995318393574
34.3182 645
34.33831 630.998670688389
34.35843 649.086871289665
34.37854 701.966060325166
34.39866 658.920472838016
34.41877 756.966686869487
34.43888 686.04727454169
34.459 719
34.47911 735.991761993428
34.49922 708.982809660186
34.51934 710.015437978553
34.53945 713.996999026441
34.55957 714.000959904187
34.57968 722.971798902338
34.59979 755.993442232837
34.61991 759.01344357055
34.64002 797.001778584924
34.66013 762.966588168546
34.68025 764.979887368878
34.70036 766.868000539547
34.72047 845.026006111906
34.74059 756.014305620941
34.7607 810
34.78082 779.991353311767
34.80093 812.020417124039
34.82104 788.961588527984
34.84116 792.987024104002
34.86127 796.974240073309
34.88138 806.036429456575
34.9015 741
34.92161 746.005363510777
34.94173 746.015502040171
34.96184 773.057353135582
34.98195 785.021828927947
35.00207 770.004248839788
35.02218 778.997943893608
35.04229 759.019081990164
35.06241 719.98727426389
35.08252 725.03857543094
35.10264 759.981088326905
35.12275 707.869924067568
35.14286 688.988150531214
35.16298 711.959410613781
35.18309 745.000596958916
35.2032 712
35.22332 690.982870967263
35.24343 685.035510804255
35.26354 717.000365628234
35.28366 694.989043695964
35.30377 732.961441261882
35.32389 718.019727682926
35.344 680
35.36411 683.019485728782
35.38423 732.037996873638
35.40434 717.927710916012
35.42445 701.925858964559
35.44457 755.953603512132
35.46468 752.003921408963
35.4848 767
35.50491 780.0086271282
35.52502 789.982062656069
35.54514 752.947583651168
35.56525 770.835674181081
35.58536 827.031990205881
35.60548 763.024819484239
35.62559 788.999171587404
35.64571 754.997214859197
35.66582 792.029755435856
35.68593 781.95043570067
35.70605 750.94995449547
35.72616 741.018042655816
35.74627 723.040864634027
35.76639 701.000675884685
35.7865 713
35.80661 692.983239638491
35.82673 666.991097958924
35.84684 684.061184090805
35.86696 704.012277377525
35.88707 686.995981695001
35.90718 703.00771842208
35.9273 663
35.94741 645.003889965888
35.96752 654.988286890336
35.98764 647.090155134955
36.00775 708.026600731148
36.02787 647.004021732745
36.04798 704.98803895898
36.06809 643.028394117397
36.08821 641.012065541606
36.10832 658.004977014495
36.12843 656.001031897263
36.14855 659.99565442246
36.16866 648.034981480063
36.18878 647.964029942155
36.20889 694.993133861112
36.229 662
36.24912 645.033157466514
36.26923 696.027027969846
36.28934 681.003872285365
36.30946 713.944727648067
36.32957 722.98107053447
36.34968 756.949841798795
36.3698 802
36.38991 795.988154654653
36.41003 800.099659209251
36.43014 904.161464017091
36.45025 945.88596357855
36.47037 979.060194511913
36.49048 913.980132505592
36.51059 992.000499692842
36.53071 898.969833159321
36.55082 923.036722439644
36.57094 906.874175004021
36.59105 841.932355227374
36.61116 839.06267424842
36.63128 786.01437980527
36.65139 791.027293943908
36.6715 699
36.69162 749.036349657671
36.71173 720.920012097021
36.73184 686.983834448466
36.75196 688.025357568965
36.77207 665.010170186738
36.79219 691.974224595145
36.8123 724
36.83241 649.958338770509
36.85253 624.087611021932
36.87264 703.016517845293
36.89275 644.078705060931
36.91287 670.966697717623
36.93298 648.045281118208
36.9531 616
36.97321 646.029973892204
36.99332 678.953343831471
37.01344 593.942476783878
37.03355 633.931681465814
37.05366 607.083247452112
37.07378 587.001110244845
37.09389 612.968080681616
37.11401 669.996672032967
37.13412 618.980539388775
37.15423 648.028634957088
37.17435 641.021539526557
37.19446 667.98790112502
37.21457 647.022561335307
37.23469 650.998367035475
37.2548 643
37.27491 645.009382524237
37.29503 670.023284353323
37.31514 660.933439463336
37.33526 626.026846785864
37.35537 636.976460343833
37.37548 640.007548406601
37.3956 620
37.41571 587.998560198519
37.43582 612.023907980864
37.45594 617.993438644807
37.47605 614.011954390436
37.49617 614.979770141736
37.51628 632.99253545934
37.53639 630.997761310722
37.55651 648.00968949695
37.57662 638.94179156649
37.59673 580.01559070119
37.61685 646.095025920998
37.63696 612.133526010594
37.65708 574.982764685596
37.67719 620.987800022801
37.6973 607
37.71742 606.007854296416
37.73753 613.008606348306
37.75764 603.926267847686
37.77776 561.026228593187
37.79787 582.959447385016
37.81798 592.999483345431
37.8381 599
37.85821 612.992172766216
37.87833 575.96282524248
37.89844 582.044992927494
37.91855 602.962046131819
37.93867 609.999836419519
37.95878 597.033443597332
37.97889 558.010729325581
37.99901 574.025292768612
38.01912 611.980252547164
38.03924 565.002785128641
38.05935 613.044436691961
38.07946 576.078975660464
38.09958 565.999974360581
38.11969 553.01466047454
38.1398 538
38.15992 590.004767514899
38.18003 549.974072152829
38.20015 576.057207473546
38.22026 566.052894815945
38.24037 556.960792806464
38.26049 587.007843163545
38.2806 535
38.30071 547.006064570595
38.32083 552.046788702291
38.34094 590.989176437822
38.36105 561.94940919042
38.38117 609.032882004156
38.40128 530.027554039686
38.4214 590
38.44151 589.953154536555
38.46162 490.001204798982
38.48174 577.101041242336
38.50185 546.090255667918
38.52196 548.9796973386
38.54208 555.974671518951
38.56219 588.99607179425
38.58231 547.959712277541
38.60242 495.033959961538
38.62253 577.04746848608
38.64265 532.880810510034
38.66276 533.938442042808
38.68287 562.978589644258
38.70299 563.000585285866
38.7231 561
38.74321 536.992871987818
38.76333 538.005929057837
38.78344 541.020749650575
38.80356 554.989676624962
38.82367 548.015371708376
38.84378 543.997005391302
38.8639 547
38.88401 539.000550700879
38.90412 555.024273845671
38.92424 562.946716620267
38.94435 524.024987550454
38.96447 539.007194335934
38.98458 517.988599030132
39.00469 561.986172019094
39.02481 560.001708316013
39.04492 567.976633730746
39.06503 528.996092664452
39.08515 555.99551542884
39.10526 522.022129152604
39.12538 551.965798215219
39.14549 558.009147732529
39.1656 550
39.18572 614.053088913566
39.20583 618.940397784015
39.22594 596.104172074489
39.24606 675.997889075948
39.26617 611.018238741073
39.28628 696.890337720225
39.3064 756
39.32651 760.026673674457
39.34663 831.006271850728
39.36674 777.966141046187
39.38685 827.864641443362
39.40697 860.928239027988
39.42708 912.991847666726
39.44719 851.055000569875
39.46731 774.00857382782
39.48742 845.023673352158
39.50754 791.883019813592
39.52765 751.832155405475
39.54776 676.037158267143
39.56788 697.022020221866
39.58799 618.033128910826
39.6081 604
39.62822 609.001739423898
39.64833 597.948505699511
39.66845 555.943194892816
39.68856 558.982084545658
39.70867 553.032893714806
39.72879 539.988929350853
39.7489 575
39.76901 549.004491829094
39.78913 594.032863481371
39.80924 556.853590360034
39.82935 520.867443891782
39.84947 605.988792952011
39.86958 529.058385239168
39.8897 557
39.90981 611.99378810002
39.92992 554.963993687493
39.95004 568.050687893199
39.97015 569.058797056044
39.99026 547.982048688841
40.01038 579.979896265722
40.03049 567.016300348472
40.05061 555.017884009575
40.07072 612.023922767389
40.09083 588.954662187068
40.11095 587.056270480115
40.13106 618.941101665752
40.15117 631.0139577576
40.17129 634.972167609385
40.1914 702
40.21152 638.962563732582
40.23163 659.034965545915
40.25174 664.03744444014
40.27186 683.053193991291
40.29197 629.025322549486
40.31208 658.977877607284
40.3322 645
40.35231 632.997664442514
40.37242 628.994675342234
40.39254 615.950358876963
40.41265 594.991840008457
40.43277 592.089486655823
40.45288 521.982196884874
40.47299 599.99407762789
40.49311 528.97798870391
40.51322 553.024245143642
40.53333 538.965083386429
40.55345 528.993190766917
40.57356 527.997239957156
40.59368 529.002780709011
40.61379 530.990646827719
40.6339 557
40.65402 545.980110087461
40.67413 546.052994834866
40.69424 584.99022900021
40.71436 540.066702086441
40.73447 549.948843350332
40.75458 570.013616265717
40.7747 537
40.79481 541.000028373219
40.81493 535.018072202078
40.83504 554.987314746831
40.85515 517.10007493779
40.87527 495.01849973591
40.89538 494.976416031225
40.91549 533.982856604714
40.93561 550.001729113153
40.95572 548.996655173083
40.97584 535.936139193035
40.99595 506.006597336044
41.01606 540.927808676834
41.03618 561.98014513177
41.05629 569.015947350807
41.0764 521
41.09652 536.994524036843
41.11663 512.014139518841
41.13675 544.979603281014
41.15686 489.090292201521
41.17697 497.926844235657
41.19709 549.984057105995
41.2172 545
41.23731 511.999303509782
41.25743 524.97276612034
41.27754 484.986335749023
41.29765 521.909402630236
41.31777 522.041699847285
41.33788 498.993522753201
41.358 526
41.37811 508.984368438996
41.39822 485.9920285231
41.41834 491.01899203063
41.43845 499.970899747932
41.45856 513.97512001489
41.47868 511.028501834938
41.49879 479.999902376565
41.51891 505.004845165173
41.53902 494.002740738953
41.55913 512.000496022517
41.57925 494.996975560128
41.59936 524.913908874615
41.61947 560.961372500855
41.63959 555.028189821984
41.6597 491
41.67982 525.002883100716
41.69993 484.96893949177
41.72004 503.029121975703
41.74016 500.979683294961
41.76027 525.979994825676
41.78038 511.033501427269
41.8005 488
41.82061 510.000592322872
41.84072 487.98786425617
41.86084 495.005337375322
41.88095 493.951908246516
41.90107 542.904886561174
41.92118 573.037060938512
41.94129 500.021585281091
41.96141 501.998844067171
41.98152 495.037431662747
42.00163 558.0298933282
42.02175 523.922501647633
42.04186 526.976700869617
42.06198 528.003507645062
42.08209 518.012223316411
42.1022 509
42.12232 564.986122956753
42.14243 494.953044953082
42.16254 531.076226819726
42.18266 538.979965013774
42.20277 561.978918050412
42.22289 567.989786764201
42.243 591
42.26311 567.006750022815
42.28323 624.080750248537
42.30334 655.067324249243
42.32345 688.987002597518
42.34357 680.965680922083
42.36368 734.959651091177
42.38379 730.018939348829
42.40391 690.989969953173
42.42402 708.052568045592
42.44414 746.95377849805
42.46425 668.806890460072
42.48436 640.967874317752
42.50448 659.016350395141
42.52459 606.027474974989
42.5447 576
42.56482 563.975955018051
42.58493 536.986995030977
42.60505 532.915595726634
42.62516 489.992812306337
42.64527 534.9615245573
42.66539 516.014161554021
42.6855 503
42.70561 500.005906217911
42.72573 526.043887069481
42.74584 530.92709105684
42.76595 485.013885631631
42.78607 519.960934989013
42.80618 516.005983961258
42.8263 520
42.84641 508.996784719487
42.86652 504.983077949076
42.88664 468.909223601358
42.90675 451.899310241309
42.92686 513.962695005394
42.94698 477.039664923873
42.96709 477.983725014323
42.98721 504.996461021141
43.00732 471.977763247739
43.02743 485.054745268823
43.04755 517.026503596172
43.06766 492.11549300635
43.08777 441.009355203236
43.10789 475.982738253603
43.128 476
43.14812 459.024500488435
43.16823 513.060102201183
43.18834 504.904425612923
43.20846 461.007640229117
43.22857 491.9629568481
43.24868 484.02617070919
43.2688 480
43.28891 531.996194005349
43.30902 466.947219644811
43.32914 467.049912635687
43.34925 485.976266789846
43.36937 480.03647437427
43.38948 454.007630223995
43.40959 461.000991388567
43.42971 473.036178805433
43.44982 558.002157366721
43.46993 480.913626241436
43.49005 482.00421356425
43.51016 460.023433329753
43.53028 470.987581639947
43.55039 478.99063096407
43.5705 506
43.59062 501.981598995163
43.61073 490.013183817403
43.63084 495.93075759873
43.65096 435.067838034345
43.67107 443.976556400758
43.69119 440.006826528056
43.7113 446
43.73141 490.992923119537
43.75153 436.977038034511
43.77164 483.104085961977
43.79175 498.027329740444
43.81187 486.994996954188
43.83198 486.038295644319
43.85209 444.987677522202
43.87221 511.007037774815
43.89232 453.945640649483
43.91244 440.989165328595
43.93255 419.936042346944
43.95266 428.856812153235
43.97278 514.977459265072
43.99289 467.023990893218
44.013 466
44.03312 474.979309693532
44.05323 447.004274133787
44.07335 467.97138947009
44.09346 437.968038910921
44.11357 492.966676090387
44.13369 455.026855343256
44.1538 431
44.17391 456.013034897437
44.19403 462.975281934727
44.21414 450.043786233018
44.23426 491.969696446612
44.25437 460.079395135051
44.27448 440.955645826268
44.2946 508
44.31471 468.982741686913
44.33482 463.988390235706
44.35494 439.988695483072
44.37505 461.929842987545
44.39516 481.962782876581
44.41528 487.027825474208
44.43539 441.014761862726
44.45551 447.01323578967
44.47562 470.010168789927
44.49573 466.988715251957
44.51585 459.975149240477
44.53596 446.030447588271
44.55607 436.996487696597
44.57619 450.989659032689
44.5963 475
44.61642 492.991306716882
44.63653 466.973656607867
44.65664 462.978992117045
44.67676 446.999978744491
44.69687 459.002022053984
44.71698 438.021346421929
44.7371 450
44.75721 509.998392466431
44.77732 452.961804166928
44.79744 475.103634828558
44.81755 509.998068261724
44.83767 479.064866729416
44.85778 455.988950307498
44.87789 482.994594796415
44.89801 480.008712785574
44.91812 504.985205117612
44.93823 461.981756885539
44.95835 489.039941133845
44.97846 477.014066351723
44.99858 491.978964136193
45.01869 504.996781051844
45.0388 502
45.05892 480.989616832784
45.07903 487.020657963886
45.09914 491.976203590947
45.11926 461.086790359033
45.13937 430.994393775059
45.15949 451.999350118983
45.1796 431
45.19971 456.023145923154
45.21983 493.013140837129
45.23994 473.944287593062
45.26005 454.033773716999
45.28017 454.961871685867
45.30028 489.980879570231
45.32039 484.007612805749
45.34051 476.000011452353
45.36062 475.991250090137
45.38074 460.980335948895
45.40085 457.986073127184
45.42096 447.019112899197
45.44108 449.979996535443
45.46119 478.98751422171
45.4813 497
45.50142 497.949989480317
45.52153 444.031970631746
45.54165 523.09970488608
45.56176 499.033799308676
45.58187 518.976548540572
45.60199 524.983970212074
45.6221 571
45.64221 536.97928113955
45.66233 529.043803203767
45.68244 572.058568031293
45.70256 591.917475868883
45.72267 636.005510910411
45.74278 588.038091521484
45.7629 589
45.78301 592.995203183306
45.80312 594.03769650956
45.82324 634.968383884322
45.84335 570.114105409389
45.86346 558.062056287209
45.88358 503.029960214928
45.90369 506.002239695653
45.92381 485.998589247981
45.94392 507.018845126543
45.96403 501.962638647429
45.98415 474.963011192804
46.00426 473.004631740024
46.02437 461.026392700006
46.04449 452.99349200162
46.0646 469
46.08472 426.95197471121
46.10483 410.040184562932
46.12494 465.109193105252
46.14506 492.001490860025
46.16517 463.086871601247
46.18528 411.009232791411
46.2054 448
46.22551 477.003478240645
46.24563 461.946134300713
46.26574 434.016647814922
46.28585 455.045513214119
46.30597 404.037371223512
46.32608 432.94807962272
46.34619 461.006342722065
46.36631 434.000981611799
46.38642 457.995971249754
46.40653 415.940314409475
46.42665 417.102677972532
46.44676 461.974911403668
46.46688 429.055793685875
46.48699 395.993141197201
46.5071 442
46.52722 455.004014777026
46.54733 461.001626962765
46.56744 460.013089925998
46.58756 460.060219254535
46.60767 418.017091125999
46.62779 449.977241610514
46.6479 472
46.66801 438.97994149195
46.68813 420.022329461021
46.70824 450.027187013711
46.72835 439.031266017078
46.74847 437.99912043994
46.76858 438.98986026996
46.78869 448.005666885539
46.80881 430.004209859546
46.82892 465.028499660153
46.84904 466.975800775707
46.86915 455.982495203976
46.88926 453.003213506215
46.90938 446.016343572138
46.92949 426.006783999574
46.9496 428
46.96972 449.01473919761
46.98983 444.962236123536
47.00995 412.946030490944
47.03006 411.973762471387
47.05017 421.010358993795
47.07029 409.995668329204
47.0904 431
47.11051 423.010960850861
47.13063 457.986260530691
47.15074 416.992902910702
47.17086 450.001289813768
47.19097 411.017835811607
47.21108 450.949122991302
47.2312 480
47.25131 476.984707709766
47.27142 432.967667888409
47.29154 426.015614022777
47.31165 436.967681213897
47.33176 452.9581864991
47.35188 469.001061479347
47.37199 440.027676360899
47.39211 402.011301399953
47.41222 457.015796394731
47.43233 428.99183227182
47.45245 457.015530463194
47.47256 425.062391432301
47.49267 417.996507436496
47.51279 432.977152929699
47.5329 476
47.55302 422.972760806109
47.57313 441.025248601969
47.59324 432.979218029704
47.61336 434.986428118779
47.63347 436.011642570205
47.65358 425.005528046371
47.6737 431
47.69381 436.990837093821
47.71393 407.984592644956
47.73404 430.077567503549
47.75415 446.078534861615
47.77427 403.986178604369
47.79438 455.975988385724
47.81449 432.010741412763
47.83461 440.007071382267
47.85472 441.99470003624
47.87483 431.974717184078
47.89495 411.957836033184
47.91506 421.891543754242
47.93518 490.964455051084
47.95529 467.03093661292
47.9754 417
47.99552 452.052433622206
48.01563 471.944687102968
48.03574 422.010537501331
48.05586 469.980800178399
48.07597 427.043464582778
48.09609 438.993227533885
48.1162 438
48.13631 457.004919142964
48.15643 440.942891947254
48.17654 410.004286017688
48.19665 434.971277276592
48.21677 429.98272085552
48.23688 447.021836183217
48.257 414
48.27711 475.997560635651
48.29722 413.99102461908
48.31734 469.040366307765
48.33745 425.908396161433
48.35756 428.985784116677
48.37768 423.000533425787
48.39779 435.992053817672
48.4179 440
48.43802 428.009467201701
48.45813 444.984146174641
48.47825 408.939711295643
48.49836 419.935251495255
48.51847 453.956652706925
48.53859 461.012752771656
48.5587 422
48.57881 428.008099415189
48.59893 435.998893565863
48.61904 424.955426857434
48.63916 406.993086760704
48.65927 430.960218474374
48.67938 431.037835529142
48.6995 393
48.71961 443.013618381881
48.73972 430.992761884649
48.75984 438.979650193636
48.77995 411.02894599237
48.80006 426.958465986457
48.82018 429.017720734059
48.84029 403.010708318519
48.86041 406.017368343947
48.88052 452.028763034748
48.90063 440.93172833925
48.92075 401.002560819919
48.94086 427.00054825982
48.96097 388.058138657073
48.98109 385.983585590536
49.0012 426
49.02132 431.018511402026
49.04143 459.005689237755
49.06154 432.944076908961
49.08166 427.968910578651
49.10177 432.055538968979
49.12188 389.980614485839
49.142 463
49.16211 453.982527870591
49.18223 437.015925418897
49.20234 462.033040236169
49.22245 458.034974750922
49.24257 446.012500890713
49.26268 454.961702927862
49.28279 492.003835090866
49.30291 448.987320423136
49.32302 457.004772280707
49.34313 450.013796522149
49.36325 460.92598801777
49.38336 418.966588151648
49.40348 485.962451516487
49.42359 465.01471625771
49.4437 460
49.46382 459.001129183978
49.48393 461.998311748246
49.50404 455.98875275161
49.52416 450.024174004767
49.54427 440.986078536637
49.56439 460.996179584565
49.5845 446
49.60461 432.002709409903
49.62473 451.02727280431
49.64484 460.010729440363
49.66495 461.024445756655
49.68507 444.02093642264
49.70518 442.988170400598
49.7253 467
49.74541 488.992268723489
49.76552 468.029593163302
49.78564 541.105081665423
49.80575 557.063747177904
49.82586 584.052506631828
49.84598 525.016066691829
49.86609 570.974258017644
49.8862 603
49.90632 666.060300043725
49.92643 704.025826372575
49.94655 726.124814652941
49.96666 785.945318617871
49.98677 788.957821035782
50.00689 856.964080631795
50.027 917
50.04711 985.021989528684
50.06723 986.949499964101
50.08734 941.924361555033
50.10746 910.088682116172
50.12757 867.012273168105
50.14768 885.994859855456
50.1678 840
50.18791 748.978721416645
50.20802 758.018465746093
50.22814 740.889297665914
50.24825 679.080701474664
50.26837 664.067120941771
50.28848 580.083990480059
50.30859 534.003702883832
50.32871 532.986585827152
50.34882 486.974344816075
50.36893 483.974968115688
50.38905 452.977043225024
50.40916 472.95889614978
50.42927 490.939601324803
50.44939 525.013281230128
50.4695 452
50.48962 462.039666862337
50.50973 478.958155883048
50.52984 430.958255466619
50.54996 448.956504643605
50.57007 456.982848280567
50.59018 472.995878030419
50.6103 446
50.63041 411.026807763349
50.65053 510.055966848025
50.67064 456.867315016017
50.69075 441.937092295704
50.71087 470.98836784118
50.73098 453.023157965336
50.75109 435.011284977727
50.77121 423.01196492331
50.79132 458.998535190413
50.81143 419.959126784904
50.83155 429.052881718804
50.85166 441.98369785655
50.87178 446.0032186259
50.89189 441.997621301119
50.912 445
50.93212 417.998939517906
50.95223 448.04832564809
50.97234 455.970974132886
50.99246 427.073041919146
51.01257 411.95568313831
51.03269 451.005181152571
51.0528 404
51.07291 437.008018199159
51.09303 423.006565325914
51.11314 451.016961839638
51.13325 427.06539962659
51.15337 418.998902054695
51.17348 420.994747712212
51.1936 421
51.21371 392.987165994646
51.23382 389.023005266834
51.25394 428.076454438918
51.27405 455.940880497272
51.29416 455.105048003795
51.31428 384.027959821066
51.33439 420.968689042535
51.3545 458
51.37462 435.989039656785
51.39473 443.00134503328
51.41485 423.928541486764
51.43496 405.993697757451
51.45507 423.975729234371
51.47519 426.004061012749
51.4953 414
51.51541 406.001223435415
51.53553 418.023526187655
51.55564 441.078681499353
51.57576 470.036028534789
51.59587 418.054252456124
51.61598 417.992737356123
51.6361 412
51.65621 409.004557970195
51.67632 431.031094449949
51.69644 441.92980340046
51.71655 385.068941531226
51.73667 405.942595923212
51.75678 425.006183175325
51.77689 411.997751907212
51.79701 430.001525153397
51.81712 418.001147523322
51.83723 436.015547053371
51.85735 427.967791539489
51.87746 416.036666154957
51.89757 399.995768521402
51.91769 410.005509470274
51.9378 392
51.95792 433.009938136185
51.97803 413.007944393823
51.99814 442.997898953325
52.01826 404.055277868044
52.03837 412.966555223392
52.05848 422.007855593074
52.0786 412
52.09871 431.004890443119
52.11883 426.999077903383
52.13894 419.919659637909
52.15905 381.932334987264
52.17917 450.963324928161
52.19928 408.046852529579
52.21939 402.990183963914
52.23951 414.994563749754
52.25962 399.011898821491
52.27974 441.082098014154
52.29985 449.939677401182
52.31996 424.984569708086
52.34008 454.991651176272
52.36019 424.021986603222
52.3803 413
52.40042 466.000385501815
52.42053 415.947295914626
52.44064 424.030173312594
52.46076 423.008573794392
52.48087 429.97018193595
52.50099 448.998853122001
52.5211 439
52.54121 437.986721692117
52.56133 413.046229205831
52.58144 463.962403954994
52.60155 387.081923340058
52.62167 422.95842160725
52.64178 424.964619978306
52.6619 482
52.68201 433.982439745686
52.70212 434.993653022807
52.72224 417.019464766042
52.74235 448.977373444806
52.76246 418.085974076857
52.78258 405.965478138483
52.80269 453.993936630888
52.8228 434
52.84292 470.032997024545
52.86303 469.961939708293
52.88315 448.006982824058
52.90326 462.019142169828
52.92337 434.009468556332
52.94349 455.991660984204
52.9636 449
52.98371 435.993095801555
53.00383 438.057167052699
53.02394 484.009604535258
53.04406 443.084111729365
53.06417 431.987268979819
53.08428 453.959213686297
53.1044 486
53.12451 450.996231901369
53.14462 482.028866776369
53.16474 484.986892161108
53.18485 478.036183010475
53.20497 453.046324685133
53.22508 439.975437502125
53.24519 477.996463885081
53.26531 453.994529846431
53.28542 469.009937791235
53.30553 468.01938558901
53.32565 498.062659877121
53.34576 500.035456075821
53.36587 476.029836850786
53.38599 467.00063434558
53.4061 469
53.42622 473.00301303054
53.44633 482.034107080787
53.46644 501.985252212949
53.48656 468.069401304151
53.50667 458.972844590564
53.52678 489.972241743383
53.5469 499
53.56701 490.005542003929
53.58713 509.997301928342
53.60724 492.003800938746
53.62735 524.903449305804
53.64747 531.060236506336
53.66758 477.020947782572
53.68769 498.985892203847
53.70781 512.006275698679
53.72792 509.954386279995
53.74804 462.041287247172
53.76815 532.073547241898
53.78826 501.04392635705
53.80838 523.965519200914
53.82849 534.00875318559
53.8486 511
53.86872 529.01528724853
53.88883 520.957626189116
53.90894 510.082071767231
53.92906 572.962309605307
53.94917 532.076858923656
53.96929 510.000983883162
53.9894 517
54.00951 524.994850586345
54.02963 522.06289151318
54.04974 575.990093047837
54.06985 514.113895274263
54.08997 513.000879382607
54.11008 494.011789797948
54.1302 499
54.15031 506.012017357752
54.17042 534.002460205522
54.19054 506.937901350507
54.21065 500.941890025285
54.23076 527.998327868205
54.25088 501.026255688543
54.27099 504.982245103629
54.29111 537.997266705744
54.31122 488.938449729415
54.33133 470.073281703667
54.35145 550.121404610405
54.37156 538.08053691399
54.39167 499.059678131273
54.41179 492.967479648518
54.4319 568
54.45201 474.969857706452
54.47213 498.07054782919
54.49224 526.048565185754
54.51236 546.996303793716
54.53247 540.980726261778
54.55258 566.993694528563
54.5727 543
54.59281 532.008565532129
54.61292 548.98134681055
54.63304 506.965467615656
54.65315 534.885800203795
54.67327 573.948513662412
54.69338 598.991872638696
54.71349 594.003518789523
54.73361 603.015992169919
54.75372 642.022399735331
54.77383 629.938253198705
54.79395 602.057227899106
54.81406 654.951969249906
54.83417 638.017810175333
54.85429 653.989814570391
54.8744 638
54.89452 568.001657772453
54.91463 625.036900114146
54.93474 597.978181623468
54.95486 618.00387350995
54.97497 582.043627200115
54.99508 591.959492787676
55.0152 608
55.03531 518.981796364245
55.05543 547.02877318332
55.07554 519.924589502162
55.09565 519.872913798799
55.11577 578.984439308649
55.13588 544.02029608177
55.15599 554.001963327803
55.17611 530.998633845512
55.19622 547.997033024151
55.21634 531.029091988865
55.23645 571.034496376887
55.25656 554.996441852307
55.27668 571.020975544577
55.29679 528.997662320965
55.3169 565
55.33702 504.98686306335
55.35713 549.031429647972
55.37724 511.899613826703
55.39736 497.944730573301
55.41747 530.009546254258
55.43759 496.00389927148
55.4577 513
55.47781 469.991544964566
55.49793 495.040861462355
55.51804 487.922879840458
55.53815 452.002829926464
55.55827 484.948512206561
55.57838 494.010761705621
55.5985 476
55.61861 487.03104168932
55.63872 538.957737141794
55.65884 441.944702308051
55.67895 486.012969760518
55.69906 428.980408792629
55.71918 511.9572807917
55.73929 487.003675093155
55.75941 504.982834543216
55.77952 444.016185695236
55.79963 518.01314958503
55.81975 447.900238279892
55.83986 487.877628302683
55.85997 520.980577915261
55.88009 514.017603141969
55.9002 469
55.92031 463.997493225508
55.94043 455.00828651396
55.96054 471.007856182312
55.98066 450.071788470134
56.00077 432.960440029586
56.02088 473.998258820855
56.041 450
56.06111 499.00110700575
56.08122 448.970328077939
56.10134 463.018420184047
56.12145 451.995574223991
56.14157 468.002191976372
56.16168 447.010711111744
56.18179 457.992811491082
56.20191 456.991517672173
56.22202 449.026650115118
56.24213 495.03590155704
56.26225 475.894716733003
56.28236 445.00893732131
56.30248 462.978475581147
56.32259 477.991574124787
56.3427 479
56.36282 434.01662922757
56.38293 491.016178098001
56.40304 442.933216085746
56.42316 459.939791373532
56.44327 463.040921706751
56.46338 446.959638931548
56.4835 517
56.50361 487.98762341167
56.52373 474.920427468191
56.54384 412.019743811304
56.56395 483.900016739524
56.58407 453.071480059505
56.60418 436.989611118577
56.62429 449.002981269011
56.64441 438.008264794002
56.66452 483.041439683314
56.68464 484.915608825992
56.70475 445.034368096069
56.72486 485.025409386461
56.74498 428.013747507493
56.76509 474.981187065657
56.7852 474
56.80532 485.992860438986
56.82543 465.001495155056
56.84554 490.030601481976
56.86566 477.052464111097
56.88577 459.99978925272
56.90589 464.006634128391
56.926 449
56.94611 477.987238251397
56.96623 418.988560569713
56.98634 465.035504928316
57.00645 433.053543955579
57.02657 448.969838302288
57.04668 452.999323678091
57.0668 464
57.08691 483.00048846847
57.10702 471.997968891759
57.12714 470.942633435062
57.14725 427.043049120848
57.16736 449.929782121
57.18748 469.994888293604
57.20759 459.014296118959
57.22771 444.015868790714
57.24782 492.000206910038
57.26793 442.946238977859
57.28805 450.045166828234
57.30816 460.965774654528
57.32827 477.00919270925
57.34839 445.020073512382
57.3685 433
57.38861 485.008912987579
57.40873 454.938227522318
57.42884 446.061366327364
57.44896 487.966733513472
57.46907 471.034451567662
57.48918 452.032201085229
57.5093 427
57.52941 466.997438825944
57.54952 416.969986328231
57.56964 432.041827769742
57.58975 432.022220424103
57.60987 423.018447121986
57.62998 418.980731851863
57.65009 444.001100239881
57.67021 431.012739525683
57.69032 478.001870219783
57.71043 435.972554136066
57.73055 464.074631485748
57.75066 461.052976225746
57.77078 434.013497489159
57.79089 434.000095964592
57.811 425
57.83112 416.999862984504
57.85123 437.07360419901
57.87134 479.983936850715
57.89146 435.045268220242
57.91157 446.999424925185
57.93168 426.005632465685
57.9518 444
57.97191 435.991574328431
57.99203 424.996461525893
58.01214 433.034835383181
58.03225 452.959896075889
58.05237 460.9973371684
58.07248 450.032017854897
58.09259 414.006951106521
58.11271 421.000488878189
58.13282 419.024883931902
58.15294 453.996074814845
58.17305 426.008689440272
58.19316 455.017823436359
58.21328 418.988754803095
58.23339 462.007690825792
58.2535 397
58.27362 443.019491684523
58.29373 423.021858108268
58.31385 469.000151773968
58.33396 426.011799570684
58.35407 464.982401858524
58.37419 439.000953043977
58.3943 471
58.41441 438.973372174998
58.43453 415.048310362426
58.45464 465.0046215577
58.47475 417.087916887575
58.49487 426.962407952517
58.51498 447.972656178877
58.5351 465
58.55521 420.988136257582
58.57532 427.002615625606
58.59544 429.0743455048
58.61555 476.013193571405
58.63566 434.996769710785
58.65578 476.001736845301
58.67589 421.018124435764
58.69601 437.015123728144
58.71612 446.992765656764
58.73623 429.966588108612
58.75635 421.047012734474
58.77646 445.016361741725
58.79657 411.0241035473
58.81669 429.986269226464
58.8368 443
58.85691 436.993341000386
58.87703 417.965406696481
58.89714 408.038138087476
58.91726 446.934065147045
58.93737 462.980756983081
58.95748 468.021553711758
58.9776 432
58.99771 437.002499069379
59.01782 435.00792891254
59.03794 444.974334465511
59.05805 429.929089398578
59.07817 475.016788368224
59.09828 413.033900411406
59.11839 441.97596592623
59.13851 454.983457699544
59.15862 419.015617331143
59.17873 476.050344174611
59.19885 452.87805061411
59.21896 424.980961944584
59.23908 450.994942148343
59.25919 432.004376202377
59.2793 448
59.29942 462.014425923638
59.31953 470.984955537353
59.33964 448.973518376336
59.35976 457.951847691334
59.37987 477.994829708603
59.39998 474.986999885704
59.4201 494
59.44021 461.989681494834
59.46033 459.983333535302
59.48044 444.022540984091
59.50055 471.995682390664
59.52067 456.969189839856
59.54078 505.982657032253
59.56089 482.007541382622
59.58101 509.025960511106
59.60112 539.980440895441
59.62124 494.968754911115
59.64135 524.086975401103
59.66146 538.984847357299
59.68158 548.990783586201
59.70169 560.989386890996
59.7218 585
59.74192 604.053933420191
59.76203 670.037201177055
59.78215 660.034346627664
59.80226 710.91549564992
59.82237 726.974771309609
59.84249 758.98315049005
59.8626 778
59.88271 770.999860677842
59.90283 785.032173172414
59.92294 793.966155388846
59.94305 770.988690222599
59.96317 782.055319794305
59.98328 700.068555641607
60.0034 683
60.02351 682.977949351177
60.04362 625.990767124073
60.06374 657.007249200233
60.08385 626.012983375393
60.10396 653.983631062444
60.12408 625.030199857816
60.14419 602.021288965802
60.16431 550.989854619217
60.18442 573.037323022867
60.20453 584.958600837732
60.22465 533.891047987745
60.24476 522.965858892249
60.26487 539.014272982601
60.28499 518.995366263503
60.3051 554
60.32522 527.94892010763
60.34533 499.03461015528
60.36544 543.007681937823
60.38556 500.070232288006
60.40567 500.982710778838
60.42578 511.975228622392
60.4459 539
60.46601 507.976168057552
60.48612 481.014852265819
60.50624 526.084330018442
60.52635 527.115311221894
60.54647 479.992436072847
60.56658 522.986381995321
60.58669 486.02069908126
60.60681 468.995394858162
60.62692 465.015547820572
60.64703 484.992243353352
60.66715 462.997551527836
60.68726 481.999651106062
60.70738 452.032544546061
60.72749 456.972319372454
60.7476 521
60.76772 478.942629378269
60.78783 446.987714297709
60.80794 458.05526160221
60.82806 489.948681928634
60.84817 498.016844679353
60.86828 486.989581336996
60.8884 513
60.90851 507.997731400147
60.92863 509.992514567775
60.94874 485.9173663289
60.96885 456.969431220399
60.98897 509.903808421004
61.00908 543.012031071147
61.02919 507.012361095473
61.04931 515.013653781084
61.06942 527.978112771362
61.08954 490.977026269609
61.10965 513.058621290175
61.12976 518.997699573869
61.14988 527.983468067799
61.16999 534.011261969185
61.1901 514
61.21022 568.999460729458
61.23033 512.950401331297
61.25045 553.213882472261
61.27056 610.039900965877
61.29067 546.04087393235
61.31079 569.995432777168
61.3309 544
61.35101 553.000614712464
61.37113 549.037944103133
61.39124 584.986557293703
61.41135 531.12914609651
61.43147 522.957108324521
61.45158 552.000276883651
61.4717 548
61.49181 620.006967742575
61.51192 564.947470377387
61.53204 563.052532672847
61.55215 580.019554512994
61.57226 556.031959070129
61.59238 559.988111831636
61.61249 570.993423412874
61.63261 580.999084488797
61.65272 562.970239638579
61.67283 535.97980909252
61.69295 542.052693836772
61.71306 558.010504940673
61.73317 530.053996698411
61.75329 516.986568227668
61.7734 550
61.79352 507.993850456098
61.81363 540.010342838049
61.83374 525.05821998355
61.85386 583.98481649031
61.87397 526.085283893905
61.89408 510.998208809651
61.9142 515
61.93431 531.996862400408
61.95442 510.996327825989
61.97454 517.958427218509
61.99465 486.961915670369
62.01477 533.988602728015
62.03488 491.03335234724
62.05499 496.992368809011
62.07511 498.998078265909
62.09522 499.006103406094
62.11533 516.045350416647
62.13545 535.958392392508
62.15556 492.070054159071
62.17568 489.980208724397
62.19579 524.972886203338
62.2159 566
62.23602 525.988407046143
62.25613 542.981733999856
62.27624 490.911003132422
62.29636 490.930142298323
62.31647 524.990418220947
62.33659 516.991314670124
62.3567 536
62.37681 460.993922468362
62.39693 523.0796099505
62.41704 512.909211786734
62.43715 482.976923246337
62.45727 523.937793022568
62.47738 532.028782257237
62.49749 493.009350039375
62.51761 487.986074845011
62.53772 461.034556757647
62.55784 522.988468142156
62.57795 447.872061621887
62.59806 464.925223874537
62.61818 485.98483288456
62.63829 487.016162367917
62.6584 453
62.67852 506.026082036181
62.69863 482.953786450433
62.71875 466.951977369399
62.73886 450.975604063084
62.75897 485.959175391
62.77909 469.033591602541
62.7992 417
62.81931 498.005413100607
62.83943 425.921489040453
62.85954 450.111714468004
62.87965 483.995525310427
62.89977 467.018947806919
62.91988 471.987140743384
62.94 475
62.96011 462.008576430759
62.98022 499.018047154686
63.00034 478.922413824194
63.02045 452.007296732803
63.04056 462.994022571709
63.06068 440.044690789628
63.08079 401.004598256362
63.10091 435.03323704658
63.12102 473.961101522604
63.14113 396.963102919027
63.16125 454.195527389332
63.18136 479.087307527738
63.20147 421.003759238214
63.22159 482.967465523514
63.2417 490
63.26182 416.94548696011
63.28193 408.038112391689
63.30204 444.067283487057
63.32216 465.974327353201
63.34227 466.02941857624
63.36238 442.005898657401
63.3825 454
63.40261 448.998850589328
63.42272 458.013903769023
63.44284 464.988824500713
63.46295 447.060441861367
63.48307 429.007447461382
63.50318 441.971019226248
63.52329 467.997303726244
63.54341 446.982217026717
63.56352 428.017536797298
63.58363 461.010999186463
63.60375 439.97182924839
63.62386 453.966374576277
63.64398 458.999301267803
63.66409 459.002326265217
63.6842 451
63.70432 456.019540857938
63.72443 474.999173426809
63.74454 459.988919394338
63.76466 470.978631040281
63.78477 473.99320394628
63.80489 479.002473688647
63.825 475
63.84511 508.009215193518
63.86523 503.991780205331
63.88534 516.054981505222
63.90545 539.993027154091
63.92557 524.022402954842
63.94568 523.990840585366
63.96579 529.003405870173
63.98591 509.988166487941
64.00602 491.991058910847
64.02614 486.98159941006
64.04625 478.009820333661
64.06636 495.959585499324
64.08648 511.983445735391
64.10659 523.002908620072
64.1267 508
64.14682 507.981715708059
64.16693 472.960579154039
64.18705 460.958018445615
64.20716 442.991985426046
64.22727 455.025462983334
64.24739 411.015674995748
64.2675 417
64.28761 444.007034052677
64.30773 440.979567554242
64.32784 431.003228551932
64.34796 431.045096966041
64.36807 398.014765833097
64.38818 419.971143839245
64.4083 434
64.42841 434.002742523006
64.44852 438.99111522144
64.46864 415.95249083321
64.48875 406.97881550231
64.50886 425.960428516371
64.52898 435.00400036334
64.54909 421.009316262071
64.56921 411.003457576282
64.58932 423.999944899568
64.60943 418.021232233694
64.62955 443.000616763593
64.64966 417.036105351212
64.66977 414.021650999831
64.68989 391.000852166915
64.71 415
64.73012 420.994458616666
64.75023 416.001434584451
64.77034 426.033425194735
64.79046 438.004471747073
64.81057 419.043138118127
64.83068 391.022971466027
64.8508 386
64.87091 419.009049572531
64.89102 411.98303409359
64.91114 393.950224189444
64.93125 378.954850650224
64.95137 412.985928904243
64.97148 385.037442743239
64.99159 383.9730942229
65.01171 448.005017182802
65.03182 410.986471556642
65.05193 446.057540939751
65.07205 434.828528618256
65.09216 375.945592131826
65.11228 448.998020819563
65.13239 376.017386312031
65.1525 408
65.17262 381.994248427035
65.19273 414.039833214257
65.21284 423.043593415582
65.23296 442.06039124059
65.25307 389.003903396448
65.27319 441.979949985998
65.2933 436
65.31341 428.995608680745
65.33353 423.020810658967
65.35364 432.930541534505
65.37375 376.037180562873
65.39387 420.912104588684
65.41398 448.004630071523
65.43409 426.012492249184
65.45421 416.004533169239
65.47432 425.988716332366
65.49444 404.000390564878
65.51455 426.026962262834
65.53466 425.955762572584
65.55478 459.000947034687
65.57489 416.023997407034
65.595 407
65.61512 457.019423508981
65.63523 440.978774886017
65.65535 439.966238949592
65.67546 417.006720958099
65.69557 435.977271114035
65.71569 433.004704756525
65.7358 422
65.75591 412.011917941988
65.77603 450.011272586988
65.79614 425.975176053673
65.81626 437.987488279497
65.83637 424.027842276685
65.85648 412.009613877966
65.8766 407
65.89671 426.013179359706
65.91682 441.992749266136
65.93694 415.945366571612
65.95705 404.984501156989
65.97716 417.982750194513
65.99728 420.992873678526
66.01739 431.997677893485
66.03751 418.984167816288
66.05762 393.005620772729
66.07773 423.031915719998
66.09785 416.951811249439
66.11796 410.960083301075
66.13807 437.996716976783
66.15819 418.003790517981
66.1783 424
66.19842 402.014534783413
66.21853 437.996238608245
66.23864 390.924562075049
66.25876 396.938131816539
66.27887 417.012481790645
66.29898 397.994464149335
66.3191 418
66.33921 382.996846428026
66.35933 413.032086330277
66.37944 410.002259143085
66.39955 423.982988837079
66.41967 415.020161322984
66.43978 409.994817135113
66.45989 414.005159673653
66.48001 393.99419451807
66.50012 392.994121998904
66.52023 383.003392429018
66.54035 411.126905023543
66.56046 443.052688091102
66.58058 379.041124662773
66.60069 394.97628948663
66.6208 426
66.64092 396.992027682788
66.66103 416.015863766057
66.68114 409.002720356199
66.70126 425.972673747411
66.72137 425.012554577821
66.74149 425.990077036294
66.7616 448
66.78171 416.981468111799
66.80183 396.997736135182
66.82194 404.008784716469
66.84205 406.965804527439
66.86217 427.981417944394
66.88228 425.009413637017
66.90239 423.993328786792
66.92251 433.991420771296
66.94262 403.995541859413
66.96274 424.01052156271
66.98285 402.950344276732
67.00296 406.953225930651
67.02308 432.984144904654
67.04319 429.010534379349
67.0633 408
67.08342 418.012853472108
67.10353 413.958850288518
67.12365 388.018245419105
67.14376 421.956014190937
67.16387 428.959736445901
67.18399 460.008054491648
67.2041 412
67.22421 448.016233902052
67.24433 437.940968465073
67.26444 414.04697853698
67.28456 452.025867181095
67.30467 407.984900589077
67.32478 471.968111737956
67.3449 456
67.36501 501.015533994295
67.38512 488.968183422829
67.40524 469.001428194609
67.42535 474.039216479253
67.44546 455.953464177687
67.46558 502.991279997424
67.48569 464.017033994105
67.50581 483.033929278352
67.52592 553.028282509435
67.54603 552.037182773921
67.56615 586.935320189182
67.58626 521.027351524314
67.60637 577.91892962624
67.62649 591.995210134889
67.6466 612
67.66672 613.016421345473
67.68683 641.017692066581
67.70694 627.961960453182
67.72706 609.061872235817
67.74717 584.977980217707
67.76728 621.989273748631
67.7874 605
67.80751 624.994516448078
67.82763 587.986166077088
67.84774 614.030706278971
67.86785 604.011043432718
67.88797 611.010086947914
67.90808 606.959673233246
67.92819 662.001281837013
67.94831 611.9925412551
67.96842 648.020658387469
67.98853 649.063931291396
68.00865 727.112406865617
68.02876 725.986144479107
68.04888 756.983486944177
68.06899 746.006601970874
68.0891 743
68.10922 729.987365903919
68.12933 720.985556297153
68.14944 702.94100432733
68.16956 671.042515468259
68.18967 681.92178720433
68.20979 735.996789272933
68.2299 691
68.25001 665.994027042889
68.27013 665.03159976317
68.29024 673.903108203902
68.31035 592.111251907302
68.33047 597.999764700141
68.35058 565.036643188743
68.3707 556
68.39081 571.986667939209
68.41092 529.004976744168
68.43104 567.98995926423
68.45115 501.834508642156
68.47126 478.990984107397
68.49138 486.996144876796
68.51149 483.003981792405
68.5316 478
68.55172 479.994410814344
68.57183 458.94661569729
68.59195 440.071596863831
68.61206 485.996947088278
68.63217 428.106182053803
68.65229 403.981587615386
68.6724 468
68.69251 469.99469169461
68.71263 456.950365853071
68.73274 405.903512636152
68.75286 386.965368313125
68.77297 425.941632228828
68.79308 442.008716200465
68.8132 430
68.83331 446.995759348588
68.85342 410.969097264811
68.87354 420.103407139051
68.89365 468.015109561641
68.91376 414.091346275741
68.93388 406.99359235828
68.95399 420.979582297265
68.97411 459.994165082819
68.99422 417.996775610173
69.01433 457.023787114751
69.03445 416.841025487397
69.05456 375.011685047258
69.07467 396.958336137625
69.09479 419.985472393634
69.1149 453
69.13502 453.979781222533
69.15513 426.970084556744
69.17524 418.991215865602
69.19536 414.002440121723
69.21547 410.026274976642
69.23558 395.982374511281
69.2557 430
69.27581 407.996051262933
69.29593 423.006337870559
69.31604 404.963698233613
69.33615 404.963454560603
69.35627 414.020114592004
69.37638 387.014542382719
69.39649 405.9762032444
69.41661 443.997096731197
69.43672 403.969548980683
69.45683 400.999084180261
69.47695 397.030005087212
69.49706 416.005325420732
69.51718 397.998465166211
69.53729 423.9898473932
69.5574 433
69.57752 451.976258281654
69.59763 388.912442775046
69.61774 371.031382338789
69.63786 395.967331325163
69.65797 397.00549752984
69.67809 400.993369221783
69.6982 414
69.71831 394.98173877852
69.73843 374.03815572876
69.75854 423.037281823095
69.77865 393.107572193532
69.79877 378.966645584307
69.81888 414.980511877926
69.839 407
69.85911 402.003854191043
69.87922 415.009550076159
69.89934 411.967748207998
69.91945 400.025389340794
69.93956 416.024997890914
69.95968 384.007939740643
69.97979 406.991364958151
69.9999 403
70.02002 405.997376662587
70.04013 406.035773645057
70.06025 434.98464544268
70.08036 399.040139206628
70.10047 408.986467721658
70.12059 395.013942579474
70.1407 370
70.16081 388.03119295933
70.18093 447.995597264439
70.20104 395.94545681136
70.22116 412.984948843699
70.24127 396.999698943551
70.26138 415.999525395236
70.2815 388
70.30161 376.999235145699
70.32172 389.037970864156
70.34184 435.045655564771
70.36195 417.113796642856
70.38207 379.011644430777
70.40218 396.983379746678
70.42229 396.003969846336
70.44241 394.00310459811
70.46252 410.024921102912
70.48263 428.997855781946
70.50275 415.996487171854
70.52286 421.033373196691
70.54297 398.973840899632
70.56309 433.008796633276
70.5832 373
70.60332 403.026304709789
70.62343 391.963753852153
70.64354 385.033367279747
70.66366 418.924704938825
70.68377 435.027548879866
70.70388 406.002753732233
70.724 423
70.74411 394.998184112224
70.76423 423.031827749511
70.78434 413.950479159081
70.80445 406.925110111435
70.82457 446.994914345109
70.84468 407.043199116126
70.86479 393.994416468421
70.88491 408.000715103239
70.90502 396.992021408572
70.92513 403.023438537956
70.94525 414.998008062961
70.96536 407.001046627676
70.98548 404.029895590851
71.00559 374.98765428138
71.0257 438
71.04582 413.961851674782
71.06593 396.996798414358
71.08604 399.003957023422
71.10616 398.00555722339
71.12627 405.955015077301
71.14639 442.99151395497
71.1665 438
71.18661 436.987184217613
71.20673 399.987110059314
71.22684 414.989166005512
71.24695 391.983894631921
71.26707 431.954536878368
71.28718 426.026057247039
71.3073 407
71.32741 423.009776166364
71.34752 426.982058411606
71.36764 399.966998557731
71.38775 400.98401385281
71.40786 408.964340877046
71.42798 425.006157129712
71.44809 406.999531888925
71.4682 427
71.48832 431.037447426503
71.50843 482.009290785872
71.52855 433.86574497448
71.54866 408.023680707535
71.56877 404.977582414182
71.58889 417.010601938774
71.609 393
71.62911 454.999025425527
71.64923 398.987226924462
71.66934 438.977512046979
71.68946 380.999858742754
71.70957 449.9339220198
71.72968 431.026689859171
71.7498 423
71.76991 395.996899072122
71.79002 417.024879893959
71.81014 420.962418664841
71.83025 400.993471820554
71.85037 428.951595473073
71.87048 449.985436514763
71.89059 457.00345093341
71.91071 443.997593009857
71.93082 444.990364300864
71.95093 433.015742076458
71.97105 461.038919784626
71.99116 447.061793839388
72.01127 424.00354110466
72.03139 436.994844637615
72.0515 433
72.07162 413.969126236669
72.09173 390.010764399665
72.11184 421.046596522785
72.13196 414.057262788893
72.15207 400.952776847546
72.17218 450.987169055108
72.1923 425
72.21241 449.012450739359
72.23253 444.956358377298
72.25264 417.99778701005
72.27275 442.93163272472
72.29287 456.988051583747
72.31298 462.002438154498
72.33309 447.014005936852
72.35321 436.018475948123
72.37332 478.975751045575
72.39344 402.922536250441
72.41355 424.039192621076
72.43366 411.000220525708
72.45378 437.973560129379
72.47389 448.996109085376
72.494 448
72.51412 420.016562880848
72.53423 458.99171938312
72.55434 411.962518922844
72.57446 438.958758146836
72.59457 434.992775345947
72.61469 452.000596733006
72.6348 425
72.65491 428.024522859125
72.67503 477.987746049566
72.69514 426.960379555762
72.71525 459.916362534965
72.73537 463.009886711596
72.75548 456.018947191173
72.7756 432
72.79571 435.999789213045
72.81582 435.020719909044
72.83594 464.002323000033
72.85605 437.048120636496
72.87616 433.033130381523
72.89628 417.971077906067
72.91639 477.982508582567
72.9365 462
72.95662 426.962555511132
72.97673 407.034658751445
72.99685 453.057157404427
73.01696 441.026377585372
73.03707 449.96873039928
73.05719 459.008260191351
73.0773 424
73.09741 416.008700546692
73.11753 445.038113380468
73.13764 464.048368992459
73.15776 479.04146009567
73.17787 439.023991812311
73.19798 466.951385762384
73.2181 485
73.23821 427.99999635131
73.25832 489.053390486147
73.27844 489.942541907863
73.29855 477.928468594281
73.31867 515.016640956646
73.33878 472.001798228519
73.35889 514.990981689144
73.37901 490.993236636574
73.39912 495.979455985696
73.41923 465.027009744333
73.43935 524.081107124877
73.45946 497.104348264437
73.47957 449.071217051394
73.49969 425.984944236799
73.5198 493
73.53992 493.939893270702
73.56003 433.004554362728
73.58014 486.049136549251
73.60026 457.058933333971
73.62037 460.971888179528
73.64048 459.039554238233
73.6606 410
73.68071 433.006065104565
73.70083 425.013143349759
73.72094 444.977573083057
73.74105 412.00641964121
73.76117 441.981150940453
73.78128 417.032596471369
73.80139 406.993328526793
73.82151 431.010469017194
73.84162 426.962520098462
73.86174 385.989250000996
73.88185 414.051503474385
73.90196 404.046497942446
73.92208 395.981356768286
73.94219 425.992895059342
73.9623 419
73.98242 423.003962531984
74.00253 424.008745762309
74.02264 435.017162559628
74.04276 429.050209807726
74.06287 404.000946703462
74.08299 425.990776192309
74.1031 417
74.12321 383.996843856164
74.14333 411.06270478182
74.16344 438.000446665052
74.18355 421.031939652304
74.20367 422.990754417125
74.22378 423.005927889302
74.2439 419
74.26401 424.994663976601
74.28412 399.980289571151
74.30424 403.047921990677
74.32435 431.952246841471
74.34446 429.04597909007
74.36458 407.998623749978
74.38469 422.001760251447
74.40481 405.001914974687
74.42492 429.009179759297
74.44503 415.988248659112
74.46515 417.973444922538
74.48526 399.000715685871
74.50537 412.008582625287
74.52549 387.006192747546
74.5456 397
74.56571 405.012105290056
74.58583 435.009158445101
74.60594 409.932038028057
74.62606 397.961146536352
74.64617 426.989227927755
74.66628 404.030022641816
74.6864 399
74.70651 430.996595507612
74.72662 397.994829723084
74.74674 427.031427383124
74.76685 410.05441810219
74.78697 391.054049613812
74.80708 358.986260662997
74.82719 402.991676229187
74.84731 378.989738274376
74.86742 385.011835992128
74.88753 390.0089899645
74.90765 400.022476611653
74.92776 404.000466379395
74.94787 402.998759416766
74.96799 405.998561688131
74.9881 404
75.00822 387.980794573152
