3.00117 19428
3.02128 18678
3.0414 18307
3.06151 18090
3.08162 17239
3.10174 17036
3.12185 16781
3.14197 16176
3.16208 15485
3.18219 15253
3.20231 14486
3.22242 14340
3.24253 13904
3.26265 13138
3.28276 13109
3.30288 12688
3.32299 12252
3.3431 11970
3.36322 11342
3.38333 11297
3.40344 10436
3.42356 10240
3.44367 10034
3.46379 9436
3.4839 9503
3.50401 8823
3.52413 8758
3.54424 8372
3.56435 8090
3.58447 7956
3.60458 7486
3.62469 7169
3.64481 6965
3.66492 6514
3.68504 6408
3.70515 5915
3.72526 5810
3.74538 5661
3.76549 5256
3.7856 5285
3.80572 4867
3.82583 4713
3.84595 4667
3.86606 4298
3.88617 4181
3.90629 3913
3.9264 3776
3.94651 3748
3.96663 3490
3.98674 3499
4.00686 3106
4.02697 3017
4.04708 2862
4.0672 2824
4.08731 2794
4.10742 2447
4.12754 2397
4.14765 2396
4.16776 2286
4.18788 2199
4.20799 1942
4.22811 2026
4.24822 1965
4.26833 1776
4.28845 1774
4.30856 1599
4.32867 1640
4.34879 1725
4.3689 1593
4.38902 1599
4.40913 1330
4.42924 1401
4.44936 1532
4.46947 1351
4.48958 1376
4.5097 1307
4.52981 1179
4.54992 1197
4.57004 1186
4.59015 1195
4.61027 1054
4.63038 1119
4.65049 1088
4.67061 1011
4.69072 1063
4.71083 971
4.73095 955
4.75106 998
4.77118 923
4.79129 861
4.8114 898
4.83152 865
4.85163 869
4.87174 846
4.89186 799
4.91197 739
4.93209 762
4.9522 749
4.97231 789
4.99243 627
5.01254 691
5.03265 659
5.05277 694
5.07288 643
5.09299 612
5.11311 593
5.13322 601
5.15334 593
5.17345 544
5.19356 540
5.21368 580
5.23379 542
5.2539 570
5.27402 546
5.29413 565
5.31425 465
5.33436 492
5.35447 434
5.37459 505
5.3947 381
5.41481 434
5.43493 421
5.45504 402
5.47516 429
5.49527 412
5.51538 380
5.5355 389
5.55561 369
5.57572 469
5.59584 365
5.61595 369
5.63606 360
5.65618 320
5.67629 356
5.69641 307
5.71652 351
5.73663 346
5.75675 333
5.77686 346
5.79697 320
5.81709 324
5.8372 340
5.85732 314
5.87743 298
5.89754 301
5.91766 274
5.93777 316
5.95788 263
5.978 313
5.99811 293
6.01823 292
6.03834 267
6.05845 301
6.07857 301
6.09868 268
6.11879 268
6.13891 291
6.15902 268
6.17913 269
6.19925 285
6.21936 297
6.23948 276
6.25959 285
6.2797 298
6.29982 252
6.31993 279
6.34004 250
6.36016 247
6.38027 234
6.40039 259
6.4205 256
6.44061 267
6.46073 265
6.48084 289
6.50095 247
6.52107 272
6.54118 230
6.56129 271
6.58141 248
6.60152 253
6.62164 253
6.64175 255
6.66186 260
6.68198 224
6.70209 231
6.7222 251
6.74232 231
6.76243 248
6.78255 231
6.80266 239
6.82277 228
6.84289 244
6.863 249
6.88311 269
6.90323 248
6.92334 240
6.94346 236
6.96357 230
6.98368 232
7.0038 226
7.02391 237
7.04402 235
7.06414 247
7.08425 229
7.10436 260
7.12448 291
7.14459 261
7.16471 263
7.18482 264
7.20493 225
7.22505 248
7.24516 246
7.26527 240
7.28539 209
7.3055 257
7.32562 292
7.34573 247
7.36584 236
7.38596 213
7.40607 239
7.42618 246
7.4463 242
7.46641 223
7.48653 250
7.50664 229
7.52675 261
7.54687 259
7.56698 266
7.58709 245
7.60721 265
7.62732 226
7.64743 273
7.66755 265
7.68766 228
7.70778 254
7.72789 264
7.748 260
7.76812 230
7.78823 245
7.80834 247
7.82846 253
7.84857 232
7.86869 231
7.8888 234
7.90891 244
7.92903 266
7.94914 234
7.96925 244
7.98937 284
8.00948 241
8.0296 250
8.04971 255
8.06982 239
8.08994 242
8.11005 285
8.13016 284
8.15028 238
8.17039 235
8.1905 273
8.21062 230
8.23073 239
8.25085 281
8.27096 257
8.29107 252
8.31119 250
8.3313 249
8.35141 245
8.37153 272
8.39164 284
8.41176 273
8.43187 269
8.45198 267
8.4721 260
8.49221 281
8.51232 247
8.53244 266
8.55255 249
8.57266 247
8.59278 251
8.61289 267
8.63301 256
8.65312 292
8.67323 268
8.69335 271
8.71346 231
8.73357 296
8.75369 257
8.7738 279
8.79392 298
8.81403 257
8.83414 326
8.85426 292
8.87437 299
8.89448 281
8.9146 278
8.93471 285
8.95483 252
8.97494 269
8.99505 231
9.01517 274
9.03528 289
9.05539 306
9.07551 278
9.09562 262
9.11573 255
9.13585 244
9.15596 240
9.17608 277
9.19619 264
9.2163 254
9.23642 239
9.25653 244
9.27664 287
9.29676 244
9.31687 282
9.33699 285
9.3571 238
9.37721 265
9.39733 256
9.41744 273
9.43755 258
9.45767 268
9.47778 277
9.4979 310
9.51801 250
9.53812 314
9.55824 264
9.57835 289
9.59846 232
9.61858 274
9.63869 298
9.6588 251
9.67892 248
9.69903 290
9.71915 278
9.73926 251
9.75937 275
9.77949 291
9.7996 287
9.81971 265
9.83983 262
9.85994 278
9.88006 272
9.90017 275
9.92028 295
9.9404 253
9.96051 276
9.98062 252
10.00074 268
10.02085 282
10.04097 232
10.06108 259
10.08119 236
10.10131 275
10.12142 285
10.14153 251
10.16165 256
10.18176 246
10.20187 264
10.22199 274
10.2421 279
10.26222 263
10.28233 265
10.30244 262
10.32256 255
10.34267 271
10.36278 246
10.3829 249
10.40301 251
10.42313 276
10.44324 260
10.46335 239
10.48347 295
10.50358 292
10.52369 282
10.54381 280
10.56392 272
10.58403 272
10.60415 267
10.62426 290
10.64438 250
10.66449 265
10.6846 268
10.70472 249
10.72483 276
10.74494 261
10.76506 308
10.78517 282
10.80529 263
10.8254 287
10.84551 260
10.86563 307
10.88574 288
10.90585 270
10.92597 272
10.94608 296
10.9662 285
10.98631 279
11.00642 274
11.02654 290
11.04665 252
11.06676 254
11.08688 281
11.10699 252
11.1271 280
11.14722 286
11.16733 306
11.18745 280
11.20756 285
11.22767 289
11.24779 281
11.2679 277
11.28801 278
11.30813 325
11.32824 263
11.34836 311
11.36847 288
11.38858 285
11.4087 320
11.42881 282
11.44892 296
11.46904 284
11.48915 275
11.50927 307
11.52938 269
11.54949 279
11.56961 274
11.58972 283
11.60983 301
11.62995 338
11.65006 312
11.67017 297
11.69029 288
11.7104 296
11.73052 297
11.75063 319
11.77074 350
11.79086 329
11.81097 321
11.83108 321
11.8512 334
11.87131 348
11.89143 325
11.91154 333
11.93165 352
11.95177 359
11.97188 410
11.99199 389
12.01211 337
12.03222 421
12.05234 390
12.07245 459
12.09256 419
12.11268 436
12.13279 495
12.1529 422
12.17302 458
12.19313 486
12.21324 512
12.23336 515
12.25347 517
12.27359 561
12.2937 533
12.31381 584
12.33393 551
12.35404 549
12.37415 519
12.39427 528
12.41438 486
12.4345 496
12.45461 477
12.47472 486
12.49484 380
12.51495 422
12.53506 407
12.55518 353
12.57529 406
12.5954 331
12.61552 382
12.63563 327
12.65575 380
12.67586 323
12.69597 299
12.71609 296
12.7362 317
12.75631 299
12.77643 290
12.79654 268
12.81666 293
12.83677 271
12.85688 272
12.877 276
12.89711 287
12.91722 277
12.93734 298
12.95745 287
12.97757 297
12.99768 284
13.01779 276
13.03791 285
13.05802 302
13.07813 297
13.09825 253
13.11836 257
13.13847 259
13.15859 262
13.1787 253
13.19882 239
13.21893 261
13.23904 268
13.25916 259
13.27927 235
13.29938 285
13.3195 235
13.33961 266
13.35973 245
13.37984 262
13.39995 244
13.42007 270
13.44018 210
13.46029 236
13.48041 242
13.50052 256
13.52064 221
13.54075 235
13.56086 261
13.58098 279
13.60109 282
13.6212 290
13.64132 276
13.66143 267
13.68154 246
13.70166 278
13.72177 265
13.74189 267
13.762 237
13.78211 240
13.80223 239
13.82234 247
13.84245 222
13.86257 248
13.88268 244
13.9028 246
13.92291 234
13.94302 245
13.96314 227
13.98325 249
14.00336 241
14.02348 243
14.04359 256
14.06371 243
14.08382 237
14.10393 218
14.12405 226
14.14416 230
14.16427 235
14.18439 230
14.2045 250
14.22461 218
14.24473 251
14.26484 238
14.28496 240
14.30507 235
14.32518 258
14.3453 226
14.36541 227
14.38552 218
14.40564 238
14.42575 241
14.44587 232
14.46598 237
14.48609 228
14.50621 260
14.52632 208
14.54643 224
14.56655 225
14.58666 215
14.60677 183
14.62689 210
14.647 212
14.66712 205
14.68723 266
14.70734 238
14.72746 234
14.74757 220
14.76768 226
14.7878 234
14.80791 232
14.82803 206
14.84814 208
14.86825 230
14.88837 213
14.90848 241
14.92859 215
14.94871 229
14.96882 253
14.98894 275
15.00905 244
15.02916 257
15.04928 226
15.06939 226
15.0895 238
15.10962 246
15.12973 246
15.14984 230
15.16996 225
15.19007 219
15.21019 237
15.2303 227
15.25041 211
15.27053 261
15.29064 248
15.31075 236
15.33087 234
15.35098 211
15.3711 213
15.39121 208
15.41132 235
15.43144 230
15.45155 219
15.47166 220
15.49178 271
15.51189 228
15.53201 259
15.55212 212
15.57223 203
15.59235 213
15.61246 218
15.63257 236
15.65269 233
15.6728 234
15.69291 230
15.71303 208
15.73314 229
15.75326 223
15.77337 183
15.79348 227
15.8136 240
15.83371 226
15.85382 207
15.87394 218
15.89405 223
15.91417 250
15.93428 217
15.95439 238
15.97451 218
15.99462 222
16.01473 234
16.03485 224
16.05496 219
16.07508 200
16.09519 216
16.1153 216
16.13542 212
16.15553 211
16.17564 231
16.19576 248
16.21587 241
16.23598 203
16.2561 203
16.27621 229
16.29633 229
16.31644 213
16.33655 203
16.35667 220
16.37678 248
16.39689 255
16.41701 206
16.43712 226
16.45724 255
16.47735 227
16.49746 246
16.51758 249
16.53769 223
16.5578 229
16.57792 220
16.59803 235
16.61814 214
16.63826 239
16.65837 221
16.67849 221
16.6986 218
16.71871 215
16.73883 231
16.75894 237
16.77905 215
16.79917 209
16.81928 236
16.8394 192
16.85951 209
16.87962 228
16.89974 205
16.91985 202
16.93996 233
16.96008 258
16.98019 197
17.00031 215
17.02042 208
17.04053 220
17.06065 192
17.08076 212
17.10087 223
17.12099 199
17.1411 219
17.16121 205
17.18133 214
17.20144 216
17.22156 245
17.24167 205
17.26178 232
17.2819 208
17.30201 238
17.32212 210
17.34224 222
17.36235 215
17.38247 184
17.40258 215
17.42269 214
17.44281 225
17.46292 242
17.48303 191
17.50315 181
17.52326 234
17.54338 204
17.56349 218
17.5836 221
17.60372 254
17.62383 202
17.64394 209
17.66406 223
17.68417 233
17.70428 218
17.7244 237
17.74451 237
17.76463 219
17.78474 233
17.80485 225
17.82497 218
17.84508 218
17.86519 216
17.88531 230
17.90542 238
17.92554 196
17.94565 241
17.96576 193
17.98588 219
18.00599 225
18.0261 247
18.04622 213
18.06633 230
18.08645 243
18.10656 220
18.12667 243
18.14679 242
18.1669 209
18.18701 244
18.20713 248
18.22724 215
18.24735 216
18.26747 215
18.28758 251
18.3077 243
18.32781 200
18.34792 226
18.36804 220
18.38815 230
18.40826 237
18.42838 227
18.44849 204
18.46861 210
18.48872 208
18.50883 230
18.52895 209
18.54906 204
18.56917 191
18.58929 206
18.6094 217
18.62951 224
18.64963 220
18.66974 228
18.68986 204
18.70997 230
18.73008 242
18.7502 238
18.77031 213
18.79042 262
18.81054 224
18.83065 240
18.85077 191
18.87088 237
18.89099 218
18.91111 212
18.93122 214
18.95133 251
18.97145 204
18.99156 234
19.01168 213
19.03179 229
19.0519 227
19.07202 228
19.09213 201
19.11224 187
19.13236 218
19.15247 226
19.17258 235
19.1927 246
19.21281 223
19.23293 230
19.25304 217
19.27315 223
19.29327 216
19.31338 249
19.33349 230
19.35361 240
19.37372 207
19.39384 262
19.41395 262
19.43406 215
19.45418 257
19.47429 255
19.4944 253
19.51452 227
19.53463 269
19.55475 249
19.57486 255
19.59497 234
19.61509 298
19.6352 299
19.65531 300
19.67543 314
19.69554 293
19.71565 323
19.73577 396
19.75588 375
19.776 404
19.79611 457
19.81622 468
19.83634 481
19.85645 513
19.87656 523
19.89668 493
19.91679 485
19.93691 479
19.95702 500
19.97713 478
19.99725 476
20.01736 441
20.03747 438
20.05759 431
20.0777 439
20.09782 457
20.11793 441
20.13804 409
20.15816 454
20.17827 420
20.19838 443
20.2185 445
20.23861 447
20.25872 514
20.27884 487
20.29895 448
20.31907 479
20.33918 495
20.35929 457
20.37941 477
20.39952 520
20.41963 503
20.43975 518
20.45986 536
20.47998 544
20.50009 552
20.5202 519
20.54032 553
20.56043 575
20.58054 613
20.60066 705
20.62077 763
20.64088 868
20.661 968
20.68111 1225
20.70123 1419
20.72134 1831
20.74145 2373
20.76157 2952
20.78168 3728
20.80179 4721
20.82191 5467
20.84202 6152
20.86214 6117
20.88225 5386
20.90236 4218
20.92248 3014
20.94259 1917
20.9627 1321
20.98282 1009
21.00293 834
21.02305 728
21.04316 709
21.06327 719
21.08339 648
21.1035 518
21.12361 562
21.14373 505
21.16384 502
21.18395 528
21.20407 462
21.22418 429
21.2443 477
21.26441 453
21.28452 453
21.30464 431
21.32475 436
21.34486 460
21.36498 473
21.38509 442
21.40521 441
21.42532 388
21.44543 417
21.46555 434
21.48566 441
21.50577 413
21.52589 414
21.546 402
21.56612 376
21.58623 354
21.60634 366
21.62646 346
21.64657 373
21.66668 370
21.6868 374
21.70691 354
21.72702 359
21.74714 352
21.76725 349
21.78737 359
21.80748 359
21.82759 342
21.84771 337
21.86782 379
21.88793 335
21.90805 368
21.92816 374
21.94828 359
21.96839 360
21.9885 320
22.00862 349
22.02873 322
22.04884 332
22.06896 341
22.08907 371
22.10919 353
22.1293 311
22.14941 360
22.16953 313
22.18964 326
22.20975 307
22.22987 305
22.24998 346
22.27009 347
22.29021 344
22.31032 290
22.33044 305
22.35055 346
22.37066 344
22.39078 324
22.41089 359
22.431 329
22.45112 315
22.47123 350
22.49135 304
22.51146 356
22.53157 345
22.55169 346
22.5718 330
22.59191 320
22.61203 314
22.63214 300
22.65225 330
22.67237 293
22.69248 306
22.7126 314
22.73271 330
22.75282 324
22.77294 287
22.79305 291
22.81316 326
22.83328 293
22.85339 309
22.87351 327
22.89362 300
22.91373 301
22.93385 312
22.95396 332
22.97407 332
22.99419 329
23.0143 312
23.03442 302
23.05453 315
23.07464 329
23.09476 321
23.11487 335
23.13498 332
23.1551 284
23.17521 296
23.19532 325
23.21544 329
23.23555 311
23.25567 312
23.27578 324
23.29589 298
23.31601 317
23.33612 341
23.35623 290
23.37635 300
23.39646 297
23.41658 301
23.43669 311
23.4568 366
23.47692 324
23.49703 349
23.51714 337
23.53726 339
23.55737 315
23.57749 340
23.5976 367
23.61771 389
23.63783 323
23.65794 315
23.67805 338
23.69817 354
23.71828 336
23.73839 337
23.75851 359
23.77862 386
23.79874 362
23.81885 363
23.83896 344
23.85908 350
23.87919 314
23.8993 365
23.91942 362
23.93953 382
23.95965 401
23.97976 405
23.99987 380
24.01999 387
24.0401 353
24.06021 367
24.08033 332
24.10044 317
24.12056 316
24.14067 339
24.16078 334
24.1809 338
24.20101 303
24.22112 314
24.24124 332
24.26135 339
24.28146 307
24.30158 328
24.32169 329
24.34181 345
24.36192 349
24.38203 339
24.40215 340
24.42226 348
24.44237 338
24.46249 349
24.4826 363
24.50272 352
24.52283 376
24.54294 352
24.56306 392
24.58317 400
24.60328 391
24.6234 411
24.64351 436
24.66362 405
24.68374 431
24.70385 455
24.72397 462
24.74408 503
24.76419 496
24.78431 477
24.80442 502
24.82453 494
24.84465 488
24.86476 488
24.88488 510
24.90499 521
24.9251 497
24.94522 477
24.96533 456
24.98544 454
25.00556 438
25.02567 454
25.04579 433
25.0659 410
25.08601 389
25.10613 397
25.12624 387
25.14635 366
25.16647 403
25.18658 406
25.20669 430
25.22681 430
25.24692 409
25.26704 368
25.28715 348
25.30726 327
25.32738 363
25.34749 351
25.3676 340
25.38772 348
25.40783 324
25.42795 379
25.44806 391
25.46817 378
25.48829 376
25.5084 406
25.52851 394
25.54863 439
25.56874 440
25.58886 435
25.60897 447
25.62908 456
25.6492 457
25.66931 429
25.68942 501
25.70954 480
25.72965 483
25.74976 479
25.76988 451
25.78999 523
25.81011 501
25.83022 497
25.85033 461
25.87045 474
25.89056 515
25.91067 528
25.93079 512
25.9509 530
25.97102 515
25.99113 558
26.01124 641
26.03136 640
26.05147 608
26.07158 650
26.0917 664
26.11181 699
26.13193 708
26.15204 733
26.17215 802
26.19227 796
26.21238 877
26.23249 922
26.25261 1037
26.27272 1134
26.29283 1227
26.31295 1388
26.33306 1491
26.35318 1810
26.37329 2227
26.3934 2626
26.41352 3133
26.43363 4144
26.45374 5053
26.47386 6454
26.49397 8110
26.51409 10517
26.5342 13259
26.55431 16828
26.57443 20163
26.59454 23783
26.61465 26323
26.63477 27229
26.65488 23964
26.67499 18725
26.69511 14113
26.71522 10696
26.73534 7046
26.75545 4076
26.77556 2422
26.79568 1869
26.81579 1525
26.8359 1415
26.85602 1315
26.87613 1195
26.89625 1070
26.91636 1010
26.93647 1004
26.95659 936
26.9767 842
26.99681 811
27.01693 782
27.03704 736
27.05716 694
27.07727 598
27.09738 585
27.1175 532
27.13761 570
27.15772 561
27.17784 496
27.19795 503
27.21806 520
27.23818 520
27.25829 517
27.27841 473
27.29852 510
27.31863 489
27.33875 522
27.35886 558
27.37897 566
27.39909 569
27.4192 640
27.43932 630
27.45943 660
27.47954 645
27.49966 607
27.51977 578
27.53988 558
27.56 511
27.58011 458
27.60023 452
27.62034 386
27.64045 383
27.66057 352
27.68068 353
27.70079 380
27.72091 347
27.74102 354
27.76113 364
27.78125 360
27.80136 334
27.82148 345
27.84159 362
27.8617 368
27.88182 302
27.90193 321
27.92204 349
27.94216 361
27.96227 333
27.98239 331
28.0025 313
28.02261 316
28.04273 350
28.06284 341
28.08295 306
28.10307 327
28.12318 295
28.1433 351
28.16341 275
28.18352 339
28.20364 303
28.22375 281
28.24386 302
28.26398 318
28.28409 307
28.3042 308
28.32432 276
28.34443 270
28.36455 331
28.38466 313
28.40477 304
28.42489 254
28.445 306
28.46511 238
28.48523 281
28.50534 286
28.52546 278
28.54557 324
28.56568 285
28.5858 277
28.60591 269
28.62602 268
28.64614 284
28.66625 322
28.68636 286
28.70648 301
28.72659 256
28.74671 264
28.76682 293
28.78693 264
28.80705 259
28.82716 259
28.84727 276
28.86739 307
28.8875 275
28.90762 278
28.92773 268
28.94784 275
28.96796 248
28.98807 314
29.00818 261
29.0283 280
29.04841 245
29.06853 266
29.08864 264
29.10875 265
29.12887 265
29.14898 278
29.16909 251
29.18921 262
29.20932 273
29.22943 275
29.24955 265
29.26966 259
29.28978 267
29.30989 263
29.33 263
29.35012 301
29.37023 278
29.39034 254
29.41046 306
29.43057 271
29.45069 277
29.4708 266
29.49091 304
29.51103 274
29.53114 302
29.55125 295
29.57137 276
29.59148 283
29.6116 259
29.63171 268
29.65182 297
29.67194 280
29.69205 282
29.71216 280
29.73228 291
29.75239 318
29.7725 298
29.79262 287
29.81273 322
29.83285 321
29.85296 304
29.87307 299
29.89319 277
29.9133 266
29.93341 293
29.95353 285
29.97364 297
29.99376 291
30.01387 294
30.03398 243
30.0541 267
30.07421 239
30.09432 279
30.11444 264
30.13455 281
30.15467 252
30.17478 272
30.19489 273
30.21501 267
30.23512 270
30.25523 310
30.27535 283
30.29546 254
30.31557 253
30.33569 256
30.3558 261
30.37592 249
30.39603 275
30.41614 247
30.43626 275
30.45637 278
30.47648 250
30.4966 242
30.51671 266
30.53683 260
30.55694 233
30.57705 251
30.59717 282
30.61728 266
30.63739 276
30.65751 251
30.67762 231
30.69773 271
30.71785 306
30.73796 279
30.75808 293
30.77819 286
30.7983 317
30.81842 285
30.83853 306
30.85864 276
30.87876 277
30.89887 268
30.91899 267
30.9391 254
30.95921 266
30.97933 246
30.99944 273
31.01955 271
31.03967 228
31.05978 241
31.0799 233
31.10001 247
31.12012 259
31.14024 269
31.16035 274
31.18046 238
31.20058 261
31.22069 244
31.2408 238
31.26092 260
31.28103 229
31.30115 264
31.32126 226
31.34137 264
31.36149 235
31.3816 254
31.40171 228
31.42183 279
31.44194 258
31.46206 228
31.48217 228
31.50228 227
31.5224 232
31.54251 213
31.56262 222
31.58274 214
31.60285 239
31.62297 268
31.64308 224
31.66319 219
31.68331 228
31.70342 207
31.72353 226
31.74365 224
31.76376 234
31.78387 210
31.80399 252
31.8241 220
31.84422 239
31.86433 229
31.88444 219
31.90456 235
31.92467 245
31.94478 236
31.9649 232
31.98501 245
32.00513 254
32.02524 234
32.04535 218
32.06547 211
32.08558 261
32.10569 286
32.12581 254
32.14592 257
32.16604 247
32.18615 259
32.20626 269
32.22638 280
32.24649 248
32.2666 275
32.28672 278
32.30683 278
32.32694 281
32.34706 285
32.36717 261
32.38729 285
32.4074 285
32.42751 260
32.44763 291
32.46774 265
32.48785 275
32.50797 246
32.52808 296
32.5482 291
32.56831 264
32.58842 258
32.60854 274
32.62865 271
32.64876 240
32.66888 226
32.68899 223
32.7091 274
32.72922 246
32.74933 262
32.76945 236
32.78956 238
32.80967 264
32.82979 255
32.8499 249
32.87001 251
32.89013 249
32.91024 247
32.93036 240
32.95047 279
32.97058 247
32.9907 248
33.01081 298
33.03092 255
33.05104 257
33.07115 246
33.09127 257
33.11138 274
33.13149 263
33.15161 261
33.17172 242
33.19183 264
33.21195 294
33.23206 248
33.25217 290
33.27229 266
33.2924 279
33.31252 275
33.33263 271
33.35274 287
33.37286 238
33.39297 283
33.41308 249
33.4332 286
33.45331 245
33.47343 232
33.49354 239
33.51365 234
33.53377 246
33.55388 225
33.57399 251
33.59411 239
33.61422 242
33.63434 249
33.65445 229
33.67456 225
33.69468 214
33.71479 241
33.7349 254
33.75502 236
33.77513 226
33.79524 200
33.81536 249
33.83547 243
33.85559 225
33.8757 237
33.89581 235
33.91593 232
33.93604 224
33.95615 222
33.97627 218
33.99638 220
34.0165 237
34.03661 243
34.05672 265
34.07684 226
34.09695 234
34.11706 222
34.13718 239
34.15729 256
34.17741 266
34.19752 246
34.21763 256
34.23775 235
34.25786 242
34.27797 252
34.29809 246
34.3182 252
34.33831 267
34.35843 288
34.37854 258
34.39866 263
34.41877 237
34.43888 265
34.459 285
34.47911 265
34.49922 259
34.51934 264
34.53945 306
34.55957 270
34.57968 239
34.59979 283
34.61991 278
34.64002 273
34.66013 273
34.68025 280
34.70036 318
34.72047 292
34.74059 332
34.7607 334
34.78082 326
34.80093 344
34.82104 372
34.84116 349
34.86127 369
34.88138 370
34.9015 391
34.92161 388
34.94173 396
34.96184 373
34.98195 376
35.00207 387
35.02218 346
35.04229 355
35.06241 352
35.08252 365
35.10264 363
35.12275 322
35.14286 327
35.16298 366
35.18309 354
35.2032 339
35.22332 323
35.24343 378
35.26354 342
35.28366 347
35.30377 347
35.32389 361
35.344 372
35.36411 308
35.38423 323
35.40434 329
35.42445 329
35.44457 357
35.46468 354
35.4848 345
35.50491 368
35.52502 366
35.54514 309
35.56525 351
35.58536 387
35.60548 367
35.62559 346
35.64571 344
35.66582 346
35.68593 334
35.70605 362
35.72616 373
35.74627 340
35.76639 344
35.7865 336
35.80661 362
35.82673 372
35.84684 355
35.86696 365
35.88707 337
35.90718 388
35.9273 329
35.94741 360
35.96752 344
35.98764 348
36.00775 350
36.02787 329
36.04798 329
36.06809 355
36.08821 324
36.10832 368
36.12843 345
36.14855 334
36.16866 356
36.18878 358
36.20889 375
36.229 385
36.24912 419
36.26923 439
36.28934 507
36.30946 555
36.32957 602
36.34968 691
36.3698 753
36.38991 918
36.41003 1021
36.43014 1166
36.45025 1399
36.47037 1558
36.49048 1730
36.51059 1807
36.53071 1815
36.55082 1714
36.57094 1495
36.59105 1193
36.61116 1076
36.63128 1046
36.65139 776
36.6715 607
36.69162 455
36.71173 367
36.73184 363
36.75196 339
36.77207 343
36.79219 352
36.8123 354
36.83241 280
36.85253 327
36.87264 302
36.89275 309
36.91287 300
36.93298 273
36.9531 282
36.97321 310
36.99332 306
37.01344 294
37.03355 274
37.05366 277
37.07378 286
37.09389 295
37.11401 300
37.13412 284
37.15423 286
37.17435 287
37.19446 288
37.21457 246
37.23469 288
37.2548 292
37.27491 284
37.29503 263
37.31514 293
37.33526 292
37.35537 268
37.37548 250
37.3956 270
37.41571 261
37.43582 277
37.45594 269
37.47605 242
37.49617 264
37.51628 266
37.53639 278
37.55651 277
37.57662 305
37.59673 262
37.61685 284
37.63696 273
37.65708 300
37.67719 265
37.6973 304
37.71742 300
37.73753 287
37.75764 279
37.77776 273
37.79787 280
37.81798 277
37.8381 284
37.85821 253
37.87833 284
37.89844 284
37.91855 283
37.93867 312
37.95878 321
37.97889 307
37.99901 289
38.01912 260
38.03924 311
38.05935 339
38.07946 279
38.09958 302
38.11969 317
38.1398 304
38.15992 341
38.18003 315
38.20015 357
38.22026 333
38.24037 306
38.26049 333
38.2806 360
38.30071 327
38.32083 339
38.34094 357
38.36105 359
38.38117 376
38.40128 358
38.4214 367
38.44151 335
38.46162 325
38.48174 311
38.50185 351
38.52196 332
38.54208 306
38.56219 328
38.58231 342
38.60242 325
38.62253 339
38.64265 297
38.66276 311
38.68287 301
38.70299 339
38.7231 307
38.74321 271
38.76333 296
38.78344 298
38.80356 322
38.82367 280
38.84378 282
38.8639 299
38.88401 336
38.90412 302
38.92424 327
38.94435 309
38.96447 319
38.98458 303
39.00469 320
39.02481 349
39.04492 335
39.06503 335
39.08515 361
39.10526 364
39.12538 413
39.14549 438
39.1656 432
39.18572 491
39.20583 480
39.22594 547
39.24606 622
39.26617 643
39.28628 765
39.3064 803
39.32651 919
39.34663 1066
39.36674 1274
39.38685 1392
39.40697 1618
39.42708 1743
39.44719 1720
39.46731 1713
39.48742 1469
39.50754 1191
39.52765 1063
39.54776 1001
39.56788 914
39.58799 658
39.6081 475
39.62822 400
39.64833 374
39.66845 330
39.68856 281
39.70867 311
39.72879 308
39.7489 293
39.76901 295
39.78913 313
39.80924 290
39.82935 297
39.84947 324
39.86958 283
39.8897 236
39.90981 282
39.92992 293
39.95004 295
39.97015 281
39.99026 328
40.01038 317
40.03049 360
40.05061 390
40.07072 411
40.09083 451
40.11095 475
40.13106 581
40.15117 609
40.17129 645
40.1914 753
40.21152 839
40.23163 874
40.25174 912
40.27186 972
40.29197 893
40.31208 772
40.3322 674
40.35231 622
40.37242 560
40.39254 521
40.41265 471
40.43277 394
40.45288 338
40.47299 297
40.49311 308
40.51322 279
40.53333 289
40.55345 292
40.57356 282
40.59368 282
40.61379 291
40.6339 254
40.65402 252
40.67413 261
40.69424 267
40.71436 270
40.73447 238
40.75458 221
40.7747 276
40.79481 265
40.81493 244
40.83504 295
40.85515 268
40.87527 260
40.89538 280
40.91549 294
40.93561 283
40.95572 292
40.97584 266
40.99595 270
41.01606 269
41.03618 265
41.05629 265
41.0764 252
41.09652 237
41.11663 264
41.13675 263
41.15686 245
41.17697 237
41.19709 259
41.2172 227
41.23731 262
41.25743 221
41.27754 241
41.29765 245
41.31777 250
41.33788 250
41.358 253
41.37811 238
41.39822 214
41.41834 236
41.43845 261
41.45856 245
41.47868 269
41.49879 240
41.51891 235
41.53902 265
41.55913 234
41.57925 235
41.59936 236
41.61947 253
41.63959 241
41.6597 274
41.67982 255
41.69993 289
41.72004 291
41.74016 259
41.76027 275
41.78038 291
41.8005 290
41.82061 269
41.84072 253
41.86084 300
41.88095 249
41.90107 236
41.92118 262
41.94129 281
41.96141 251
41.98152 282
42.00163 248
42.02175 278
42.04186 270
42.06198 272
42.08209 272
42.1022 289
42.12232 300
42.14243 344
42.16254 342
42.18266 371
42.20277 395
42.22289 485
42.243 505
42.26311 561
42.28323 693
42.30334 693
42.32345 804
42.34357 894
42.36368 984
42.38379 1122
42.40391 1204
42.42402 1209
42.44414 1132
42.46425 1099
42.48436 924
42.50448 815
42.52459 714
42.5447 685
42.56482 615
42.58493 499
42.60505 377
42.62516 338
42.64527 268
42.66539 286
42.6855 290
42.70561 263
42.72573 268
42.74584 264
42.76595 220
42.78607 255
42.80618 271
42.8263 232
42.84641 232
42.86652 230
42.88664 222
42.90675 225
42.92686 208
42.94698 236
42.96709 222
42.98721 210
43.00732 223
43.02743 236
43.04755 209
43.06766 223
43.08777 192
43.10789 240
43.128 217
43.14812 201
43.16823 196
43.18834 207
43.20846 188
43.22857 200
43.24868 214
43.2688 201
43.28891 188
43.30902 193
43.32914 214
43.34925 204
43.36937 226
43.38948 218
43.40959 213
43.42971 210
43.44982 215
43.46993 207
43.49005 200
43.51016 221
43.53028 204
43.55039 215
43.5705 226
43.59062 220
43.61073 192
43.63084 221
43.65096 216
43.67107 205
43.69119 208
43.7113 225
43.73141 208
43.75153 207
43.77164 211
43.79175 210
43.81187 200
43.83198 189
43.85209 219
43.87221 183
43.89232 206
43.91244 200
43.93255 189
43.95266 210
43.97278 229
43.99289 195
44.013 212
44.03312 205
44.05323 223
44.07335 219
44.09346 202
44.11357 224
44.13369 223
44.1538 205
44.17391 203
44.19403 190
44.21414 218
44.23426 192
44.25437 213
44.27448 209
44.2946 203
44.31471 207
44.33482 212
44.35494 206
44.37505 215
44.39516 218
44.41528 209
44.43539 197
44.45551 198
44.47562 207
44.49573 204
44.51585 230
44.53596 223
44.55607 203
44.57619 188
44.5963 211
44.61642 209
44.63653 205
44.65664 206
44.67676 198
44.69687 213
44.71698 240
44.7371 214
44.75721 223
44.77732 215
44.79744 198
44.81755 209
44.83767 194
44.85778 197
44.87789 198
44.89801 235
44.91812 200
44.93823 199
44.95835 224
44.97846 214
44.99858 211
45.01869 219
45.0388 218
45.05892 233
45.07903 222
45.09914 235
45.11926 232
45.13937 225
45.15949 242
45.1796 246
45.19971 225
45.21983 222
45.23994 206
45.26005 287
45.28017 246
45.30028 239
45.32039 254
45.34051 242
45.36062 264
45.38074 265
45.40085 306
45.42096 262
45.44108 307
45.46119 295
45.4813 291
45.50142 315
45.52153 336
45.54165 395
45.56176 416
45.58187 409
45.60199 453
45.6221 523
45.64221 534
45.66233 585
45.68244 710
45.70256 790
45.72267 793
45.74278 866
45.7629 879
45.78301 844
45.80312 771
45.82324 702
45.84335 638
45.86346 554
45.88358 578
45.90369 494
45.92381 444
45.94392 372
45.96403 356
45.98415 289
46.00426 277
46.02437 258
46.04449 231
46.0646 248
46.08472 215
46.10483 254
46.12494 207
46.14506 226
46.16517 245
46.18528 235
46.2054 222
46.22551 211
46.24563 205
46.26574 230
46.28585 210
46.30597 208
46.32608 224
46.34619 194
46.36631 230
46.38642 212
46.40653 205
46.42665 186
46.44676 195
46.46688 212
46.48699 253
46.5071 210
46.52722 193
46.54733 208
46.56744 203
46.58756 205
46.60767 209
46.62779 212
46.6479 215
46.66801 233
46.68813 200
46.70824 179
46.72835 199
46.74847 194
46.76858 215
46.78869 207
46.80881 217
46.82892 216
46.84904 218
46.86915 212
46.88926 200
46.90938 213
46.92949 208
46.9496 224
46.96972 195
46.98983 220
47.00995 233
47.03006 204
47.05017 211
47.07029 181
47.0904 211
47.11051 236
47.13063 236
47.15074 217
47.17086 208
47.19097 213
47.21108 215
47.2312 218
47.25131 175
47.27142 193
47.29154 199
47.31165 201
47.33176 189
47.35188 225
47.37199 203
47.39211 201
47.41222 236
47.43233 192
47.45245 192
47.47256 198
47.49267 196
47.51279 197
47.5329 228
47.55302 227
47.57313 206
47.59324 183
47.61336 203
47.63347 197
47.65358 188
47.6737 186
47.69381 206
47.71393 185
47.73404 204
47.75415 188
47.77427 193
47.79438 203
47.81449 219
47.83461 208
47.85472 200
47.87483 208
47.89495 219
47.91506 195
47.93518 196
47.95529 204
47.9754 205
47.99552 212
48.01563 224
48.03574 204
48.05586 217
48.07597 206
48.09609 221
48.1162 208
48.13631 212
48.15643 192
48.17654 170
48.19665 194
48.21677 221
48.23688 206
48.257 198
48.27711 213
48.29722 200
48.31734 223
48.33745 196
48.35756 227
48.37768 214
48.39779 219
48.4179 214
48.43802 257
48.45813 221
48.47825 200
48.49836 194
48.51847 200
48.53859 211
48.5587 216
48.57881 215
48.59893 190
48.61904 218
48.63916 238
48.65927 234
48.67938 227
48.6995 217
48.71961 216
48.73972 221
48.75984 224
48.77995 245
48.80006 226
48.82018 216
48.84029 216
48.86041 239
48.88052 220
48.90063 228
48.92075 214
48.94086 233
48.96097 233
48.98109 222
49.0012 237
49.02132 198
49.04143 235
49.06154 213
49.08166 213
49.10177 241
49.12188 232
49.142 230
49.16211 221
49.18223 225
49.20234 235
49.22245 240
49.24257 229
49.26268 221
49.28279 212
49.30291 228
49.32302 239
49.34313 272
49.36325 214
49.38336 229
49.40348 255
49.42359 255
49.4437 243
49.46382 256
49.48393 224
49.50404 266
49.52416 244
49.54427 272
49.56439 250
49.5845 258
49.60461 278
49.62473 286
49.64484 330
49.66495 335
49.68507 346
49.70518 381
49.7253 357
49.74541 386
49.76552 412
49.78564 456
49.80575 478
49.82586 553
49.84598 587
49.86609 652
49.8862 743
49.90632 830
49.92643 891
49.94655 1076
49.96666 1241
49.98677 1339
50.00689 1633
50.027 1838
50.04711 2034
50.06723 2288
50.08734 2406
50.10746 2467
50.12757 2455
50.14768 2216
50.1678 1931
50.18791 1532
50.20802 1373
50.22814 1388
50.24825 1262
50.26837 1109
50.28848 894
50.30859 668
50.32871 508
50.34882 390
50.36893 360
50.38905 351
50.40916 320
50.42927 336
50.44939 348
50.4695 317
50.48962 333
50.50973 336
50.52984 330
50.54996 336
50.57007 334
50.59018 326
50.6103 334
50.63041 329
50.65053 304
50.67064 272
50.69075 276
50.71087 264
50.73098 250
50.75109 271
50.77121 268
50.79132 251
50.81143 261
50.83155 224
50.85166 220
50.87178 218
50.89189 246
50.912 219
50.93212 220
50.95223 210
50.97234 199
50.99246 215
51.01257 213
51.03269 220
51.0528 211
51.07291 232
51.09303 221
51.11314 210
51.13325 192
51.15337 211
51.17348 201
51.1936 208
51.21371 196
51.23382 197
51.25394 222
51.27405 198
51.29416 194
51.31428 188
51.33439 196
51.3545 205
51.37462 204
51.39473 195
51.41485 201
51.43496 207
51.45507 182
51.47519 200
51.4953 211
51.51541 176
51.53553 206
51.55564 203
51.57576 180
51.59587 213
51.61598 198
51.6361 188
51.65621 193
51.67632 217
51.69644 171
51.71655 173
51.73667 188
51.75678 189
51.77689 180
51.79701 174
51.81712 218
51.83723 172
51.85735 178
51.87746 183
51.89757 185
51.91769 168
51.9378 188
51.95792 183
51.97803 195
51.99814 185
52.01826 185
52.03837 207
52.05848 188
52.0786 182
52.09871 186
52.11883 185
52.13894 187
52.15905 172
52.17917 177
52.19928 205
52.21939 187
52.23951 200
52.25962 184
52.27974 199
52.29985 190
52.31996 202
52.34008 190
52.36019 183
52.3803 200
52.40042 179
52.42053 176
52.44064 178
52.46076 184
52.48087 193
52.50099 159
52.5211 196
52.54121 170
52.56133 166
52.58144 192
52.60155 172
52.62167 201
52.64178 182
52.6619 191
52.68201 220
52.70212 196
52.72224 208
52.74235 216
52.76246 197
52.78258 193
52.80269 200
52.8228 211
52.84292 196
52.86303 202
52.88315 199
52.90326 227
52.92337 209
52.94349 221
52.9636 193
52.98371 242
53.00383 198
53.02394 211
53.04406 193
53.06417 211
53.08428 205
53.1044 219
53.12451 192
53.14462 206
53.16474 227
53.18485 207
53.20497 218
53.22508 235
53.24519 203
53.26531 216
53.28542 177
53.30553 218
53.32565 200
53.34576 229
53.36587 217
53.38599 203
53.4061 207
53.42622 182
53.44633 205
53.46644 202
53.48656 228
53.50667 239
53.52678 208
53.5469 198
53.56701 222
53.58713 233
53.60724 243
53.62735 245
53.64747 218
53.66758 245
53.68769 217
53.70781 235
53.72792 221
53.74804 216
53.76815 234
53.78826 204
53.80838 213
53.82849 237
53.8486 217
53.86872 239
53.88883 246
53.90894 207
53.92906 239
53.94917 257
53.96929 235
53.9894 225
54.00951 218
54.02963 233
54.04974 240
54.06985 258
54.08997 216
54.11008 283
54.1302 253
54.15031 231
54.17042 236
54.19054 267
54.21065 246
54.23076 242
54.25088 300
54.27099 281
54.29111 267
54.31122 258
54.33133 275
54.35145 304
54.37156 287
54.39167 306
54.41179 266
54.4319 281
54.45201 287
54.47213 291
54.49224 300
54.51236 300
54.53247 343
54.55258 351
54.5727 351
54.59281 391
54.61292 425
54.63304 413
54.65315 475
54.67327 495
54.69338 564
54.71349 619
54.73361 623
54.75372 669
54.77383 755
54.79395 803
54.81406 830
54.83417 875
54.85429 871
54.8744 802
54.89452 750
54.91463 661
54.93474 591
54.95486 597
54.97497 570
54.99508 555
55.0152 557
55.03531 462
55.05543 409
55.07554 405
55.09565 414
55.11577 385
55.13588 409
55.15599 432
55.17611 419
55.19622 463
55.21634 458
55.23645 503
55.25656 485
55.27668 504
55.29679 539
55.3169 493
55.33702 492
55.35713 422
55.37724 374
55.39736 373
55.41747 363
55.43759 379
55.4577 396
55.47781 337
55.49793 337
55.51804 256
55.53815 276
55.55827 240
55.57838 270
55.5985 241
55.61861 212
55.63872 218
55.65884 231
55.67895 247
55.69906 214
55.71918 234
55.73929 261
55.75941 202
55.77952 194
55.79963 202
55.81975 210
55.83986 219
55.85997 220
55.88009 229
55.9002 243
55.92031 219
55.94043 205
55.96054 207
55.98066 196
56.00077 221
56.02088 202
56.041 196
56.06111 202
56.08122 218
56.10134 239
56.12145 198
56.14157 189
56.16168 217
56.18179 234
56.20191 232
56.22202 209
56.24213 192
56.26225 186
56.28236 207
56.30248 231
56.32259 212
56.3427 202
56.36282 206
56.38293 222
56.40304 211
56.42316 187
56.44327 204
56.46338 198
56.4835 197
56.50361 242
56.52373 218
56.54384 214
56.56395 251
56.58407 201
56.60418 220
56.62429 214
56.64441 198
56.66452 197
56.68464 217
56.70475 228
56.72486 202
56.74498 213
56.76509 202
56.7852 230
56.80532 203
56.82543 201
56.84554 185
56.86566 204
56.88577 206
56.90589 201
56.926 206
56.94611 204
56.96623 204
56.98634 205
57.00645 214
57.02657 214
57.04668 183
57.0668 218
57.08691 219
57.10702 225
57.12714 231
57.14725 218
57.16736 224
57.18748 234
57.20759 217
57.22771 235
57.24782 210
57.26793 212
57.28805 202
57.30816 204
57.32827 206
57.34839 206
57.3685 198
57.38861 213
57.40873 217
57.42884 199
57.44896 210
57.46907 196
57.48918 198
57.5093 205
57.52941 217
57.54952 205
57.56964 197
57.58975 202
57.60987 198
57.62998 192
57.65009 214
57.67021 188
57.69032 195
57.71043 196
57.73055 210
57.75066 202
57.77078 209
57.79089 232
57.811 189
57.83112 215
57.85123 183
57.87134 202
57.89146 209
57.91157 211
57.93168 193
57.9518 186
57.97191 188
57.99203 208
58.01214 186
58.03225 199
58.05237 200
58.07248 193
58.09259 194
58.11271 186
58.13282 208
58.15294 214
58.17305 188
58.19316 203
58.21328 188
58.23339 198
58.2535 195
58.27362 186
58.29373 201
58.31385 196
58.33396 204
58.35407 209
58.37419 244
58.3943 192
58.41441 196
58.43453 191
58.45464 189
58.47475 193
58.49487 185
58.51498 191
58.5351 205
58.55521 197
58.57532 214
58.59544 177
58.61555 178
58.63566 195
58.65578 200
58.67589 210
58.69601 214
58.71612 219
58.73623 223
58.75635 203
58.77646 216
58.79657 188
58.81669 177
58.8368 188
58.85691 190
58.87703 197
58.89714 185
58.91726 196
58.93737 209
58.95748 189
58.9776 192
58.99771 215
59.01782 184
59.03794 197
59.05805 183
59.07817 196
59.09828 189
59.11839 215
59.13851 192
59.15862 213
59.17873 185
59.19885 218
59.21896 215
59.23908 206
59.25919 217
59.2793 225
59.29942 237
59.31953 209
59.33964 242
59.35976 222
59.37987 237
59.39998 262
59.4201 251
59.44021 251
59.46033 295
59.48044 272
59.50055 281
59.52067 292
59.54078 358
59.56089 361
59.58101 375
59.60112 381
59.62124 412
59.64135 440
59.66146 470
59.68158 532
59.70169 596
59.7218 637
59.74192 767
59.76203 843
59.78215 908
59.80226 1033
59.82237 1141
59.84249 1294
59.8626 1477
59.88271 1568
59.90283 1622
59.92294 1527
59.94305 1500
59.96317 1310
59.98328 1107
60.0034 957
60.02351 915
60.04362 865
60.06374 813
60.08385 805
60.10396 826
60.12408 687
60.14419 589
60.16431 436
60.18442 368
60.20453 270
60.22465 296
60.24476 255
60.26487 258
60.28499 228
60.3051 238
60.32522 219
60.34533 209
60.36544 243
60.38556 217
60.40567 225
60.42578 221
60.4459 207
60.46601 238
60.48612 190
60.50624 246
60.52635 210
60.54647 216
60.56658 193
60.58669 192
60.60681 214
60.62692 206
60.64703 198
60.66715 183
60.68726 231
60.70738 191
60.72749 194
60.7476 211
60.76772 212
60.78783 204
60.80794 221
60.82806 183
60.84817 195
60.86828 204
60.8884 200
60.90851 195
60.92863 197
60.94874 210
60.96885 195
60.98897 198
61.00908 210
61.02919 197
61.04931 223
61.06942 196
61.08954 214
61.10965 195
61.12976 192
61.14988 184
61.16999 203
61.1901 218
61.21022 210
61.23033 209
61.25045 195
61.27056 222
61.29067 192
61.31079 205
61.3309 199
61.35101 213
61.37113 223
61.39124 227
61.41135 195
61.43147 215
61.45158 195
61.4717 213
61.49181 211
61.51192 234
61.53204 216
61.55215 208
61.57226 217
61.59238 215
61.61249 191
61.63261 219
61.65272 198
61.67283 231
61.69295 194
61.71306 197
61.73317 217
61.75329 194
61.7734 221
61.79352 202
61.81363 230
61.83374 227
61.85386 203
61.87397 216
61.89408 225
61.9142 209
61.93431 238
61.95442 252
61.97454 224
61.99465 218
62.01477 252
62.03488 244
62.05499 264
62.07511 247
62.09522 245
62.11533 271
62.13545 270
62.15556 270
62.17568 260
62.19579 258
62.2159 273
62.23602 279
62.25613 283
62.27624 264
62.29636 245
62.31647 295
62.33659 270
62.3567 286
62.37681 260
62.39693 281
62.41704 248
62.43715 227
62.45727 234
62.47738 225
62.49749 236
62.51761 245
62.53772 233
62.55784 212
62.57795 230
62.59806 220
62.61818 208
62.63829 213
62.6584 190
62.67852 192
62.69863 207
62.71875 204
62.73886 198
62.75897 207
62.77909 194
62.7992 225
62.81931 195
62.83943 205
62.85954 212
62.87965 218
62.89977 191
62.91988 197
62.94 226
62.96011 216
62.98022 189
63.00034 212
63.02045 176
63.04056 187
63.06068 190
63.08079 211
63.10091 200
63.12102 195
63.14113 190
63.16125 201
63.18136 193
63.20147 188
63.22159 225
63.2417 204
63.26182 248
63.28193 171
63.30204 224
63.32216 200
63.34227 203
63.36238 192
63.3825 181
63.40261 211
63.42272 216
63.44284 214
63.46295 174
63.48307 202
63.50318 218
63.52329 195
63.54341 223
63.56352 209
63.58363 221
63.60375 210
63.62386 221
63.64398 255
63.66409 213
63.6842 219
63.70432 229
63.72443 240
63.74454 258
63.76466 269
63.78477 299
63.80489 305
63.825 299
63.84511 338
63.86523 298
63.88534 361
63.90545 373
63.92557 377
63.94568 402
63.96579 448
63.98591 422
64.00602 450
64.02614 451
64.04625 398
64.06636 353
64.08648 346
64.10659 342
64.1267 324
64.14682 316
64.16693 305
64.18705 285
64.20716 273
64.22727 260
64.24739 268
64.2675 223
64.28761 209
64.30773 217
64.32784 209
64.34796 211
64.36807 185
64.38818 240
64.4083 202
64.42841 202
64.44852 195
64.46864 192
64.48875 193
64.50886 201
64.52898 212
64.54909 210
64.56921 182
64.58932 185
64.60943 182
64.62955 183
64.64966 213
64.66977 195
64.68989 179
64.71 194
64.73012 197
64.75023 169
64.77034 170
64.79046 207
64.81057 189
64.83068 173
64.8508 207
64.87091 196
64.89102 171
64.91114 173
64.93125 189
64.95137 208
64.97148 200
64.99159 192
65.01171 187
65.03182 193
65.05193 173
65.07205 196
65.09216 157
65.11228 187
65.13239 213
65.1525 174
65.17262 193
65.19273 176
65.21284 189
65.23296 189
65.25307 191
65.27319 190
65.2933 184
65.31341 202
65.33353 184
65.35364 206
65.37375 219
65.39387 180
65.41398 182
65.43409 195
65.45421 173
65.47432 199
65.49444 197
65.51455 193
65.53466 207
65.55478 207
65.57489 222
65.595 216
65.61512 236
65.63523 226
65.65535 233
65.67546 224
65.69557 256
65.71569 283
65.7358 240
65.75591 226
65.77603 229
65.79614 240
65.81626 216
65.83637 226
65.85648 215
65.8766 203
65.89671 213
65.91682 214
65.93694 214
65.95705 206
65.97716 182
65.99728 202
66.01739 201
66.03751 191
66.05762 187
66.07773 194
66.09785 181
66.11796 198
66.13807 200
66.15819 175
66.1783 182
66.19842 180
66.21853 178
66.23864 180
66.25876 197
66.27887 186
66.29898 189
66.3191 180
66.33921 172
66.35933 202
66.37944 189
66.39955 191
66.41967 200
66.43978 203
66.45989 186
66.48001 210
66.50012 176
66.52023 176
66.54035 183
66.56046 177
66.58058 186
66.60069 196
66.6208 175
66.64092 183
66.66103 192
66.68114 169
66.70126 177
66.72137 172
66.74149 193
66.7616 195
66.78171 187
66.80183 182
66.82194 163
66.84205 179
66.86217 224
66.88228 241
66.90239 203
66.92251 204
66.94262 210
66.96274 184
66.98285 194
67.00296 198
67.02308 196
67.04319 212
67.0633 205
67.08342 223
67.10353 231
67.12365 192
67.14376 213
67.16387 218
67.18399 211
67.2041 218
67.22421 236
67.24433 264
67.26444 240
67.28456 294
67.30467 261
67.32478 276
67.3449 330
67.36501 306
67.38512 326
67.40524 357
67.42535 348
67.44546 391
67.46558 424
67.48569 477
67.50581 497
67.52592 549
67.54603 594
67.56615 683
67.58626 734
67.60637 761
67.62649 816
67.6466 926
67.66672 965
67.68683 1019
67.70694 1060
67.72706 1014
67.74717 925
67.76728 851
67.7874 780
67.80751 777
67.82763 768
67.84774 825
67.86785 831
67.88797 886
67.90808 878
67.92819 897
67.94831 911
67.96842 929
67.98853 1066
68.00865 1056
68.02876 1126
68.04888 1233
68.06899 1310
68.0891 1284
68.10922 1337
68.12933 1284
68.14944 1336
68.16956 1184
68.18967 1113
68.20979 1107
68.2299 1145
68.25001 1154
68.27013 1186
68.29024 1112
68.31035 1079
68.33047 918
68.35058 806
68.3707 635
68.39081 598
68.41092 550
68.43104 512
68.45115 496
68.47126 453
68.49138 432
68.51149 410
68.5316 352
68.55172 328
68.57183 294
68.59195 273
68.61206 225
68.63217 232
68.65229 214
68.6724 234
68.69251 203
68.71263 222
68.73274 202
68.75286 227
68.77297 206
68.79308 170
68.8132 192
68.83331 220
68.85342 177
68.87354 205
68.89365 204
68.91376 191
68.93388 193
68.95399 174
68.97411 193
68.99422 198
69.01433 188
69.03445 183
69.05456 180
69.07467 172
69.09479 178
69.1149 174
69.13502 172
69.15513 167
69.17524 152
69.19536 176
69.21547 215
69.23558 155
69.2557 164
69.27581 200
69.29593 163
69.31604 174
69.33615 168
69.35627 188
69.37638 180
69.39649 180
69.41661 182
69.43672 172
69.45683 173
69.47695 187
69.49706 199
69.51718 188
69.53729 180
69.5574 192
69.57752 198
69.59763 169
69.61774 170
69.63786 181
69.65797 173
69.67809 175
69.6982 171
69.71831 175
69.73843 155
69.75854 170
69.77865 204
69.79877 188
69.81888 191
69.839 182
69.85911 175
69.87922 194
69.89934 172
69.91945 189
69.93956 184
69.95968 190
69.97979 168
69.9999 203
70.02002 163
70.04013 178
70.06025 173
70.08036 180
70.10047 206
70.12059 154
70.1407 174
70.16081 183
70.18093 170
70.20104 186
70.22116 180
70.24127 173
70.26138 184
70.2815 177
70.30161 184
70.32172 191
70.34184 169
70.36195 193
70.38207 177
70.40218 196
70.42229 158
70.44241 189
70.46252 159
70.48263 164
70.50275 184
70.52286 148
70.54297 183
70.56309 166
70.5832 170
70.60332 179
70.62343 181
70.64354 193
70.66366 200
70.68377 163
70.70388 160
70.724 178
70.74411 165
70.76423 171
70.78434 165
70.80445 193
70.82457 172
70.84468 158
70.86479 195
70.88491 185
70.90502 180
70.92513 180
70.94525 181
70.96536 162
70.98548 168
71.00559 156
71.0257 161
71.04582 160
71.06593 153
71.08604 178
71.10616 167
71.12627 180
71.14639 177
71.1665 156
71.18661 167
71.20673 179
71.22684 160
71.24695 162
71.26707 149
71.28718 138
71.3073 166
71.32741 160
71.34752 172
71.36764 181
71.38775 175
71.40786 174
71.42798 188
71.44809 183
71.4682 181
71.48832 181
71.50843 176
71.52855 194
71.54866 188
71.56877 180
71.58889 168
71.609 175
71.62911 171
71.64923 159
71.66934 183
71.68946 194
71.70957 185
71.72968 167
71.7498 164
71.76991 201
71.79002 171
71.81014 187
71.83025 180
71.85037 186
71.87048 189
71.89059 214
71.91071 187
71.93082 193
71.95093 171
71.97105 179
71.99116 172
72.01127 162
72.03139 170
72.0515 169
72.07162 168
72.09173 185
72.11184 177
72.13196 174
72.15207 207
72.17218 166
72.1923 186
72.21241 198
72.23253 167
72.25264 186
72.27275 194
72.29287 170
72.31298 174
72.33309 177
72.35321 133
72.37332 162
72.39344 157
72.41355 188
72.43366 171
72.45378 182
72.47389 188
72.494 185
72.51412 186
72.53423 173
72.55434 182
72.57446 179
72.59457 185
72.61469 196
72.6348 193
72.65491 172
72.67503 191
72.69514 177
72.71525 196
72.73537 180
72.75548 175
72.7756 193
72.79571 198
72.81582 199
72.83594 176
72.85605 185
72.87616 186
72.89628 191
72.91639 167
72.9365 200
72.95662 197
72.97673 177
72.99685 210
73.01696 223
73.03707 207
73.05719 210
73.0773 214
73.09741 241
73.11753 210
73.13764 216
73.15776 251
73.17787 257
73.19798 234
73.2181 273
73.23821 298
73.25832 277
73.27844 319
73.29855 361
73.31867 363
73.33878 393
73.35889 400
73.37901 448
73.39912 427
73.41923 432
73.43935 448
73.45946 417
73.47957 379
73.49969 388
73.5198 334
73.53992 294
73.56003 333
73.58014 308
73.60026 316
73.62037 307
73.64048 283
73.6606 300
73.68071 294
73.70083 245
73.72094 233
73.74105 208
73.76117 204
73.78128 216
73.80139 211
73.82151 205
73.84162 188
73.86174 198
73.88185 170
73.90196 194
73.92208 181
73.94219 179
73.9623 191
73.98242 167
74.00253 187
74.02264 163
74.04276 164
74.06287 183
74.08299 184
74.1031 177
74.12321 148
74.14333 183
74.16344 204
74.18355 204
74.20367 168
74.22378 179
74.2439 156
74.26401 204
74.28412 156
74.30424 163
74.32435 170
74.34446 184
74.36458 176
74.38469 191
74.40481 160
74.42492 181
74.44503 179
74.46515 183
74.48526 180
74.50537 166
74.52549 169
74.5456 183
74.56571 190
74.58583 190
74.60594 173
74.62606 167
74.64617 187
74.66628 165
74.6864 178
74.70651 160
74.72662 181
74.74674 177
74.76685 166
74.78697 174
74.80708 178
74.82719 195
74.84731 174
74.86742 159
74.88753 176
74.90765 160
74.92776 167
74.94787 166
74.96799 186
74.9881 186
75.00822 174
