3.00117 20610
3.02128 20212
3.0414 19721
3.06151 19218
3.08162 18530
3.10174 18066
3.12185 18032
3.14197 17192
3.16208 16756
3.18219 16530
3.20231 15642
3.22242 15437
3.24253 14960
3.26265 14207
3.28276 14043
3.30288 13455
3.32299 13277
3.3431 12555
3.36322 12377
3.38333 12058
3.40344 11301
3.42356 11215
3.44367 10575
3.46379 10289
3.4839 10097
3.50401 9454
3.52413 9349
3.54424 8947
3.56435 8524
3.58447 8257
3.60458 7914
3.62469 7846
3.64481 7561
3.66492 7048
3.68504 7044
3.70515 6555
3.72526 6592
3.74538 6303
3.76549 5807
3.7856 5844
3.80572 5216
3.82583 5167
3.84595 4975
3.86606 4677
3.88617 4754
3.90629 4287
3.9264 4384
3.94651 4079
3.96663 3867
3.98674 3684
4.00686 3404
4.02697 3437
4.04708 3240
4.0672 2979
4.08731 2877
4.10742 2743
4.12754 2783
4.14765 2609
4.16776 2376
4.18788 2248
4.20799 2144
4.22811 2220
4.24822 2137
4.26833 2066
4.28845 1919
4.30856 1802
4.32867 1804
4.34879 1881
4.3689 1632
4.38902 1700
4.40913 1622
4.42924 1598
4.44936 1603
4.46947 1464
4.48958 1438
4.5097 1442
4.52981 1414
4.54992 1381
4.57004 1243
4.59015 1282
4.61027 1274
4.63038 1179
4.65049 1216
4.67061 1139
4.69072 1213
4.71083 1049
4.73095 1007
4.75106 1065
4.77118 988
4.79129 1029
4.8114 963
4.83152 979
4.85163 962
4.87174 879
4.89186 868
4.91197 836
4.93209 928
4.9522 913
4.97231 820
4.99243 785
5.01254 808
5.03265 811
5.05277 817
5.07288 675
5.09299 731
5.11311 674
5.13322 633
5.15334 643
5.17345 574
5.19356 613
5.21368 631
5.23379 661
5.2539 599
5.27402 598
5.29413 572
5.31425 524
5.33436 507
5.35447 496
5.37459 500
5.3947 511
5.41481 503
5.43493 528
5.45504 467
5.47516 451
5.49527 462
5.51538 464
5.5355 422
5.55561 413
5.57572 451
5.59584 399
5.61595 445
5.63606 429
5.65618 430
5.67629 420
5.69641 366
5.71652 351
5.73663 387
5.75675 355
5.77686 370
5.79697 327
5.81709 350
5.8372 361
5.85732 357
5.87743 369
5.89754 351
5.91766 298
5.93777 372
5.95788 323
5.978 322
5.99811 338
6.01823 359
6.03834 327
6.05845 337
6.07857 337
6.09868 358
6.11879 280
6.13891 299
6.15902 325
6.17913 292
6.19925 285
6.21936 323
6.23948 314
6.25959 281
6.2797 301
6.29982 311
6.31993 295
6.34004 250
6.36016 301
6.38027 268
6.40039 308
6.4205 276
6.44061 289
6.46073 256
6.48084 318
6.50095 266
6.52107 279
6.54118 230
6.56129 278
6.58141 264
6.60152 289
6.62164 298
6.64175 286
6.66186 253
6.68198 310
6.70209 245
6.7222 262
6.74232 301
6.76243 279
6.78255 233
6.80266 287
6.82277 314
6.84289 240
6.863 284
6.88311 262
6.90323 290
6.92334 250
6.94346 280
6.96357 272
6.98368 262
7.0038 263
7.02391 292
7.04402 295
7.06414 236
7.08425 291
7.10436 299
7.12448 255
7.14459 254
7.16471 295
7.18482 264
7.20493 292
7.22505 263
7.24516 244
7.26527 284
7.28539 238
7.3055 307
7.32562 287
7.34573 262
7.36584 273
7.38596 269
7.40607 252
7.42618 291
7.4463 265
7.46641 291
7.48653 237
7.50664 270
7.52675 279
7.54687 267
7.56698 257
7.58709 255
7.60721 275
7.62732 301
7.64743 276
7.66755 304
7.68766 253
7.70778 283
7.72789 267
7.748 306
7.76812 227
7.78823 268
7.80834 270
7.82846 277
7.84857 269
7.86869 232
7.8888 270
7.90891 251
7.92903 303
7.94914 273
7.96925 294
7.98937 258
8.00948 254
8.0296 269
8.04971 289
8.06982 289
8.08994 243
8.11005 300
8.13016 314
8.15028 286
8.17039 274
8.1905 276
8.21062 252
8.23073 252
8.25085 278
8.27096 257
8.29107 298
8.31119 280
8.3313 300
8.35141 269
8.37153 269
8.39164 266
8.41176 290
8.43187 278
8.45198 302
8.4721 297
8.49221 273
8.51232 273
8.53244 302
8.55255 301
8.57266 273
8.59278 256
8.61289 284
8.63301 274
8.65312 302
8.67323 290
8.69335 269
8.71346 300
8.73357 281
8.75369 317
8.7738 290
8.79392 270
8.81403 271
8.83414 293
8.85426 291
8.87437 265
8.89448 288
8.9146 280
8.93471 303
8.95483 274
8.97494 295
8.99505 307
9.01517 292
9.03528 259
9.05539 253
9.07551 266
9.09562 288
9.11573 318
9.13585 289
9.15596 304
9.17608 280
9.19619 266
9.2163 291
9.23642 272
9.25653 280
9.27664 276
9.29676 263
9.31687 268
9.33699 265
9.3571 288
9.37721 291
9.39733 287
9.41744 293
9.43755 258
9.45767 279
9.47778 321
9.4979 257
9.51801 272
9.53812 284
9.55824 298
9.57835 282
9.59846 277
9.61858 329
9.63869 285
9.6588 271
9.67892 310
9.69903 272
9.71915 281
9.73926 282
9.75937 289
9.77949 274
9.7996 288
9.81971 280
9.83983 311
9.85994 267
9.88006 249
9.90017 317
9.92028 297
9.9404 289
9.96051 245
9.98062 298
10.00074 275
10.02085 298
10.04097 296
10.06108 301
10.08119 281
10.10131 275
10.12142 306
10.14153 273
10.16165 307
10.18176 282
10.20187 303
10.22199 326
10.2421 288
10.26222 298
10.28233 265
10.30244 260
10.32256 273
10.34267 307
10.36278 320
10.3829 312
10.40301 273
10.42313 282
10.44324 275
10.46335 300
10.48347 294
10.50358 274
10.52369 276
10.54381 270
10.56392 296
10.58403 300
10.60415 330
10.62426 263
10.64438 344
10.66449 308
10.6846 299
10.70472 290
10.72483 319
10.74494 317
10.76506 286
10.78517 300
10.80529 263
10.8254 282
10.84551 282
10.86563 301
10.88574 307
10.90585 322
10.92597 276
10.94608 298
10.9662 297
10.98631 293
11.00642 270
11.02654 278
11.04665 293
11.06676 291
11.08688 318
11.10699 251
11.1271 322
11.14722 323
11.16733 304
11.18745 289
11.20756 281
11.22767 329
11.24779 282
11.2679 272
11.28801 320
11.30813 288
11.32824 308
11.34836 314
11.36847 308
11.38858 302
11.4087 311
11.42881 300
11.44892 290
11.46904 316
11.48915 309
11.50927 315
11.52938 300
11.54949 301
11.56961 287
11.58972 337
11.60983 330
11.62995 322
11.65006 299
11.67017 329
11.69029 296
11.7104 295
11.73052 290
11.75063 342
11.77074 332
11.79086 338
11.81097 345
11.83108 342
11.8512 316
11.87131 331
11.89143 366
11.91154 325
11.93165 330
11.95177 377
11.97188 356
11.99199 378
12.01211 391
12.03222 403
12.05234 408
12.07245 434
12.09256 424
12.11268 447
12.13279 451
12.1529 489
12.17302 447
12.19313 455
12.21324 520
12.23336 563
12.25347 571
12.27359 576
12.2937 583
12.31381 590
12.33393 640
12.35404 583
12.37415 605
12.39427 562
12.41438 540
12.4345 545
12.45461 466
12.47472 503
12.49484 457
12.51495 471
12.53506 426
12.55518 402
12.57529 391
12.5954 348
12.61552 369
12.63563 317
12.65575 320
12.67586 332
12.69597 361
12.71609 330
12.7362 302
12.75631 319
12.77643 289
12.79654 339
12.81666 252
12.83677 317
12.85688 297
12.877 285
12.89711 293
12.91722 262
12.93734 321
12.95745 302
12.97757 294
12.99768 275
13.01779 289
13.03791 294
13.05802 292
13.07813 289
13.09825 274
13.11836 277
13.13847 303
13.15859 256
13.1787 270
13.19882 309
13.21893 294
13.23904 313
13.25916 264
13.27927 257
13.29938 278
13.3195 275
13.33961 278
13.35973 276
13.37984 276
13.39995 283
13.42007 261
13.44018 261
13.46029 278
13.48041 253
13.50052 286
13.52064 274
13.54075 234
13.56086 264
13.58098 230
13.60109 247
13.6212 263
13.64132 240
13.66143 278
13.68154 269
13.70166 267
13.72177 236
13.74189 279
13.762 258
13.78211 220
13.80223 224
13.82234 246
13.84245 253
13.86257 273
13.88268 246
13.9028 216
13.92291 231
13.94302 243
13.96314 319
13.98325 261
14.00336 262
14.02348 249
14.04359 259
14.06371 243
14.08382 264
14.10393 253
14.12405 249
14.14416 244
14.16427 246
14.18439 243
14.2045 225
14.22461 270
14.24473 245
14.26484 286
14.28496 243
14.30507 266
14.32518 269
14.3453 264
14.36541 235
14.38552 253
14.40564 244
14.42575 253
14.44587 245
14.46598 250
14.48609 240
14.50621 245
14.52632 239
14.54643 252
14.56655 230
14.58666 239
14.60677 258
14.62689 254
14.647 249
14.66712 250
14.68723 239
14.70734 230
14.72746 252
14.74757 260
14.76768 254
14.7878 237
14.80791 240
14.82803 267
14.84814 267
14.86825 226
14.88837 236
14.90848 212
14.92859 272
14.94871 232
14.96882 267
14.98894 276
15.00905 228
15.02916 250
15.04928 265
15.06939 266
15.0895 243
15.10962 253
15.12973 254
15.14984 246
15.16996 240
15.19007 252
15.21019 277
15.2303 230
15.25041 244
15.27053 244
15.29064 214
15.31075 229
15.33087 240
15.35098 232
15.3711 255
15.39121 224
15.41132 224
15.43144 239
15.45155 217
15.47166 251
15.49178 248
15.51189 238
15.53201 252
15.55212 258
15.57223 281
15.59235 212
15.61246 198
15.63257 272
15.65269 232
15.6728 210
15.69291 269
15.71303 237
15.73314 239
15.75326 279
15.77337 269
15.79348 230
15.8136 266
15.83371 259
15.85382 242
15.87394 233
15.89405 269
15.91417 270
15.93428 218
15.95439 243
15.97451 238
15.99462 243
16.01473 222
16.03485 222
16.05496 231
16.07508 226
16.09519 223
16.1153 275
16.13542 233
16.15553 197
16.17564 221
16.19576 238
16.21587 236
16.23598 250
16.2561 242
16.27621 226
16.29633 206
16.31644 264
16.33655 257
16.35667 233
16.37678 247
16.39689 255
16.41701 250
16.43712 242
16.45724 253
16.47735 219
16.49746 255
16.51758 264
16.53769 242
16.5578 226
16.57792 222
16.59803 198
16.61814 223
16.63826 270
16.65837 225
16.67849 219
16.6986 245
16.71871 232
16.73883 228
16.75894 254
16.77905 254
16.79917 250
16.81928 221
16.8394 214
16.85951 242
16.87962 232
16.89974 259
16.91985 224
16.93996 250
16.96008 229
16.98019 238
17.00031 239
17.02042 257
17.04053 238
17.06065 257
17.08076 224
17.10087 249
17.12099 241
17.1411 253
17.16121 238
17.18133 248
17.20144 231
17.22156 263
17.24167 242
17.26178 261
17.2819 237
17.30201 264
17.32212 234
17.34224 228
17.36235 222
17.38247 238
17.40258 279
17.42269 223
17.44281 235
17.46292 244
17.48303 246
17.50315 248
17.52326 241
17.54338 249
17.56349 247
17.5836 225
17.60372 265
17.62383 243
17.64394 257
17.66406 242
17.68417 223
17.70428 237
17.7244 251
17.74451 256
17.76463 253
17.78474 253
17.80485 245
17.82497 238
17.84508 226
17.86519 272
17.88531 228
17.90542 254
17.92554 257
17.94565 255
17.96576 236
17.98588 240
18.00599 204
18.0261 271
18.04622 282
18.06633 221
18.08645 252
18.10656 246
18.12667 232
18.14679 249
18.1669 248
18.18701 277
18.20713 259
18.22724 222
18.24735 245
18.26747 256
18.28758 254
18.3077 243
18.32781 257
18.34792 241
18.36804 222
18.38815 260
18.40826 231
18.42838 247
18.44849 253
18.46861 283
18.48872 237
18.50883 240
18.52895 242
18.54906 236
18.56917 258
18.58929 281
18.6094 227
18.62951 251
18.64963 244
18.66974 236
18.68986 244
18.70997 261
18.73008 251
18.7502 246
18.77031 270
18.79042 241
18.81054 257
18.83065 269
18.85077 264
18.87088 268
18.89099 247
18.91111 254
18.93122 225
18.95133 260
18.97145 232
18.99156 272
19.01168 222
19.03179 265
19.0519 242
19.07202 229
19.09213 238
19.11224 257
19.13236 272
19.15247 287
19.17258 257
19.1927 287
19.21281 253
19.23293 243
19.25304 261
19.27315 261
19.29327 238
19.31338 289
19.33349 266
19.35361 247
19.37372 266
19.39384 241
19.41395 253
19.43406 277
19.45418 270
19.47429 293
19.4944 250
19.51452 254
19.53463 280
19.55475 269
19.57486 280
19.59497 295
19.61509 282
19.6352 313
19.65531 297
19.67543 302
19.69554 288
19.71565 357
19.73577 340
19.75588 417
19.776 362
19.79611 446
19.81622 467
19.83634 458
19.85645 453
19.87656 499
19.89668 516
19.91679 492
19.93691 506
19.95702 538
19.97713 468
19.99725 490
20.01736 472
20.03747 443
20.05759 455
20.0777 428
20.09782 463
20.11793 495
20.13804 476
20.15816 455
20.17827 466
20.19838 428
20.2185 444
20.23861 491
20.25872 470
20.27884 481
20.29895 459
20.31907 476
20.33918 477
20.35929 441
20.37941 481
20.39952 475
20.41963 546
20.43975 511
20.45986 551
20.47998 532
20.50009 558
20.5202 547
20.54032 603
20.56043 559
20.58054 576
20.60066 646
20.62077 633
20.64088 703
20.661 787
20.68111 996
20.70123 1216
20.72134 1570
20.74145 2257
20.76157 3016
20.78168 3976
20.80179 5115
20.82191 6175
20.84202 6983
20.86214 6538
20.88225 5714
20.90236 4367
20.92248 3024
20.94259 2003
20.9627 1254
20.98282 875
21.00293 726
21.02305 633
21.04316 667
21.06327 562
21.08339 565
21.1035 543
21.12361 540
21.14373 522
21.16384 520
21.18395 513
21.20407 519
21.22418 529
21.2443 534
21.26441 504
21.28452 531
21.30464 496
21.32475 481
21.34486 527
21.36498 522
21.38509 535
21.40521 469
21.42532 497
21.44543 498
21.46555 452
21.48566 439
21.50577 469
21.52589 460
21.546 461
21.56612 425
21.58623 456
21.60634 423
21.62646 396
21.64657 414
21.66668 445
21.6868 418
21.70691 410
21.72702 414
21.74714 391
21.76725 426
21.78737 377
21.80748 372
21.82759 378
21.84771 386
21.86782 392
21.88793 361
21.90805 393
21.92816 370
21.94828 389
21.96839 389
21.9885 332
22.00862 359
22.02873 348
22.04884 377
22.06896 384
22.08907 360
22.10919 351
22.1293 368
22.14941 348
22.16953 339
22.18964 335
22.20975 332
22.22987 338
22.24998 354
22.27009 322
22.29021 330
22.31032 339
22.33044 313
22.35055 349
22.37066 339
22.39078 362
22.41089 331
22.431 339
22.45112 304
22.47123 339
22.49135 347
22.51146 321
22.53157 312
22.55169 348
22.5718 332
22.59191 334
22.61203 378
22.63214 351
22.65225 321
22.67237 336
22.69248 346
22.7126 304
22.73271 313
22.75282 323
22.77294 345
22.79305 332
22.81316 301
22.83328 360
22.85339 321
22.87351 326
22.89362 309
22.91373 288
22.93385 316
22.95396 320
22.97407 329
22.99419 343
23.0143 325
23.03442 321
23.05453 327
23.07464 322
23.09476 299
23.11487 304
23.13498 317
23.1551 268
23.17521 306
23.19532 313
23.21544 305
23.23555 327
23.25567 332
23.27578 326
23.29589 315
23.31601 333
23.33612 324
23.35623 301
23.37635 334
23.39646 292
23.41658 307
23.43669 304
23.4568 321
23.47692 302
23.49703 305
23.51714 300
23.53726 308
23.55737 312
23.57749 310
23.5976 319
23.61771 292
23.63783 324
23.65794 353
23.67805 280
23.69817 342
23.71828 349
23.73839 317
23.75851 333
23.77862 309
23.79874 333
23.81885 336
23.83896 316
23.85908 327
23.87919 330
23.8993 322
23.91942 370
23.93953 370
23.95965 358
23.97976 381
23.99987 365
24.01999 370
24.0401 367
24.06021 358
24.08033 323
24.10044 359
24.12056 331
24.14067 343
24.16078 340
24.1809 309
24.20101 354
24.22112 339
24.24124 327
24.26135 334
24.28146 368
24.30158 326
24.32169 327
24.34181 331
24.36192 338
24.38203 349
24.40215 342
24.42226 397
24.44237 352
24.46249 356
24.4826 331
24.50272 366
24.52283 325
24.54294 384
24.56306 375
24.58317 369
24.60328 385
24.6234 390
24.64351 398
24.66362 444
24.68374 433
24.70385 428
24.72397 445
24.74408 458
24.76419 445
24.78431 457
24.80442 540
24.82453 531
24.84465 529
24.86476 524
24.88488 466
24.90499 524
24.9251 453
24.94522 531
24.96533 464
24.98544 470
25.00556 473
25.02567 462
25.04579 437
25.0659 435
25.08601 405
25.10613 392
25.12624 366
25.14635 417
25.16647 406
25.18658 425
25.20669 412
25.22681 376
25.24692 389
25.26704 461
25.28715 384
25.30726 389
25.32738 387
25.34749 345
25.3676 359
25.38772 369
25.40783 359
25.42795 347
25.44806 335
25.46817 382
25.48829 331
25.5084 327
25.52851 352
25.54863 363
25.56874 355
25.58886 366
25.60897 369
25.62908 385
25.6492 387
25.66931 399
25.68942 410
25.70954 433
25.72965 462
25.74976 527
25.76988 480
25.78999 429
25.81011 481
25.83022 495
25.85033 510
25.87045 470
25.89056 480
25.91067 482
25.93079 524
25.9509 526
25.97102 501
25.99113 507
26.01124 553
26.03136 516
26.05147 578
26.07158 596
26.0917 532
26.11181 599
26.13193 650
26.15204 698
26.17215 691
26.19227 761
26.21238 806
26.23249 823
26.25261 901
26.27272 945
26.29283 1010
26.31295 1093
26.33306 1157
26.35318 1346
26.37329 1531
26.3934 1878
26.41352 2260
26.43363 2824
26.45374 3682
26.47386 4959
26.49397 7070
26.51409 9689
26.5342 13314
26.55431 17797
26.57443 22513
26.59454 26886
26.61465 29731
26.63477 29214
26.65488 25587
26.67499 20049
26.69511 14836
26.71522 11035
26.73534 6825
26.75545 3939
26.77556 2378
26.79568 1762
26.81579 1432
26.8359 1375
26.85602 1213
26.87613 1106
26.89625 1015
26.91636 964
26.93647 907
26.95659 806
26.9767 779
26.99681 721
27.01693 646
27.03704 626
27.05716 602
27.07727 585
27.09738 523
27.1175 522
27.13761 477
27.15772 456
27.17784 478
27.19795 484
27.21806 448
27.23818 451
27.25829 429
27.27841 410
27.29852 413
27.31863 428
27.33875 469
27.35886 477
27.37897 437
27.39909 469
27.4192 440
27.43932 508
27.45943 476
27.47954 449
27.49966 428
27.51977 420
27.53988 444
27.56 407
27.58011 390
27.60023 371
27.62034 365
27.64045 364
27.66057 355
27.68068 371
27.70079 367
27.72091 361
27.74102 368
27.76113 353
27.78125 360
27.80136 352
27.82148 368
27.84159 355
27.8617 387
27.88182 375
27.90193 355
27.92204 338
27.94216 362
27.96227 337
27.98239 332
28.0025 343
28.02261 347
28.04273 328
28.06284 302
28.08295 344
28.10307 362
28.12318 314
28.1433 294
28.16341 324
28.18352 368
28.20364 341
28.22375 302
28.24386 304
28.26398 363
28.28409 325
28.3042 275
28.32432 327
28.34443 338
28.36455 312
28.38466 319
28.40477 335
28.42489 323
28.445 311
28.46511 304
28.48523 311
28.50534 305
28.52546 302
28.54557 285
28.56568 328
28.5858 316
28.60591 284
28.62602 286
28.64614 307
28.66625 298
28.68636 305
28.70648 297
28.72659 286
28.74671 278
28.76682 267
28.78693 302
28.80705 315
28.82716 329
28.84727 286
28.86739 278
28.8875 317
28.90762 288
28.92773 293
28.94784 289
28.96796 279
28.98807 268
29.00818 305
29.0283 276
29.04841 285
29.06853 273
29.08864 273
29.10875 264
29.12887 302
29.14898 305
29.16909 267
29.18921 291
29.20932 282
29.22943 264
29.24955 306
29.26966 285
29.28978 281
29.30989 286
29.33 295
29.35012 275
29.37023 300
29.39034 285
29.41046 270
29.43057 277
29.45069 260
29.4708 320
29.49091 302
29.51103 302
29.53114 263
29.55125 290
29.57137 281
29.59148 294
29.6116 267
29.63171 264
29.65182 260
29.67194 278
29.69205 270
29.71216 283
29.73228 284
29.75239 328
29.7725 287
29.79262 277
29.81273 254
29.83285 289
29.85296 287
29.87307 263
29.89319 269
29.9133 271
29.93341 277
29.95353 284
29.97364 283
29.99376 264
30.01387 272
30.03398 292
30.0541 276
30.07421 290
30.09432 255
30.11444 263
30.13455 273
30.15467 272
30.17478 247
30.19489 277
30.21501 249
30.23512 275
30.25523 284
30.27535 245
30.29546 295
30.31557 258
30.33569 254
30.3558 259
30.37592 260
30.39603 304
30.41614 277
30.43626 265
30.45637 270
30.47648 290
30.4966 272
30.51671 304
30.53683 287
30.55694 271
30.57705 285
30.59717 288
30.61728 288
30.63739 267
30.65751 262
30.67762 266
30.69773 249
30.71785 259
30.73796 283
30.75808 275
30.77819 296
30.7983 298
30.81842 272
30.83853 234
30.85864 258
30.87876 275
30.89887 281
30.91899 259
30.9391 260
30.95921 236
30.97933 308
30.99944 272
31.01955 274
31.03967 287
31.05978 247
31.0799 250
31.10001 248
31.12012 248
31.14024 282
31.16035 259
31.18046 275
31.20058 250
31.22069 275
31.2408 256
31.26092 269
31.28103 265
31.30115 260
31.32126 249
31.34137 260
31.36149 242
31.3816 256
31.40171 271
31.42183 253
31.44194 252
31.46206 292
31.48217 255
31.50228 254
31.5224 228
31.54251 229
31.56262 265
31.58274 246
31.60285 261
31.62297 243
31.64308 263
31.66319 267
31.68331 271
31.70342 270
31.72353 252
31.74365 242
31.76376 236
31.78387 207
31.80399 241
31.8241 251
31.84422 241
31.86433 230
31.88444 264
31.90456 248
31.92467 250
31.94478 251
31.9649 242
31.98501 236
32.00513 248
32.02524 225
32.04535 237
32.06547 237
32.08558 262
32.10569 245
32.12581 267
32.14592 258
32.16604 276
32.18615 235
32.20626 242
32.22638 271
32.24649 240
32.2666 220
32.28672 259
32.30683 257
32.32694 269
32.34706 289
32.36717 271
32.38729 293
32.4074 289
32.42751 269
32.44763 268
32.46774 295
32.48785 301
32.50797 319
32.52808 289
32.5482 289
32.56831 282
32.58842 276
32.60854 271
32.62865 256
32.64876 259
32.66888 251
32.68899 268
32.7091 260
32.72922 281
32.74933 250
32.76945 284
32.78956 233
32.80967 267
32.82979 290
32.8499 260
32.87001 256
32.89013 251
32.91024 287
32.93036 271
32.95047 265
32.97058 268
32.9907 299
33.01081 259
33.03092 257
33.05104 262
33.07115 271
33.09127 301
33.11138 269
33.13149 275
33.15161 297
33.17172 284
33.19183 255
33.21195 304
33.23206 275
33.25217 284
33.27229 294
33.2924 278
33.31252 315
33.33263 281
33.35274 263
33.37286 289
33.39297 260
33.41308 294
33.4332 311
33.45331 288
33.47343 304
33.49354 268
33.51365 301
33.53377 263
33.55388 281
33.57399 303
33.59411 267
33.61422 284
33.63434 270
33.65445 280
33.67456 281
33.69468 273
33.71479 245
33.7349 294
33.75502 251
33.77513 258
33.79524 267
33.81536 242
33.83547 263
33.85559 247
33.8757 262
33.89581 241
33.91593 268
33.93604 254
33.95615 237
33.97627 261
33.99638 240
34.0165 252
34.03661 247
34.05672 236
34.07684 237
34.09695 225
34.11706 236
34.13718 209
34.15729 245
34.17741 268
34.19752 236
34.21763 214
34.23775 262
34.25786 250
34.27797 232
34.29809 247
34.3182 255
34.33831 249
34.35843 264
34.37854 259
34.39866 271
34.41877 232
34.43888 232
34.459 258
34.47911 265
34.49922 288
34.51934 258
34.53945 257
34.55957 270
34.57968 270
34.59979 281
34.61991 288
34.64002 281
34.66013 280
34.68025 278
34.70036 269
34.72047 288
34.74059 307
34.7607 290
34.78082 319
34.80093 367
34.82104 328
34.84116 349
34.86127 351
34.88138 371
34.9015 359
34.92161 387
34.94173 364
34.96184 373
34.98195 352
35.00207 379
35.02218 338
35.04229 368
35.06241 362
35.08252 366
35.10264 323
35.12275 338
35.14286 329
35.16298 347
35.18309 371
35.2032 355
35.22332 364
35.24343 387
35.26354 321
35.28366 345
35.30377 348
35.32389 335
35.344 349
35.36411 332
35.38423 389
35.40434 357
35.42445 367
35.44457 341
35.46468 361
35.4848 335
35.50491 344
35.52502 382
35.54514 355
35.56525 384
35.58536 381
35.60548 370
35.62559 379
35.64571 382
35.66582 350
35.68593 384
35.70605 381
35.72616 350
35.74627 367
35.76639 376
35.7865 374
35.80661 379
35.82673 374
35.84684 365
35.86696 410
35.88707 407
35.90718 404
35.9273 375
35.94741 364
35.96752 404
35.98764 352
36.00775 397
36.02787 347
36.04798 324
36.06809 364
36.08821 360
36.10832 357
36.12843 353
36.14855 332
36.16866 336
36.18878 354
36.20889 413
36.229 341
36.24912 378
36.26923 429
36.28934 427
36.30946 457
36.32957 527
36.34968 579
36.3698 714
36.38991 866
36.41003 1001
36.43014 1183
36.45025 1520
36.47037 1765
36.49048 2013
36.51059 2231
36.53071 2206
36.55082 2013
36.57094 1677
36.59105 1387
36.61116 1292
36.63128 1078
36.65139 855
36.6715 666
36.69162 472
36.71173 422
36.73184 398
36.75196 419
36.77207 345
36.79219 374
36.8123 346
36.83241 356
36.85253 352
36.87264 357
36.89275 358
36.91287 335
36.93298 316
36.9531 321
36.97321 335
36.99332 370
37.01344 327
37.03355 318
37.05366 307
37.07378 302
37.09389 296
37.11401 349
37.13412 321
37.15423 303
37.17435 338
37.19446 310
37.21457 295
37.23469 322
37.2548 316
37.27491 303
37.29503 304
37.31514 303
37.33526 279
37.35537 294
37.37548 298
37.3956 293
37.41571 271
37.43582 282
37.45594 295
37.47605 288
37.49617 273
37.51628 292
37.53639 269
37.55651 271
37.57662 278
37.59673 263
37.61685 316
37.63696 295
37.65708 316
37.67719 293
37.6973 289
37.71742 307
37.73753 279
37.75764 283
37.77776 282
37.79787 318
37.81798 297
37.8381 316
37.85821 309
37.87833 290
37.89844 287
37.91855 299
37.93867 294
37.95878 291
37.97889 299
37.99901 272
38.01912 311
38.03924 310
38.05935 282
38.07946 275
38.09958 324
38.11969 326
38.1398 300
38.15992 320
38.18003 352
38.20015 346
38.22026 338
38.24037 324
38.26049 368
38.2806 341
38.30071 343
38.32083 365
38.34094 346
38.36105 341
38.38117 346
38.40128 400
38.4214 379
38.44151 378
38.46162 399
38.48174 366
38.50185 372
38.52196 346
38.54208 352
38.56219 327
38.58231 361
38.60242 347
38.62253 339
38.64265 331
38.66276 343
38.68287 329
38.70299 311
38.7231 331
38.74321 320
38.76333 315
38.78344 310
38.80356 305
38.82367 321
38.84378 321
38.8639 305
38.88401 323
38.90412 303
38.92424 338
38.94435 308
38.96447 306
38.98458 287
39.00469 317
39.02481 314
39.04492 324
39.06503 349
39.08515 358
39.10526 393
39.12538 379
39.14549 379
39.1656 419
39.18572 403
39.20583 423
39.22594 456
39.24606 511
39.26617 594
39.28628 660
39.3064 738
39.32651 896
39.34663 1175
39.36674 1368
39.38685 1571
39.40697 1869
39.42708 1950
39.44719 2018
39.46731 1804
39.48742 1582
39.50754 1345
39.52765 1185
39.54776 1127
39.56788 960
39.58799 707
39.6081 531
39.62822 423
39.64833 368
39.66845 345
39.68856 347
39.70867 336
39.72879 303
39.7489 309
39.76901 283
39.78913 300
39.80924 288
39.82935 276
39.84947 285
39.86958 298
39.8897 274
39.90981 280
39.92992 316
39.95004 285
39.97015 265
39.99026 332
40.01038 343
40.03049 337
40.05061 352
40.07072 384
40.09083 370
40.11095 447
40.13106 488
40.15117 568
40.17129 700
40.1914 803
40.21152 979
40.23163 1056
40.25174 1124
40.27186 1060
40.29197 1061
40.31208 846
40.3322 811
40.35231 703
40.37242 631
40.39254 608
40.41265 498
40.43277 435
40.45288 349
40.47299 320
40.49311 309
40.51322 277
40.53333 299
40.55345 283
40.57356 328
40.59368 307
40.61379 300
40.6339 275
40.65402 304
40.67413 270
40.69424 249
40.71436 291
40.73447 249
40.75458 271
40.7747 283
40.79481 291
40.81493 259
40.83504 264
40.85515 306
40.87527 268
40.89538 283
40.91549 292
40.93561 267
40.95572 267
40.97584 252
40.99595 306
41.01606 269
41.03618 283
41.05629 297
41.0764 298
41.09652 281
41.11663 271
41.13675 263
41.15686 266
41.17697 267
41.19709 257
41.2172 281
41.23731 258
41.25743 281
41.27754 272
41.29765 265
41.31777 243
41.33788 249
41.358 273
41.37811 263
41.39822 280
41.41834 282
41.43845 277
41.45856 257
41.47868 265
41.49879 272
41.51891 253
41.53902 257
41.55913 268
41.57925 274
41.59936 258
41.61947 262
41.63959 266
41.6597 266
41.67982 238
41.69993 264
41.72004 261
41.74016 290
41.76027 249
41.78038 273
41.8005 282
41.82061 252
41.84072 247
41.86084 265
41.88095 279
41.90107 245
41.92118 275
41.94129 249
41.96141 242
41.98152 259
42.00163 282
42.02175 279
42.04186 276
42.06198 258
42.08209 299
42.1022 276
42.12232 273
42.14243 297
42.16254 332
42.18266 362
42.20277 399
42.22289 365
42.243 414
42.26311 504
42.28323 563
42.30334 689
42.32345 881
42.34357 1005
42.36368 1125
42.38379 1234
42.40391 1426
42.42402 1446
42.44414 1445
42.46425 1202
42.48436 1038
42.50448 903
42.52459 818
42.5447 759
42.56482 649
42.58493 529
42.60505 375
42.62516 329
42.64527 321
42.66539 287
42.6855 299
42.70561 283
42.72573 238
42.74584 285
42.76595 267
42.78607 284
42.80618 262
42.8263 235
42.84641 245
42.86652 243
42.88664 235
42.90675 218
42.92686 241
42.94698 243
42.96709 242
42.98721 246
43.00732 234
43.02743 266
43.04755 239
43.06766 247
43.08777 236
43.10789 226
43.128 240
43.14812 220
43.16823 240
43.18834 206
43.20846 225
43.22857 239
43.24868 227
43.2688 214
43.28891 220
43.30902 213
43.32914 217
43.34925 220
43.36937 216
43.38948 217
43.40959 221
43.42971 231
43.44982 236
43.46993 230
43.49005 230
43.51016 247
43.53028 211
43.55039 251
43.5705 216
43.59062 244
43.61073 223
43.63084 214
43.65096 199
43.67107 244
43.69119 241
43.7113 233
43.73141 220
43.75153 254
43.77164 214
43.79175 209
43.81187 232
43.83198 210
43.85209 221
43.87221 220
43.89232 214
43.91244 225
43.93255 222
43.95266 214
43.97278 200
43.99289 236
44.013 239
44.03312 210
44.05323 221
44.07335 228
44.09346 226
44.11357 237
44.13369 221
44.1538 227
44.17391 248
44.19403 233
44.21414 219
44.23426 217
44.25437 234
44.27448 216
44.2946 234
44.31471 228
44.33482 220
44.35494 225
44.37505 193
44.39516 230
44.41528 211
44.43539 218
44.45551 204
44.47562 200
44.49573 208
44.51585 249
44.53596 236
44.55607 215
44.57619 222
44.5963 214
44.61642 226
44.63653 216
44.65664 262
44.67676 239
44.69687 216
44.71698 249
44.7371 230
44.75721 217
44.77732 209
44.79744 231
44.81755 233
44.83767 231
44.85778 240
44.87789 236
44.89801 215
44.91812 247
44.93823 226
44.95835 256
44.97846 219
44.99858 244
45.01869 231
45.0388 207
45.05892 249
45.07903 249
45.09914 260
45.11926 221
45.13937 238
45.15949 245
45.1796 226
45.19971 237
45.21983 238
45.23994 227
45.26005 263
45.28017 261
45.30028 252
45.32039 272
45.34051 264
45.36062 255
45.38074 253
45.40085 280
45.42096 279
45.44108 287
45.46119 304
45.4813 297
45.50142 298
45.52153 326
45.54165 344
45.56176 375
45.58187 417
45.60199 417
45.6221 462
45.64221 546
45.66233 662
45.68244 737
45.70256 818
45.72267 1009
45.74278 967
45.7629 1039
45.78301 936
45.80312 878
45.82324 768
45.84335 679
45.86346 661
45.88358 593
45.90369 519
45.92381 473
45.94392 354
45.96403 324
45.98415 258
46.00426 273
46.02437 242
46.04449 256
46.0646 286
46.08472 254
46.10483 243
46.12494 253
46.14506 233
46.16517 273
46.18528 220
46.2054 248
46.22551 224
46.24563 243
46.26574 251
46.28585 254
46.30597 208
46.32608 247
46.34619 234
46.36631 241
46.38642 224
46.40653 233
46.42665 244
46.44676 239
46.46688 248
46.48699 220
46.5071 227
46.52722 238
46.54733 224
46.56744 199
46.58756 208
46.60767 231
46.62779 223
46.6479 240
46.66801 221
46.68813 190
46.70824 243
46.72835 228
46.74847 233
46.76858 219
46.78869 239
46.80881 220
46.82892 221
46.84904 236
46.86915 198
46.88926 236
46.90938 208
46.92949 223
46.9496 217
46.96972 216
46.98983 227
47.00995 216
47.03006 209
47.05017 213
47.07029 233
47.0904 232
47.11051 214
47.13063 211
47.15074 228
47.17086 207
47.19097 221
47.21108 204
47.2312 236
47.25131 241
47.27142 251
47.29154 232
47.31165 226
47.33176 211
47.35188 235
47.37199 194
47.39211 222
47.41222 229
47.43233 205
47.45245 214
47.47256 232
47.49267 230
47.51279 226
47.5329 199
47.55302 248
47.57313 242
47.59324 217
47.61336 204
47.63347 235
47.65358 222
47.6737 238
47.69381 220
47.71393 223
47.73404 209
47.75415 217
47.77427 202
47.79438 257
47.81449 241
47.83461 210
47.85472 246
47.87483 265
47.89495 240
47.91506 250
47.93518 234
47.95529 227
47.9754 217
47.99552 235
48.01563 229
48.03574 244
48.05586 211
48.07597 229
48.09609 225
48.1162 243
48.13631 232
48.15643 227
48.17654 244
48.19665 202
48.21677 237
48.23688 226
48.257 207
48.27711 242
48.29722 238
48.31734 243
48.33745 227
48.35756 233
48.37768 218
48.39779 245
48.4179 211
48.43802 262
48.45813 225
48.47825 231
48.49836 224
48.51847 245
48.53859 198
48.5587 253
48.57881 235
48.59893 266
48.61904 247
48.63916 238
48.65927 237
48.67938 234
48.6995 229
48.71961 221
48.73972 246
48.75984 238
48.77995 249
48.80006 246
48.82018 236
48.84029 222
48.86041 235
48.88052 243
48.90063 226
48.92075 207
48.94086 207
48.96097 202
48.98109 218
49.0012 214
49.02132 225
49.04143 228
49.06154 229
49.08166 212
49.10177 212
49.12188 244
49.142 241
49.16211 215
49.18223 244
49.20234 242
49.22245 246
49.24257 239
49.26268 260
49.28279 240
49.30291 243
49.32302 221
49.34313 238
49.36325 224
49.38336 287
49.40348 244
49.42359 269
49.4437 263
49.46382 255
49.48393 251
49.50404 250
49.52416 249
49.54427 262
49.56439 260
49.5845 266
49.60461 279
49.62473 274
49.64484 311
49.66495 310
49.68507 331
49.70518 303
49.7253 314
49.74541 357
49.76552 355
49.78564 404
49.80575 415
49.82586 453
49.84598 510
49.86609 528
49.8862 586
49.90632 694
49.92643 773
49.94655 914
49.96666 1139
49.98677 1322
50.00689 1636
50.027 2044
50.04711 2338
50.06723 2794
50.08734 3088
50.10746 3036
50.12757 2874
50.14768 2349
50.1678 1879
50.18791 1703
50.20802 1716
50.22814 1706
50.24825 1532
50.26837 1329
50.28848 941
50.30859 686
50.32871 493
50.34882 415
50.36893 383
50.38905 387
50.40916 293
50.42927 325
50.44939 295
50.4695 316
50.48962 303
50.50973 308
50.52984 308
50.54996 325
50.57007 310
50.59018 307
50.6103 287
50.63041 307
50.65053 249
50.67064 273
50.69075 276
50.71087 273
50.73098 281
50.75109 249
50.77121 240
50.79132 263
50.81143 245
50.83155 264
50.85166 237
50.87178 236
50.89189 196
50.912 242
50.93212 271
50.95223 260
50.97234 245
50.99246 217
51.01257 220
51.03269 212
51.0528 231
51.07291 233
51.09303 232
51.11314 241
51.13325 229
51.15337 223
51.17348 245
51.1936 221
51.21371 224
51.23382 199
51.25394 231
51.27405 215
51.29416 247
51.31428 198
51.33439 223
51.3545 207
51.37462 205
51.39473 182
51.41485 187
51.43496 230
51.45507 182
51.47519 200
51.4953 234
51.51541 192
51.53553 195
51.55564 221
51.57576 243
51.59587 221
51.61598 220
51.6361 211
51.65621 220
51.67632 220
51.69644 224
51.71655 213
51.73667 174
51.75678 215
51.77689 230
51.79701 213
51.81712 204
51.83723 218
51.85735 219
51.87746 200
51.89757 218
51.91769 219
51.9378 212
51.95792 203
51.97803 203
51.99814 209
52.01826 196
52.03837 207
52.05848 209
52.0786 216
52.09871 220
52.11883 203
52.13894 208
52.15905 192
52.17917 223
52.19928 201
52.21939 195
52.23951 201
52.25962 210
52.27974 180
52.29985 208
52.31996 207
52.34008 206
52.36019 228
52.3803 217
52.40042 201
52.42053 222
52.44064 209
52.46076 200
52.48087 199
52.50099 234
52.5211 213
52.54121 212
52.56133 221
52.58144 223
52.60155 194
52.62167 199
52.64178 194
52.6619 197
52.68201 212
52.70212 226
52.72224 237
52.74235 238
52.76246 200
52.78258 234
52.80269 201
52.8228 227
52.84292 201
52.86303 221
52.88315 210
52.90326 235
52.92337 229
52.94349 246
52.9636 247
52.98371 212
53.00383 224
53.02394 211
53.04406 215
53.06417 223
53.08428 222
53.1044 240
53.12451 226
53.14462 232
53.16474 237
53.18485 229
53.20497 237
53.22508 243
53.24519 233
53.26531 247
53.28542 226
53.30553 235
53.32565 232
53.34576 219
53.36587 247
53.38599 218
53.4061 264
53.42622 242
53.44633 269
53.46644 234
53.48656 240
53.50667 241
53.52678 283
53.5469 242
53.56701 257
53.58713 250
53.60724 238
53.62735 266
53.64747 256
53.66758 237
53.68769 255
53.70781 293
53.72792 252
53.74804 237
53.76815 239
53.78826 273
53.80838 239
53.82849 274
53.8486 267
53.86872 257
53.88883 255
53.90894 228
53.92906 256
53.94917 253
53.96929 256
53.9894 257
54.00951 260
54.02963 268
54.04974 275
54.06985 266
54.08997 294
54.11008 233
54.1302 243
54.15031 267
54.17042 284
54.19054 260
54.21065 265
54.23076 265
54.25088 305
54.27099 281
54.29111 266
54.31122 306
54.33133 270
54.35145 274
54.37156 290
54.39167 292
54.41179 320
54.4319 283
54.45201 308
54.47213 287
54.49224 296
54.51236 293
54.53247 311
54.55258 310
54.5727 346
54.59281 360
54.61292 371
54.63304 369
54.65315 421
54.67327 479
54.69338 496
54.71349 575
54.73361 646
54.75372 795
54.77383 836
54.79395 931
54.81406 1016
54.83417 1032
54.85429 979
54.8744 860
54.89452 813
54.91463 723
54.93474 664
54.95486 636
54.97497 656
54.99508 624
55.0152 572
55.03531 518
55.05543 443
55.07554 431
55.09565 387
55.11577 363
55.13588 375
55.15599 402
55.17611 412
55.19622 452
55.21634 490
55.23645 515
55.25656 574
55.27668 631
55.29679 556
55.3169 558
55.33702 522
55.35713 463
55.37724 406
55.39736 419
55.41747 414
55.43759 411
55.4577 407
55.47781 361
55.49793 315
55.51804 300
55.53815 279
55.55827 240
55.57838 260
55.5985 264
55.61861 250
55.63872 257
55.65884 230
55.67895 228
55.69906 247
55.71918 247
55.73929 233
55.75941 225
55.77952 268
55.79963 237
55.81975 234
55.83986 223
55.85997 254
55.88009 222
55.9002 221
55.92031 226
55.94043 245
55.96054 228
55.98066 223
56.00077 231
56.02088 230
56.041 227
56.06111 203
56.08122 219
56.10134 203
56.12145 231
56.14157 215
56.16168 231
56.18179 221
56.20191 236
56.22202 236
56.24213 236
56.26225 192
56.28236 221
56.30248 254
56.32259 241
56.3427 239
56.36282 226
56.38293 229
56.40304 221
56.42316 203
56.44327 223
56.46338 227
56.4835 219
56.50361 225
56.52373 217
56.54384 237
56.56395 226
56.58407 246
56.60418 226
56.62429 242
56.64441 212
56.66452 234
56.68464 243
56.70475 224
56.72486 237
56.74498 230
56.76509 232
56.7852 197
56.80532 215
56.82543 209
56.84554 233
56.86566 252
56.88577 220
56.90589 213
56.926 213
56.94611 235
56.96623 229
56.98634 235
57.00645 236
57.02657 227
57.04668 220
57.0668 241
57.08691 234
57.10702 218
57.12714 243
57.14725 235
57.16736 277
57.18748 271
57.20759 239
57.22771 251
57.24782 230
57.26793 251
57.28805 253
57.30816 228
57.32827 250
57.34839 224
57.3685 232
57.38861 221
57.40873 206
57.42884 234
57.44896 211
57.46907 213
57.48918 206
57.5093 220
57.52941 219
57.54952 209
57.56964 188
57.58975 216
57.60987 221
57.62998 210
57.65009 227
57.67021 209
57.69032 241
57.71043 209
57.73055 190
57.75066 213
57.77078 185
57.79089 219
57.811 202
57.83112 211
57.85123 215
57.87134 200
57.89146 206
57.91157 220
57.93168 224
57.9518 224
57.97191 204
57.99203 220
58.01214 203
58.03225 232
58.05237 211
58.07248 225
58.09259 242
58.11271 214
58.13282 212
58.15294 253
58.17305 205
58.19316 214
58.21328 186
58.23339 206
58.2535 202
58.27362 222
58.29373 209
58.31385 211
58.33396 186
58.35407 201
58.37419 204
58.3943 208
58.41441 189
58.43453 217
58.45464 189
58.47475 213
58.49487 212
58.51498 218
58.5351 214
58.55521 212
58.57532 217
58.59544 210
58.61555 200
58.63566 204
58.65578 204
58.67589 215
58.69601 219
58.71612 223
58.73623 210
58.75635 217
58.77646 197
58.79657 225
58.81669 234
58.8368 200
58.85691 236
58.87703 215
58.89714 218
58.91726 202
58.93737 213
58.95748 217
58.9776 205
58.99771 224
59.01782 205
59.03794 223
59.05805 214
59.07817 202
59.09828 220
59.11839 206
59.13851 209
59.15862 224
59.17873 211
59.19885 254
59.21896 227
59.23908 228
59.25919 216
59.2793 243
59.29942 232
59.31953 220
59.33964 222
59.35976 227
59.37987 226
59.39998 242
59.4201 235
59.44021 263
59.46033 284
59.48044 245
59.50055 287
59.52067 276
59.54078 299
59.56089 293
59.58101 307
59.60112 352
59.62124 364
59.64135 350
59.66146 417
59.68158 467
59.70169 468
59.7218 532
59.74192 615
59.76203 708
59.78215 922
59.80226 995
59.82237 1173
59.84249 1464
59.8626 1593
59.88271 1833
59.90283 1974
59.92294 1948
59.94305 1715
59.96317 1535
59.98328 1289
60.0034 1122
60.02351 1034
60.04362 1128
60.06374 1102
60.08385 1029
60.10396 951
60.12408 802
60.14419 632
60.16431 430
60.18442 375
60.20453 325
60.22465 309
60.24476 261
60.26487 284
60.28499 273
60.3051 238
60.32522 241
60.34533 238
60.36544 234
60.38556 239
60.40567 242
60.42578 238
60.4459 230
60.46601 230
60.48612 240
60.50624 190
60.52635 210
60.54647 223
60.56658 229
60.58669 224
60.60681 210
60.62692 234
60.64703 212
60.66715 217
60.68726 200
60.70738 232
60.72749 220
60.7476 204
60.76772 224
60.78783 214
60.80794 203
60.82806 191
60.84817 192
60.86828 206
60.8884 239
60.90851 198
60.92863 182
60.94874 210
60.96885 215
60.98897 199
61.00908 192
61.02919 213
61.04931 212
61.06942 207
61.08954 197
61.10965 200
61.12976 222
61.14988 198
61.16999 186
61.1901 205
61.21022 228
61.23033 207
61.25045 189
61.27056 210
61.29067 209
61.31079 213
61.3309 217
61.35101 232
61.37113 195
61.39124 211
61.41135 217
61.43147 193
61.45158 230
61.4717 228
61.49181 218
61.51192 203
61.53204 204
61.55215 229
61.57226 188
61.59238 212
61.61249 259
61.63261 221
61.65272 188
61.67283 200
61.69295 231
61.71306 196
61.73317 210
61.75329 232
61.7734 252
61.79352 228
61.81363 217
61.83374 221
61.85386 222
61.87397 247
61.89408 236
61.9142 228
61.93431 234
61.95442 263
61.97454 242
61.99465 284
62.01477 244
62.03488 265
62.05499 259
62.07511 271
62.09522 266
62.11533 294
62.13545 297
62.15556 275
62.17568 291
62.19579 309
62.2159 265
62.23602 283
62.25613 281
62.27624 288
62.29636 307
62.31647 281
62.33659 277
62.3567 288
62.37681 271
62.39693 307
62.41704 299
62.43715 266
62.45727 293
62.47738 248
62.49749 268
62.51761 247
62.53772 249
62.55784 255
62.57795 236
62.59806 269
62.61818 247
62.63829 252
62.6584 243
62.67852 251
62.69863 229
62.71875 210
62.73886 231
62.75897 262
62.77909 220
62.7992 205
62.81931 205
62.83943 219
62.85954 209
62.87965 215
62.89977 240
62.91988 217
62.94 205
62.96011 230
62.98022 217
63.00034 215
63.02045 212
63.04056 208
63.06068 228
63.08079 226
63.10091 228
63.12102 223
63.14113 195
63.16125 206
63.18136 239
63.20147 236
63.22159 227
63.2417 208
63.26182 228
63.28193 220
63.30204 218
63.32216 239
63.34227 189
63.36238 228
63.3825 219
63.40261 234
63.42272 226
63.44284 224
63.46295 228
63.48307 219
63.50318 202
63.52329 218
63.54341 202
63.56352 216
63.58363 212
63.60375 236
63.62386 216
63.64398 243
63.66409 225
63.6842 264
63.70432 233
63.72443 235
63.74454 244
63.76466 250
63.78477 257
63.80489 308
63.825 295
63.84511 351
63.86523 379
63.88534 350
63.90545 411
63.92557 426
63.94568 456
63.96579 443
63.98591 541
64.00602 519
64.02614 468
64.04625 416
64.06636 393
64.08648 360
64.10659 347
64.1267 369
64.14682 394
64.16693 364
64.18705 333
64.20716 300
64.22727 306
64.24739 265
64.2675 254
64.28761 222
64.30773 199
64.32784 234
64.34796 214
64.36807 198
64.38818 225
64.4083 216
64.42841 201
64.44852 186
64.46864 199
64.48875 218
64.50886 211
64.52898 209
64.54909 187
64.56921 220
64.58932 194
64.60943 190
64.62955 180
64.64966 196
64.66977 206
64.68989 204
64.71 210
64.73012 198
64.75023 228
64.77034 201
64.79046 212
64.81057 194
64.83068 208
64.8508 178
64.87091 193
64.89102 211
64.91114 199
64.93125 195
64.95137 185
64.97148 208
64.99159 188
65.01171 218
65.03182 197
65.05193 199
65.07205 187
65.09216 202
65.11228 193
65.13239 172
65.1525 203
65.17262 197
65.19273 199
65.21284 173
65.23296 214
65.25307 196
65.27319 211
65.2933 219
65.31341 202
65.33353 181
65.35364 196
65.37375 196
65.39387 190
65.41398 189
65.43409 206
65.45421 237
65.47432 191
65.49444 190
65.51455 207
65.53466 212
65.55478 225
65.57489 225
65.595 214
65.61512 247
65.63523 225
65.65535 240
65.67546 248
65.69557 279
65.71569 279
65.7358 241
65.75591 255
65.77603 284
65.79614 217
65.81626 252
65.83637 247
65.85648 239
65.8766 224
65.89671 226
65.91682 234
65.93694 201
65.95705 239
65.97716 218
65.99728 200
66.01739 203
66.03751 213
66.05762 205
66.07773 209
66.09785 190
66.11796 187
66.13807 213
66.15819 186
66.1783 178
66.19842 175
66.21853 221
66.23864 210
66.25876 190
66.27887 207
66.29898 222
66.3191 223
66.33921 198
66.35933 214
66.37944 198
66.39955 179
66.41967 202
66.43978 204
66.45989 201
66.48001 218
66.50012 207
66.52023 190
66.54035 201
66.56046 178
66.58058 193
66.60069 182
66.6208 195
66.64092 199
66.66103 193
66.68114 193
66.70126 191
66.72137 200
66.74149 195
66.7616 189
66.78171 234
66.80183 196
66.82194 210
66.84205 216
66.86217 206
66.88228 205
66.90239 223
66.92251 208
66.94262 185
66.96274 202
66.98285 214
67.00296 216
67.02308 219
67.04319 217
67.0633 227
67.08342 248
67.10353 221
67.12365 232
67.14376 196
67.16387 210
67.18399 238
67.2041 222
67.22421 253
67.24433 277
67.26444 258
67.28456 283
67.30467 281
67.32478 276
67.3449 252
67.36501 282
67.38512 291
67.40524 274
67.42535 315
67.44546 337
67.46558 355
67.48569 433
67.50581 416
67.52592 489
67.54603 540
67.56615 603
67.58626 655
67.60637 824
67.62649 956
67.6466 1001
67.66672 1100
67.68683 1181
67.70694 1114
67.72706 1076
67.74717 986
67.76728 841
67.7874 775
67.80751 704
67.82763 761
67.84774 796
67.86785 887
67.88797 890
67.90808 934
67.92819 895
67.94831 857
67.96842 876
67.98853 902
68.00865 1050
68.02876 1197
68.04888 1389
68.06899 1557
68.0891 1607
68.10922 1604
68.12933 1501
68.14944 1410
68.16956 1271
68.18967 1202
68.20979 1279
68.2299 1294
68.25001 1434
68.27013 1463
68.29024 1426
68.31035 1261
68.33047 1024
68.35058 865
68.3707 730
68.39081 631
68.41092 600
68.43104 534
68.45115 560
68.47126 568
68.49138 479
68.51149 416
68.5316 341
68.55172 339
68.57183 268
68.59195 252
68.61206 255
68.63217 240
68.65229 226
68.6724 237
68.69251 208
68.71263 236
68.73274 240
68.75286 239
68.77297 217
68.79308 246
68.8132 212
68.83331 233
68.85342 202
68.87354 203
68.89365 218
68.91376 201
68.93388 217
68.95399 202
68.97411 231
68.99422 225
69.01433 227
69.03445 218
69.05456 193
69.07467 218
69.09479 199
69.1149 223
69.13502 221
69.15513 172
69.17524 177
69.19536 211
69.21547 191
69.23558 191
69.2557 190
69.27581 205
69.29593 190
69.31604 194
69.33615 212
69.35627 205
69.37638 194
69.39649 195
69.41661 189
69.43672 188
69.45683 147
69.47695 192
69.49706 203
69.51718 209
69.53729 193
69.5574 185
69.57752 190
69.59763 176
69.61774 206
69.63786 190
69.65797 204
69.67809 207
69.6982 203
69.71831 191
69.73843 172
69.75854 205
69.77865 218
69.79877 192
69.81888 202
69.839 168
69.85911 209
69.87922 198
69.89934 194
69.91945 190
69.93956 174
69.95968 195
69.97979 232
69.9999 193
70.02002 183
70.04013 200
70.06025 189
70.08036 207
70.10047 198
70.12059 202
70.1407 200
70.16081 182
70.18093 189
70.20104 205
70.22116 189
70.24127 187
70.26138 219
70.2815 190
70.30161 203
70.32172 197
70.34184 184
70.36195 199
70.38207 212
70.40218 188
70.42229 201
70.44241 192
70.46252 173
70.48263 187
70.50275 172
70.52286 166
70.54297 174
70.56309 179
70.5832 190
70.60332 180
70.62343 205
70.64354 165
70.66366 193
70.68377 179
70.70388 196
70.724 175
70.74411 164
70.76423 180
70.78434 186
70.80445 166
70.82457 192
70.84468 186
70.86479 178
70.88491 180
70.90502 193
70.92513 166
70.94525 182
70.96536 182
70.98548 165
71.00559 177
71.0257 181
71.04582 184
71.06593 198
71.08604 191
71.10616 159
71.12627 203
71.14639 187
71.1665 198
71.18661 175
71.20673 167
71.22684 180
71.24695 176
71.26707 169
71.28718 192
71.3073 174
71.32741 179
71.34752 164
71.36764 182
71.38775 188
71.40786 171
71.42798 211
71.44809 180
71.4682 199
71.48832 189
71.50843 184
71.52855 185
71.54866 190
71.56877 160
71.58889 190
71.609 181
71.62911 175
71.64923 178
71.66934 187
71.68946 195
71.70957 190
71.72968 198
71.7498 195
71.76991 185
71.79002 180
71.81014 173
71.83025 177
71.85037 193
71.87048 200
71.89059 200
71.91071 177
71.93082 178
71.95093 157
71.97105 191
71.99116 201
72.01127 188
72.03139 207
72.0515 175
72.07162 193
72.09173 192
72.11184 186
72.13196 194
72.15207 183
72.17218 169
72.1923 163
72.21241 210
72.23253 184
72.25264 199
72.27275 172
72.29287 217
72.31298 185
72.33309 180
72.35321 205
72.37332 198
72.39344 170
72.41355 168
72.43366 186
72.45378 170
72.47389 167
72.494 206
72.51412 183
72.53423 182
72.55434 190
72.57446 190
72.59457 185
72.61469 168
72.6348 159
72.65491 168
72.67503 172
72.69514 172
72.71525 201
72.73537 181
72.75548 193
72.7756 197
72.79571 193
72.81582 173
72.83594 182
72.85605 190
72.87616 177
72.89628 182
72.91639 212
72.9365 187
72.95662 193
72.97673 197
72.99685 206
73.01696 206
73.03707 195
73.05719 196
73.0773 204
73.09741 222
73.11753 209
73.13764 208
73.15776 226
73.17787 231
73.19798 262
73.2181 243
73.23821 304
73.25832 330
73.27844 315
73.29855 342
73.31867 372
73.33878 407
73.35889 426
73.37901 495
73.39912 502
73.41923 528
73.43935 465
73.45946 451
73.47957 414
73.49969 389
73.5198 335
73.53992 324
73.56003 312
73.58014 360
73.60026 342
73.62037 343
73.64048 340
73.6606 329
73.68071 307
73.70083 259
73.72094 216
73.74105 198
73.76117 233
73.78128 180
73.80139 199
73.82151 175
73.84162 164
73.86174 203
73.88185 193
73.90196 192
73.92208 215
73.94219 198
73.9623 189
73.98242 202
74.00253 188
74.02264 170
74.04276 159
74.06287 167
74.08299 185
74.1031 192
74.12321 190
74.14333 191
74.16344 193
74.18355 179
74.20367 184
74.22378 185
74.2439 166
74.26401 172
74.28412 191
74.30424 188
74.32435 179
74.34446 211
74.36458 182
74.38469 158
74.40481 158
74.42492 195
74.44503 188
74.46515 172
74.48526 195
74.50537 199
74.52549 167
74.5456 180
74.56571 192
74.58583 186
74.60594 182
74.62606 171
74.64617 200
74.66628 150
74.6864 182
74.70651 178
74.72662 179
74.74674 183
74.76685 179
74.78697 201
74.80708 199
74.82719 196
74.84731 194
74.86742 193
74.88753 183
74.90765 195
74.92776 185
74.94787 212
74.96799 203
74.9881 198
75.00822 204
