3.00117 19430
3.02128 18968
3.0414 18392
3.06151 18271
3.08162 17375
3.10174 16984
3.12185 16830
3.14197 15981
3.16208 15779
3.18219 15059
3.20231 14761
3.22242 14175
3.24253 13631
3.26265 13948
3.28276 13075
3.30288 12690
3.32299 12259
3.3431 11648
3.36322 11745
3.38333 10964
3.40344 10750
3.42356 10452
3.44367 10210
3.46379 9866
3.4839 9269
3.50401 9345
3.52413 8919
3.54424 8520
3.56435 8428
3.58447 7969
3.60458 7685
3.62469 7461
3.64481 7042
3.66492 6995
3.68504 6805
3.70515 6510
3.72526 6212
3.74538 5820
3.76549 5842
3.7856 5469
3.80572 5225
3.82583 5147
3.84595 4887
3.86606 4677
3.88617 4618
3.90629 4532
3.9264 4009
3.94651 4111
3.96663 4044
3.98674 3804
4.00686 3595
4.02697 3376
4.04708 3273
4.0672 3317
4.08731 3260
4.10742 3106
4.12754 2849
4.14765 2754
4.16776 2770
4.18788 2602
4.20799 2549
4.22811 2445
4.24822 2332
4.26833 2383
4.28845 2247
4.30856 2223
4.32867 2182
4.34879 2103
4.3689 2088
4.38902 2062
4.40913 2002
4.42924 1955
4.44936 1944
4.46947 2013
4.48958 1948
4.5097 1768
4.52981 1806
4.54992 1692
4.57004 1784
4.59015 1811
4.61027 1656
4.63038 1640
4.65049 1574
4.67061 1632
4.69072 1649
4.71083 1516
4.73095 1547
4.75106 1490
4.77118 1484
4.79129 1545
4.8114 1427
4.83152 1402
4.85163 1336
4.87174 1424
4.89186 1398
4.91197 1337
4.93209 1396
4.9522 1283
4.97231 1337
4.99243 1380
5.01254 1243
5.03265 1282
5.05277 1278
5.07288 1269
5.09299 1283
5.11311 1255
5.13322 1226
5.15334 1182
5.17345 1181
5.19356 1182
5.21368 1111
5.23379 1096
5.2539 1165
5.27402 1065
5.29413 1093
5.31425 1095
5.33436 1136
5.35447 1115
5.37459 1037
5.3947 1089
5.41481 1120
5.43493 1046
5.45504 1067
5.47516 994
5.49527 1075
5.51538 1086
5.5355 989
5.55561 981
5.57572 1082
5.59584 1007
5.61595 987
5.63606 1104
5.65618 1042
5.67629 1025
5.69641 1001
5.71652 978
5.73663 966
5.75675 987
5.77686 983
5.79697 1005
5.81709 998
5.8372 916
5.85732 865
5.87743 935
5.89754 934
5.91766 929
5.93777 971
5.95788 870
5.978 964
5.99811 905
6.01823 966
6.03834 919
6.05845 961
6.07857 860
6.09868 895
6.11879 883
6.13891 914
6.15902 937
6.17913 894
6.19925 857
6.21936 874
6.23948 835
6.25959 864
6.2797 904
6.29982 851
6.31993 879
6.34004 841
6.36016 793
6.38027 884
6.40039 832
6.4205 777
6.44061 825
6.46073 868
6.48084 825
6.50095 791
6.52107 893
6.54118 789
6.56129 802
6.58141 832
6.60152 780
6.62164 770
6.64175 770
6.66186 773
6.68198 726
6.70209 834
6.7222 762
6.74232 716
6.76243 794
6.78255 774
6.80266 760
6.82277 777
6.84289 761
6.863 751
6.88311 761
6.90323 792
6.92334 719
6.94346 751
6.96357 752
6.98368 764
7.0038 799
7.02391 740
7.04402 693
7.06414 725
7.08425 733
7.10436 794
7.12448 733
7.14459 768
7.16471 708
7.18482 750
7.20493 737
7.22505 610
7.24516 692
7.26527 679
7.28539 686
7.3055 697
7.32562 728
7.34573 684
7.36584 726
7.38596 680
7.40607 706
7.42618 678
7.4463 692
7.46641 628
7.48653 718
7.50664 673
7.52675 649
7.54687 709
7.56698 693
7.58709 634
7.60721 632
7.62732 689
7.64743 620
7.66755 658
7.68766 692
7.70778 689
7.72789 651
7.748 676
7.76812 654
7.78823 690
7.80834 673
7.82846 661
7.84857 671
7.86869 656
7.8888 692
7.90891 670
7.92903 643
7.94914 692
7.96925 660
7.98937 633
8.00948 619
8.0296 656
8.04971 652
8.06982 616
8.08994 648
8.11005 632
8.13016 683
8.15028 656
8.17039 676
8.1905 700
8.21062 664
8.23073 645
8.25085 636
8.27096 644
8.29107 628
8.31119 665
8.3313 642
8.35141 710
8.37153 637
8.39164 645
8.41176 646
8.43187 618
8.45198 669
8.4721 651
8.49221 619
8.51232 620
8.53244 602
8.55255 650
8.57266 712
8.59278 666
8.61289 615
8.63301 625
8.65312 629
8.67323 628
8.69335 606
8.71346 641
8.73357 668
8.75369 667
8.7738 680
8.79392 637
8.81403 676
8.83414 615
8.85426 622
8.87437 626
8.89448 660
8.9146 617
8.93471 565
8.95483 623
8.97494 611
8.99505 626
9.01517 594
9.03528 611
9.05539 598
9.07551 630
9.09562 640
9.11573 640
9.13585 660
9.15596 577
9.17608 605
9.19619 626
9.2163 654
9.23642 623
9.25653 578
9.27664 596
9.29676 574
9.31687 599
9.33699 623
9.3571 625
9.37721 638
9.39733 608
9.41744 629
9.43755 615
9.45767 647
9.47778 585
9.4979 582
9.51801 664
9.53812 588
9.55824 570
9.57835 614
9.59846 576
9.61858 601
9.63869 583
9.6588 635
9.67892 612
9.69903 599
9.71915 604
9.73926 586
9.75937 598
9.77949 617
9.7996 636
9.81971 608
9.83983 611
9.85994 615
9.88006 623
9.90017 583
9.92028 620
9.9404 582
9.96051 612
9.98062 643
10.00074 626
10.02085 618
10.04097 577
10.06108 551
10.08119 608
10.10131 626
10.12142 612
10.14153 562
10.16165 580
10.18176 593
10.20187 571
10.22199 609
10.2421 588
10.26222 535
10.28233 581
10.30244 583
10.32256 579
10.34267 640
10.36278 631
10.3829 605
10.40301 590
10.42313 588
10.44324 585
10.46335 632
10.48347 564
10.50358 628
10.52369 622
10.54381 648
10.56392 613
10.58403 625
10.60415 662
10.62426 615
10.64438 590
10.66449 651
10.6846 554
10.70472 598
10.72483 547
10.74494 582
10.76506 629
10.78517 609
10.80529 658
10.8254 606
10.84551 660
10.86563 624
10.88574 612
10.90585 580
10.92597 638
10.94608 625
10.9662 607
10.98631 607
11.00642 595
11.02654 561
11.04665 606
11.06676 622
11.08688 584
11.10699 630
11.1271 602
11.14722 630
11.16733 637
11.18745 631
11.20756 622
11.22767 644
11.24779 593
11.2679 607
11.28801 629
11.30813 619
11.32824 643
11.34836 633
11.36847 631
11.38858 652
11.4087 609
11.42881 651
11.44892 636
11.46904 605
11.48915 666
11.50927 659
11.52938 634
11.54949 651
11.56961 602
11.58972 675
11.60983 607
11.62995 679
11.65006 612
11.67017 641
11.69029 672
11.7104 677
11.73052 685
11.75063 666
11.77074 729
11.79086 671
11.81097 647
11.83108 665
11.8512 649
11.87131 678
11.89143 682
11.91154 712
11.93165 710
11.95177 717
11.97188 731
11.99199 745
12.01211 723
12.03222 778
12.05234 761
12.07245 761
12.09256 696
12.11268 713
12.13279 748
12.1529 818
12.17302 814
12.19313 741
12.21324 789
12.23336 752
12.25347 740
12.27359 809
12.2937 733
12.31381 788
12.33393 696
12.35404 720
12.37415 739
12.39427 731
12.41438 689
12.4345 742
12.45461 650
12.47472 640
12.49484 665
12.51495 674
12.53506 664
12.55518 690
12.57529 589
12.5954 639
12.61552 604
12.63563 673
12.65575 594
12.67586 671
12.69597 594
12.71609 560
12.7362 590
12.75631 604
12.77643 606
12.79654 589
12.81666 583
12.83677 536
12.85688 599
12.877 580
12.89711 595
12.91722 589
12.93734 583
12.95745 569
12.97757 591
12.99768 586
13.01779 544
13.03791 562
13.05802 558
13.07813 579
13.09825 578
13.11836 600
13.13847 570
13.15859 546
13.1787 575
13.19882 591
13.21893 543
13.23904 551
13.25916 583
13.27927 548
13.29938 604
13.3195 525
13.33961 588
13.35973 515
13.37984 559
13.39995 545
13.42007 561
13.44018 560
13.46029 605
13.48041 577
13.50052 553
13.52064 563
13.54075 605
13.56086 555
13.58098 616
13.60109 541
13.6212 581
13.64132 545
13.66143 534
13.68154 570
13.70166 568
13.72177 517
13.74189 563
13.762 551
13.78211 582
13.80223 563
13.82234 552
13.84245 537
13.86257 551
13.88268 564
13.9028 570
13.92291 566
13.94302 519
13.96314 554
13.98325 537
14.00336 583
14.02348 522
14.04359 574
14.06371 521
14.08382 572
14.10393 579
14.12405 609
14.14416 531
14.16427 517
14.18439 565
14.2045 580
14.22461 550
14.24473 541
14.26484 533
14.28496 518
14.30507 579
14.32518 517
14.3453 528
14.36541 545
14.38552 552
14.40564 593
14.42575 539
14.44587 555
14.46598 511
14.48609 545
14.50621 553
14.52632 573
14.54643 556
14.56655 569
14.58666 536
14.60677 572
14.62689 585
14.647 540
14.66712 550
14.68723 499
14.70734 518
14.72746 546
14.74757 556
14.76768 571
14.7878 506
14.80791 556
14.82803 541
14.84814 539
14.86825 498
14.88837 532
14.90848 548
14.92859 514
14.94871 539
14.96882 564
14.98894 600
15.00905 548
15.02916 505
15.04928 573
15.06939 521
15.0895 522
15.10962 600
15.12973 584
15.14984 551
15.16996 559
15.19007 502
15.21019 560
15.2303 554
15.25041 509
15.27053 547
15.29064 536
15.31075 527
15.33087 486
15.35098 568
15.3711 579
15.39121 533
15.41132 537
15.43144 568
15.45155 530
15.47166 539
15.49178 550
15.51189 562
15.53201 549
15.55212 560
15.57223 554
15.59235 474
15.61246 533
15.63257 548
15.65269 568
15.6728 488
15.69291 541
15.71303 506
15.73314 529
15.75326 551
15.77337 539
15.79348 518
15.8136 523
15.83371 524
15.85382 530
15.87394 531
15.89405 546
15.91417 536
15.93428 492
15.95439 532
15.97451 552
15.99462 556
16.01473 518
16.03485 512
16.05496 545
16.07508 509
16.09519 548
16.1153 551
16.13542 525
16.15553 526
16.17564 509
16.19576 580
16.21587 536
16.23598 530
16.2561 565
16.27621 524
16.29633 608
16.31644 549
16.33655 528
16.35667 569
16.37678 477
16.39689 556
16.41701 551
16.43712 577
16.45724 520
16.47735 526
16.49746 522
16.51758 569
16.53769 555
16.5578 559
16.57792 544
16.59803 542
16.61814 569
16.63826 547
16.65837 549
16.67849 558
16.6986 549
16.71871 576
16.73883 574
16.75894 507
16.77905 595
16.79917 513
16.81928 530
16.8394 546
16.85951 546
16.87962 570
16.89974 605
16.91985 558
16.93996 587
16.96008 539
16.98019 564
17.00031 552
17.02042 533
17.04053 545
17.06065 570
17.08076 556
17.10087 565
17.12099 612
17.1411 591
17.16121 536
17.18133 571
17.20144 535
17.22156 509
17.24167 579
17.26178 525
17.2819 601
17.30201 537
17.32212 543
17.34224 554
17.36235 593
17.38247 552
17.40258 606
17.42269 561
17.44281 626
17.46292 557
17.48303 569
17.50315 580
17.52326 600
17.54338 538
17.56349 551
17.5836 533
17.60372 567
17.62383 536
17.64394 567
17.66406 562
17.68417 591
17.70428 591
17.7244 574
17.74451 556
17.76463 581
17.78474 579
17.80485 592
17.82497 572
17.84508 550
17.86519 524
17.88531 555
17.90542 593
17.92554 547
17.94565 567
17.96576 611
17.98588 589
18.00599 618
18.0261 536
18.04622 607
18.06633 561
18.08645 610
18.10656 618
18.12667 605
18.14679 605
18.1669 534
18.18701 595
18.20713 564
18.22724 609
18.24735 608
18.26747 615
18.28758 577
18.3077 593
18.32781 516
18.34792 602
18.36804 567
18.38815 579
18.40826 528
18.42838 587
18.44849 573
18.46861 599
18.48872 627
18.50883 566
18.52895 567
18.54906 590
18.56917 574
18.58929 576
18.6094 581
18.62951 613
18.64963 565
18.66974 602
18.68986 584
18.70997 572
18.73008 594
18.7502 585
18.77031 584
18.79042 596
18.81054 572
18.83065 553
18.85077 547
18.87088 612
18.89099 604
18.91111 587
18.93122 588
18.95133 581
18.97145 648
18.99156 623
19.01168 554
19.03179 585
19.0519 608
19.07202 561
19.09213 603
19.11224 632
19.13236 588
19.15247 619
19.17258 584
19.1927 668
19.21281 590
19.23293 617
19.25304 653
19.27315 582
19.29327 655
19.31338 654
19.33349 688
19.35361 658
19.37372 620
19.39384 673
19.41395 670
19.43406 690
19.45418 699
19.47429 788
19.4944 709
19.51452 727
19.53463 775
19.55475 788
19.57486 843
19.59497 817
19.61509 763
19.6352 861
19.65531 833
19.67543 911
19.69554 866
19.71565 908
19.73577 993
19.75588 924
19.776 983
19.79611 1018
19.81622 1014
19.83634 1038
19.85645 1063
19.87656 1062
19.89668 994
19.91679 1029
19.93691 979
19.95702 985
19.97713 1056
19.99725 955
20.01736 1031
20.03747 996
20.05759 972
20.0777 996
20.09782 974
20.11793 930
20.13804 933
20.15816 970
20.17827 901
20.19838 963
20.2185 936
20.23861 956
20.25872 944
20.27884 915
20.29895 937
20.31907 947
20.33918 982
20.35929 898
20.37941 905
20.39952 926
20.41963 912
20.43975 854
20.45986 941
20.47998 896
20.50009 925
20.5202 920
20.54032 852
20.56043 882
20.58054 913
20.60066 905
20.62077 840
20.64088 935
20.661 892
20.68111 860
20.70123 953
20.72134 910
20.74145 928
20.76157 934
20.78168 1060
20.80179 1063
20.82191 990
20.84202 989
20.86214 934
20.88225 948
20.90236 950
20.92248 834
20.94259 880
20.9627 881
20.98282 862
21.00293 844
21.02305 879
21.04316 861
21.06327 868
21.08339 842
21.1035 868
21.12361 889
21.14373 909
21.16384 878
21.18395 856
21.20407 931
21.22418 896
21.2443 895
21.26441 876
21.28452 933
21.30464 857
21.32475 862
21.34486 888
21.36498 854
21.38509 843
21.40521 851
21.42532 842
21.44543 897
21.46555 881
21.48566 847
21.50577 888
21.52589 863
21.546 844
21.56612 919
21.58623 841
21.60634 788
21.62646 845
21.64657 816
21.66668 848
21.6868 801
21.70691 812
21.72702 816
21.74714 761
21.76725 825
21.78737 833
21.80748 741
21.82759 819
21.84771 758
21.86782 834
21.88793 745
21.90805 821
21.92816 806
21.94828 743
21.96839 772
21.9885 787
22.00862 780
22.02873 752
22.04884 741
22.06896 745
22.08907 736
22.10919 716
22.1293 751
22.14941 681
22.16953 743
22.18964 799
22.20975 739
22.22987 717
22.24998 746
22.27009 781
22.29021 728
22.31032 740
22.33044 708
22.35055 723
22.37066 708
22.39078 794
22.41089 702
22.431 692
22.45112 712
22.47123 734
22.49135 678
22.51146 717
22.53157 737
22.55169 671
22.5718 679
22.59191 681
22.61203 720
22.63214 744
22.65225 718
22.67237 769
22.69248 778
22.7126 789
22.73271 719
22.75282 749
22.77294 730
22.79305 713
22.81316 779
22.83328 728
22.85339 670
22.87351 699
22.89362 689
22.91373 700
22.93385 695
22.95396 737
22.97407 743
22.99419 730
23.0143 719
23.03442 716
23.05453 747
23.07464 728
23.09476 756
23.11487 745
23.13498 638
23.1551 710
23.17521 716
23.19532 727
23.21544 690
23.23555 692
23.25567 689
23.27578 720
23.29589 722
23.31601 705
23.33612 692
23.35623 687
23.37635 721
23.39646 704
23.41658 730
23.43669 753
23.4568 778
23.47692 705
23.49703 751
23.51714 762
23.53726 736
23.55737 761
23.57749 721
23.5976 754
23.61771 775
23.63783 746
23.65794 799
23.67805 740
23.69817 739
23.71828 747
23.73839 763
23.75851 737
23.77862 735
23.79874 770
23.81885 754
23.83896 766
23.85908 755
23.87919 765
23.8993 716
23.91942 749
23.93953 762
23.95965 747
23.97976 744
23.99987 768
24.01999 806
24.0401 755
24.06021 753
24.08033 833
24.10044 765
24.12056 777
24.14067 752
24.16078 762
24.1809 797
24.20101 791
24.22112 764
24.24124 773
24.26135 753
24.28146 825
24.30158 781
24.32169 763
24.34181 754
24.36192 717
24.38203 751
24.40215 750
24.42226 779
24.44237 795
24.46249 754
24.4826 750
24.50272 781
24.52283 792
24.54294 841
24.56306 771
24.58317 776
24.60328 814
24.6234 738
24.64351 832
24.66362 825
24.68374 835
24.70385 806
24.72397 875
24.74408 841
24.76419 885
24.78431 838
24.80442 853
24.82453 848
24.84465 851
24.86476 857
24.88488 868
24.90499 891
24.9251 916
24.94522 890
24.96533 895
24.98544 895
25.00556 833
25.02567 862
25.04579 854
25.0659 904
25.08601 901
25.10613 897
25.12624 891
25.14635 923
25.16647 898
25.18658 911
25.20669 873
25.22681 900
25.24692 931
25.26704 878
25.28715 908
25.30726 895
25.32738 848
25.34749 843
25.3676 849
25.38772 855
25.40783 797
25.42795 851
25.44806 798
25.46817 862
25.48829 772
25.5084 818
25.52851 752
25.54863 721
25.56874 730
25.58886 784
25.60897 741
25.62908 799
25.6492 698
25.66931 804
25.68942 742
25.70954 766
25.72965 753
25.74976 768
25.76988 780
25.78999 733
25.81011 784
25.83022 735
25.85033 693
25.87045 711
25.89056 773
25.91067 700
25.93079 698
25.9509 653
25.97102 695
25.99113 697
26.01124 717
26.03136 701
26.05147 644
26.07158 717
26.0917 701
26.11181 699
26.13193 742
26.15204 753
26.17215 699
26.19227 689
26.21238 792
26.23249 690
26.25261 748
26.27272 707
26.29283 760
26.31295 674
26.33306 700
26.35318 728
26.37329 780
26.3934 794
26.41352 827
26.43363 854
26.45374 871
26.47386 948
26.49397 1080
26.51409 1165
26.5342 1249
26.55431 1275
26.57443 1345
26.59454 1279
26.61465 1261
26.63477 1189
26.65488 1079
26.67499 1003
26.69511 867
26.71522 836
26.73534 763
26.75545 699
26.77556 703
26.79568 702
26.81579 723
26.8359 734
26.85602 707
26.87613 747
26.89625 735
26.91636 707
26.93647 665
26.95659 694
26.9767 707
26.99681 711
27.01693 708
27.03704 702
27.05716 707
27.07727 769
27.09738 698
27.1175 690
27.13761 698
27.15772 716
27.17784 699
27.19795 697
27.21806 674
27.23818 674
27.25829 714
27.27841 718
27.29852 683
27.31863 701
27.33875 736
27.35886 735
27.37897 726
27.39909 744
27.4192 797
27.43932 715
27.45943 806
27.47954 758
27.49966 732
27.51977 712
27.53988 760
27.56 741
27.58011 734
27.60023 707
27.62034 729
27.64045 708
27.66057 722
27.68068 758
27.70079 722
27.72091 705
27.74102 793
27.76113 756
27.78125 734
27.80136 708
27.82148 762
27.84159 729
27.8617 689
27.88182 694
27.90193 667
27.92204 645
27.94216 695
27.96227 712
27.98239 646
28.0025 641
28.02261 627
28.04273 687
28.06284 672
28.08295 654
28.10307 662
28.12318 631
28.1433 649
28.16341 641
28.18352 689
28.20364 650
28.22375 676
28.24386 609
28.26398 660
28.28409 600
28.3042 682
28.32432 591
28.34443 609
28.36455 665
28.38466 638
28.40477 630
28.42489 629
28.445 644
28.46511 593
28.48523 592
28.50534 621
28.52546 614
28.54557 640
28.56568 636
28.5858 641
28.60591 630
28.62602 603
28.64614 665
28.66625 624
28.68636 624
28.70648 614
28.72659 602
28.74671 585
28.76682 599
28.78693 637
28.80705 613
28.82716 629
28.84727 635
28.86739 635
28.8875 617
28.90762 616
28.92773 634
28.94784 660
28.96796 635
28.98807 594
29.00818 635
29.0283 593
29.04841 635
29.06853 633
29.08864 602
29.10875 622
29.12887 622
29.14898 654
29.16909 615
29.18921 617
29.20932 602
29.22943 585
29.24955 609
29.26966 591
29.28978 648
29.30989 623
29.33 618
29.35012 588
29.37023 609
29.39034 640
29.41046 621
29.43057 627
29.45069 570
29.4708 599
29.49091 564
29.51103 590
29.53114 589
29.55125 570
29.57137 609
29.59148 618
29.6116 632
29.63171 634
29.65182 668
29.67194 664
29.69205 645
29.71216 649
29.73228 624
29.75239 623
29.7725 675
29.79262 623
29.81273 652
29.83285 683
29.85296 700
29.87307 640
29.89319 623
29.9133 662
29.93341 644
29.95353 687
29.97364 694
29.99376 624
30.01387 718
30.03398 657
30.0541 647
30.07421 698
30.09432 713
30.11444 691
30.13455 699
30.15467 659
30.17478 726
30.19489 730
30.21501 703
30.23512 699
30.25523 677
30.27535 646
30.29546 621
30.31557 638
30.33569 653
30.3558 670
30.37592 674
30.39603 621
30.41614 672
30.43626 620
30.45637 661
30.47648 644
30.4966 663
30.51671 623
30.53683 597
30.55694 644
30.57705 582
30.59717 590
30.61728 649
30.63739 629
30.65751 604
30.67762 665
30.69773 568
30.71785 612
30.73796 597
30.75808 593
30.77819 632
30.7983 599
30.81842 610
30.83853 631
30.85864 608
30.87876 612
30.89887 634
30.91899 649
30.9391 621
30.95921 608
30.97933 666
30.99944 593
31.01955 592
31.03967 661
31.05978 602
31.0799 611
31.10001 582
31.12012 602
31.14024 627
31.16035 609
31.18046 648
31.20058 587
31.22069 600
31.2408 627
31.26092 582
31.28103 637
31.30115 608
31.32126 587
31.34137 609
31.36149 613
31.3816 652
31.40171 608
31.42183 589
31.44194 557
31.46206 613
31.48217 578
31.50228 599
31.5224 622
31.54251 541
31.56262 606
31.58274 625
31.60285 563
31.62297 624
31.64308 612
31.66319 630
31.68331 552
31.70342 608
31.72353 589
31.74365 605
31.76376 602
31.78387 618
31.80399 645
31.8241 625
31.84422 599
31.86433 649
31.88444 613
31.90456 629
31.92467 595
31.94478 651
31.9649 626
31.98501 599
32.00513 613
32.02524 634
32.04535 619
32.06547 610
32.08558 608
32.10569 599
32.12581 621
32.14592 625
32.16604 579
32.18615 616
32.20626 648
32.22638 591
32.24649 559
32.2666 613
32.28672 617
32.30683 627
32.32694 629
32.34706 589
32.36717 658
32.38729 664
32.4074 627
32.42751 651
32.44763 663
32.46774 679
32.48785 668
32.50797 651
32.52808 698
32.5482 661
32.56831 650
32.58842 687
32.60854 721
32.62865 736
32.64876 671
32.66888 703
32.68899 729
32.7091 705
32.72922 698
32.74933 683
32.76945 641
32.78956 634
32.80967 678
32.82979 696
32.8499 699
32.87001 703
32.89013 687
32.91024 702
32.93036 712
32.95047 694
32.97058 778
32.9907 731
33.01081 756
33.03092 766
33.05104 752
33.07115 725
33.09127 737
33.11138 775
33.13149 714
33.15161 693
33.17172 754
33.19183 729
33.21195 714
33.23206 676
33.25217 741
33.27229 738
33.2924 650
33.31252 702
33.33263 677
33.35274 671
33.37286 682
33.39297 713
33.41308 714
33.4332 683
33.45331 717
33.47343 699
33.49354 626
33.51365 610
33.53377 655
33.55388 600
33.57399 622
33.59411 614
33.61422 626
33.63434 666
33.65445 632
33.67456 605
33.69468 674
33.71479 632
33.7349 598
33.75502 616
33.77513 619
33.79524 635
33.81536 622
33.83547 596
33.85559 627
33.8757 648
33.89581 600
33.91593 629
33.93604 625
33.95615 600
33.97627 657
33.99638 670
34.0165 631
34.03661 627
34.05672 637
34.07684 631
34.09695 639
34.11706 626
34.13718 569
34.15729 616
34.17741 644
34.19752 627
34.21763 663
34.23775 629
34.25786 636
34.27797 668
34.29809 665
34.3182 679
34.33831 634
34.35843 697
34.37854 669
34.39866 681
34.41877 722
34.43888 696
34.459 653
34.47911 687
34.49922 720
34.51934 727
34.53945 679
34.55957 757
34.57968 755
34.59979 728
34.61991 683
34.64002 672
34.66013 740
34.68025 742
34.70036 746
34.72047 740
34.74059 799
34.7607 793
34.78082 824
34.80093 797
34.82104 778
34.84116 832
34.86127 830
34.88138 799
34.9015 789
34.92161 792
34.94173 764
34.96184 854
34.98195 829
35.00207 830
35.02218 841
35.04229 803
35.06241 831
35.08252 876
35.10264 848
35.12275 856
35.14286 870
35.16298 863
35.18309 818
35.2032 815
35.22332 888
35.24343 921
35.26354 913
35.28366 847
35.30377 918
35.32389 919
35.344 942
35.36411 945
35.38423 946
35.40434 956
35.42445 999
35.44457 980
35.46468 956
35.4848 964
35.50491 1005
35.52502 1002
35.54514 1061
35.56525 1015
35.58536 1046
35.60548 1024
35.62559 923
35.64571 915
35.66582 855
35.68593 921
35.70605 907
35.72616 904
35.74627 906
35.76639 940
35.7865 880
35.80661 897
35.82673 914
35.84684 826
35.86696 839
35.88707 849
35.90718 839
35.9273 804
35.94741 805
35.96752 862
35.98764 826
36.00775 790
36.02787 740
36.04798 749
36.06809 773
36.08821 773
36.10832 761
36.12843 755
36.14855 799
36.16866 708
36.18878 762
36.20889 762
36.229 732
36.24912 723
36.26923 723
36.28934 736
36.30946 757
36.32957 724
36.34968 720
36.3698 756
36.38991 777
36.41003 756
36.43014 755
36.45025 847
36.47037 786
36.49048 756
36.51059 740
36.53071 786
36.55082 734
36.57094 758
36.59105 751
36.61116 726
36.63128 777
36.65139 760
36.6715 748
36.69162 777
36.71173 759
36.73184 807
36.75196 801
36.77207 762
36.79219 775
36.8123 713
36.83241 740
36.85253 716
36.87264 770
36.89275 768
36.91287 736
36.93298 688
36.9531 712
36.97321 742
36.99332 761
37.01344 729
37.03355 743
37.05366 753
37.07378 735
37.09389 732
37.11401 751
37.13412 683
37.15423 711
37.17435 682
37.19446 667
37.21457 703
37.23469 742
37.2548 681
37.27491 674
37.29503 724
37.31514 696
37.33526 718
37.35537 720
37.37548 679
37.3956 691
37.41571 710
37.43582 707
37.45594 778
37.47605 705
37.49617 702
37.51628 692
37.53639 716
37.55651 674
37.57662 683
37.59673 729
37.61685 739
37.63696 735
37.65708 736
37.67719 701
37.6973 750
37.71742 712
37.73753 671
37.75764 735
37.77776 735
37.79787 757
37.81798 669
37.8381 736
37.85821 688
37.87833 758
37.89844 704
37.91855 749
37.93867 693
37.95878 732
37.97889 702
37.99901 655
38.01912 729
38.03924 768
38.05935 718
38.07946 715
38.09958 709
38.11969 792
38.1398 716
38.15992 739
38.18003 708
38.20015 678
38.22026 699
38.24037 710
38.26049 691
38.2806 717
38.30071 717
38.32083 751
38.34094 705
38.36105 710
38.38117 694
38.40128 730
38.4214 705
38.44151 700
38.46162 728
38.48174 660
38.50185 675
38.52196 728
38.54208 701
38.56219 745
38.58231 691
38.60242 668
38.62253 736
38.64265 656
38.66276 669
38.68287 680
38.70299 701
38.7231 673
38.74321 682
38.76333 681
38.78344 722
38.80356 724
38.82367 717
38.84378 665
38.8639 659
38.88401 642
38.90412 669
38.92424 624
38.94435 691
38.96447 691
38.98458 662
39.00469 696
39.02481 679
39.04492 673
39.06503 623
39.08515 633
39.10526 670
39.12538 664
39.14549 658
39.1656 634
39.18572 624
39.20583 658
39.22594 691
39.24606 659
39.26617 666
39.28628 634
39.3064 679
39.32651 662
39.34663 699
39.36674 652
39.38685 678
39.40697 654
39.42708 674
39.44719 622
39.46731 684
39.48742 637
39.50754 664
39.52765 662
39.54776 594
39.56788 648
39.58799 620
39.6081 674
39.62822 584
39.64833 590
39.66845 643
39.68856 643
39.70867 606
39.72879 679
39.7489 610
39.76901 634
39.78913 638
39.80924 632
39.82935 595
39.84947 633
39.86958 622
39.8897 614
39.90981 656
39.92992 646
39.95004 665
39.97015 595
39.99026 649
40.01038 650
40.03049 670
40.05061 641
40.07072 653
40.09083 674
40.11095 608
40.13106 654
40.15117 668
40.17129 662
40.1914 689
40.21152 625
40.23163 610
40.25174 668
40.27186 659
40.29197 665
40.31208 694
40.3322 650
40.35231 633
40.37242 645
40.39254 643
40.41265 686
40.43277 649
40.45288 616
40.47299 611
40.49311 662
40.51322 664
40.53333 648
40.55345 637
40.57356 647
40.59368 678
40.61379 697
40.6339 653
40.65402 625
40.67413 673
40.69424 681
40.71436 690
40.73447 673
40.75458 611
40.7747 669
40.79481 636
40.81493 667
40.83504 654
40.85515 662
40.87527 647
40.89538 620
40.91549 630
40.93561 677
40.95572 653
40.97584 636
40.99595 682
41.01606 634
41.03618 633
41.05629 634
41.0764 591
41.09652 659
41.11663 659
41.13675 680
41.15686 627
41.17697 693
41.19709 622
41.2172 632
41.23731 690
41.25743 587
41.27754 686
41.29765 606
41.31777 646
41.33788 629
41.358 589
41.37811 589
41.39822 598
41.41834 623
41.43845 645
41.45856 631
41.47868 648
41.49879 637
41.51891 625
41.53902 618
41.55913 555
41.57925 609
41.59936 584
41.61947 602
41.63959 662
41.6597 627
41.67982 608
41.69993 557
41.72004 641
41.74016 677
41.76027 551
41.78038 587
41.8005 576
41.82061 614
41.84072 614
41.86084 621
41.88095 597
41.90107 626
41.92118 625
41.94129 578
41.96141 640
41.98152 601
42.00163 616
42.02175 597
42.04186 608
42.06198 664
42.08209 593
42.1022 594
42.12232 589
42.14243 581
42.16254 587
42.18266 624
42.20277 626
42.22289 607
42.243 582
42.26311 604
42.28323 600
42.30334 587
42.32345 623
42.34357 595
42.36368 606
42.38379 665
42.40391 588
42.42402 602
42.44414 635
42.46425 619
42.48436 609
42.50448 599
42.52459 615
42.5447 591
42.56482 599
42.58493 588
42.60505 626
42.62516 554
42.64527 599
42.66539 622
42.6855 575
42.70561 612
42.72573 602
42.74584 581
42.76595 589
42.78607 607
42.80618 585
42.8263 560
42.84641 573
42.86652 654
42.88664 577
42.90675 568
42.92686 612
42.94698 641
42.96709 622
42.98721 568
43.00732 576
43.02743 600
43.04755 586
43.06766 605
43.08777 650
43.10789 564
43.128 618
43.14812 636
43.16823 597
43.18834 617
43.20846 627
43.22857 569
43.24868 589
43.2688 611
43.28891 607
43.30902 609
43.32914 579
43.34925 598
43.36937 590
43.38948 637
43.40959 582
43.42971 618
43.44982 649
43.46993 593
43.49005 600
43.51016 583
43.53028 542
43.55039 574
43.5705 566
43.59062 570
43.61073 531
43.63084 557
43.65096 598
43.67107 598
43.69119 541
43.7113 543
43.73141 585
43.75153 573
43.77164 579
43.79175 579
43.81187 610
43.83198 542
43.85209 561
43.87221 574
43.89232 554
43.91244 570
43.93255 514
43.95266 566
43.97278 545
43.99289 579
44.013 557
44.03312 578
44.05323 547
44.07335 576
44.09346 514
44.11357 552
44.13369 588
44.1538 594
44.17391 561
44.19403 580
44.21414 558
44.23426 603
44.25437 567
44.27448 604
44.2946 595
44.31471 569
44.33482 556
44.35494 554
44.37505 584
44.39516 588
44.41528 582
44.43539 575
44.45551 553
44.47562 533
44.49573 562
44.51585 562
44.53596 584
44.55607 560
44.57619 553
44.5963 592
44.61642 617
44.63653 591
44.65664 585
44.67676 484
44.69687 578
44.71698 574
44.7371 610
44.75721 598
44.77732 552
44.79744 586
44.81755 564
44.83767 612
44.85778 556
44.87789 553
44.89801 583
44.91812 596
44.93823 558
44.95835 579
44.97846 580
44.99858 595
45.01869 590
45.0388 595
45.05892 592
45.07903 571
45.09914 642
45.11926 591
45.13937 616
45.15949 611
45.1796 556
45.19971 592
45.21983 540
45.23994 613
45.26005 600
45.28017 638
45.30028 642
45.32039 627
45.34051 568
45.36062 587
45.38074 585
45.40085 642
45.42096 587
45.44108 625
45.46119 574
45.4813 583
45.50142 606
45.52153 602
45.54165 598
45.56176 591
45.58187 620
45.60199 599
45.6221 583
45.64221 612
45.66233 602
45.68244 610
45.70256 597
45.72267 607
45.74278 594
45.7629 597
45.78301 600
45.80312 597
45.82324 559
45.84335 580
45.86346 594
45.88358 595
45.90369 556
45.92381 572
45.94392 557
45.96403 574
45.98415 603
46.00426 574
46.02437 576
46.04449 584
46.0646 558
46.08472 573
46.10483 577
46.12494 616
46.14506 528
46.16517 583
46.18528 527
46.2054 565
46.22551 554
46.24563 541
46.26574 617
46.28585 573
46.30597 608
46.32608 606
46.34619 587
46.36631 548
46.38642 577
46.40653 520
46.42665 593
46.44676 579
46.46688 551
46.48699 564
46.5071 524
46.52722 560
46.54733 610
46.56744 549
46.58756 597
46.60767 561
46.62779 548
46.6479 547
46.66801 617
46.68813 615
46.70824 544
46.72835 562
46.74847 515
46.76858 540
46.78869 552
46.80881 570
46.82892 578
46.84904 556
46.86915 583
46.88926 577
46.90938 570
46.92949 583
46.9496 583
46.96972 560
46.98983 584
47.00995 594
47.03006 576
47.05017 553
47.07029 602
47.0904 590
47.11051 610
47.13063 548
47.15074 550
47.17086 560
47.19097 574
47.21108 535
47.2312 535
47.25131 525
47.27142 549
47.29154 569
47.31165 571
47.33176 553
47.35188 559
47.37199 533
47.39211 569
47.41222 558
47.43233 563
47.45245 572
47.47256 576
47.49267 540
47.51279 531
47.5329 611
47.55302 576
47.57313 569
47.59324 590
47.61336 593
47.63347 600
47.65358 570
47.6737 606
47.69381 618
47.71393 585
47.73404 620
47.75415 587
47.77427 579
47.79438 626
47.81449 599
47.83461 642
47.85472 574
47.87483 588
47.89495 587
47.91506 594
47.93518 616
47.95529 595
47.9754 608
47.99552 573
48.01563 574
48.03574 604
48.05586 576
48.07597 621
48.09609 605
48.1162 560
48.13631 542
48.15643 592
48.17654 575
48.19665 615
48.21677 570
48.23688 583
48.257 582
48.27711 584
48.29722 544
48.31734 608
48.33745 585
48.35756 545
48.37768 582
48.39779 579
48.4179 574
48.43802 561
48.45813 605
48.47825 561
48.49836 551
48.51847 574
48.53859 601
48.5587 569
48.57881 564
48.59893 565
48.61904 598
48.63916 567
48.65927 614
48.67938 558
48.6995 549
48.71961 573
48.73972 587
48.75984 568
48.77995 606
48.80006 610
48.82018 567
48.84029 594
48.86041 595
48.88052 558
48.90063 566
48.92075 539
48.94086 571
48.96097 575
48.98109 574
49.0012 577
49.02132 612
49.04143 559
49.06154 565
49.08166 594
49.10177 577
49.12188 631
49.142 642
49.16211 551
49.18223 599
49.20234 597
49.22245 597
49.24257 567
49.26268 596
49.28279 543
49.30291 588
49.32302 635
49.34313 583
49.36325 607
49.38336 604
49.40348 633
49.42359 608
49.4437 598
49.46382 610
49.48393 584
49.50404 612
49.52416 603
49.54427 584
49.56439 631
49.5845 570
49.60461 559
49.62473 603
49.64484 584
49.66495 604
49.68507 536
49.70518 606
49.7253 583
49.74541 572
49.76552 577
49.78564 600
49.80575 564
49.82586 565
49.84598 605
49.86609 593
49.8862 581
49.90632 549
49.92643 573
49.94655 592
49.96666 571
49.98677 623
50.00689 617
50.027 609
50.04711 629
50.06723 623
50.08734 652
50.10746 590
50.12757 602
50.14768 586
50.1678 589
50.18791 577
50.20802 611
50.22814 592
50.24825 599
50.26837 550
50.28848 590
50.30859 585
50.32871 589
50.34882 572
50.36893 565
50.38905 599
50.40916 582
50.42927 533
50.44939 575
50.4695 544
50.48962 552
50.50973 591
50.52984 593
50.54996 557
50.57007 576
50.59018 540
50.6103 554
50.63041 576
50.65053 523
50.67064 508
50.69075 540
50.71087 570
50.73098 553
50.75109 536
50.77121 570
50.79132 546
50.81143 587
50.83155 537
50.85166 535
50.87178 527
50.89189 566
50.912 604
50.93212 564
50.95223 583
50.97234 591
50.99246 542
51.01257 578
51.03269 559
51.0528 574
51.07291 526
51.09303 567
51.11314 518
51.13325 579
51.15337 537
51.17348 595
51.1936 549
51.21371 513
51.23382 513
51.25394 561
51.27405 560
51.29416 560
51.31428 555
51.33439 552
51.3545 557
51.37462 557
51.39473 556
51.41485 592
51.43496 573
51.45507 573
51.47519 550
51.4953 547
51.51541 540
51.53553 539
51.55564 524
51.57576 524
51.59587 531
51.61598 523
51.6361 572
51.65621 541
51.67632 562
51.69644 531
51.71655 517
51.73667 534
51.75678 511
51.77689 548
51.79701 550
51.81712 544
51.83723 557
51.85735 523
51.87746 516
51.89757 496
51.91769 563
51.9378 539
51.95792 516
51.97803 529
51.99814 548
52.01826 541
52.03837 557
52.05848 534
52.0786 544
52.09871 515
52.11883 507
52.13894 541
52.15905 537
52.17917 551
52.19928 555
52.21939 560
52.23951 529
52.25962 579
52.27974 531
52.29985 572
52.31996 554
52.34008 510
52.36019 566
52.3803 579
52.40042 567
52.42053 562
52.44064 544
52.46076 542
52.48087 541
52.50099 556
52.5211 531
52.54121 535
52.56133 566
52.58144 575
52.60155 584
52.62167 588
52.64178 539
52.6619 597
52.68201 590
52.70212 560
52.72224 597
52.74235 602
52.76246 561
52.78258 591
52.80269 559
52.8228 575
52.84292 534
52.86303 549
52.88315 586
52.90326 587
52.92337 615
52.94349 554
52.9636 594
52.98371 578
53.00383 598
53.02394 587
53.04406 571
53.06417 616
53.08428 577
53.1044 615
53.12451 637
53.14462 618
53.16474 652
53.18485 675
53.20497 615
53.22508 635
53.24519 639
53.26531 643
53.28542 631
53.30553 627
53.32565 685
53.34576 620
53.36587 663
53.38599 629
53.4061 638
53.42622 655
53.44633 667
53.46644 645
53.48656 655
53.50667 624
53.52678 673
53.5469 707
53.56701 662
53.58713 635
53.60724 677
53.62735 654
53.64747 678
53.66758 651
53.68769 653
53.70781 672
53.72792 680
53.74804 639
53.76815 639
53.78826 653
53.80838 673
53.82849 694
53.8486 686
53.86872 717
53.88883 689
53.90894 690
53.92906 677
53.94917 706
53.96929 716
53.9894 667
54.00951 721
54.02963 719
54.04974 669
54.06985 732
54.08997 740
54.11008 677
54.1302 685
54.15031 627
54.17042 723
54.19054 663
54.21065 709
54.23076 697
54.25088 657
54.27099 764
54.29111 651
54.31122 709
54.33133 686
54.35145 655
54.37156 672
54.39167 640
54.41179 662
54.4319 661
54.45201 682
54.47213 690
54.49224 644
54.51236 666
54.53247 661
54.55258 605
54.5727 677
54.59281 689
54.61292 627
54.63304 673
54.65315 700
54.67327 676
54.69338 633
54.71349 662
54.73361 650
54.75372 690
54.77383 638
54.79395 679
54.81406 647
54.83417 634
54.85429 635
54.8744 646
54.89452 682
54.91463 598
54.93474 635
54.95486 610
54.97497 641
54.99508 618
55.0152 624
55.03531 642
55.05543 685
55.07554 620
55.09565 650
55.11577 586
55.13588 628
55.15599 589
55.17611 600
55.19622 602
55.21634 642
55.23645 656
55.25656 668
55.27668 672
55.29679 616
55.3169 625
55.33702 619
55.35713 602
55.37724 583
55.39736 591
55.41747 601
55.43759 581
55.4577 577
55.47781 608
55.49793 604
55.51804 628
55.53815 597
55.55827 580
55.57838 577
55.5985 583
55.61861 605
55.63872 586
55.65884 593
55.67895 575
55.69906 605
55.71918 591
55.73929 590
55.75941 583
55.77952 567
55.79963 581
55.81975 606
55.83986 610
55.85997 613
55.88009 537
55.9002 607
55.92031 575
55.94043 592
55.96054 608
55.98066 601
56.00077 598
56.02088 551
56.041 572
56.06111 584
56.08122 559
56.10134 584
56.12145 595
56.14157 596
56.16168 614
56.18179 581
56.20191 583
56.22202 572
56.24213 526
56.26225 594
56.28236 635
56.30248 579
56.32259 527
56.3427 639
56.36282 579
56.38293 587
56.40304 603
56.42316 633
56.44327 600
56.46338 572
56.4835 629
56.50361 568
56.52373 562
56.54384 614
56.56395 559
56.58407 563
56.60418 602
56.62429 582
56.64441 608
56.66452 553
56.68464 614
56.70475 613
56.72486 599
56.74498 609
56.76509 561
56.7852 579
56.80532 580
56.82543 588
56.84554 567
56.86566 547
56.88577 588
56.90589 615
56.926 619
56.94611 622
56.96623 620
56.98634 581
57.00645 621
57.02657 607
57.04668 593
57.0668 600
57.08691 602
57.10702 646
57.12714 604
57.14725 602
57.16736 557
57.18748 609
57.20759 545
57.22771 647
57.24782 583
57.26793 591
57.28805 595
57.30816 584
57.32827 598
57.34839 604
57.3685 587
57.38861 615
57.40873 605
57.42884 594
57.44896 582
57.46907 587
57.48918 556
57.5093 586
57.52941 599
57.54952 626
57.56964 577
57.58975 561
57.60987 596
57.62998 558
57.65009 591
57.67021 602
57.69032 558
57.71043 581
57.73055 566
57.75066 540
57.77078 562
57.79089 580
57.811 557
57.83112 539
57.85123 553
57.87134 521
57.89146 600
57.91157 569
57.93168 560
57.9518 560
57.97191 527
57.99203 567
58.01214 551
58.03225 586
58.05237 541
58.07248 550
58.09259 601
58.11271 582
58.13282 573
58.15294 546
58.17305 565
58.19316 501
58.21328 555
58.23339 571
58.2535 540
58.27362 540
58.29373 534
58.31385 565
58.33396 542
58.35407 545
58.37419 549
58.3943 562
58.41441 573
58.43453 525
58.45464 544
58.47475 534
58.49487 558
58.51498 546
58.5351 516
58.55521 558
58.57532 543
58.59544 572
58.61555 564
58.63566 576
58.65578 547
58.67589 571
58.69601 581
58.71612 530
58.73623 591
58.75635 545
58.77646 547
58.79657 515
58.81669 535
58.8368 564
58.85691 593
58.87703 570
58.89714 551
58.91726 522
58.93737 558
58.95748 548
58.9776 575
58.99771 566
59.01782 536
59.03794 569
59.05805 551
59.07817 557
59.09828 557
59.11839 546
59.13851 564
59.15862 569
59.17873 602
59.19885 561
59.21896 558
59.23908 522
59.25919 580
59.2793 620
59.29942 538
59.31953 543
59.33964 538
59.35976 517
59.37987 605
59.39998 524
59.4201 567
59.44021 549
59.46033 601
59.48044 563
59.50055 553
59.52067 544
59.54078 584
59.56089 562
59.58101 606
59.60112 516
59.62124 575
59.64135 591
59.66146 608
59.68158 594
59.70169 617
59.7218 551
59.74192 601
59.76203 583
59.78215 556
59.80226 589
59.82237 564
59.84249 571
59.8626 619
59.88271 561
59.90283 597
59.92294 619
59.94305 600
59.96317 582
59.98328 581
60.0034 605
60.02351 590
60.04362 570
60.06374 570
60.08385 567
60.10396 578
60.12408 571
60.14419 565
60.16431 555
60.18442 569
60.20453 603
60.22465 529
60.24476 571
60.26487 545
60.28499 604
60.3051 545
60.32522 569
60.34533 551
60.36544 586
60.38556 563
60.40567 517
60.42578 584
60.4459 594
60.46601 562
60.48612 546
60.50624 533
60.52635 543
60.54647 570
60.56658 576
60.58669 588
60.60681 571
60.62692 567
60.64703 585
60.66715 596
60.68726 525
60.70738 586
60.72749 574
60.7476 595
60.76772 549
60.78783 570
60.80794 549
60.82806 576
60.84817 580
60.86828 578
60.8884 596
60.90851 593
60.92863 601
60.94874 594
60.96885 566
60.98897 541
61.00908 594
61.02919 603
61.04931 584
61.06942 574
61.08954 551
61.10965 609
61.12976 578
61.14988 557
61.16999 573
61.1901 593
61.21022 605
61.23033 578
61.25045 581
61.27056 595
61.29067 595
61.31079 578
61.3309 554
61.35101 591
61.37113 601
61.39124 575
61.41135 626
61.43147 628
61.45158 595
61.4717 620
61.49181 619
61.51192 575
61.53204 625
61.55215 616
61.57226 591
61.59238 629
61.61249 636
61.63261 673
61.65272 627
61.67283 651
61.69295 630
61.71306 652
61.73317 650
61.75329 626
61.7734 645
61.79352 671
61.81363 691
61.83374 621
61.85386 663
61.87397 642
61.89408 690
61.9142 655
61.93431 673
61.95442 678
61.97454 700
61.99465 695
62.01477 698
62.03488 702
62.05499 747
62.07511 739
62.09522 702
62.11533 685
62.13545 749
62.15556 784
62.17568 683
62.19579 668
62.2159 747
62.23602 659
62.25613 737
62.27624 684
62.29636 687
62.31647 709
62.33659 708
62.3567 693
62.37681 674
62.39693 688
62.41704 719
62.43715 718
62.45727 724
62.47738 702
62.49749 699
62.51761 626
62.53772 667
62.55784 652
62.57795 669
62.59806 618
62.61818 669
62.63829 640
62.6584 649
62.67852 649
62.69863 669
62.71875 647
62.73886 670
62.75897 608
62.77909 608
62.7992 652
62.81931 610
62.83943 694
62.85954 636
62.87965 615
62.89977 591
62.91988 630
62.94 599
62.96011 614
62.98022 612
63.00034 609
63.02045 605
63.04056 636
63.06068 630
63.08079 595
63.10091 623
63.12102 632
63.14113 627
63.16125 587
63.18136 614
63.20147 613
63.22159 567
63.2417 611
63.26182 587
63.28193 585
63.30204 588
63.32216 571
63.34227 582
63.36238 598
63.3825 591
63.40261 618
63.42272 564
63.44284 617
63.46295 592
63.48307 586
63.50318 599
63.52329 607
63.54341 579
63.56352 611
63.58363 614
63.60375 560
63.62386 605
63.64398 584
63.66409 637
63.6842 581
63.70432 604
63.72443 591
63.74454 579
63.76466 559
63.78477 646
63.80489 625
63.825 586
63.84511 608
63.86523 564
63.88534 606
63.90545 581
63.92557 566
63.94568 628
63.96579 615
63.98591 577
64.00602 584
64.02614 599
64.04625 621
64.06636 595
64.08648 644
64.10659 617
64.1267 577
64.14682 605
64.16693 618
64.18705 605
64.20716 577
64.22727 555
64.24739 589
64.2675 577
64.28761 553
64.30773 609
64.32784 579
64.34796 582
64.36807 584
64.38818 589
64.4083 604
64.42841 534
64.44852 604
64.46864 557
64.48875 559
64.50886 525
64.52898 520
64.54909 553
64.56921 525
64.58932 605
64.60943 557
64.62955 533
64.64966 551
64.66977 546
64.68989 547
64.71 545
64.73012 571
64.75023 556
64.77034 523
64.79046 574
64.81057 549
64.83068 551
64.8508 561
64.87091 524
64.89102 603
64.91114 578
64.93125 528
64.95137 530
64.97148 582
64.99159 526
65.01171 529
65.03182 543
65.05193 567
65.07205 509
65.09216 507
65.11228 553
65.13239 515
65.1525 560
65.17262 562
65.19273 528
65.21284 535
65.23296 513
65.25307 512
65.27319 557
65.2933 502
65.31341 572
65.33353 521
65.35364 554
65.37375 551
65.39387 550
65.41398 525
65.43409 482
65.45421 583
65.47432 532
65.49444 509
65.51455 560
65.53466 569
65.55478 569
65.57489 511
65.595 548
65.61512 512
65.63523 541
65.65535 512
65.67546 506
65.69557 519
65.71569 545
65.7358 526
65.75591 540
65.77603 527
65.79614 535
65.81626 544
65.83637 491
65.85648 555
65.8766 545
65.89671 509
65.91682 556
65.93694 503
65.95705 542
65.97716 560
65.99728 547
66.01739 525
66.03751 538
66.05762 529
66.07773 554
66.09785 493
66.11796 539
66.13807 531
66.15819 507
66.1783 558
66.19842 506
66.21853 506
66.23864 535
66.25876 519
66.27887 549
66.29898 555
66.3191 526
66.33921 517
66.35933 497
66.37944 518
66.39955 546
66.41967 562
66.43978 518
66.45989 575
66.48001 550
66.50012 507
66.52023 510
66.54035 523
66.56046 525
66.58058 505
66.60069 549
66.6208 537
66.64092 512
66.66103 545
66.68114 519
66.70126 525
66.72137 530
66.74149 507
66.7616 516
66.78171 512
66.80183 541
66.82194 518
66.84205 554
66.86217 535
66.88228 533
66.90239 508
66.92251 496
66.94262 521
66.96274 563
66.98285 542
67.00296 517
67.02308 494
67.04319 543
67.0633 518
67.08342 525
67.10353 540
67.12365 523
67.14376 525
67.16387 542
67.18399 536
67.2041 540
67.22421 541
67.24433 571
67.26444 516
67.28456 501
67.30467 524
67.32478 491
67.3449 512
67.36501 547
67.38512 499
67.40524 546
67.42535 556
67.44546 550
67.46558 553
67.48569 563
67.50581 529
67.52592 504
67.54603 532
67.56615 564
67.58626 560
67.60637 520
67.62649 539
67.6466 560
67.66672 592
67.68683 549
67.70694 562
67.72706 550
67.74717 532
67.76728 585
67.7874 582
67.80751 584
67.82763 600
67.84774 548
67.86785 555
67.88797 581
67.90808 605
67.92819 520
67.94831 562
67.96842 539
67.98853 586
68.00865 554
68.02876 582
68.04888 573
68.06899 588
68.0891 557
68.10922 552
68.12933 541
68.14944 540
68.16956 544
68.18967 571
68.20979 556
68.2299 592
68.25001 591
68.27013 539
68.29024 522
68.31035 550
68.33047 560
68.35058 511
68.3707 530
68.39081 542
68.41092 532
68.43104 512
68.45115 561
68.47126 556
68.49138 486
68.51149 558
68.5316 501
68.55172 552
68.57183 523
68.59195 541
68.61206 541
68.63217 498
68.65229 545
68.6724 509
68.69251 543
68.71263 513
68.73274 518
68.75286 560
68.77297 521
68.79308 535
68.8132 522
68.83331 518
68.85342 544
68.87354 510
68.89365 532
68.91376 550
68.93388 500
68.95399 517
68.97411 513
68.99422 498
69.01433 527
69.03445 546
69.05456 536
69.07467 549
69.09479 524
69.1149 528
69.13502 543
69.15513 499
69.17524 535
69.19536 541
69.21547 511
69.23558 513
69.2557 501
69.27581 518
69.29593 532
69.31604 495
69.33615 498
69.35627 542
69.37638 552
69.39649 541
69.41661 552
69.43672 513
69.45683 496
69.47695 541
69.49706 535
69.51718 509
69.53729 525
69.5574 519
69.57752 539
69.59763 535
69.61774 500
69.63786 506
69.65797 530
69.67809 554
69.6982 555
69.71831 519
69.73843 529
69.75854 572
69.77865 508
69.79877 510
69.81888 527
69.839 530
69.85911 498
69.87922 525
69.89934 506
69.91945 506
69.93956 537
69.95968 515
69.97979 531
69.9999 527
70.02002 508
70.04013 545
70.06025 539
70.08036 525
70.10047 526
70.12059 522
70.1407 554
70.16081 531
70.18093 515
70.20104 529
70.22116 528
70.24127 512
70.26138 511
70.2815 561
70.30161 513
70.32172 542
70.34184 524
70.36195 507
70.38207 536
70.40218 512
70.42229 590
70.44241 506
70.46252 470
70.48263 528
70.50275 532
70.52286 504
70.54297 529
70.56309 480
70.5832 507
70.60332 536
70.62343 508
70.64354 534
70.66366 511
70.68377 515
70.70388 513
70.724 534
70.74411 516
70.76423 574
70.78434 507
70.80445 529
70.82457 580
70.84468 523
70.86479 541
70.88491 571
70.90502 534
70.92513 531
70.94525 544
70.96536 510
70.98548 507
71.00559 523
71.0257 567
71.04582 510
71.06593 477
71.08604 520
71.10616 528
71.12627 519
71.14639 532
71.1665 541
71.18661 522
71.20673 553
71.22684 510
71.24695 522
71.26707 493
71.28718 526
71.3073 530
71.32741 499
71.34752 532
71.36764 493
71.38775 555
71.40786 516
71.42798 522
71.44809 458
71.4682 535
71.48832 512
71.50843 541
71.52855 537
71.54866 555
71.56877 511
71.58889 516
71.609 518
71.62911 499
71.64923 555
71.66934 532
71.68946 537
71.70957 540
71.72968 532
71.7498 520
71.76991 569
71.79002 506
71.81014 555
71.83025 522
71.85037 524
71.87048 498
71.89059 521
71.91071 533
71.93082 537
71.95093 500
71.97105 517
71.99116 527
72.01127 526
72.03139 501
72.0515 526
72.07162 527
72.09173 522
72.11184 540
72.13196 530
72.15207 549
72.17218 564
72.1923 541
72.21241 538
72.23253 515
72.25264 532
72.27275 538
72.29287 527
72.31298 534
72.33309 543
72.35321 535
72.37332 516
72.39344 516
72.41355 545
72.43366 531
72.45378 519
72.47389 515
72.494 554
72.51412 558
72.53423 523
72.55434 518
72.57446 505
72.59457 528
72.61469 495
72.6348 559
72.65491 552
72.67503 542
72.69514 500
72.71525 558
72.73537 519
72.75548 532
72.7756 550
72.79571 484
72.81582 504
72.83594 513
72.85605 545
72.87616 552
72.89628 516
72.91639 548
72.9365 518
72.95662 519
72.97673 526
72.99685 558
73.01696 563
73.03707 555
73.05719 504
73.0773 525
73.09741 502
73.11753 535
73.13764 520
73.15776 569
73.17787 530
73.19798 547
73.2181 527
73.23821 500
73.25832 499
73.27844 518
73.29855 511
73.31867 537
73.33878 498
73.35889 521
73.37901 514
73.39912 549
73.41923 533
73.43935 559
73.45946 549
73.47957 543
73.49969 536
73.5198 535
73.53992 493
73.56003 525
73.58014 537
73.60026 524
73.62037 562
73.64048 566
73.6606 549
73.68071 564
73.70083 536
73.72094 544
73.74105 549
73.76117 546
73.78128 558
73.80139 525
73.82151 541
73.84162 533
73.86174 500
73.88185 495
73.90196 518
73.92208 531
73.94219 491
73.9623 534
73.98242 519
74.00253 524
74.02264 550
74.04276 526
74.06287 551
74.08299 519
74.1031 555
74.12321 555
74.14333 533
74.16344 538
74.18355 485
74.20367 535
74.22378 535
74.2439 539
74.26401 560
74.28412 542
74.30424 522
74.32435 509
74.34446 531
74.36458 492
74.38469 516
74.40481 478
74.42492 534
74.44503 522
74.46515 467
74.48526 529
74.50537 553
74.52549 492
74.5456 528
74.56571 528
74.58583 490
74.60594 488
74.62606 517
74.64617 549
74.66628 541
74.6864 519
74.70651 500
74.72662 561
74.74674 521
74.76685 533
74.78697 540
74.80708 513
74.82719 542
74.84731 507
74.86742 518
74.88753 525
74.90765 511
74.92776 533
74.94787 555
74.96799 521
74.9881 571
75.00822 504
