3.00117 19194
3.02128 18924
3.0414 18292
3.06151 18035
3.08162 17426
3.10174 16946
3.12185 16479
3.14197 15697
3.16208 15820
3.18219 14938
3.20231 14358
3.22242 14344
3.24253 13915
3.26265 13427
3.28276 12847
3.30288 12471
3.32299 12013
3.3431 11768
3.36322 11368
3.38333 10832
3.40344 10639
3.42356 10411
3.44367 10045
3.46379 9805
3.4839 9173
3.50401 8933
3.52413 8726
3.54424 8337
3.56435 8281
3.58447 7710
3.60458 7496
3.62469 7179
3.64481 6848
3.66492 6715
3.68504 6103
3.70515 6144
3.72526 6137
3.74538 5627
3.76549 5498
3.7856 5210
3.80572 5007
3.82583 4824
3.84595 4755
3.86606 4414
3.88617 4063
3.90629 3919
3.9264 3952
3.94651 3605
3.96663 3670
3.98674 3290
4.00686 3257
4.02697 3091
4.04708 3023
4.0672 2864
4.08731 2625
4.10742 2590
4.12754 2558
4.14765 2374
4.16776 2478
4.18788 2243
4.20799 2188
4.22811 2152
4.24822 1946
4.26833 1992
4.28845 1818
4.30856 1871
4.32867 1739
4.34879 1768
4.3689 1760
4.38902 1515
4.40913 1610
4.42924 1671
4.44936 1520
4.46947 1526
4.48958 1316
4.5097 1360
4.52981 1424
4.54992 1344
4.57004 1343
4.59015 1192
4.61027 1254
4.63038 1213
4.65049 1252
4.67061 1239
4.69072 1158
4.71083 1163
4.73095 1223
4.75106 1145
4.77118 1173
4.79129 1051
4.8114 955
4.83152 1077
4.85163 997
4.87174 959
4.89186 980
4.91197 999
4.93209 928
4.9522 941
4.97231 890
4.99243 884
5.01254 903
5.03265 865
5.05277 831
5.07288 867
5.09299 805
5.11311 773
5.13322 813
5.15334 779
5.17345 778
5.19356 712
5.21368 717
5.23379 759
5.2539 808
5.27402 738
5.29413 669
5.31425 669
5.33436 683
5.35447 717
5.37459 578
5.3947 630
5.41481 609
5.43493 638
5.45504 635
5.47516 603
5.49527 612
5.51538 656
5.5355 580
5.55561 563
5.57572 542
5.59584 580
5.61595 558
5.63606 603
5.65618 560
5.67629 529
5.69641 570
5.71652 578
5.73663 536
5.75675 552
5.77686 546
5.79697 532
5.81709 556
5.8372 516
5.85732 513
5.87743 515
5.89754 498
5.91766 487
5.93777 528
5.95788 487
5.978 470
5.99811 514
6.01823 477
6.03834 468
6.05845 502
6.07857 468
6.09868 432
6.11879 430
6.13891 454
6.15902 447
6.17913 418
6.19925 438
6.21936 478
6.23948 429
6.25959 433
6.2797 414
6.29982 395
6.31993 431
6.34004 402
6.36016 404
6.38027 399
6.40039 401
6.4205 389
6.44061 387
6.46073 421
6.48084 401
6.50095 347
6.52107 387
6.54118 376
6.56129 378
6.58141 372
6.60152 358
6.62164 375
6.64175 341
6.66186 405
6.68198 352
6.70209 322
6.7222 332
6.74232 344
6.76243 352
6.78255 356
6.80266 349
6.82277 295
6.84289 329
6.863 310
6.88311 346
6.90323 369
6.92334 315
6.94346 326
6.96357 313
6.98368 372
7.0038 301
7.02391 294
7.04402 285
7.06414 356
7.08425 342
7.10436 313
7.12448 337
7.14459 295
7.16471 293
7.18482 310
7.20493 321
7.22505 288
7.24516 287
7.26527 306
7.28539 286
7.3055 292
7.32562 326
7.34573 262
7.36584 308
7.38596 268
7.40607 305
7.42618 277
7.4463 283
7.46641 300
7.48653 304
7.50664 325
7.52675 308
7.54687 282
7.56698 292
7.58709 299
7.60721 276
7.62732 283
7.64743 288
7.66755 279
7.68766 269
7.70778 276
7.72789 295
7.748 245
7.76812 269
7.78823 306
7.80834 283
7.82846 262
7.84857 303
7.86869 271
7.8888 300
7.90891 293
7.92903 285
7.94914 279
7.96925 270
7.98937 281
8.00948 298
8.0296 270
8.04971 276
8.06982 307
8.08994 316
8.11005 293
8.13016 316
8.15028 295
8.17039 328
8.1905 316
8.21062 299
8.23073 317
8.25085 326
8.27096 338
8.29107 300
8.31119 322
8.3313 327
8.35141 318
8.37153 318
8.39164 347
8.41176 324
8.43187 299
8.45198 295
8.4721 356
8.49221 318
8.51232 322
8.53244 321
8.55255 324
8.57266 328
8.59278 317
8.61289 336
8.63301 313
8.65312 333
8.67323 317
8.69335 309
8.71346 295
8.73357 308
8.75369 312
8.7738 257
8.79392 314
8.81403 240
8.83414 270
8.85426 272
8.87437 276
8.89448 269
8.9146 256
8.93471 270
8.95483 284
8.97494 281
8.99505 258
9.01517 236
9.03528 264
9.05539 241
9.07551 250
9.09562 238
9.11573 263
9.13585 271
9.15596 220
9.17608 289
9.19619 243
9.2163 244
9.23642 249
9.25653 253
9.27664 232
9.29676 241
9.31687 226
9.33699 264
9.3571 268
9.37721 254
9.39733 288
9.41744 258
9.43755 244
9.45767 266
9.47778 225
9.4979 265
9.51801 246
9.53812 223
9.55824 240
9.57835 280
9.59846 257
9.61858 240
9.63869 243
9.6588 251
9.67892 247
9.69903 253
9.71915 251
9.73926 264
9.75937 238
9.77949 250
9.7996 242
9.81971 235
9.83983 260
9.85994 248
9.88006 256
9.90017 264
9.92028 246
9.9404 257
9.96051 283
9.98062 255
10.00074 287
10.02085 267
10.04097 236
10.06108 236
10.08119 264
10.10131 235
10.12142 242
10.14153 243
10.16165 242
10.18176 209
10.20187 225
10.22199 233
10.2421 244
10.26222 280
10.28233 261
10.30244 244
10.32256 249
10.34267 254
10.36278 210
10.3829 220
10.40301 229
10.42313 202
10.44324 245
10.46335 232
10.48347 257
10.50358 225
10.52369 251
10.54381 241
10.56392 236
10.58403 235
10.60415 235
10.62426 217
10.64438 233
10.66449 246
10.6846 227
10.70472 252
10.72483 239
10.74494 211
10.76506 233
10.78517 240
10.80529 225
10.8254 252
10.84551 241
10.86563 245
10.88574 258
10.90585 234
10.92597 239
10.94608 257
10.9662 253
10.98631 258
11.00642 248
11.02654 212
11.04665 231
11.06676 221
11.08688 203
11.10699 229
11.1271 257
11.14722 210
11.16733 228
11.18745 241
11.20756 232
11.22767 253
11.24779 213
11.2679 243
11.28801 218
11.30813 226
11.32824 216
11.34836 243
11.36847 199
11.38858 224
11.4087 236
11.42881 218
11.44892 238
11.46904 257
11.48915 238
11.50927 202
11.52938 255
11.54949 248
11.56961 234
11.58972 209
11.60983 225
11.62995 214
11.65006 232
11.67017 205
11.69029 230
11.7104 230
11.73052 252
11.75063 233
11.77074 248
11.79086 247
11.81097 240
11.83108 225
11.8512 233
11.87131 210
11.89143 238
11.91154 228
11.93165 244
11.95177 227
11.97188 235
11.99199 227
12.01211 232
12.03222 241
12.05234 223
12.07245 227
12.09256 214
12.11268 235
12.13279 220
12.1529 244
12.17302 232
12.19313 220
12.21324 215
12.23336 236
12.25347 212
12.27359 213
12.2937 209
12.31381 210
12.33393 197
12.35404 246
12.37415 237
12.39427 236
12.41438 232
12.4345 253
12.45461 220
12.47472 221
12.49484 215
12.51495 223
12.53506 207
12.55518 250
12.57529 239
12.5954 191
12.61552 213
12.63563 208
12.65575 227
12.67586 208
12.69597 208
12.71609 243
12.7362 229
12.75631 223
12.77643 213
12.79654 210
12.81666 216
12.83677 200
12.85688 223
12.877 223
12.89711 263
12.91722 229
12.93734 209
12.95745 214
12.97757 248
12.99768 202
13.01779 248
13.03791 221
13.05802 200
13.07813 224
13.09825 252
13.11836 225
13.13847 233
13.15859 215
13.1787 203
13.19882 216
13.21893 201
13.23904 219
13.25916 216
13.27927 219
13.29938 210
13.3195 245
13.33961 222
13.35973 242
13.37984 220
13.39995 214
13.42007 186
13.44018 229
13.46029 210
13.48041 217
13.50052 215
13.52064 236
13.54075 204
13.56086 232
13.58098 243
13.60109 265
13.6212 229
13.64132 247
13.66143 247
13.68154 258
13.70166 211
13.72177 236
13.74189 220
13.762 213
13.78211 202
13.80223 235
13.82234 215
13.84245 238
13.86257 221
13.88268 224
13.9028 234
13.92291 213
13.94302 201
13.96314 214
13.98325 224
14.00336 204
14.02348 211
14.04359 223
14.06371 196
14.08382 207
14.10393 212
14.12405 215
14.14416 228
14.16427 241
14.18439 203
14.2045 232
14.22461 203
14.24473 235
14.26484 213
14.28496 214
14.30507 230
14.32518 210
14.3453 187
14.36541 171
14.38552 204
14.40564 217
14.42575 223
14.44587 221
14.46598 216
14.48609 191
14.50621 201
14.52632 224
14.54643 191
14.56655 204
14.58666 231
14.60677 201
14.62689 238
14.647 226
14.66712 187
14.68723 190
14.70734 182
14.72746 196
14.74757 186
14.76768 204
14.7878 234
14.80791 217
14.82803 195
14.84814 237
14.86825 200
14.88837 205
14.90848 216
14.92859 190
14.94871 197
14.96882 224
14.98894 221
15.00905 177
15.02916 231
15.04928 236
15.06939 220
15.0895 216
15.10962 220
15.12973 219
15.14984 222
15.16996 202
15.19007 210
15.21019 175
15.2303 224
15.25041 183
15.27053 213
15.29064 200
15.31075 217
15.33087 196
15.35098 234
15.3711 177
15.39121 185
15.41132 176
15.43144 179
15.45155 204
15.47166 195
15.49178 193
15.51189 205
15.53201 228
15.55212 190
15.57223 206
15.59235 200
15.61246 190
15.63257 212
15.65269 166
15.6728 200
15.69291 188
15.71303 174
15.73314 192
15.75326 196
15.77337 194
15.79348 158
15.8136 180
15.83371 201
15.85382 203
15.87394 202
15.89405 205
15.91417 202
15.93428 188
15.95439 191
15.97451 232
15.99462 166
16.01473 185
16.03485 195
16.05496 208
16.07508 191
16.09519 204
16.1153 194
16.13542 236
16.15553 236
16.17564 185
16.19576 194
16.21587 189
16.23598 186
16.2561 225
16.27621 212
16.29633 202
16.31644 201
16.33655 175
16.35667 193
16.37678 211
16.39689 227
16.41701 224
16.43712 157
16.45724 200
16.47735 180
16.49746 191
16.51758 221
16.53769 181
16.5578 210
16.57792 198
16.59803 194
16.61814 202
16.63826 193
16.65837 200
16.67849 212
16.6986 190
16.71871 182
16.73883 197
16.75894 198
16.77905 195
16.79917 197
16.81928 202
16.8394 204
16.85951 201
16.87962 164
16.89974 175
16.91985 193
16.93996 202
16.96008 191
16.98019 213
17.00031 190
17.02042 190
17.04053 207
17.06065 210
17.08076 198
17.10087 182
17.12099 171
17.1411 188
17.16121 186
17.18133 185
17.20144 191
17.22156 214
17.24167 192
17.26178 204
17.2819 182
17.30201 210
17.32212 213
17.34224 216
17.36235 196
17.38247 185
17.40258 213
17.42269 189
17.44281 195
17.46292 201
17.48303 213
17.50315 180
17.52326 201
17.54338 214
17.56349 185
17.5836 190
17.60372 214
17.62383 193
17.64394 199
17.66406 187
17.68417 208
17.70428 189
17.7244 202
17.74451 240
17.76463 219
17.78474 208
17.80485 208
17.82497 194
17.84508 173
17.86519 204
17.88531 212
17.90542 168
17.92554 213
17.94565 217
17.96576 211
17.98588 198
18.00599 193
18.0261 227
18.04622 187
18.06633 225
18.08645 203
18.10656 201
18.12667 181
18.14679 184
18.1669 190
18.18701 177
18.20713 196
18.22724 214
18.24735 174
18.26747 191
18.28758 228
18.3077 196
18.32781 207
18.34792 212
18.36804 197
18.38815 225
18.40826 211
18.42838 175
18.44849 217
18.46861 160
18.48872 179
18.50883 203
18.52895 192
18.54906 188
18.56917 194
18.58929 234
18.6094 206
18.62951 202
18.64963 200
18.66974 201
18.68986 232
18.70997 181
18.73008 204
18.7502 197
18.77031 230
18.79042 215
18.81054 212
18.83065 219
18.85077 232
18.87088 244
18.89099 197
18.91111 214
18.93122 191
18.95133 202
18.97145 211
18.99156 202
19.01168 207
19.03179 198
19.0519 214
19.07202 181
19.09213 200
19.11224 203
19.13236 211
19.15247 221
19.17258 182
19.1927 190
19.21281 212
19.23293 230
19.25304 226
19.27315 184
19.29327 262
19.31338 235
19.33349 226
19.35361 244
19.37372 218
19.39384 209
19.41395 244
19.43406 250
19.45418 288
19.47429 264
19.4944 289
19.51452 293
19.53463 306
19.55475 284
19.57486 319
19.59497 297
19.61509 321
19.6352 320
19.65531 365
19.67543 333
19.69554 385
19.71565 304
19.73577 351
19.75588 381
19.776 348
19.79611 330
19.81622 353
19.83634 358
19.85645 349
19.87656 345
19.89668 364
19.91679 367
19.93691 317
19.95702 349
19.97713 318
19.99725 345
20.01736 308
20.03747 321
20.05759 336
20.0777 320
20.09782 338
20.11793 286
20.13804 341
20.15816 346
20.17827 315
20.19838 337
20.2185 339
20.23861 342
20.25872 323
20.27884 360
20.29895 339
20.31907 385
20.33918 387
20.35929 342
20.37941 340
20.39952 374
20.41963 350
20.43975 393
20.45986 379
20.47998 424
20.50009 449
20.5202 426
20.54032 453
20.56043 449
20.58054 515
20.60066 579
20.62077 677
20.64088 793
20.661 955
20.68111 1292
20.70123 1656
20.72134 2258
20.74145 3095
20.76157 4001
20.78168 4892
20.80179 5775
20.82191 6494
20.84202 6548
20.86214 6034
20.88225 4937
20.90236 3910
20.92248 2854
20.94259 1989
20.9627 1320
20.98282 999
21.00293 765
21.02305 651
21.04316 616
21.06327 556
21.08339 499
21.1035 465
21.12361 427
21.14373 437
21.16384 350
21.18395 383
21.20407 354
21.22418 379
21.2443 336
21.26441 313
21.28452 334
21.30464 290
21.32475 324
21.34486 316
21.36498 300
21.38509 320
21.40521 297
21.42532 242
21.44543 311
21.46555 310
21.48566 322
21.50577 291
21.52589 304
21.546 285
21.56612 279
21.58623 292
21.60634 269
21.62646 289
21.64657 264
21.66668 294
21.6868 268
21.70691 257
21.72702 276
21.74714 243
21.76725 274
21.78737 244
21.80748 291
21.82759 258
21.84771 254
21.86782 255
21.88793 303
21.90805 312
21.92816 311
21.94828 299
21.96839 368
21.9885 347
22.00862 301
22.02873 333
22.04884 328
22.06896 286
22.08907 258
22.10919 275
22.1293 284
22.14941 256
22.16953 268
22.18964 253
22.20975 255
22.22987 220
22.24998 257
22.27009 247
22.29021 251
22.31032 232
22.33044 291
22.35055 239
22.37066 281
22.39078 242
22.41089 259
22.431 257
22.45112 283
22.47123 227
22.49135 255
22.51146 257
22.53157 222
22.55169 256
22.5718 267
22.59191 278
22.61203 258
22.63214 261
22.65225 247
22.67237 250
22.69248 280
22.7126 250
22.73271 252
22.75282 254
22.77294 221
22.79305 266
22.81316 247
22.83328 221
22.85339 236
22.87351 245
22.89362 247
22.91373 240
22.93385 248
22.95396 225
22.97407 228
22.99419 243
23.0143 263
23.03442 280
23.05453 221
23.07464 259
23.09476 241
23.11487 256
23.13498 236
23.1551 284
23.17521 256
23.19532 237
23.21544 250
23.23555 251
23.25567 259
23.27578 258
23.29589 273
23.31601 237
23.33612 259
23.35623 268
23.37635 269
23.39646 264
23.41658 263
23.43669 258
23.4568 288
23.47692 252
23.49703 291
23.51714 305
23.53726 314
23.55737 325
23.57749 276
23.5976 291
23.61771 271
23.63783 297
23.65794 285
23.67805 255
23.69817 324
23.71828 254
23.73839 300
23.75851 279
23.77862 277
23.79874 249
23.81885 290
23.83896 266
23.85908 302
23.87919 275
23.8993 308
23.91942 308
23.93953 319
23.95965 326
23.97976 325
23.99987 298
24.01999 332
24.0401 302
24.06021 300
24.08033 273
24.10044 280
24.12056 254
24.14067 282
24.16078 249
24.1809 244
24.20101 255
24.22112 240
24.24124 250
24.26135 228
24.28146 231
24.30158 235
24.32169 237
24.34181 267
24.36192 238
24.38203 270
24.40215 259
24.42226 237
24.44237 259
24.46249 277
24.4826 247
24.50272 228
24.52283 257
24.54294 237
24.56306 267
24.58317 265
24.60328 282
24.6234 279
24.64351 256
24.66362 263
24.68374 218
24.70385 235
24.72397 271
24.74408 265
24.76419 237
24.78431 251
24.80442 241
24.82453 243
24.84465 271
24.86476 241
24.88488 256
24.90499 236
24.9251 288
24.94522 238
24.96533 264
24.98544 234
25.00556 260
25.02567 236
25.04579 253
25.0659 237
25.08601 272
25.10613 262
25.12624 249
25.14635 264
25.16647 259
25.18658 256
25.20669 268
25.22681 260
25.24692 229
25.26704 280
25.28715 274
25.30726 264
25.32738 270
25.34749 295
25.3676 251
25.38772 265
25.40783 286
25.42795 271
25.44806 272
25.46817 339
25.48829 334
25.5084 351
25.52851 380
25.54863 365
25.56874 393
25.58886 395
25.60897 439
25.62908 383
25.6492 386
25.66931 438
25.68942 423
25.70954 442
25.72965 451
25.74976 446
25.76988 446
25.78999 479
25.81011 462
25.83022 474
25.85033 451
25.87045 486
25.89056 492
25.91067 438
25.93079 493
25.9509 489
25.97102 499
25.99113 526
26.01124 581
26.03136 577
26.05147 613
26.07158 553
26.0917 610
26.11181 647
26.13193 662
26.15204 760
26.17215 795
26.19227 825
26.21238 908
26.23249 921
26.25261 1090
26.27272 1137
26.29283 1325
26.31295 1373
26.33306 1538
26.35318 1872
26.37329 2160
26.3934 2663
26.41352 3346
26.43363 4462
26.45374 6068
26.47386 8125
26.49397 10749
26.51409 14518
26.5342 18312
26.55431 22470
26.57443 26914
26.59454 28890
26.61465 29623
26.63477 27805
26.65488 23614
26.67499 19104
26.69511 14447
26.71522 10408
26.73534 7234
26.75545 4691
26.77556 3192
26.79568 2288
26.81579 1857
26.8359 1618
26.85602 1423
26.87613 1214
26.89625 1115
26.91636 1053
26.93647 951
26.95659 865
26.9767 853
26.99681 867
27.01693 777
27.03704 707
27.05716 704
27.07727 665
27.09738 639
27.1175 600
27.13761 596
27.15772 529
27.17784 552
27.19795 468
27.21806 547
27.23818 540
27.25829 530
27.27841 522
27.29852 475
27.31863 522
27.33875 535
27.35886 546
27.37897 539
27.39909 552
27.4192 527
27.43932 564
27.45943 550
27.47954 551
27.49966 523
27.51977 533
27.53988 488
27.56 538
27.58011 471
27.60023 445
27.62034 441
27.64045 461
27.66057 416
27.68068 427
27.70079 407
27.72091 408
27.74102 404
27.76113 392
27.78125 428
27.80136 404
27.82148 415
27.84159 366
27.8617 347
27.88182 349
27.90193 386
27.92204 383
27.94216 370
27.96227 379
27.98239 347
28.0025 362
28.02261 320
28.04273 371
28.06284 352
28.08295 356
28.10307 348
28.12318 348
28.1433 307
28.16341 310
28.18352 312
28.20364 327
28.22375 352
28.24386 339
28.26398 303
28.28409 311
28.3042 317
28.32432 357
28.34443 333
28.36455 301
28.38466 286
28.40477 276
28.42489 314
28.445 305
28.46511 289
28.48523 308
28.50534 297
28.52546 278
28.54557 288
28.56568 270
28.5858 279
28.60591 264
28.62602 270
28.64614 266
28.66625 281
28.68636 264
28.70648 247
28.72659 296
28.74671 279
28.76682 300
28.78693 311
28.80705 275
28.82716 273
28.84727 251
28.86739 259
28.8875 264
28.90762 286
28.92773 294
28.94784 284
28.96796 285
28.98807 249
29.00818 224
29.0283 270
29.04841 280
29.06853 268
29.08864 294
29.10875 279
29.12887 261
29.14898 275
29.16909 279
29.18921 259
29.20932 263
29.22943 274
29.24955 254
29.26966 262
29.28978 274
29.30989 249
29.33 278
29.35012 264
29.37023 267
29.39034 255
29.41046 285
29.43057 301
29.45069 319
29.4708 295
29.49091 270
29.51103 243
29.53114 289
29.55125 273
29.57137 269
29.59148 249
29.6116 291
29.63171 285
29.65182 260
29.67194 275
29.69205 254
29.71216 242
29.73228 302
29.75239 303
29.7725 276
29.79262 284
29.81273 334
29.83285 270
29.85296 299
29.87307 282
29.89319 245
29.9133 284
29.93341 313
29.95353 280
29.97364 265
29.99376 264
30.01387 269
30.03398 256
30.0541 267
30.07421 275
30.09432 264
30.11444 248
30.13455 252
30.15467 282
30.17478 267
30.19489 304
30.21501 264
30.23512 256
30.25523 271
30.27535 234
30.29546 264
30.31557 277
30.33569 263
30.3558 250
30.37592 226
30.39603 233
30.41614 279
30.43626 241
30.45637 241
30.47648 237
30.4966 247
30.51671 296
30.53683 252
30.55694 258
30.57705 229
30.59717 236
30.61728 246
30.63739 226
30.65751 246
30.67762 267
30.69773 266
30.71785 285
30.73796 301
30.75808 305
30.77819 296
30.7983 293
30.81842 272
30.83853 278
30.85864 277
30.87876 257
30.89887 217
30.91899 235
30.9391 215
30.95921 214
30.97933 244
30.99944 233
31.01955 232
31.03967 217
31.05978 220
31.0799 216
31.10001 256
31.12012 239
31.14024 248
31.16035 192
31.18046 206
31.20058 211
31.22069 222
31.2408 205
31.26092 255
31.28103 207
31.30115 233
31.32126 213
31.34137 221
31.36149 195
31.3816 212
31.40171 194
31.42183 202
31.44194 212
31.46206 240
31.48217 198
31.50228 213
31.5224 215
31.54251 232
31.56262 197
31.58274 206
31.60285 206
31.62297 191
31.64308 206
31.66319 187
31.68331 227
31.70342 204
31.72353 207
31.74365 191
31.76376 228
31.78387 195
31.80399 223
31.8241 199
31.84422 167
31.86433 224
31.88444 224
31.90456 220
31.92467 212
31.94478 203
31.9649 217
31.98501 212
32.00513 189
32.02524 208
32.04535 194
32.06547 199
32.08558 194
32.10569 223
32.12581 198
32.14592 231
32.16604 208
32.18615 230
32.20626 222
32.22638 229
32.24649 209
32.2666 193
32.28672 202
32.30683 239
32.32694 216
32.34706 208
32.36717 219
32.38729 248
32.4074 239
32.42751 216
32.44763 205
32.46774 180
32.48785 214
32.50797 207
32.52808 227
32.5482 219
32.56831 205
32.58842 212
32.60854 192
32.62865 178
32.64876 185
32.66888 237
32.68899 212
32.7091 177
32.72922 202
32.74933 211
32.76945 208
32.78956 211
32.80967 230
32.82979 187
32.8499 194
32.87001 181
32.89013 172
32.91024 187
32.93036 200
32.95047 200
32.97058 177
32.9907 215
33.01081 194
33.03092 192
33.05104 197
33.07115 203
33.09127 191
33.11138 178
33.13149 207
33.15161 190
33.17172 177
33.19183 195
33.21195 208
33.23206 207
33.25217 189
33.27229 198
33.2924 183
33.31252 187
33.33263 169
33.35274 184
33.37286 183
33.39297 185
33.41308 198
33.4332 174
33.45331 223
33.47343 202
33.49354 173
33.51365 205
33.53377 177
33.55388 200
33.57399 164
33.59411 172
33.61422 206
33.63434 188
33.65445 187
33.67456 181
33.69468 183
33.71479 217
33.7349 229
33.75502 192
33.77513 182
33.79524 214
33.81536 175
33.83547 199
33.85559 218
33.8757 201
33.89581 195
33.91593 188
33.93604 191
33.95615 208
33.97627 181
33.99638 205
34.0165 171
34.03661 180
34.05672 195
34.07684 188
34.09695 203
34.11706 205
34.13718 235
34.15729 241
34.17741 193
34.19752 228
34.21763 213
34.23775 218
34.25786 202
34.27797 205
34.29809 223
34.3182 235
34.33831 194
34.35843 245
34.37854 244
34.39866 231
34.41877 214
34.43888 228
34.459 217
34.47911 208
34.49922 240
34.51934 252
34.53945 244
34.55957 280
34.57968 241
34.59979 249
34.61991 251
34.64002 283
34.66013 237
34.68025 255
34.70036 270
34.72047 268
34.74059 277
34.7607 262
34.78082 253
34.80093 257
34.82104 273
34.84116 248
34.86127 287
34.88138 277
34.9015 262
34.92161 270
34.94173 261
34.96184 286
34.98195 296
35.00207 258
35.02218 271
35.04229 274
35.06241 254
35.08252 266
35.10264 267
35.12275 252
35.14286 281
35.16298 275
35.18309 270
35.2032 273
35.22332 281
35.24343 278
35.26354 297
35.28366 283
35.30377 309
35.32389 255
35.344 292
35.36411 259
35.38423 249
35.40434 263
35.42445 284
35.44457 273
35.46468 268
35.4848 260
35.50491 289
35.52502 267
35.54514 262
35.56525 289
35.58536 236
35.60548 270
35.62559 256
35.64571 299
35.66582 287
35.68593 283
35.70605 274
35.72616 229
35.74627 224
35.76639 252
35.7865 253
35.80661 245
35.82673 251
35.84684 256
35.86696 242
35.88707 227
35.90718 232
35.9273 262
35.94741 248
35.96752 242
35.98764 244
36.00775 259
36.02787 251
36.04798 261
36.06809 272
36.08821 263
36.10832 265
36.12843 288
36.14855 303
36.16866 315
36.18878 282
36.20889 303
36.229 304
36.24912 364
36.26923 393
36.28934 447
36.30946 533
36.32957 578
36.34968 721
36.3698 836
36.38991 1017
36.41003 1328
36.43014 1471
36.45025 1842
36.47037 1829
36.49048 2110
36.51059 2093
36.53071 2068
36.55082 1791
36.57094 1538
36.59105 1333
36.61116 1134
36.63128 873
36.65139 673
36.6715 551
36.69162 452
36.71173 391
36.73184 363
36.75196 293
36.77207 289
36.79219 309
36.8123 278
36.83241 276
36.85253 243
36.87264 257
36.89275 239
36.91287 232
36.93298 246
36.9531 235
36.97321 223
36.99332 240
37.01344 215
37.03355 216
37.05366 255
37.07378 233
37.09389 217
37.11401 239
37.13412 248
37.15423 255
37.17435 237
37.19446 221
37.21457 210
37.23469 223
37.2548 193
37.27491 214
37.29503 218
37.31514 208
37.33526 181
37.35537 219
37.37548 233
37.3956 221
37.41571 206
37.43582 219
37.45594 190
37.47605 201
37.49617 211
37.51628 231
37.53639 203
37.55651 224
37.57662 204
37.59673 221
37.61685 261
37.63696 194
37.65708 211
37.67719 206
37.6973 225
37.71742 215
37.73753 211
37.75764 202
37.77776 194
37.79787 219
37.81798 197
37.8381 229
37.85821 192
37.87833 228
37.89844 225
37.91855 188
37.93867 211
37.95878 215
37.97889 195
37.99901 193
38.01912 210
38.03924 214
38.05935 188
38.07946 228
38.09958 220
38.11969 210
38.1398 218
38.15992 216
38.18003 201
38.20015 199
38.22026 180
38.24037 221
38.26049 212
38.2806 191
38.30071 236
38.32083 224
38.34094 200
38.36105 202
38.38117 183
38.40128 184
38.4214 218
38.44151 227
38.46162 211
38.48174 243
38.50185 199
38.52196 212
38.54208 212
38.56219 186
38.58231 219
38.60242 216
38.62253 195
38.64265 196
38.66276 202
38.68287 206
38.70299 222
38.7231 189
38.74321 200
38.76333 236
38.78344 205
38.80356 221
38.82367 191
38.84378 197
38.8639 229
38.88401 229
38.90412 209
38.92424 213
38.94435 241
38.96447 219
38.98458 232
39.00469 257
39.02481 243
39.04492 238
39.06503 269
39.08515 276
39.10526 283
39.12538 274
39.14549 313
39.1656 345
39.18572 392
39.20583 409
39.22594 481
39.24606 497
39.26617 648
39.28628 746
39.3064 898
39.32651 1095
39.34663 1307
39.36674 1526
39.38685 1715
39.40697 1899
39.42708 1867
39.44719 1910
39.46731 1694
39.48742 1486
39.50754 1307
39.52765 1085
39.54776 965
39.56788 838
39.58799 651
39.6081 476
39.62822 389
39.64833 371
39.66845 297
39.68856 288
39.70867 254
39.72879 227
39.7489 256
39.76901 251
39.78913 275
39.80924 241
39.82935 256
39.84947 266
39.86958 265
39.8897 243
39.90981 275
39.92992 253
39.95004 301
39.97015 289
39.99026 301
40.01038 331
40.03049 319
40.05061 368
40.07072 367
40.09083 470
40.11095 518
40.13106 580
40.15117 645
40.17129 780
40.1914 892
40.21152 972
40.23163 1052
40.25174 1063
40.27186 951
40.29197 860
40.31208 836
40.3322 705
40.35231 604
40.37242 532
40.39254 467
40.41265 404
40.43277 329
40.45288 321
40.47299 273
40.49311 273
40.51322 248
40.53333 263
40.55345 214
40.57356 224
40.59368 229
40.61379 184
40.6339 213
40.65402 234
40.67413 221
40.69424 223
40.71436 195
40.73447 208
40.75458 204
40.7747 189
40.79481 191
40.81493 207
40.83504 179
40.85515 214
40.87527 199
40.89538 196
40.91549 216
40.93561 192
40.95572 186
40.97584 202
40.99595 204
41.01606 215
41.03618 179
41.05629 207
41.0764 215
41.09652 202
41.11663 229
41.13675 184
41.15686 211
41.17697 222
41.19709 204
41.2172 195
41.23731 225
41.25743 230
41.27754 224
41.29765 226
41.31777 226
41.33788 212
41.358 193
41.37811 223
41.39822 189
41.41834 210
41.43845 193
41.45856 204
41.47868 208
41.49879 231
41.51891 222
41.53902 225
41.55913 194
41.57925 206
41.59936 216
41.61947 241
41.63959 194
41.6597 212
41.67982 228
41.69993 243
41.72004 264
41.74016 235
41.76027 217
41.78038 259
41.8005 230
41.82061 241
41.84072 222
41.86084 219
41.88095 211
41.90107 226
41.92118 228
41.94129 245
41.96141 220
41.98152 226
42.00163 214
42.02175 241
42.04186 239
42.06198 258
42.08209 244
42.1022 282
42.12232 280
42.14243 319
42.16254 382
42.18266 356
42.20277 426
42.22289 445
42.243 490
42.26311 619
42.28323 704
42.30334 822
42.32345 933
42.34357 1125
42.36368 1274
42.38379 1342
42.40391 1334
42.42402 1366
42.44414 1326
42.46425 1136
42.48436 947
42.50448 899
42.52459 771
42.5447 664
42.56482 561
42.58493 431
42.60505 347
42.62516 330
42.64527 274
42.66539 289
42.6855 247
42.70561 271
42.72573 228
42.74584 226
42.76595 222
42.78607 232
42.80618 232
42.8263 205
42.84641 210
42.86652 219
42.88664 207
42.90675 199
42.92686 223
42.94698 200
42.96709 216
42.98721 186
43.00732 187
43.02743 201
43.04755 197
43.06766 189
43.08777 190
43.10789 187
43.128 169
43.14812 208
43.16823 174
43.18834 181
43.20846 170
43.22857 181
43.24868 208
43.2688 175
43.28891 194
43.30902 188
43.32914 189
43.34925 190
43.36937 193
43.38948 169
43.40959 173
43.42971 196
43.44982 199
43.46993 191
43.49005 174
43.51016 207
43.53028 171
43.55039 198
43.5705 191
43.59062 186
43.61073 183
43.63084 195
43.65096 194
43.67107 189
43.69119 194
43.7113 186
43.73141 192
43.75153 176
43.77164 158
43.79175 190
43.81187 175
43.83198 173
43.85209 203
43.87221 219
43.89232 198
43.91244 187
43.93255 183
43.95266 190
43.97278 194
43.99289 166
44.013 161
44.03312 189
44.05323 178
44.07335 194
44.09346 184
44.11357 172
44.13369 169
44.1538 199
44.17391 195
44.19403 177
44.21414 206
44.23426 194
44.25437 175
44.27448 185
44.2946 191
44.31471 208
44.33482 187
44.35494 201
44.37505 185
44.39516 195
44.41528 222
44.43539 209
44.45551 177
44.47562 182
44.49573 194
44.51585 204
44.53596 183
44.55607 182
44.57619 161
44.5963 187
44.61642 174
44.63653 192
44.65664 176
44.67676 175
44.69687 208
44.71698 184
44.7371 201
44.75721 189
44.77732 195
44.79744 172
44.81755 180
44.83767 170
44.85778 190
44.87789 184
44.89801 176
44.91812 185
44.93823 169
44.95835 185
44.97846 209
44.99858 178
45.01869 201
45.0388 176
45.05892 203
45.07903 183
45.09914 180
45.11926 190
45.13937 181
45.15949 212
45.1796 210
45.19971 188
45.21983 195
45.23994 210
45.26005 202
45.28017 199
45.30028 188
45.32039 197
45.34051 234
45.36062 196
45.38074 200
45.40085 217
45.42096 240
45.44108 225
45.46119 236
45.4813 274
45.50142 278
45.52153 296
45.54165 383
45.56176 378
45.58187 385
45.60199 495
45.6221 515
45.64221 646
45.66233 681
45.68244 876
45.70256 923
45.72267 953
45.74278 1050
45.7629 910
45.78301 876
45.80312 795
45.82324 695
45.84335 638
45.86346 590
45.88358 520
45.90369 486
45.92381 393
45.94392 367
45.96403 243
45.98415 251
46.00426 238
46.02437 208
46.04449 224
46.0646 216
46.08472 193
46.10483 196
46.12494 180
46.14506 196
46.16517 180
46.18528 161
46.2054 199
46.22551 182
46.24563 174
46.26574 184
46.28585 182
46.30597 158
46.32608 154
46.34619 166
46.36631 183
46.38642 164
46.40653 160
46.42665 175
46.44676 156
46.46688 167
46.48699 189
46.5071 170
46.52722 182
46.54733 174
46.56744 168
46.58756 156
46.60767 162
46.62779 165
46.6479 185
46.66801 153
46.68813 178
46.70824 177
46.72835 165
46.74847 169
46.76858 168
46.78869 164
46.80881 156
46.82892 169
46.84904 166
46.86915 169
46.88926 162
46.90938 164
46.92949 160
46.9496 170
46.96972 167
46.98983 161
47.00995 158
47.03006 176
47.05017 176
47.07029 163
47.0904 165
47.11051 191
47.13063 185
47.15074 159
47.17086 180
47.19097 186
47.21108 144
47.2312 168
47.25131 178
47.27142 182
47.29154 193
47.31165 169
47.33176 193
47.35188 199
47.37199 161
47.39211 180
47.41222 161
47.43233 144
47.45245 161
47.47256 145
47.49267 157
47.51279 152
47.5329 157
47.55302 151
47.57313 178
47.59324 169
47.61336 164
47.63347 167
47.65358 173
47.6737 179
47.69381 149
47.71393 167
47.73404 186
47.75415 167
47.77427 157
47.79438 155
47.81449 149
47.83461 161
47.85472 167
47.87483 171
47.89495 176
47.91506 176
47.93518 159
47.95529 179
47.9754 160
47.99552 178
48.01563 161
48.03574 155
48.05586 149
48.07597 169
48.09609 158
48.1162 156
48.13631 181
48.15643 183
48.17654 162
48.19665 172
48.21677 168
48.23688 182
48.257 161
48.27711 183
48.29722 161
48.31734 169
48.33745 174
48.35756 160
48.37768 194
48.39779 163
48.4179 188
48.43802 181
48.45813 164
48.47825 176
48.49836 173
48.51847 197
48.53859 178
48.5587 204
48.57881 149
48.59893 163
48.61904 164
48.63916 176
48.65927 178
48.67938 194
48.6995 191
48.71961 179
48.73972 205
48.75984 178
48.77995 205
48.80006 188
48.82018 174
48.84029 207
48.86041 181
48.88052 169
48.90063 201
48.92075 189
48.94086 179
48.96097 169
48.98109 160
49.0012 158
49.02132 171
49.04143 208
49.06154 228
49.08166 182
49.10177 202
49.12188 196
49.142 191
49.16211 178
49.18223 197
49.20234 198
49.22245 159
49.24257 190
49.26268 210
49.28279 207
49.30291 194
49.32302 231
49.34313 188
49.36325 183
49.38336 194
49.40348 194
49.42359 173
49.4437 197
49.46382 207
49.48393 185
49.50404 212
49.52416 219
49.54427 217
49.56439 213
49.5845 221
49.60461 238
49.62473 269
49.64484 238
49.66495 266
49.68507 321
49.70518 321
49.7253 313
49.74541 352
49.76552 384
49.78564 398
49.80575 431
49.82586 502
49.84598 611
49.86609 656
49.8862 812
49.90632 916
49.92643 1090
49.94655 1251
49.96666 1542
49.98677 1780
50.00689 2185
50.027 2479
50.04711 2702
50.06723 2955
50.08734 2970
50.10746 3010
50.12757 2870
50.14768 2524
50.1678 2182
50.18791 1863
50.20802 1733
50.22814 1571
50.24825 1432
50.26837 1174
50.28848 898
50.30859 709
50.32871 522
50.34882 416
50.36893 357
50.38905 348
50.40916 319
50.42927 313
50.44939 287
50.4695 287
50.48962 281
50.50973 314
50.52984 323
50.54996 304
50.57007 278
50.59018 301
50.6103 251
50.63041 239
50.65053 297
50.67064 271
50.69075 262
50.71087 260
50.73098 269
50.75109 231
50.77121 238
50.79132 220
50.81143 216
50.83155 210
50.85166 166
50.87178 204
50.89189 198
50.912 191
50.93212 158
50.95223 201
50.97234 169
50.99246 169
51.01257 175
51.03269 155
51.0528 184
51.07291 197
51.09303 199
51.11314 193
51.13325 172
51.15337 189
51.17348 187
51.1936 153
51.21371 173
51.23382 189
51.25394 193
51.27405 153
51.29416 157
51.31428 185
51.33439 149
51.3545 177
51.37462 174
51.39473 147
51.41485 179
51.43496 181
51.45507 171
51.47519 144
51.4953 159
51.51541 162
51.53553 183
51.55564 176
51.57576 173
51.59587 144
51.61598 163
51.6361 155
51.65621 153
51.67632 183
51.69644 171
51.71655 184
51.73667 170
51.75678 167
51.77689 170
51.79701 165
51.81712 169
51.83723 156
51.85735 155
51.87746 168
51.89757 152
51.91769 151
51.9378 166
51.95792 147
51.97803 176
51.99814 158
52.01826 161
52.03837 184
52.05848 171
52.0786 157
52.09871 165
52.11883 169
52.13894 163
52.15905 169
52.17917 160
52.19928 152
52.21939 141
52.23951 195
52.25962 191
52.27974 168
52.29985 158
52.31996 169
52.34008 170
52.36019 170
52.3803 127
52.40042 165
52.42053 162
52.44064 139
52.46076 145
52.48087 168
52.50099 167
52.5211 163
52.54121 171
52.56133 184
52.58144 181
52.60155 173
52.62167 156
52.64178 157
52.6619 161
52.68201 174
52.70212 168
52.72224 157
52.74235 162
52.76246 163
52.78258 165
52.80269 155
52.8228 180
52.84292 152
52.86303 156
52.88315 174
52.90326 179
52.92337 182
52.94349 181
52.9636 189
52.98371 170
53.00383 154
53.02394 167
53.04406 161
53.06417 189
53.08428 170
53.1044 197
53.12451 184
53.14462 173
53.16474 162
53.18485 197
53.20497 171
53.22508 194
53.24519 166
53.26531 166
53.28542 170
53.30553 186
53.32565 190
53.34576 173
53.36587 190
53.38599 180
53.4061 182
53.42622 193
53.44633 168
53.46644 148
53.48656 169
53.50667 173
53.52678 178
53.5469 202
53.56701 203
53.58713 212
53.60724 174
53.62735 169
53.64747 170
53.66758 180
53.68769 181
53.70781 173
53.72792 192
53.74804 196
53.76815 186
53.78826 199
53.80838 187
53.82849 172
53.8486 184
53.86872 179
53.88883 196
53.90894 187
53.92906 189
53.94917 184
53.96929 181
53.9894 198
54.00951 186
54.02963 179
54.04974 204
54.06985 194
54.08997 194
54.11008 209
54.1302 190
54.15031 199
54.17042 181
54.19054 192
54.21065 204
54.23076 202
54.25088 191
54.27099 181
54.29111 197
54.31122 186
54.33133 202
54.35145 187
54.37156 191
54.39167 192
54.41179 190
54.4319 226
54.45201 201
54.47213 226
54.49224 221
54.51236 250
54.53247 243
54.55258 284
54.5727 278
54.59281 317
54.61292 369
54.63304 354
54.65315 422
54.67327 487
54.69338 538
54.71349 637
54.73361 706
54.75372 810
54.77383 881
54.79395 967
54.81406 970
54.83417 990
54.85429 953
54.8744 822
54.89452 731
54.91463 671
54.93474 647
54.95486 665
54.97497 604
54.99508 558
55.0152 539
55.03531 443
55.05543 391
55.07554 332
55.09565 340
55.11577 318
55.13588 371
55.15599 378
55.17611 403
55.19622 457
55.21634 450
55.23645 499
55.25656 537
55.27668 527
55.29679 531
55.3169 503
55.33702 453
55.35713 397
55.37724 388
55.39736 366
55.41747 376
55.43759 335
55.4577 313
55.47781 289
55.49793 251
55.51804 240
55.53815 216
55.55827 186
55.57838 218
55.5985 191
55.61861 210
55.63872 207
55.65884 171
55.67895 194
55.69906 184
55.71918 171
55.73929 188
55.75941 176
55.77952 217
55.79963 209
55.81975 192
55.83986 175
55.85997 183
55.88009 172
55.9002 193
55.92031 153
55.94043 175
55.96054 151
55.98066 178
56.00077 187
56.02088 178
56.041 151
56.06111 173
56.08122 177
56.10134 161
56.12145 153
56.14157 199
56.16168 163
56.18179 191
56.20191 170
56.22202 168
56.24213 158
56.26225 176
56.28236 169
56.30248 161
56.32259 156
56.3427 187
56.36282 155
56.38293 164
56.40304 165
56.42316 199
56.44327 187
56.46338 175
56.4835 175
56.50361 180
56.52373 161
56.54384 160
56.56395 185
56.58407 174
56.60418 161
56.62429 153
56.64441 139
56.66452 174
56.68464 173
56.70475 154
56.72486 174
56.74498 153
56.76509 181
56.7852 152
56.80532 187
56.82543 150
56.84554 145
56.86566 165
56.88577 195
56.90589 161
56.926 180
56.94611 171
56.96623 200
56.98634 187
57.00645 188
57.02657 206
57.04668 199
57.0668 179
57.08691 203
57.10702 194
57.12714 213
57.14725 205
57.16736 231
57.18748 192
57.20759 192
57.22771 215
57.24782 223
57.26793 190
57.28805 207
57.30816 186
57.32827 157
57.34839 170
57.3685 193
57.38861 177
57.40873 172
57.42884 162
57.44896 163
57.46907 166
57.48918 148
57.5093 170
57.52941 165
57.54952 163
57.56964 147
57.58975 162
57.60987 152
57.62998 126
57.65009 180
57.67021 160
57.69032 169
57.71043 171
57.73055 177
57.75066 160
57.77078 156
57.79089 163
57.811 148
57.83112 180
57.85123 174
57.87134 181
57.89146 157
57.91157 165
57.93168 166
57.9518 182
57.97191 156
57.99203 158
58.01214 162
58.03225 154
58.05237 186
58.07248 149
58.09259 166
58.11271 169
58.13282 164
58.15294 169
58.17305 164
58.19316 156
58.21328 147
58.23339 157
58.2535 162
58.27362 167
58.29373 172
58.31385 156
58.33396 175
58.35407 137
58.37419 193
58.3943 193
58.41441 183
58.43453 175
58.45464 171
58.47475 182
58.49487 153
58.51498 150
58.5351 176
58.55521 183
58.57532 183
58.59544 166
58.61555 180
58.63566 154
58.65578 172
58.67589 168
58.69601 175
58.71612 167
58.73623 182
58.75635 164
58.77646 170
58.79657 196
58.81669 180
58.8368 177
58.85691 169
58.87703 163
58.89714 184
58.91726 167
58.93737 165
58.95748 183
58.9776 180
58.99771 198
59.01782 165
59.03794 180
59.05805 184
59.07817 170
59.09828 165
59.11839 192
59.13851 175
59.15862 176
59.17873 168
59.19885 189
59.21896 185
59.23908 182
59.25919 196
59.2793 198
59.29942 193
59.31953 192
59.33964 188
59.35976 213
59.37987 181
59.39998 209
59.4201 238
59.44021 214
59.46033 229
59.48044 240
59.50055 291
59.52067 306
59.54078 292
59.56089 302
59.58101 328
59.60112 366
59.62124 404
59.64135 428
59.66146 481
59.68158 555
59.70169 613
59.7218 686
59.74192 781
59.76203 917
59.78215 1139
59.80226 1346
59.82237 1442
59.84249 1627
59.8626 1883
59.88271 1960
59.90283 2039
59.92294 1882
59.94305 1715
59.96317 1547
59.98328 1369
60.0034 1178
60.02351 1150
60.04362 1089
60.06374 1083
60.08385 1009
60.10396 889
60.12408 721
60.14419 599
60.16431 435
60.18442 370
60.20453 313
60.22465 308
60.24476 250
60.26487 248
60.28499 231
60.3051 217
60.32522 224
60.34533 199
60.36544 207
60.38556 198
60.40567 201
60.42578 212
60.4459 203
60.46601 203
60.48612 171
60.50624 187
60.52635 165
60.54647 168
60.56658 196
60.58669 205
60.60681 198
60.62692 167
60.64703 190
60.66715 180
60.68726 178
60.70738 181
60.72749 188
60.7476 178
60.76772 190
60.78783 207
60.80794 178
60.82806 195
60.84817 149
60.86828 171
60.8884 185
60.90851 173
60.92863 189
60.94874 165
60.96885 166
60.98897 175
61.00908 198
61.02919 194
61.04931 188
61.06942 174
61.08954 195
61.10965 201
61.12976 202
61.14988 192
61.16999 182
61.1901 182
61.21022 190
61.23033 195
61.25045 201
61.27056 227
61.29067 227
61.31079 182
61.3309 203
61.35101 204
61.37113 188
61.39124 183
61.41135 194
61.43147 202
61.45158 204
61.4717 193
61.49181 211
61.51192 219
61.53204 201
61.55215 191
61.57226 216
61.59238 200
61.61249 210
61.63261 199
61.65272 197
61.67283 197
61.69295 205
61.71306 212
61.73317 204
61.75329 176
61.7734 180
61.79352 191
61.81363 209
61.83374 170
61.85386 220
61.87397 184
61.89408 187
61.9142 205
61.93431 191
61.95442 177
61.97454 201
61.99465 194
62.01477 185
62.03488 189
62.05499 188
62.07511 189
62.09522 205
62.11533 204
62.13545 187
62.15556 169
62.17568 182
62.19579 178
62.2159 180
62.23602 188
62.25613 190
62.27624 191
62.29636 195
62.31647 181
62.33659 193
62.3567 185
62.37681 171
62.39693 171
62.41704 171
62.43715 176
62.45727 151
62.47738 184
62.49749 163
62.51761 171
62.53772 159
62.55784 156
62.57795 130
62.59806 182
62.61818 174
62.63829 182
62.6584 186
62.67852 155
62.69863 179
62.71875 171
62.73886 174
62.75897 158
62.77909 143
62.7992 172
62.81931 151
62.83943 178
62.85954 162
62.87965 179
62.89977 170
62.91988 130
62.94 150
62.96011 164
62.98022 154
63.00034 167
63.02045 153
63.04056 181
63.06068 152
63.08079 162
63.10091 156
63.12102 139
63.14113 171
63.16125 148
63.18136 170
63.20147 159
63.22159 185
63.2417 165
63.26182 161
63.28193 168
63.30204 165
63.32216 166
63.34227 175
63.36238 160
63.3825 164
63.40261 155
63.42272 196
63.44284 176
63.46295 175
63.48307 183
63.50318 169
63.52329 156
63.54341 163
63.56352 184
63.58363 161
63.60375 168
63.62386 207
63.64398 185
63.66409 199
63.6842 200
63.70432 210
63.72443 224
63.74454 222
63.76466 234
63.78477 259
63.80489 233
63.825 309
63.84511 318
63.86523 373
63.88534 362
63.90545 441
63.92557 403
63.94568 453
63.96579 491
63.98591 529
64.00602 476
64.02614 452
64.04625 415
64.06636 339
64.08648 342
64.10659 370
64.1267 346
64.14682 343
64.16693 311
64.18705 279
64.20716 264
64.22727 231
64.24739 208
64.2675 207
64.28761 183
64.30773 143
64.32784 168
64.34796 194
64.36807 187
64.38818 181
64.4083 169
64.42841 157
64.44852 136
64.46864 165
64.48875 177
64.50886 136
64.52898 155
64.54909 181
64.56921 150
64.58932 164
64.60943 170
64.62955 176
64.64966 150
64.66977 152
64.68989 164
64.71 158
64.73012 152
64.75023 150
64.77034 149
64.79046 148
64.81057 152
64.83068 145
64.8508 149
64.87091 173
64.89102 160
64.91114 178
64.93125 155
64.95137 162
64.97148 183
64.99159 155
65.01171 161
65.03182 169
65.05193 151
65.07205 143
65.09216 158
65.11228 156
65.13239 159
65.1525 133
65.17262 152
65.19273 152
65.21284 175
65.23296 189
65.25307 136
65.27319 153
65.2933 154
65.31341 171
65.33353 177
65.35364 166
65.37375 179
65.39387 181
65.41398 198
65.43409 173
65.45421 162
65.47432 198
65.49444 187
65.51455 175
65.53466 177
65.55478 200
65.57489 198
65.595 191
65.61512 223
65.63523 207
65.65535 234
65.67546 208
65.69557 237
65.71569 254
65.7358 254
65.75591 245
65.77603 216
65.79614 215
65.81626 193
65.83637 222
65.85648 215
65.8766 209
65.89671 224
65.91682 189
65.93694 195
65.95705 192
65.97716 198
65.99728 184
66.01739 203
66.03751 166
66.05762 156
66.07773 192
66.09785 195
66.11796 166
66.13807 179
66.15819 171
66.1783 162
66.19842 171
66.21853 167
66.23864 170
66.25876 179
66.27887 154
66.29898 156
66.3191 173
66.33921 182
66.35933 176
66.37944 180
66.39955 154
66.41967 171
66.43978 166
66.45989 183
66.48001 148
66.50012 160
66.52023 170
66.54035 184
66.56046 169
66.58058 177
66.60069 172
66.6208 153
66.64092 154
66.66103 158
66.68114 159
66.70126 165
66.72137 168
66.74149 161
66.7616 161
66.78171 179
66.80183 154
66.82194 159
66.84205 175
66.86217 150
66.88228 193
66.90239 179
66.92251 181
66.94262 181
66.96274 171
66.98285 162
67.00296 187
67.02308 167
67.04319 190
67.0633 211
67.08342 180
67.10353 189
67.12365 219
67.14376 201
67.16387 206
67.18399 234
67.2041 213
67.22421 213
67.24433 222
67.26444 237
67.28456 240
67.30467 256
67.32478 281
67.3449 294
67.36501 295
67.38512 330
67.40524 317
67.42535 360
67.44546 400
67.46558 424
67.48569 480
67.50581 534
67.52592 573
67.54603 647
67.56615 777
67.58626 905
67.60637 939
67.62649 1150
67.6466 1213
67.66672 1295
67.68683 1254
67.70694 1267
67.72706 1147
67.74717 1040
67.76728 921
67.7874 908
67.80751 960
67.82763 881
67.84774 996
67.86785 986
67.88797 1072
67.90808 1082
67.92819 1088
67.94831 1092
67.96842 1175
67.98853 1221
68.00865 1327
68.02876 1526
68.04888 1616
68.06899 1750
68.0891 1776
68.10922 1769
68.12933 1717
68.14944 1534
68.16956 1538
68.18967 1471
68.20979 1518
68.2299 1625
68.25001 1609
68.27013 1567
68.29024 1462
68.31035 1282
68.33047 1127
68.35058 928
68.3707 844
68.39081 721
68.41092 710
68.43104 639
68.45115 633
68.47126 588
68.49138 479
68.51149 435
68.5316 359
68.55172 321
68.57183 268
68.59195 243
68.61206 250
68.63217 236
68.65229 207
68.6724 214
68.69251 207
68.71263 198
68.73274 201
68.75286 195
68.77297 164
68.79308 186
68.8132 199
68.83331 154
68.85342 194
68.87354 213
68.89365 194
68.91376 162
68.93388 167
68.95399 187
68.97411 172
68.99422 175
69.01433 184
69.03445 168
69.05456 193
69.07467 169
69.09479 186
69.1149 161
69.13502 172
69.15513 180
69.17524 152
69.19536 154
69.21547 156
69.23558 148
69.2557 155
69.27581 146
69.29593 168
69.31604 151
69.33615 153
69.35627 155
69.37638 171
69.39649 171
69.41661 154
69.43672 158
69.45683 156
69.47695 153
69.49706 167
69.51718 152
69.53729 170
69.5574 148
69.57752 163
69.59763 158
69.61774 169
69.63786 162
69.65797 173
69.67809 134
69.6982 163
69.71831 149
69.73843 165
69.75854 164
69.77865 172
69.79877 157
69.81888 169
69.839 141
69.85911 159
69.87922 156
69.89934 155
69.91945 149
69.93956 162
69.95968 156
69.97979 173
69.9999 148
70.02002 146
70.04013 162
70.06025 128
70.08036 163
70.10047 149
70.12059 170
70.1407 164
70.16081 146
70.18093 153
70.20104 170
70.22116 148
70.24127 154
70.26138 141
70.2815 160
70.30161 146
70.32172 166
70.34184 152
70.36195 140
70.38207 143
70.40218 188
70.42229 143
70.44241 163
70.46252 142
70.48263 152
70.50275 142
70.52286 149
70.54297 154
70.56309 154
70.5832 156
70.60332 173
70.62343 154
70.64354 160
70.66366 146
70.68377 152
70.70388 138
70.724 159
70.74411 146
70.76423 154
70.78434 160
70.80445 121
70.82457 146
70.84468 148
70.86479 157
70.88491 154
70.90502 153
70.92513 178
70.94525 166
70.96536 153
70.98548 142
71.00559 135
71.0257 139
71.04582 152
71.06593 155
71.08604 159
71.10616 174
71.12627 174
71.14639 120
71.1665 162
71.18661 153
71.20673 159
71.22684 144
71.24695 134
71.26707 148
71.28718 163
71.3073 155
71.32741 155
71.34752 141
71.36764 156
71.38775 145
71.40786 158
71.42798 143
71.44809 161
71.4682 159
71.48832 149
71.50843 145
71.52855 142
71.54866 184
71.56877 161
71.58889 142
71.609 149
71.62911 158
71.64923 145
71.66934 153
71.68946 140
71.70957 150
71.72968 179
71.7498 149
71.76991 161
71.79002 161
71.81014 141
71.83025 132
71.85037 166
71.87048 144
71.89059 149
71.91071 158
71.93082 171
71.95093 168
71.97105 162
71.99116 153
72.01127 140
72.03139 163
72.0515 161
72.07162 145
72.09173 153
72.11184 164
72.13196 159
72.15207 156
72.17218 140
72.1923 163
72.21241 168
72.23253 148
72.25264 177
72.27275 160
72.29287 153
72.31298 160
72.33309 150
72.35321 151
72.37332 154
72.39344 168
72.41355 141
72.43366 175
72.45378 157
72.47389 170
72.494 163
72.51412 153
72.53423 161
72.55434 156
72.57446 162
72.59457 165
72.61469 183
72.6348 143
72.65491 156
72.67503 178
72.69514 166
72.71525 183
72.73537 169
72.75548 163
72.7756 158
72.79571 164
72.81582 168
72.83594 172
72.85605 158
72.87616 168
72.89628 169
72.91639 175
72.9365 160
72.95662 188
72.97673 166
72.99685 179
73.01696 169
73.03707 207
73.05719 194
73.0773 212
73.09741 203
73.11753 227
73.13764 252
73.15776 225
73.17787 230
73.19798 266
73.2181 276
73.23821 296
73.25832 289
73.27844 317
73.29855 377
73.31867 436
73.33878 444
73.35889 458
73.37901 526
73.39912 545
73.41923 520
73.43935 518
73.45946 487
73.47957 416
73.49969 391
73.5198 379
73.53992 358
73.56003 344
73.58014 353
73.60026 337
73.62037 357
73.64048 335
73.6606 311
73.68071 277
73.70083 265
73.72094 208
73.74105 206
73.76117 180
73.78128 208
73.80139 160
73.82151 178
73.84162 168
73.86174 168
73.88185 156
73.90196 187
73.92208 158
73.94219 168
73.9623 169
73.98242 184
74.00253 171
74.02264 154
74.04276 176
74.06287 173
74.08299 147
74.1031 180
74.12321 149
74.14333 159
74.16344 160
74.18355 162
74.20367 164
74.22378 158
74.2439 155
74.26401 154
74.28412 173
74.30424 183
74.32435 152
74.34446 158
74.36458 179
74.38469 142
74.40481 159
74.42492 172
74.44503 134
74.46515 157
74.48526 149
74.50537 156
74.52549 159
74.5456 178
74.56571 164
74.58583 154
74.60594 144
74.62606 146
74.64617 155
74.66628 156
74.6864 177
74.70651 162
74.72662 143
74.74674 150
74.76685 152
74.78697 164
74.80708 162
74.82719 147
74.84731 141
74.86742 139
74.88753 163
74.90765 166
74.92776 166
74.94787 171
74.96799 165
74.9881 160
75.00822 142
