3.00117 24325
3.02128 23585
3.0414 23263
3.06151 22446
3.08162 21954
3.10174 21057
3.12185 20452
3.14197 20110
3.16208 19125
3.18219 18724
3.20231 18383
3.22242 17714
3.24253 17385
3.26265 16529
3.28276 16346
3.30288 15833
3.32299 15389
3.3431 14927
3.36322 13911
3.38333 13992
3.40344 13468
3.42356 12869
3.44367 12561
3.46379 11951
3.4839 11631
3.50401 11194
3.52413 11031
3.54424 10643
3.56435 10016
3.58447 9793
3.60458 9258
3.62469 9092
3.64481 9044
3.66492 8062
3.68504 8138
3.70515 7648
3.72526 7521
3.74538 7187
3.76549 6714
3.7856 6714
3.80572 6399
3.82583 5958
3.84595 5898
3.86606 5532
3.88617 5322
3.90629 4939
3.9264 4834
3.94651 4813
3.96663 4277
3.98674 4122
4.00686 4065
4.02697 3922
4.04708 3834
4.0672 3397
4.08731 3328
4.10742 3336
4.12754 3107
4.14765 3067
4.16776 2683
4.18788 2751
4.20799 2558
4.22811 2483
4.24822 2551
4.26833 2147
4.28845 2087
4.30856 2140
4.32867 2059
4.34879 2075
4.3689 1865
4.38902 1828
4.40913 1818
4.42924 1714
4.44936 1788
4.46947 1482
4.48958 1588
4.5097 1610
4.52981 1414
4.54992 1510
4.57004 1337
4.59015 1355
4.61027 1341
4.63038 1357
4.65049 1298
4.67061 1192
4.69072 1166
4.71083 1254
4.73095 1115
4.75106 1154
4.77118 1044
4.79129 1033
4.8114 1103
4.83152 1079
4.85163 954
4.87174 990
4.89186 943
4.91197 966
4.93209 891
4.9522 819
4.97231 831
4.99243 767
5.01254 756
5.03265 780
5.05277 762
5.07288 717
5.09299 752
5.11311 747
5.13322 731
5.15334 679
5.17345 624
5.19356 642
5.21368 675
5.23379 651
5.2539 605
5.27402 603
5.29413 524
5.31425 577
5.33436 574
5.35447 494
5.37459 544
5.3947 485
5.41481 484
5.43493 546
5.45504 426
5.47516 484
5.49527 395
5.51538 380
5.5355 439
5.55561 418
5.57572 416
5.59584 387
5.61595 375
5.63606 331
5.65618 350
5.67629 350
5.69641 335
5.71652 360
5.73663 375
5.75675 349
5.77686 336
5.79697 340
5.81709 308
5.8372 315
5.85732 293
5.87743 306
5.89754 282
5.91766 305
5.93777 300
5.95788 329
5.978 283
5.99811 256
6.01823 290
6.03834 276
6.05845 270
6.07857 284
6.09868 284
6.11879 271
6.13891 290
6.15902 252
6.17913 268
6.19925 277
6.21936 275
6.23948 265
6.25959 219
6.2797 264
6.29982 260
6.31993 250
6.34004 262
6.36016 218
6.38027 219
6.40039 274
6.4205 236
6.44061 231
6.46073 238
6.48084 251
6.50095 237
6.52107 239
6.54118 244
6.56129 225
6.58141 220
6.60152 246
6.62164 244
6.64175 211
6.66186 217
6.68198 201
6.70209 217
6.7222 261
6.74232 228
6.76243 225
6.78255 200
6.80266 210
6.82277 208
6.84289 214
6.863 200
6.88311 187
6.90323 213
6.92334 223
6.94346 231
6.96357 209
6.98368 196
7.0038 215
7.02391 248
7.04402 227
7.06414 199
7.08425 192
7.10436 221
7.12448 219
7.14459 224
7.16471 232
7.18482 220
7.20493 228
7.22505 221
7.24516 240
7.26527 216
7.28539 196
7.3055 225
7.32562 224
7.34573 204
7.36584 193
7.38596 228
7.40607 216
7.42618 220
7.4463 211
7.46641 216
7.48653 215
7.50664 207
7.52675 206
7.54687 197
7.56698 228
7.58709 204
7.60721 219
7.62732 200
7.64743 221
7.66755 217
7.68766 202
7.70778 249
7.72789 199
7.748 230
7.76812 202
7.78823 223
7.80834 238
7.82846 237
7.84857 218
7.86869 229
7.8888 255
7.90891 176
7.92903 193
7.94914 229
7.96925 220
7.98937 204
8.00948 214
8.0296 211
8.04971 216
8.06982 199
8.08994 191
8.11005 218
8.13016 225
8.15028 210
8.17039 241
8.1905 208
8.21062 227
8.23073 205
8.25085 193
8.27096 218
8.29107 212
8.31119 207
8.3313 191
8.35141 208
8.37153 202
8.39164 212
8.41176 225
8.43187 216
8.45198 207
8.4721 192
8.49221 205
8.51232 198
8.53244 236
8.55255 221
8.57266 231
8.59278 230
8.61289 227
8.63301 224
8.65312 198
8.67323 209
8.69335 193
8.71346 202
8.73357 221
8.75369 251
8.7738 232
8.79392 212
8.81403 214
8.83414 208
8.85426 229
8.87437 203
8.89448 235
8.9146 231
8.93471 238
8.95483 236
8.97494 238
8.99505 212
9.01517 208
9.03528 248
9.05539 234
9.07551 225
9.09562 248
9.11573 207
9.13585 201
9.15596 224
9.17608 241
9.19619 229
9.2163 238
9.23642 211
9.25653 216
9.27664 218
9.29676 234
9.31687 217
9.33699 243
9.3571 229
9.37721 231
9.39733 228
9.41744 239
9.43755 199
9.45767 210
9.47778 223
9.4979 222
9.51801 216
9.53812 206
9.55824 212
9.57835 209
9.59846 246
9.61858 246
9.63869 233
9.6588 237
9.67892 208
9.69903 210
9.71915 228
9.73926 220
9.75937 208
9.77949 226
9.7996 211
9.81971 218
9.83983 246
9.85994 220
9.88006 195
9.90017 233
9.92028 212
9.9404 252
9.96051 220
9.98062 228
10.00074 201
10.02085 262
10.04097 227
10.06108 251
10.08119 223
10.10131 228
10.12142 228
10.14153 223
10.16165 249
10.18176 219
10.20187 247
10.22199 217
10.2421 216
10.26222 194
10.28233 236
10.30244 205
10.32256 224
10.34267 207
10.36278 185
10.3829 213
10.40301 187
10.42313 229
10.44324 219
10.46335 235
10.48347 220
10.50358 219
10.52369 229
10.54381 217
10.56392 216
10.58403 248
10.60415 225
10.62426 223
10.64438 212
10.66449 231
10.6846 226
10.70472 215
10.72483 243
10.74494 213
10.76506 226
10.78517 263
10.80529 213
10.8254 217
10.84551 246
10.86563 213
10.88574 232
10.90585 232
10.92597 216
10.94608 232
10.9662 215
10.98631 220
11.00642 199
11.02654 235
11.04665 212
11.06676 223
11.08688 220
11.10699 227
11.1271 239
11.14722 223
11.16733 222
11.18745 210
11.20756 201
11.22767 210
11.24779 232
11.2679 226
11.28801 217
11.30813 257
11.32824 195
11.34836 242
11.36847 230
11.38858 240
11.4087 208
11.42881 216
11.44892 219
11.46904 248
11.48915 246
11.50927 247
11.52938 226
11.54949 227
11.56961 251
11.58972 230
11.60983 214
11.62995 246
11.65006 233
11.67017 224
11.69029 248
11.7104 209
11.73052 223
11.75063 259
11.77074 254
11.79086 256
11.81097 234
11.83108 273
11.8512 255
11.87131 301
11.89143 259
11.91154 263
11.93165 272
11.95177 245
11.97188 263
11.99199 264
12.01211 261
12.03222 312
12.05234 361
12.07245 282
12.09256 343
12.11268 363
12.13279 369
12.1529 384
12.17302 377
12.19313 407
12.21324 397
12.23336 415
12.25347 415
12.27359 430
12.2937 455
12.31381 456
12.33393 466
12.35404 428
12.37415 444
12.39427 444
12.41438 401
12.4345 364
12.45461 348
12.47472 324
12.49484 347
12.51495 320
12.53506 309
12.55518 304
12.57529 293
12.5954 265
12.61552 248
12.63563 272
12.65575 244
12.67586 235
12.69597 242
12.71609 229
12.7362 225
12.75631 238
12.77643 245
12.79654 230
12.81666 228
12.83677 197
12.85688 242
12.877 226
12.89711 233
12.91722 226
12.93734 224
12.95745 231
12.97757 231
12.99768 234
13.01779 202
13.03791 209
13.05802 195
13.07813 236
13.09825 201
13.11836 212
13.13847 208
13.15859 192
13.1787 204
13.19882 218
13.21893 230
13.23904 189
13.25916 181
13.27927 195
13.29938 204
13.3195 205
13.33961 198
13.35973 197
13.37984 225
13.39995 213
13.42007 229
13.44018 203
13.46029 204
13.48041 201
13.50052 213
13.52064 212
13.54075 190
13.56086 183
13.58098 203
13.60109 204
13.6212 198
13.64132 169
13.66143 205
13.68154 208
13.70166 225
13.72177 210
13.74189 212
13.762 188
13.78211 198
13.80223 211
13.82234 216
13.84245 182
13.86257 208
13.88268 201
13.9028 208
13.92291 229
13.94302 223
13.96314 214
13.98325 210
14.00336 220
14.02348 218
14.04359 181
14.06371 230
14.08382 209
14.10393 186
14.12405 186
14.14416 239
14.16427 201
14.18439 165
14.2045 192
14.22461 215
14.24473 200
14.26484 176
14.28496 200
14.30507 188
14.32518 183
14.3453 181
14.36541 193
14.38552 180
14.40564 208
14.42575 208
14.44587 193
14.46598 208
14.48609 209
14.50621 210
14.52632 206
14.54643 176
14.56655 187
14.58666 205
14.60677 207
14.62689 190
14.647 201
14.66712 163
14.68723 199
14.70734 199
14.72746 181
14.74757 174
14.76768 184
14.7878 208
14.80791 214
14.82803 215
14.84814 198
14.86825 197
14.88837 196
14.90848 188
14.92859 158
14.94871 204
14.96882 174
14.98894 205
15.00905 222
15.02916 219
15.04928 162
15.06939 183
15.0895 220
15.10962 215
15.12973 202
15.14984 217
15.16996 199
15.19007 167
15.21019 182
15.2303 206
15.25041 178
15.27053 185
15.29064 190
15.31075 194
15.33087 198
15.35098 193
15.3711 179
15.39121 168
15.41132 167
15.43144 181
15.45155 215
15.47166 209
15.49178 172
15.51189 207
15.53201 183
15.55212 175
15.57223 160
15.59235 202
15.61246 182
15.63257 206
15.65269 177
15.6728 177
15.69291 158
15.71303 195
15.73314 186
15.75326 179
15.77337 197
15.79348 152
15.8136 186
15.83371 184
15.85382 186
15.87394 172
15.89405 191
15.91417 181
15.93428 203
15.95439 194
15.97451 177
15.99462 201
16.01473 189
16.03485 213
16.05496 180
16.07508 179
16.09519 195
16.1153 191
16.13542 192
16.15553 224
16.17564 174
16.19576 188
16.21587 204
16.23598 199
16.2561 193
16.27621 187
16.29633 189
16.31644 166
16.33655 186
16.35667 172
16.37678 186
16.39689 176
16.41701 198
16.43712 179
16.45724 194
16.47735 183
16.49746 189
16.51758 187
16.53769 169
16.5578 175
16.57792 214
16.59803 178
16.61814 198
16.63826 199
16.65837 151
16.67849 163
16.6986 192
16.71871 182
16.73883 190
16.75894 189
16.77905 196
16.79917 185
16.81928 196
16.8394 174
16.85951 162
16.87962 170
16.89974 182
16.91985 188
16.93996 173
16.96008 182
16.98019 191
17.00031 192
17.02042 198
17.04053 148
17.06065 166
17.08076 200
17.10087 198
17.12099 179
17.1411 172
17.16121 182
17.18133 178
17.20144 183
17.22156 212
17.24167 190
17.26178 213
17.2819 197
17.30201 159
17.32212 180
17.34224 190
17.36235 180
17.38247 196
17.40258 172
17.42269 185
17.44281 179
17.46292 185
17.48303 202
17.50315 178
17.52326 181
17.54338 178
17.56349 179
17.5836 189
17.60372 167
17.62383 198
17.64394 166
17.66406 179
17.68417 214
17.70428 164
17.7244 175
17.74451 178
17.76463 209
17.78474 198
17.80485 200
17.82497 183
17.84508 198
17.86519 190
17.88531 189
17.90542 193
17.92554 203
17.94565 183
17.96576 197
17.98588 179
18.00599 196
18.0261 173
18.04622 182
18.06633 186
18.08645 187
18.10656 175
18.12667 191
18.14679 194
18.1669 195
18.18701 174
18.20713 185
18.22724 156
18.24735 168
18.26747 184
18.28758 193
18.3077 189
18.32781 183
18.34792 197
18.36804 173
18.38815 177
18.40826 196
18.42838 160
18.44849 167
18.46861 173
18.48872 178
18.50883 194
18.52895 182
18.54906 180
18.56917 186
18.58929 165
18.6094 203
18.62951 198
18.64963 208
18.66974 204
18.68986 192
18.70997 182
18.73008 168
18.7502 182
18.77031 187
18.79042 209
18.81054 218
18.83065 197
18.85077 174
18.87088 197
18.89099 207
18.91111 189
18.93122 183
18.95133 193
18.97145 163
18.99156 207
19.01168 188
19.03179 184
19.0519 175
19.07202 225
19.09213 174
19.11224 206
19.13236 190
19.15247 207
19.17258 186
19.1927 205
19.21281 190
19.23293 176
19.25304 193
19.27315 167
19.29327 193
19.31338 199
19.33349 227
19.35361 206
19.37372 164
19.39384 206
19.41395 194
19.43406 178
19.45418 188
19.47429 158
19.4944 192
19.51452 218
19.53463 223
19.55475 218
19.57486 197
19.59497 243
19.61509 262
19.6352 248
19.65531 227
19.67543 269
19.69554 229
19.71565 281
19.73577 280
19.75588 334
19.776 289
19.79611 330
19.81622 374
19.83634 353
19.85645 356
19.87656 410
19.89668 398
19.91679 412
19.93691 433
19.95702 388
19.97713 397
19.99725 369
20.01736 383
20.03747 408
20.05759 399
20.0777 366
20.09782 379
20.11793 392
20.13804 395
20.15816 404
20.17827 375
20.19838 405
20.2185 418
20.23861 402
20.25872 484
20.27884 415
20.29895 396
20.31907 439
20.33918 449
20.35929 436
20.37941 459
20.39952 458
20.41963 473
20.43975 461
20.45986 534
20.47998 514
20.50009 526
20.5202 568
20.54032 559
20.56043 568
20.58054 642
20.60066 672
20.62077 749
20.64088 866
20.661 1029
20.68111 1305
20.70123 1795
20.72134 2210
20.74145 3107
20.76157 4324
20.78168 5665
20.80179 6881
20.82191 7990
20.84202 8319
20.86214 7922
20.88225 6742
20.90236 4974
20.92248 3553
20.94259 2375
20.9627 1524
20.98282 1058
21.00293 834
21.02305 656
21.04316 657
21.06327 560
21.08339 559
21.1035 526
21.12361 515
21.14373 479
21.16384 473
21.18395 437
21.20407 447
21.22418 444
21.2443 414
21.26441 407
21.28452 425
21.30464 369
21.32475 389
21.34486 405
21.36498 346
21.38509 360
21.40521 326
21.42532 372
21.44543 343
21.46555 360
21.48566 367
21.50577 349
21.52589 318
21.546 317
21.56612 338
21.58623 341
21.60634 373
21.62646 314
21.64657 321
21.66668 282
21.6868 262
21.70691 300
21.72702 317
21.74714 310
21.76725 287
21.78737 308
21.80748 316
21.82759 267
21.84771 275
21.86782 293
21.88793 283
21.90805 297
21.92816 297
21.94828 266
21.96839 263
21.9885 270
22.00862 288
22.02873 284
22.04884 295
22.06896 268
22.08907 278
22.10919 281
22.1293 261
22.14941 307
22.16953 277
22.18964 277
22.20975 302
22.22987 278
22.24998 267
22.27009 283
22.29021 259
22.31032 285
22.33044 250
22.35055 308
22.37066 260
22.39078 289
22.41089 269
22.431 256
22.45112 252
22.47123 286
22.49135 276
22.51146 283
22.53157 262
22.55169 225
22.5718 257
22.59191 298
22.61203 243
22.63214 222
22.65225 279
22.67237 284
22.69248 241
22.7126 248
22.73271 270
22.75282 249
22.77294 245
22.79305 239
22.81316 232
22.83328 219
22.85339 258
22.87351 234
22.89362 271
22.91373 259
22.93385 266
22.95396 277
22.97407 249
22.99419 255
23.0143 269
23.03442 245
23.05453 275
23.07464 269
23.09476 235
23.11487 238
23.13498 235
23.1551 246
23.17521 246
23.19532 254
23.21544 250
23.23555 225
23.25567 255
23.27578 240
23.29589 237
23.31601 222
23.33612 254
23.35623 248
23.37635 243
23.39646 248
23.41658 218
23.43669 226
23.4568 245
23.47692 239
23.49703 234
23.51714 244
23.53726 248
23.55737 226
23.57749 241
23.5976 252
23.61771 240
23.63783 262
23.65794 263
23.67805 277
23.69817 242
23.71828 250
23.73839 232
23.75851 262
23.77862 256
23.79874 272
23.81885 267
23.83896 275
23.85908 309
23.87919 267
23.8993 301
23.91942 310
23.93953 302
23.95965 306
23.97976 360
23.99987 309
24.01999 323
24.0401 340
24.06021 320
24.08033 293
24.10044 317
24.12056 256
24.14067 258
24.16078 255
24.1809 269
24.20101 285
24.22112 242
24.24124 258
24.26135 259
24.28146 246
24.30158 297
24.32169 264
24.34181 275
24.36192 252
24.38203 256
24.40215 266
24.42226 239
24.44237 275
24.46249 272
24.4826 292
24.50272 286
24.52283 328
24.54294 320
24.56306 299
24.58317 318
24.60328 320
24.6234 311
24.64351 372
24.66362 348
24.68374 388
24.70385 357
24.72397 375
24.74408 412
24.76419 409
24.78431 421
24.80442 429
24.82453 434
24.84465 388
24.86476 404
24.88488 361
24.90499 412
24.9251 359
24.94522 367
24.96533 350
24.98544 334
25.00556 341
25.02567 343
25.04579 345
25.0659 312
25.08601 340
25.10613 311
25.12624 296
25.14635 338
25.16647 304
25.18658 326
25.20669 327
25.22681 322
25.24692 295
25.26704 313
25.28715 285
25.30726 250
25.32738 321
25.34749 260
25.3676 336
25.38772 286
25.40783 269
25.42795 314
25.44806 262
25.46817 279
25.48829 346
25.5084 288
25.52851 306
25.54863 307
25.56874 373
25.58886 363
25.60897 349
25.62908 379
25.6492 389
25.66931 384
25.68942 421
25.70954 506
25.72965 475
25.74976 497
25.76988 526
25.78999 504
25.81011 536
25.83022 507
25.85033 500
25.87045 515
25.89056 526
25.91067 542
25.93079 581
25.9509 591
25.97102 570
25.99113 591
26.01124 588
26.03136 689
26.05147 702
26.07158 712
26.0917 761
26.11181 794
26.13193 854
26.15204 912
26.17215 948
26.19227 1080
26.21238 1067
26.23249 1161
26.25261 1208
26.27272 1340
26.29283 1614
26.31295 1639
26.33306 1781
26.35318 2119
26.37329 2493
26.3934 2942
26.41352 3588
26.43363 4730
26.45374 6075
26.47386 8292
26.49397 11157
26.51409 15293
26.5342 20098
26.55431 25865
26.57443 32214
26.59454 36634
26.61465 37920
26.63477 36068
26.65488 31027
26.67499 24400
26.69511 18060
26.71522 13005
26.73534 8299
26.75545 5318
26.77556 3431
26.79568 2591
26.81579 2146
26.8359 1800
26.85602 1626
26.87613 1468
26.89625 1357
26.91636 1262
26.93647 1070
26.95659 1014
26.9767 907
26.99681 846
27.01693 786
27.03704 719
27.05716 707
27.07727 636
27.09738 588
27.1175 580
27.13761 563
27.15772 552
27.17784 572
27.19795 505
27.21806 476
27.23818 535
27.25829 487
27.27841 506
27.29852 454
27.31863 512
27.33875 477
27.35886 452
27.37897 464
27.39909 424
27.4192 463
27.43932 460
27.45943 457
27.47954 397
27.49966 431
27.51977 449
27.53988 449
27.56 417
27.58011 378
27.60023 414
27.62034 371
27.64045 408
27.66057 354
27.68068 386
27.70079 362
27.72091 326
27.74102 382
27.76113 348
27.78125 344
27.80136 324
27.82148 311
27.84159 300
27.8617 334
27.88182 359
27.90193 326
27.92204 309
27.94216 317
27.96227 319
27.98239 332
28.0025 334
28.02261 321
28.04273 292
28.06284 297
28.08295 304
28.10307 303
28.12318 289
28.1433 327
28.16341 303
28.18352 297
28.20364 322
28.22375 257
28.24386 270
28.26398 296
28.28409 290
28.3042 301
28.32432 313
28.34443 264
28.36455 280
28.38466 331
28.40477 291
28.42489 276
28.445 308
28.46511 292
28.48523 270
28.50534 284
28.52546 303
28.54557 285
28.56568 271
28.5858 279
28.60591 285
28.62602 255
28.64614 277
28.66625 270
28.68636 247
28.70648 301
28.72659 270
28.74671 260
28.76682 263
28.78693 248
28.80705 275
28.82716 258
28.84727 264
28.86739 271
28.8875 256
28.90762 259
28.92773 254
28.94784 285
28.96796 278
28.98807 268
29.00818 243
29.0283 292
29.04841 275
29.06853 259
29.08864 273
29.10875 247
29.12887 279
29.14898 247
29.16909 236
29.18921 259
29.20932 241
29.22943 270
29.24955 253
29.26966 260
29.28978 254
29.30989 272
29.33 257
29.35012 250
29.37023 257
29.39034 284
29.41046 238
29.43057 247
29.45069 262
29.4708 237
29.49091 255
29.51103 256
29.53114 262
29.55125 259
29.57137 221
29.59148 229
29.6116 239
29.63171 233
29.65182 245
29.67194 224
29.69205 242
29.71216 245
29.73228 241
29.75239 246
29.7725 214
29.79262 240
29.81273 241
29.83285 223
29.85296 243
29.87307 253
29.89319 207
29.9133 233
29.93341 230
29.95353 228
29.97364 241
29.99376 226
30.01387 229
30.03398 255
30.0541 230
30.07421 262
30.09432 240
30.11444 204
30.13455 198
30.15467 227
30.17478 226
30.19489 230
30.21501 201
30.23512 238
30.25523 243
30.27535 230
30.29546 202
30.31557 229
30.33569 226
30.3558 212
30.37592 257
30.39603 233
30.41614 230
30.43626 214
30.45637 210
30.47648 225
30.4966 225
30.51671 224
30.53683 237
30.55694 209
30.57705 218
30.59717 223
30.61728 215
30.63739 213
30.65751 221
30.67762 214
30.69773 237
30.71785 216
30.73796 227
30.75808 249
30.77819 228
30.7983 201
30.81842 192
30.83853 223
30.85864 237
30.87876 227
30.89887 201
30.91899 209
30.9391 240
30.95921 213
30.97933 204
30.99944 196
31.01955 212
31.03967 218
31.05978 233
31.0799 234
31.10001 209
31.12012 225
31.14024 234
31.16035 209
31.18046 218
31.20058 214
31.22069 206
31.2408 215
31.26092 189
31.28103 209
31.30115 196
31.32126 203
31.34137 228
31.36149 204
31.3816 205
31.40171 190
31.42183 205
31.44194 193
31.46206 184
31.48217 209
31.50228 217
31.5224 208
31.54251 208
31.56262 209
31.58274 196
31.60285 187
31.62297 206
31.64308 185
31.66319 224
31.68331 202
31.70342 195
31.72353 187
31.74365 192
31.76376 214
31.78387 213
31.80399 176
31.8241 204
31.84422 184
31.86433 215
31.88444 188
31.90456 188
31.92467 199
31.94478 197
31.9649 189
31.98501 204
32.00513 217
32.02524 204
32.04535 182
32.06547 211
32.08558 189
32.10569 213
32.12581 231
32.14592 202
32.16604 213
32.18615 213
32.20626 229
32.22638 233
32.24649 212
32.2666 207
32.28672 190
32.30683 214
32.32694 192
32.34706 209
32.36717 194
32.38729 200
32.4074 223
32.42751 181
32.44763 217
32.46774 208
32.48785 224
32.50797 229
32.52808 229
32.5482 206
32.56831 212
32.58842 219
32.60854 217
32.62865 198
32.64876 218
32.66888 181
32.68899 241
32.7091 196
32.72922 186
32.74933 203
32.76945 192
32.78956 223
32.80967 218
32.82979 212
32.8499 157
32.87001 242
32.89013 222
32.91024 222
32.93036 189
32.95047 229
32.97058 196
32.9907 201
33.01081 194
33.03092 187
33.05104 213
33.07115 183
33.09127 202
33.11138 213
33.13149 215
33.15161 181
33.17172 203
33.19183 230
33.21195 200
33.23206 180
33.25217 228
33.27229 219
33.2924 201
33.31252 195
33.33263 175
33.35274 195
33.37286 232
33.39297 194
33.41308 214
33.4332 194
33.45331 198
33.47343 192
33.49354 186
33.51365 208
33.53377 190
33.55388 191
33.57399 177
33.59411 189
33.61422 203
33.63434 190
33.65445 199
33.67456 192
33.69468 178
33.71479 170
33.7349 162
33.75502 199
33.77513 170
33.79524 185
33.81536 184
33.83547 191
33.85559 170
33.8757 190
33.89581 184
33.91593 166
33.93604 174
33.95615 178
33.97627 194
33.99638 162
34.0165 180
34.03661 179
34.05672 171
34.07684 192
34.09695 162
34.11706 160
34.13718 198
34.15729 187
34.17741 173
34.19752 157
34.21763 185
34.23775 185
34.25786 166
34.27797 168
34.29809 167
34.3182 161
34.33831 182
34.35843 177
34.37854 191
34.39866 166
34.41877 180
34.43888 173
34.459 190
34.47911 186
34.49922 208
34.51934 200
34.53945 187
34.55957 183
34.57968 194
34.59979 185
34.61991 175
34.64002 195
34.66013 215
34.68025 216
34.70036 234
34.72047 219
34.74059 228
34.7607 215
34.78082 240
34.80093 193
34.82104 233
34.84116 254
34.86127 266
34.88138 242
34.9015 271
34.92161 249
34.94173 232
34.96184 300
34.98195 251
35.00207 253
35.02218 220
35.04229 268
35.06241 228
35.08252 229
35.10264 210
35.12275 235
35.14286 254
35.16298 208
35.18309 253
35.2032 236
35.22332 235
35.24343 237
35.26354 255
35.28366 266
35.30377 230
35.32389 259
35.344 250
35.36411 275
35.38423 231
35.40434 254
35.42445 256
35.44457 245
35.46468 265
35.4848 272
35.50491 261
35.52502 258
35.54514 268
35.56525 272
35.58536 277
35.60548 275
35.62559 272
35.64571 265
35.66582 269
35.68593 267
35.70605 275
35.72616 267
35.74627 281
35.76639 280
35.7865 283
35.80661 277
35.82673 282
35.84684 314
35.86696 284
35.88707 253
35.90718 246
35.9273 259
35.94741 276
35.96752 253
35.98764 274
36.00775 287
36.02787 320
36.04798 300
36.06809 303
36.08821 288
36.10832 269
36.12843 290
36.14855 318
36.16866 370
36.18878 340
36.20889 349
36.229 387
36.24912 376
36.26923 430
36.28934 491
36.30946 550
36.32957 583
36.34968 765
36.3698 901
36.38991 1055
36.41003 1344
36.43014 1697
36.45025 1977
36.47037 2299
36.49048 2565
36.51059 2740
36.53071 2591
36.55082 2283
36.57094 1818
36.59105 1593
36.61116 1364
36.63128 1182
36.65139 869
36.6715 624
36.69162 457
36.71173 405
36.73184 370
36.75196 309
36.77207 331
36.79219 334
36.8123 311
36.83241 315
36.85253 290
36.87264 286
36.89275 252
36.91287 294
36.93298 254
36.9531 288
36.97321 238
36.99332 266
37.01344 247
37.03355 240
37.05366 209
37.07378 238
37.09389 210
37.11401 220
37.13412 215
37.15423 242
37.17435 218
37.19446 217
37.21457 245
37.23469 240
37.2548 238
37.27491 212
37.29503 199
37.31514 193
37.33526 207
37.35537 221
37.37548 227
37.3956 236
37.41571 219
37.43582 210
37.45594 235
37.47605 211
37.49617 217
37.51628 208
37.53639 228
37.55651 228
37.57662 228
37.59673 233
37.61685 246
37.63696 242
37.65708 221
37.67719 214
37.6973 225
37.71742 243
37.73753 258
37.75764 210
37.77776 233
37.79787 250
37.81798 219
37.8381 236
37.85821 232
37.87833 212
37.89844 230
37.91855 216
37.93867 201
37.95878 226
37.97889 250
37.99901 241
38.01912 229
38.03924 247
38.05935 249
38.07946 249
38.09958 230
38.11969 223
38.1398 254
38.15992 234
38.18003 255
38.20015 243
38.22026 266
38.24037 235
38.26049 248
38.2806 244
38.30071 223
38.32083 256
38.34094 256
38.36105 258
38.38117 245
38.40128 255
38.4214 257
38.44151 289
38.46162 252
38.48174 251
38.50185 215
38.52196 232
38.54208 232
38.56219 255
38.58231 257
38.60242 264
38.62253 265
38.64265 237
38.66276 251
38.68287 259
38.70299 208
38.7231 239
38.74321 243
38.76333 260
38.78344 257
38.80356 240
38.82367 249
38.84378 265
38.8639 255
38.88401 235
38.90412 241
38.92424 269
38.94435 263
38.96447 283
38.98458 255
39.00469 274
39.02481 282
39.04492 308
39.06503 283
39.08515 323
39.10526 337
39.12538 328
39.14549 334
39.1656 381
39.18572 403
39.20583 451
39.22594 492
39.24606 523
39.26617 688
39.28628 758
39.3064 976
39.32651 1220
39.34663 1425
39.36674 1749
39.38685 2019
39.40697 2312
39.42708 2489
39.44719 2300
39.46731 2105
39.48742 1930
39.50754 1501
39.52765 1287
39.54776 1189
39.56788 923
39.58799 774
39.6081 538
39.62822 429
39.64833 363
39.66845 360
39.68856 294
39.70867 275
39.72879 299
39.7489 278
39.76901 256
39.78913 260
39.80924 269
39.82935 243
39.84947 262
39.86958 284
39.8897 262
39.90981 284
39.92992 273
39.95004 296
39.97015 266
39.99026 310
40.01038 338
40.03049 332
40.05061 381
40.07072 398
40.09083 450
40.11095 473
40.13106 624
40.15117 714
40.17129 820
40.1914 948
40.21152 1106
40.23163 1224
40.25174 1273
40.27186 1250
40.29197 1095
40.31208 965
40.3322 838
40.35231 748
40.37242 611
40.39254 581
40.41265 474
40.43277 361
40.45288 306
40.47299 249
40.49311 259
40.51322 224
40.53333 240
40.55345 229
40.57356 214
40.59368 235
40.61379 194
40.6339 218
40.65402 228
40.67413 234
40.69424 200
40.71436 199
40.73447 232
40.75458 204
40.7747 228
40.79481 200
40.81493 209
40.83504 196
40.85515 226
40.87527 221
40.89538 206
40.91549 215
40.93561 220
40.95572 194
40.97584 204
40.99595 213
41.01606 204
41.03618 213
41.05629 219
41.0764 213
41.09652 213
41.11663 220
41.13675 220
41.15686 204
41.17697 217
41.19709 202
41.2172 190
41.23731 214
41.25743 203
41.27754 218
41.29765 214
41.31777 219
41.33788 205
41.358 208
41.37811 225
41.39822 220
41.41834 217
41.43845 192
41.45856 222
41.47868 227
41.49879 221
41.51891 185
41.53902 193
41.55913 192
41.57925 184
41.59936 192
41.61947 186
41.63959 206
41.6597 203
41.67982 198
41.69993 224
41.72004 208
41.74016 204
41.76027 212
41.78038 241
41.8005 210
41.82061 223
41.84072 239
41.86084 208
41.88095 225
41.90107 212
41.92118 219
41.94129 244
41.96141 223
41.98152 235
42.00163 257
42.02175 223
42.04186 227
42.06198 257
42.08209 269
42.1022 274
42.12232 273
42.14243 304
42.16254 333
42.18266 381
42.20277 403
42.22289 449
42.243 534
42.26311 659
42.28323 713
42.30334 869
42.32345 1039
42.34357 1310
42.36368 1482
42.38379 1656
42.40391 1713
42.42402 1722
42.44414 1590
42.46425 1301
42.48436 1197
42.50448 1025
42.52459 985
42.5447 842
42.56482 614
42.58493 523
42.60505 358
42.62516 315
42.64527 253
42.66539 278
42.6855 251
42.70561 217
42.72573 217
42.74584 241
42.76595 203
42.78607 184
42.80618 216
42.8263 200
42.84641 181
42.86652 189
42.88664 204
42.90675 189
42.92686 187
42.94698 197
42.96709 184
42.98721 205
43.00732 171
43.02743 186
43.04755 208
43.06766 169
43.08777 161
43.10789 205
43.128 177
43.14812 181
43.16823 189
43.18834 186
43.20846 224
43.22857 189
43.24868 177
43.2688 174
43.28891 198
43.30902 195
43.32914 203
43.34925 201
43.36937 156
43.38948 190
43.40959 185
43.42971 183
43.44982 176
43.46993 162
43.49005 186
43.51016 163
43.53028 159
43.55039 190
43.5705 173
43.59062 179
43.61073 189
43.63084 183
43.65096 181
43.67107 194
43.69119 177
43.7113 175
43.73141 170
43.75153 166
43.77164 179
43.79175 184
43.81187 164
43.83198 196
43.85209 167
43.87221 167
43.89232 165
43.91244 175
43.93255 188
43.95266 189
43.97278 184
43.99289 162
44.013 205
44.03312 168
44.05323 166
44.07335 169
44.09346 180
44.11357 186
44.13369 170
44.1538 182
44.17391 171
44.19403 164
44.21414 179
44.23426 164
44.25437 171
44.27448 168
44.2946 170
44.31471 194
44.33482 193
44.35494 173
44.37505 170
44.39516 174
44.41528 168
44.43539 198
44.45551 168
44.47562 202
44.49573 196
44.51585 171
44.53596 167
44.55607 175
44.57619 184
44.5963 150
44.61642 170
44.63653 187
44.65664 153
44.67676 166
44.69687 182
44.71698 196
44.7371 189
44.75721 180
44.77732 173
44.79744 164
44.81755 182
44.83767 191
44.85778 196
44.87789 201
44.89801 198
44.91812 171
44.93823 190
44.95835 183
44.97846 170
44.99858 175
45.01869 174
45.0388 201
45.05892 192
45.07903 207
45.09914 192
45.11926 204
45.13937 179
45.15949 169
45.1796 210
45.19971 195
45.21983 180
45.23994 225
45.26005 194
45.28017 227
45.30028 181
45.32039 201
45.34051 211
45.36062 219
45.38074 231
45.40085 228
45.42096 225
45.44108 260
45.46119 258
45.4813 265
45.50142 302
45.52153 301
45.54165 334
45.56176 372
45.58187 473
45.60199 442
45.6221 535
45.64221 647
45.66233 720
45.68244 856
45.70256 1074
45.72267 1140
45.74278 1170
45.7629 1164
45.78301 1050
45.80312 949
45.82324 843
45.84335 748
45.86346 695
45.88358 685
45.90369 537
45.92381 436
45.94392 325
45.96403 290
45.98415 281
46.00426 238
46.02437 201
46.04449 227
46.0646 207
46.08472 228
46.10483 193
46.12494 210
46.14506 185
46.16517 181
46.18528 206
46.2054 225
46.22551 197
46.24563 208
46.26574 190
46.28585 189
46.30597 185
46.32608 206
46.34619 158
46.36631 164
46.38642 191
46.40653 170
46.42665 173
46.44676 188
46.46688 175
46.48699 181
46.5071 185
46.52722 183
46.54733 170
46.56744 177
46.58756 196
46.60767 191
46.62779 140
46.6479 196
46.66801 173
46.68813 192
46.70824 173
46.72835 186
46.74847 167
46.76858 186
46.78869 184
46.80881 188
46.82892 167
46.84904 149
46.86915 175
46.88926 164
46.90938 175
46.92949 162
46.9496 211
46.96972 158
46.98983 173
47.00995 167
47.03006 182
47.05017 160
47.07029 165
47.0904 159
47.11051 193
47.13063 170
47.15074 176
47.17086 168
47.19097 157
47.21108 181
47.2312 179
47.25131 183
47.27142 178
47.29154 175
47.31165 166
47.33176 169
47.35188 171
47.37199 165
47.39211 157
47.41222 183
47.43233 180
47.45245 175
47.47256 182
47.49267 184
47.51279 155
47.5329 170
47.55302 179
47.57313 183
47.59324 154
47.61336 180
47.63347 178
47.65358 161
47.6737 180
47.69381 161
47.71393 161
47.73404 171
47.75415 159
47.77427 174
47.79438 176
47.81449 180
47.83461 174
47.85472 150
47.87483 155
47.89495 166
47.91506 171
47.93518 170
47.95529 173
47.9754 164
47.99552 187
48.01563 138
48.03574 168
48.05586 171
48.07597 171
48.09609 165
48.1162 176
48.13631 199
48.15643 169
48.17654 167
48.19665 165
48.21677 165
48.23688 171
48.257 187
48.27711 171
48.29722 180
48.31734 188
48.33745 176
48.35756 171
48.37768 178
48.39779 161
48.4179 179
48.43802 177
48.45813 157
48.47825 181
48.49836 192
48.51847 171
48.53859 174
48.5587 163
48.57881 163
48.59893 209
48.61904 159
48.63916 191
48.65927 166
48.67938 179
48.6995 162
48.71961 183
48.73972 189
48.75984 188
48.77995 193
48.80006 178
48.82018 192
48.84029 183
48.86041 218
48.88052 185
48.90063 176
48.92075 183
48.94086 172
48.96097 187
48.98109 185
49.0012 189
49.02132 189
49.04143 184
49.06154 190
49.08166 188
49.10177 193
49.12188 202
49.142 182
49.16211 191
49.18223 205
49.20234 201
49.22245 181
49.24257 203
49.26268 201
49.28279 197
49.30291 190
49.32302 210
49.34313 225
49.36325 206
49.38336 232
49.40348 240
49.42359 242
49.4437 240
49.46382 222
49.48393 242
49.50404 220
49.52416 237
49.54427 274
49.56439 247
49.5845 265
49.60461 273
49.62473 262
49.64484 271
49.66495 286
49.68507 287
49.70518 338
49.7253 356
49.74541 391
49.76552 388
49.78564 431
49.80575 482
49.82586 537
49.84598 594
49.86609 697
49.8862 809
49.90632 898
49.92643 1054
49.94655 1285
49.96666 1542
49.98677 2043
50.00689 2349
50.027 2843
50.04711 3243
50.06723 3664
50.08734 3776
50.10746 3592
50.12757 3171
50.14768 2623
50.1678 2383
50.18791 2177
50.20802 2042
50.22814 1826
50.24825 1656
50.26837 1329
50.28848 943
50.30859 712
50.32871 516
50.34882 454
50.36893 376
50.38905 355
50.40916 351
50.42927 337
50.44939 265
50.4695 287
50.48962 298
50.50973 306
50.52984 301
50.54996 317
50.57007 296
50.59018 283
50.6103 317
50.63041 287
50.65053 259
50.67064 240
50.69075 255
50.71087 265
50.73098 246
50.75109 229
50.77121 230
50.79132 211
50.81143 213
50.83155 215
50.85166 236
50.87178 207
50.89189 196
50.912 178
50.93212 202
50.95223 177
50.97234 179
50.99246 210
51.01257 216
51.03269 167
51.0528 170
51.07291 167
51.09303 185
51.11314 186
51.13325 164
51.15337 165
51.17348 159
51.1936 170
51.21371 174
51.23382 159
51.25394 170
51.27405 146
51.29416 170
51.31428 179
51.33439 163
51.3545 163
51.37462 169
51.39473 168
51.41485 168
51.43496 155
51.45507 165
51.47519 159
51.4953 176
51.51541 158
51.53553 159
51.55564 158
51.57576 157
51.59587 158
51.61598 153
51.6361 161
51.65621 147
51.67632 169
51.69644 162
51.71655 163
51.73667 177
51.75678 152
51.77689 147
51.79701 150
51.81712 168
51.83723 161
51.85735 159
51.87746 173
51.89757 154
51.91769 136
51.9378 142
51.95792 144
51.97803 185
51.99814 173
52.01826 159
52.03837 182
52.05848 142
52.0786 146
52.09871 140
52.11883 155
52.13894 176
52.15905 163
52.17917 140
52.19928 155
52.21939 154
52.23951 151
52.25962 136
52.27974 166
52.29985 148
52.31996 140
52.34008 164
52.36019 153
52.3803 153
52.40042 130
52.42053 147
52.44064 145
52.46076 144
52.48087 146
52.50099 163
52.5211 150
52.54121 145
52.56133 161
52.58144 162
52.60155 134
52.62167 176
52.64178 174
52.6619 162
52.68201 172
52.70212 150
52.72224 153
52.74235 169
52.76246 147
52.78258 180
52.80269 173
52.8228 169
52.84292 172
52.86303 170
52.88315 186
52.90326 167
52.92337 162
52.94349 170
52.9636 177
52.98371 140
53.00383 158
53.02394 179
53.04406 198
53.06417 178
53.08428 192
53.1044 181
53.12451 203
53.14462 175
53.16474 181
53.18485 175
53.20497 160
53.22508 218
53.24519 177
53.26531 184
53.28542 209
53.30553 176
53.32565 189
53.34576 145
53.36587 199
53.38599 195
53.4061 182
53.42622 194
53.44633 207
53.46644 185
53.48656 191
53.50667 172
53.52678 182
53.5469 191
53.56701 161
53.58713 171
53.60724 189
53.62735 188
53.64747 157
53.66758 191
53.68769 187
53.70781 194
53.72792 202
53.74804 180
53.76815 201
53.78826 202
53.80838 188
53.82849 191
53.8486 184
53.86872 167
53.88883 198
53.90894 228
53.92906 207
53.94917 192
53.96929 191
53.9894 209
54.00951 184
54.02963 207
54.04974 204
54.06985 204
54.08997 181
54.11008 187
54.1302 219
54.15031 196
54.17042 224
54.19054 208
54.21065 220
54.23076 213
54.25088 204
54.27099 232
54.29111 204
54.31122 209
54.33133 224
54.35145 224
54.37156 237
54.39167 259
54.41179 236
54.4319 236
54.45201 246
54.47213 280
54.49224 280
54.51236 258
54.53247 306
54.55258 284
54.5727 308
54.59281 326
54.61292 382
54.63304 419
54.65315 396
54.67327 568
54.69338 603
54.71349 684
54.73361 788
54.75372 964
54.77383 1044
54.79395 1215
54.81406 1120
54.83417 1212
54.85429 1097
54.8744 966
54.89452 828
54.91463 759
54.93474 751
54.95486 783
54.97497 702
54.99508 666
55.0152 591
55.03531 459
55.05543 421
55.07554 398
55.09565 351
55.11577 389
55.13588 372
55.15599 417
55.17611 465
55.19622 515
55.21634 551
55.23645 587
55.25656 602
55.27668 627
55.29679 605
55.3169 524
55.33702 490
55.35713 454
55.37724 418
55.39736 409
55.41747 389
55.43759 418
55.4577 358
55.47781 308
55.49793 267
55.51804 265
55.53815 236
55.55827 228
55.57838 232
55.5985 218
55.61861 219
55.63872 186
55.65884 185
55.67895 229
55.69906 213
55.71918 180
55.73929 192
55.75941 193
55.77952 204
55.79963 191
55.81975 178
55.83986 208
55.85997 166
55.88009 167
55.9002 183
55.92031 194
55.94043 152
55.96054 192
55.98066 194
56.00077 162
56.02088 169
56.041 159
56.06111 175
56.08122 185
56.10134 176
56.12145 181
56.14157 177
56.16168 183
56.18179 180
56.20191 152
56.22202 172
56.24213 151
56.26225 166
56.28236 169
56.30248 167
56.32259 162
56.3427 176
56.36282 191
56.38293 176
56.40304 169
56.42316 160
56.44327 147
56.46338 174
56.4835 148
56.50361 180
56.52373 165
56.54384 143
56.56395 159
56.58407 170
56.60418 174
56.62429 170
56.64441 153
56.66452 166
56.68464 183
56.70475 165
56.72486 153
56.74498 170
56.76509 154
56.7852 182
56.80532 155
56.82543 163
56.84554 170
56.86566 173
56.88577 177
56.90589 172
56.926 146
56.94611 173
56.96623 160
56.98634 187
57.00645 182
57.02657 173
57.04668 163
57.0668 180
57.08691 204
57.10702 204
57.12714 199
57.14725 211
57.16736 243
57.18748 214
57.20759 218
57.22771 212
57.24782 223
57.26793 198
57.28805 198
57.30816 195
57.32827 180
57.34839 191
57.3685 175
57.38861 181
57.40873 156
57.42884 151
57.44896 177
57.46907 180
57.48918 182
57.5093 170
57.52941 156
57.54952 148
57.56964 166
57.58975 138
57.60987 175
57.62998 168
57.65009 152
57.67021 150
57.69032 176
57.71043 173
57.73055 150
57.75066 162
57.77078 157
57.79089 154
57.811 190
57.83112 191
57.85123 154
57.87134 182
57.89146 180
57.91157 146
57.93168 163
57.9518 150
57.97191 177
57.99203 163
58.01214 152
58.03225 168
58.05237 163
58.07248 154
58.09259 171
58.11271 164
58.13282 145
58.15294 186
58.17305 192
58.19316 162
58.21328 175
58.23339 134
58.2535 171
58.27362 131
58.29373 154
58.31385 149
58.33396 179
58.35407 168
58.37419 157
58.3943 170
58.41441 179
58.43453 160
58.45464 164
58.47475 153
58.49487 148
58.51498 150
58.5351 166
58.55521 171
58.57532 185
58.59544 160
58.61555 177
58.63566 163
58.65578 158
58.67589 145
58.69601 159
58.71612 175
58.73623 168
58.75635 166
58.77646 162
58.79657 178
58.81669 166
58.8368 176
58.85691 178
58.87703 172
58.89714 179
58.91726 162
58.93737 191
58.95748 167
58.9776 173
58.99771 162
59.01782 169
59.03794 167
59.05805 199
59.07817 152
59.09828 165
59.11839 176
59.13851 191
59.15862 194
59.17873 179
59.19885 178
59.21896 203
59.23908 184
59.25919 188
59.2793 212
59.29942 193
59.31953 178
59.33964 210
59.35976 198
59.37987 213
59.39998 219
59.4201 243
59.44021 240
59.46033 257
59.48044 252
59.50055 247
59.52067 270
59.54078 311
59.56089 325
59.58101 352
59.60112 380
59.62124 414
59.64135 437
59.66146 513
59.68158 579
59.70169 652
59.7218 712
59.74192 825
59.76203 1006
59.78215 1161
59.80226 1464
59.82237 1548
59.84249 1886
59.8626 2143
59.88271 2233
59.90283 2284
59.92294 2121
59.94305 1962
59.96317 1604
59.98328 1400
60.0034 1219
60.02351 1252
60.04362 1272
60.06374 1235
60.08385 1095
60.10396 987
60.12408 801
60.14419 562
60.16431 425
60.18442 369
60.20453 333
60.22465 288
60.24476 289
60.26487 251
60.28499 246
60.3051 218
60.32522 220
60.34533 227
60.36544 222
60.38556 188
60.40567 216
60.42578 206
60.4459 189
60.46601 186
60.48612 176
60.50624 200
60.52635 194
60.54647 196
60.56658 172
60.58669 174
60.60681 183
60.62692 184
60.64703 169
60.66715 173
60.68726 162
60.70738 163
60.72749 159
60.7476 188
60.76772 150
60.78783 166
60.80794 163
60.82806 169
60.84817 179
60.86828 158
60.8884 174
60.90851 159
60.92863 175
60.94874 162
60.96885 162
60.98897 149
61.00908 157
61.02919 176
61.04931 162
61.06942 148
61.08954 167
61.10965 145
61.12976 152
61.14988 160
61.16999 142
61.1901 166
61.21022 162
61.23033 150
61.25045 161
61.27056 164
61.29067 149
61.31079 157
61.3309 152
61.35101 129
61.37113 171
61.39124 156
61.41135 141
61.43147 168
61.45158 156
61.4717 160
61.49181 155
61.51192 163
61.53204 180
61.55215 175
61.57226 162
61.59238 161
61.61249 159
61.63261 169
61.65272 174
61.67283 182
61.69295 163
61.71306 156
61.73317 162
61.75329 205
61.7734 170
61.79352 170
61.81363 175
61.83374 183
61.85386 157
61.87397 165
61.89408 177
61.9142 173
61.93431 173
61.95442 158
61.97454 181
61.99465 189
62.01477 168
62.03488 189
62.05499 201
62.07511 200
62.09522 219
62.11533 222
62.13545 196
62.15556 231
62.17568 228
62.19579 234
62.2159 220
62.23602 224
62.25613 253
62.27624 239
62.29636 208
62.31647 220
62.33659 222
62.3567 213
62.37681 212
62.39693 212
62.41704 182
62.43715 188
62.45727 186
62.47738 179
62.49749 191
62.51761 170
62.53772 176
62.55784 184
62.57795 182
62.59806 182
62.61818 164
62.63829 162
62.6584 170
62.67852 145
62.69863 140
62.71875 159
62.73886 173
62.75897 162
62.77909 165
62.7992 169
62.81931 155
62.83943 139
62.85954 151
62.87965 144
62.89977 140
62.91988 143
62.94 164
62.96011 176
62.98022 152
63.00034 177
63.02045 186
63.04056 171
63.06068 159
63.08079 153
63.10091 157
63.12102 151
63.14113 165
63.16125 158
63.18136 175
63.20147 162
63.22159 170
63.2417 177
63.26182 141
63.28193 165
63.30204 160
63.32216 168
63.34227 162
63.36238 164
63.3825 179
63.40261 172
63.42272 164
63.44284 180
63.46295 179
63.48307 173
63.50318 170
63.52329 159
63.54341 171
63.56352 180
63.58363 194
63.60375 214
63.62386 205
63.64398 173
63.66409 161
63.6842 208
63.70432 205
63.72443 198
63.74454 242
63.76466 246
63.78477 287
63.80489 284
63.825 289
63.84511 320
63.86523 348
63.88534 426
63.90545 432
63.92557 471
63.94568 506
63.96579 555
63.98591 521
64.00602 512
64.02614 477
64.04625 383
64.06636 391
64.08648 337
64.10659 367
64.1267 328
64.14682 344
64.16693 318
64.18705 305
64.20716 309
64.22727 251
64.24739 205
64.2675 195
64.28761 190
64.30773 178
64.32784 197
64.34796 157
64.36807 169
64.38818 161
64.4083 196
64.42841 149
64.44852 155
64.46864 152
64.48875 170
64.50886 149
64.52898 154
64.54909 161
64.56921 180
64.58932 144
64.60943 167
64.62955 138
64.64966 138
64.66977 149
64.68989 140
64.71 155
64.73012 162
64.75023 152
64.77034 153
64.79046 135
64.81057 150
64.83068 139
64.8508 156
64.87091 153
64.89102 151
64.91114 146
64.93125 154
64.95137 122
64.97148 137
64.99159 133
65.01171 148
65.03182 165
65.05193 140
65.07205 155
65.09216 150
65.11228 173
65.13239 161
65.1525 143
65.17262 146
65.19273 151
65.21284 142
65.23296 166
65.25307 142
65.27319 145
65.2933 163
65.31341 160
65.33353 173
65.35364 158
65.37375 158
65.39387 153
65.41398 156
65.43409 160
65.45421 189
65.47432 168
65.49444 182
65.51455 174
65.53466 163
65.55478 166
65.57489 165
65.595 225
65.61512 217
65.63523 209
65.65535 222
65.67546 230
65.69557 221
65.71569 242
65.7358 232
65.75591 233
65.77603 225
65.79614 224
65.81626 183
65.83637 176
65.85648 208
65.8766 198
65.89671 201
65.91682 193
65.93694 193
65.95705 194
65.97716 182
65.99728 194
66.01739 158
66.03751 164
66.05762 147
66.07773 145
66.09785 157
66.11796 167
66.13807 157
66.15819 188
66.1783 170
66.19842 164
66.21853 152
66.23864 154
66.25876 177
66.27887 175
66.29898 155
66.3191 163
66.33921 144
66.35933 140
66.37944 169
66.39955 155
66.41967 186
66.43978 168
66.45989 152
66.48001 141
66.50012 188
66.52023 154
66.54035 160
66.56046 167
66.58058 148
66.60069 175
66.6208 149
66.64092 179
66.66103 161
66.68114 183
66.70126 169
66.72137 168
66.74149 188
66.7616 160
66.78171 163
66.80183 151
66.82194 169
66.84205 164
66.86217 174
66.88228 173
66.90239 157
66.92251 187
66.94262 154
66.96274 188
66.98285 177
67.00296 193
67.02308 174
67.04319 195
67.0633 199
67.08342 188
67.10353 177
67.12365 214
67.14376 226
67.16387 182
67.18399 210
67.2041 205
67.22421 245
67.24433 239
67.26444 245
67.28456 255
67.30467 306
67.32478 246
67.3449 318
67.36501 309
67.38512 316
67.40524 317
67.42535 329
67.44546 349
67.46558 460
67.48569 479
67.50581 565
67.52592 616
67.54603 721
67.56615 807
67.58626 933
67.60637 1021
67.62649 1093
67.6466 1296
67.66672 1355
67.68683 1406
67.70694 1341
67.72706 1213
67.74717 1126
67.76728 951
67.7874 901
67.80751 939
67.82763 954
67.84774 1019
67.86785 1047
67.88797 1119
67.90808 1073
67.92819 1111
67.94831 1088
67.96842 1142
67.98853 1300
68.00865 1403
68.02876 1576
68.04888 1753
68.06899 1823
68.0891 1856
68.10922 1776
68.12933 1760
68.14944 1517
68.16956 1522
68.18967 1522
68.20979 1552
68.2299 1579
68.25001 1697
68.27013 1627
68.29024 1506
68.31035 1393
68.33047 1153
68.35058 941
68.3707 812
68.39081 745
68.41092 677
68.43104 644
68.45115 627
68.47126 582
68.49138 509
68.51149 446
68.5316 395
68.55172 319
68.57183 284
68.59195 271
68.61206 275
68.63217 232
68.65229 227
68.6724 217
68.69251 204
68.71263 218
68.73274 230
68.75286 219
68.77297 201
68.79308 172
68.8132 186
68.83331 194
68.85342 171
68.87354 174
68.89365 185
68.91376 182
68.93388 182
68.95399 182
68.97411 190
68.99422 213
69.01433 160
69.03445 174
69.05456 180
69.07467 166
69.09479 163
69.1149 171
69.13502 159
69.15513 161
69.17524 157
69.19536 139
69.21547 173
69.23558 161
69.2557 151
69.27581 146
69.29593 155
69.31604 157
69.33615 143
69.35627 155
69.37638 158
69.39649 159
69.41661 172
69.43672 175
69.45683 157
69.47695 144
69.49706 136
69.51718 162
69.53729 170
69.5574 164
69.57752 162
69.59763 130
69.61774 153
69.63786 141
69.65797 140
69.67809 154
69.6982 155
69.71831 146
69.73843 170
69.75854 144
69.77865 156
69.79877 141
69.81888 160
69.839 157
69.85911 133
69.87922 136
69.89934 153
69.91945 137
69.93956 155
69.95968 132
69.97979 152
69.9999 133
70.02002 141
70.04013 145
70.06025 146
70.08036 155
70.10047 138
70.12059 141
70.1407 133
70.16081 137
70.18093 134
70.20104 155
70.22116 118
70.24127 156
70.26138 139
70.2815 148
70.30161 158
70.32172 180
70.34184 133
70.36195 143
70.38207 154
70.40218 145
70.42229 135
70.44241 144
70.46252 152
70.48263 138
70.50275 133
70.52286 137
70.54297 150
70.56309 146
70.5832 147
70.60332 134
70.62343 130
70.64354 157
70.66366 132
70.68377 150
70.70388 150
70.724 149
70.74411 124
70.76423 133
70.78434 148
70.80445 138
70.82457 168
70.84468 139
70.86479 132
70.88491 142
70.90502 159
70.92513 163
70.94525 146
70.96536 141
70.98548 123
71.00559 139
71.0257 116
71.04582 131
71.06593 130
71.08604 149
71.10616 129
71.12627 142
71.14639 136
71.1665 146
71.18661 140
71.20673 164
71.22684 150
71.24695 142
71.26707 136
71.28718 155
71.3073 135
71.32741 138
71.34752 122
71.36764 145
71.38775 133
71.40786 139
71.42798 149
71.44809 136
71.4682 125
71.48832 125
71.50843 147
71.52855 133
71.54866 138
71.56877 163
71.58889 117
71.609 136
71.62911 116
71.64923 128
71.66934 139
71.68946 128
71.70957 101
71.72968 137
71.7498 164
71.76991 169
71.79002 144
71.81014 127
71.83025 116
71.85037 173
71.87048 135
71.89059 136
71.91071 117
71.93082 148
71.95093 128
71.97105 147
71.99116 148
72.01127 146
72.03139 162
72.0515 151
72.07162 135
72.09173 162
72.11184 155
72.13196 133
72.15207 130
72.17218 147
72.1923 129
72.21241 149
72.23253 126
72.25264 153
72.27275 150
72.29287 149
72.31298 146
72.33309 135
72.35321 132
72.37332 140
72.39344 122
72.41355 136
72.43366 133
72.45378 145
72.47389 138
72.494 141
72.51412 136
72.53423 169
72.55434 138
72.57446 139
72.59457 133
72.61469 130
72.6348 156
72.65491 149
72.67503 136
72.69514 133
72.71525 137
72.73537 132
72.75548 151
72.7756 151
72.79571 133
72.81582 145
72.83594 151
72.85605 131
72.87616 131
72.89628 160
72.91639 152
72.9365 155
72.95662 140
72.97673 165
72.99685 158
73.01696 148
73.03707 174
73.05719 159
73.0773 187
73.09741 165
73.11753 189
73.13764 206
73.15776 199
73.17787 212
73.19798 253
73.2181 278
73.23821 289
73.25832 326
73.27844 317
73.29855 403
73.31867 413
73.33878 456
73.35889 482
73.37901 518
73.39912 576
73.41923 528
73.43935 509
73.45946 430
73.47957 404
73.49969 362
73.5198 317
73.53992 332
73.56003 331
73.58014 366
73.60026 356
73.62037 331
73.64048 309
73.6606 297
73.68071 291
73.70083 229
73.72094 214
73.74105 186
73.76117 167
73.78128 170
73.80139 170
73.82151 159
73.84162 179
73.86174 170
73.88185 172
73.90196 129
73.92208 166
73.94219 159
73.9623 148
73.98242 124
74.00253 149
74.02264 131
74.04276 172
74.06287 137
74.08299 134
74.1031 146
74.12321 143
74.14333 137
74.16344 147
74.18355 143
74.20367 142
74.22378 141
74.2439 150
74.26401 154
74.28412 130
74.30424 155
74.32435 120
74.34446 137
74.36458 124
74.38469 126
74.40481 141
74.42492 162
74.44503 152
74.46515 128
74.48526 141
74.50537 143
74.52549 136
74.5456 135
74.56571 160
74.58583 139
74.60594 141
74.62606 141
74.64617 146
74.66628 154
74.6864 157
74.70651 132
74.72662 147
74.74674 131
74.76685 144
74.78697 148
74.80708 136
74.82719 169
74.84731 149
74.86742 159
74.88753 133
74.90765 146
74.92776 169
74.94787 161
74.96799 158
74.9881 114
75.00822 177
