3.00117 18699
3.02128 18258
3.0414 18212
3.06151 17684
3.08162 17220
3.10174 16433
3.12185 15997
3.14197 15736
3.16208 14898
3.18219 14834
3.20231 14224
3.22242 13513
3.24253 13427
3.26265 12907
3.28276 12430
3.30288 12074
3.32299 11751
3.3431 11425
3.36322 11075
3.38333 10708
3.40344 10307
3.42356 10013
3.44367 9819
3.46379 9274
3.4839 9065
3.50401 8499
3.52413 8247
3.54424 8038
3.56435 7759
3.58447 7387
3.60458 6999
3.62469 6726
3.64481 6598
3.66492 6214
3.68504 6025
3.70515 5747
3.72526 5526
3.74538 5596
3.76549 5103
3.7856 4913
3.80572 4724
3.82583 4406
3.84595 4395
3.86606 4013
3.88617 4050
3.90629 3718
3.9264 3509
3.94651 3497
3.96663 3300
3.98674 3182
4.00686 3034
4.02697 2819
4.04708 2934
4.0672 2700
4.08731 2524
4.10742 2335
4.12754 2240
4.14765 2187
4.16776 2116
4.18788 1982
4.20799 1926
4.22811 1862
4.24822 1901
4.26833 1843
4.28845 1690
4.30856 1536
4.32867 1540
4.34879 1595
4.3689 1619
4.38902 1430
4.40913 1434
4.42924 1313
4.44936 1446
4.46947 1369
4.48958 1247
4.5097 1199
4.52981 1208
4.54992 1221
4.57004 1178
4.59015 1111
4.61027 1133
4.63038 1008
4.65049 1089
4.67061 1016
4.69072 985
4.71083 962
4.73095 968
4.75106 905
4.77118 963
4.79129 873
4.8114 954
4.83152 853
4.85163 861
4.87174 936
4.89186 759
4.91197 746
4.93209 742
4.9522 788
4.97231 854
4.99243 692
5.01254 703
5.03265 656
5.05277 683
5.07288 690
5.09299 631
5.11311 604
5.13322 590
5.15334 576
5.17345 609
5.19356 548
5.21368 583
5.23379 508
5.2539 537
5.27402 534
5.29413 570
5.31425 490
5.33436 488
5.35447 476
5.37459 473
5.3947 475
5.41481 462
5.43493 445
5.45504 483
5.47516 471
5.49527 436
5.51538 421
5.5355 383
5.55561 399
5.57572 422
5.59584 384
5.61595 364
5.63606 387
5.65618 383
5.67629 387
5.69641 393
5.71652 303
5.73663 324
5.75675 330
5.77686 351
5.79697 335
5.81709 311
5.8372 330
5.85732 324
5.87743 295
5.89754 292
5.91766 335
5.93777 287
5.95788 305
5.978 287
5.99811 303
6.01823 278
6.03834 273
6.05845 313
6.07857 287
6.09868 297
6.11879 273
6.13891 269
6.15902 261
6.17913 244
6.19925 279
6.21936 279
6.23948 274
6.25959 292
6.2797 292
6.29982 298
6.31993 270
6.34004 263
6.36016 268
6.38027 256
6.40039 257
6.4205 231
6.44061 247
6.46073 256
6.48084 279
6.50095 252
6.52107 248
6.54118 251
6.56129 227
6.58141 273
6.60152 271
6.62164 242
6.64175 269
6.66186 267
6.68198 253
6.70209 237
6.7222 257
6.74232 232
6.76243 244
6.78255 237
6.80266 258
6.82277 246
6.84289 220
6.863 249
6.88311 242
6.90323 233
6.92334 236
6.94346 233
6.96357 234
6.98368 263
7.0038 228
7.02391 239
7.04402 226
7.06414 243
7.08425 260
7.10436 251
7.12448 231
7.14459 258
7.16471 269
7.18482 216
7.20493 222
7.22505 257
7.24516 248
7.26527 248
7.28539 248
7.3055 261
7.32562 238
7.34573 213
7.36584 232
7.38596 222
7.40607 240
7.42618 255
7.4463 257
7.46641 249
7.48653 222
7.50664 237
7.52675 226
7.54687 238
7.56698 232
7.58709 276
7.60721 242
7.62732 240
7.64743 300
7.66755 259
7.68766 247
7.70778 243
7.72789 256
7.748 237
7.76812 267
7.78823 240
7.80834 274
7.82846 263
7.84857 274
7.86869 298
7.8888 252
7.90891 284
7.92903 220
7.94914 244
7.96925 247
7.98937 250
8.00948 261
8.0296 255
8.04971 235
8.06982 254
8.08994 260
8.11005 249
8.13016 261
8.15028 260
8.17039 253
8.1905 248
8.21062 259
8.23073 257
8.25085 236
8.27096 283
8.29107 249
8.31119 239
8.3313 239
8.35141 273
8.37153 243
8.39164 269
8.41176 275
8.43187 271
8.45198 271
8.4721 286
8.49221 241
8.51232 259
8.53244 260
8.55255 264
8.57266 271
8.59278 284
8.61289 238
8.63301 243
8.65312 255
8.67323 262
8.69335 241
8.71346 288
8.73357 289
8.75369 280
8.7738 295
8.79392 279
8.81403 255
8.83414 259
8.85426 279
8.87437 283
8.89448 237
8.9146 272
8.93471 270
8.95483 254
8.97494 224
8.99505 254
9.01517 266
9.03528 268
9.05539 240
9.07551 296
9.09562 254
9.11573 239
9.13585 236
9.15596 266
9.17608 235
9.19619 254
9.2163 242
9.23642 273
9.25653 261
9.27664 228
9.29676 244
9.31687 240
9.33699 263
9.3571 254
9.37721 250
9.39733 252
9.41744 232
9.43755 243
9.45767 255
9.47778 259
9.4979 275
9.51801 251
9.53812 304
9.55824 256
9.57835 225
9.59846 254
9.61858 259
9.63869 285
9.6588 223
9.67892 255
9.69903 271
9.71915 250
9.73926 266
9.75937 255
9.77949 251
9.7996 243
9.81971 255
9.83983 256
9.85994 241
9.88006 270
9.90017 272
9.92028 259
9.9404 280
9.96051 268
9.98062 258
10.00074 259
10.02085 233
10.04097 276
10.06108 250
10.08119 262
10.10131 272
10.12142 260
10.14153 260
10.16165 223
10.18176 238
10.20187 225
10.22199 264
10.2421 246
10.26222 234
10.28233 255
10.30244 218
10.32256 243
10.34267 248
10.36278 258
10.3829 251
10.40301 246
10.42313 284
10.44324 282
10.46335 234
10.48347 250
10.50358 283
10.52369 274
10.54381 249
10.56392 273
10.58403 261
10.60415 274
10.62426 244
10.64438 284
10.66449 256
10.6846 287
10.70472 239
10.72483 276
10.74494 235
10.76506 262
10.78517 241
10.80529 265
10.8254 264
10.84551 227
10.86563 268
10.88574 246
10.90585 246
10.92597 263
10.94608 284
10.9662 291
10.98631 244
11.00642 226
11.02654 246
11.04665 256
11.06676 273
11.08688 240
11.10699 250
11.1271 229
11.14722 251
11.16733 254
11.18745 269
11.20756 269
11.22767 256
11.24779 262
11.2679 245
11.28801 227
11.30813 254
11.32824 267
11.34836 267
11.36847 249
11.38858 243
11.4087 266
11.42881 243
11.44892 281
11.46904 243
11.48915 262
11.50927 264
11.52938 265
11.54949 260
11.56961 296
11.58972 275
11.60983 238
11.62995 243
11.65006 246
11.67017 223
11.69029 235
11.7104 255
11.73052 261
11.75063 290
11.77074 246
11.79086 237
11.81097 243
11.83108 251
11.8512 253
11.87131 269
11.89143 242
11.91154 250
11.93165 238
11.95177 280
11.97188 258
11.99199 274
12.01211 272
12.03222 266
12.05234 282
12.07245 225
12.09256 270
12.11268 234
12.13279 270
12.1529 260
12.17302 273
12.19313 267
12.21324 264
12.23336 284
12.25347 264
12.27359 284
12.2937 260
12.31381 250
12.33393 285
12.35404 228
12.37415 236
12.39427 236
12.41438 240
12.4345 248
12.45461 231
12.47472 251
12.49484 269
12.51495 254
12.53506 227
12.55518 256
12.57529 213
12.5954 252
12.61552 242
12.63563 220
12.65575 245
12.67586 248
12.69597 208
12.71609 222
12.7362 232
12.75631 260
12.77643 237
12.79654 243
12.81666 266
12.83677 237
12.85688 266
12.877 251
12.89711 218
12.91722 228
12.93734 238
12.95745 239
12.97757 243
12.99768 213
13.01779 238
13.03791 201
13.05802 242
13.07813 228
13.09825 229
13.11836 247
13.13847 203
13.15859 223
13.1787 232
13.19882 270
13.21893 202
13.23904 220
13.25916 239
13.27927 229
13.29938 235
13.3195 233
13.33961 244
13.35973 233
13.37984 236
13.39995 215
13.42007 226
13.44018 193
13.46029 191
13.48041 230
13.50052 231
13.52064 229
13.54075 244
13.56086 222
13.58098 241
13.60109 240
13.6212 215
13.64132 223
13.66143 229
13.68154 240
13.70166 215
13.72177 229
13.74189 238
13.762 221
13.78211 202
13.80223 201
13.82234 247
13.84245 238
13.86257 228
13.88268 227
13.9028 225
13.92291 222
13.94302 211
13.96314 216
13.98325 210
14.00336 202
14.02348 231
14.04359 211
14.06371 218
14.08382 209
14.10393 212
14.12405 206
14.14416 221
14.16427 199
14.18439 239
14.2045 235
14.22461 236
14.24473 227
14.26484 219
14.28496 215
14.30507 210
14.32518 202
14.3453 217
14.36541 227
14.38552 195
14.40564 205
14.42575 221
14.44587 197
14.46598 243
14.48609 192
14.50621 217
14.52632 229
14.54643 181
14.56655 225
14.58666 225
14.60677 209
14.62689 227
14.647 205
14.66712 227
14.68723 187
14.70734 208
14.72746 223
14.74757 207
14.76768 220
14.7878 187
14.80791 211
14.82803 232
14.84814 221
14.86825 233
14.88837 198
14.90848 252
14.92859 204
14.94871 212
14.96882 188
14.98894 231
15.00905 220
15.02916 206
15.04928 219
15.06939 251
15.0895 223
15.10962 216
15.12973 218
15.14984 188
15.16996 204
15.19007 211
15.21019 216
15.2303 196
15.25041 209
15.27053 203
15.29064 241
15.31075 206
15.33087 216
15.35098 200
15.3711 196
15.39121 205
15.41132 201
15.43144 218
15.45155 194
15.47166 209
15.49178 211
15.51189 231
15.53201 212
15.55212 254
15.57223 217
15.59235 207
15.61246 208
15.63257 222
15.65269 223
15.6728 211
15.69291 196
15.71303 214
15.73314 219
15.75326 204
15.77337 166
15.79348 222
15.8136 220
15.83371 205
15.85382 230
15.87394 211
15.89405 179
15.91417 213
15.93428 201
15.95439 209
15.97451 196
15.99462 212
16.01473 226
16.03485 229
16.05496 236
16.07508 214
16.09519 204
16.1153 203
16.13542 232
16.15553 219
16.17564 226
16.19576 200
16.21587 211
16.23598 214
16.2561 200
16.27621 226
16.29633 198
16.31644 217
16.33655 193
16.35667 229
16.37678 231
16.39689 218
16.41701 217
16.43712 196
16.45724 207
16.47735 217
16.49746 187
16.51758 234
16.53769 218
16.5578 231
16.57792 210
16.59803 221
16.61814 216
16.63826 229
16.65837 198
16.67849 224
16.6986 250
16.71871 198
16.73883 186
16.75894 203
16.77905 216
16.79917 223
16.81928 223
16.8394 231
16.85951 220
16.87962 233
16.89974 213
16.91985 197
16.93996 197
16.96008 204
16.98019 196
17.00031 208
17.02042 229
17.04053 206
17.06065 194
17.08076 228
17.10087 240
17.12099 245
17.1411 232
17.16121 219
17.18133 223
17.20144 221
17.22156 233
17.24167 228
17.26178 248
17.2819 216
17.30201 228
17.32212 203
17.34224 210
17.36235 215
17.38247 216
17.40258 233
17.42269 206
17.44281 221
17.46292 215
17.48303 219
17.50315 197
17.52326 231
17.54338 196
17.56349 231
17.5836 217
17.60372 225
17.62383 230
17.64394 232
17.66406 206
17.68417 226
17.70428 219
17.7244 207
17.74451 228
17.76463 235
17.78474 235
17.80485 224
17.82497 223
17.84508 207
17.86519 221
17.88531 207
17.90542 220
17.92554 200
17.94565 231
17.96576 200
17.98588 230
18.00599 271
18.0261 242
18.04622 234
18.06633 230
18.08645 237
18.10656 227
18.12667 220
18.14679 216
18.1669 234
18.18701 242
18.20713 225
18.22724 220
18.24735 243
18.26747 248
18.28758 249
18.3077 241
18.32781 245
18.34792 208
18.36804 255
18.38815 253
18.40826 220
18.42838 247
18.44849 217
18.46861 234
18.48872 238
18.50883 253
18.52895 206
18.54906 247
18.56917 248
18.58929 227
18.6094 239
18.62951 262
18.64963 212
18.66974 267
18.68986 251
18.70997 271
18.73008 271
18.7502 280
18.77031 273
18.79042 258
18.81054 257
18.83065 262
18.85077 249
18.87088 230
18.89099 270
18.91111 249
18.93122 227
18.95133 247
18.97145 240
18.99156 224
19.01168 260
19.03179 228
19.0519 248
19.07202 255
19.09213 232
19.11224 259
19.13236 237
19.15247 258
19.17258 238
19.1927 254
19.21281 238
19.23293 277
19.25304 235
19.27315 241
19.29327 268
19.31338 280
19.33349 272
19.35361 257
19.37372 251
19.39384 241
19.41395 259
19.43406 261
19.45418 278
19.47429 285
19.4944 277
19.51452 244
19.53463 260
19.55475 312
19.57486 309
19.59497 324
19.61509 311
19.6352 337
19.65531 356
19.67543 307
19.69554 341
19.71565 359
19.73577 382
19.75588 331
19.776 323
19.79611 388
19.81622 391
19.83634 343
19.85645 387
19.87656 332
19.89668 386
19.91679 414
19.93691 357
19.95702 384
19.97713 383
19.99725 376
20.01736 326
20.03747 383
20.05759 340
20.0777 356
20.09782 374
20.11793 390
20.13804 391
20.15816 399
20.17827 373
20.19838 387
20.2185 372
20.23861 425
20.25872 392
20.27884 409
20.29895 416
20.31907 440
20.33918 420
20.35929 410
20.37941 444
20.39952 442
20.41963 429
20.43975 407
20.45986 445
20.47998 480
20.50009 453
20.5202 452
20.54032 514
20.56043 549
20.58054 565
20.60066 636
20.62077 664
20.64088 740
20.661 929
20.68111 1143
20.70123 1506
20.72134 2078
20.74145 2953
20.76157 3989
20.78168 5098
20.80179 6504
20.82191 7673
20.84202 7823
20.86214 7412
20.88225 5954
20.90236 4235
20.92248 2813
20.94259 1822
20.9627 1105
20.98282 878
21.00293 732
21.02305 638
21.04316 620
21.06327 593
21.08339 507
21.1035 524
21.12361 493
21.14373 483
21.16384 408
21.18395 388
21.20407 402
21.22418 393
21.2443 410
21.26441 379
21.28452 348
21.30464 386
21.32475 410
21.34486 337
21.36498 377
21.38509 391
21.40521 387
21.42532 376
21.44543 329
21.46555 363
21.48566 342
21.50577 325
21.52589 364
21.546 345
21.56612 346
21.58623 360
21.60634 328
21.62646 349
21.64657 361
21.66668 323
21.6868 368
21.70691 341
21.72702 313
21.74714 357
21.76725 323
21.78737 325
21.80748 343
21.82759 317
21.84771 331
21.86782 307
21.88793 324
21.90805 363
21.92816 334
21.94828 338
21.96839 318
21.9885 333
22.00862 360
22.02873 350
22.04884 361
22.06896 360
22.08907 340
22.10919 360
22.1293 320
22.14941 308
22.16953 338
22.18964 311
22.20975 339
22.22987 319
22.24998 353
22.27009 345
22.29021 364
22.31032 340
22.33044 343
22.35055 333
22.37066 319
22.39078 323
22.41089 333
22.431 319
22.45112 302
22.47123 329
22.49135 340
22.51146 295
22.53157 327
22.55169 304
22.5718 304
22.59191 332
22.61203 367
22.63214 323
22.65225 310
22.67237 321
22.69248 312
22.7126 258
22.73271 317
22.75282 338
22.77294 331
22.79305 330
22.81316 322
22.83328 291
22.85339 310
22.87351 304
22.89362 278
22.91373 314
22.93385 311
22.95396 312
22.97407 302
22.99419 309
23.0143 316
23.03442 303
23.05453 320
23.07464 314
23.09476 292
23.11487 298
23.13498 316
23.1551 352
23.17521 321
23.19532 323
23.21544 321
23.23555 315
23.25567 306
23.27578 304
23.29589 338
23.31601 358
23.33612 334
23.35623 305
23.37635 317
23.39646 285
23.41658 320
23.43669 325
23.4568 378
23.47692 325
23.49703 314
23.51714 330
23.53726 310
23.55737 326
23.57749 344
23.5976 297
23.61771 278
23.63783 320
23.65794 354
23.67805 330
23.69817 310
23.71828 316
23.73839 283
23.75851 337
23.77862 289
23.79874 328
23.81885 286
23.83896 329
23.85908 367
23.87919 332
23.8993 345
23.91942 333
23.93953 375
23.95965 394
23.97976 383
23.99987 441
24.01999 339
24.0401 366
24.06021 314
24.08033 309
24.10044 308
24.12056 336
24.14067 308
24.16078 283
24.1809 293
24.20101 290
24.22112 315
24.24124 289
24.26135 307
24.28146 279
24.30158 295
24.32169 302
24.34181 294
24.36192 286
24.38203 313
24.40215 320
24.42226 325
24.44237 282
24.46249 270
24.4826 293
24.50272 284
24.52283 291
24.54294 280
24.56306 288
24.58317 269
24.60328 275
24.6234 280
24.64351 299
24.66362 285
24.68374 287
24.70385 278
24.72397 290
24.74408 288
24.76419 326
24.78431 315
24.80442 307
24.82453 314
24.84465 274
24.86476 303
24.88488 348
24.90499 310
24.9251 308
24.94522 320
24.96533 308
24.98544 285
25.00556 327
25.02567 306
25.04579 275
25.0659 307
25.08601 303
25.10613 317
25.12624 278
25.14635 310
25.16647 308
25.18658 292
25.20669 326
25.22681 307
25.24692 312
25.26704 320
25.28715 311
25.30726 321
25.32738 293
25.34749 339
25.3676 312
25.38772 340
25.40783 329
25.42795 330
25.44806 366
25.46817 338
25.48829 321
25.5084 397
25.52851 368
25.54863 393
25.56874 385
25.58886 390
25.60897 421
25.62908 421
25.6492 447
25.66931 473
25.68942 476
25.70954 514
25.72965 488
25.74976 464
25.76988 487
25.78999 477
25.81011 482
25.83022 483
25.85033 510
25.87045 492
25.89056 501
25.91067 528
25.93079 468
25.9509 521
25.97102 518
25.99113 586
26.01124 596
26.03136 530
26.05147 584
26.07158 626
26.0917 625
26.11181 654
26.13193 682
26.15204 712
26.17215 778
26.19227 849
26.21238 950
26.23249 917
26.25261 1030
26.27272 1108
26.29283 1175
26.31295 1284
26.33306 1448
26.35318 1660
26.37329 1913
26.3934 2413
26.41352 2973
26.43363 3764
26.45374 5198
26.47386 7133
26.49397 9799
26.51409 13343
26.5342 17661
26.55431 23358
26.57443 28868
26.59454 33418
26.61465 35202
26.63477 33136
26.65488 27092
26.67499 20915
26.69511 15561
26.71522 10595
26.73534 6492
26.75545 3648
26.77556 2235
26.79568 1854
26.81579 1578
26.8359 1457
26.85602 1306
26.87613 1139
26.89625 1084
26.91636 1007
26.93647 978
26.95659 852
26.9767 813
26.99681 726
27.01693 732
27.03704 703
27.05716 668
27.07727 632
27.09738 621
27.1175 519
27.13761 522
27.15772 534
27.17784 508
27.19795 469
27.21806 460
27.23818 437
27.25829 457
27.27841 486
27.29852 481
27.31863 477
27.33875 466
27.35886 516
27.37897 493
27.39909 559
27.4192 512
27.43932 513
27.45943 595
27.47954 558
27.49966 534
27.51977 485
27.53988 473
27.56 450
27.58011 434
27.60023 386
27.62034 419
27.64045 383
27.66057 371
27.68068 409
27.70079 366
27.72091 354
27.74102 378
27.76113 354
27.78125 373
27.80136 346
27.82148 352
27.84159 364
27.8617 334
27.88182 356
27.90193 372
27.92204 340
27.94216 362
27.96227 341
27.98239 355
28.0025 344
28.02261 343
28.04273 313
28.06284 323
28.08295 314
28.10307 363
28.12318 312
28.1433 346
28.16341 327
28.18352 323
28.20364 316
28.22375 280
28.24386 318
28.26398 295
28.28409 318
28.3042 344
28.32432 313
28.34443 277
28.36455 312
28.38466 328
28.40477 269
28.42489 294
28.445 275
28.46511 266
28.48523 281
28.50534 285
28.52546 332
28.54557 300
28.56568 287
28.5858 301
28.60591 290
28.62602 286
28.64614 287
28.66625 327
28.68636 275
28.70648 286
28.72659 281
28.74671 253
28.76682 272
28.78693 272
28.80705 278
28.82716 255
28.84727 280
28.86739 278
28.8875 288
28.90762 294
28.92773 288
28.94784 278
28.96796 268
28.98807 276
29.00818 267
29.0283 311
29.04841 269
29.06853 289
29.08864 280
29.10875 262
29.12887 258
29.14898 278
29.16909 266
29.18921 264
29.20932 275
29.22943 242
29.24955 259
29.26966 265
29.28978 258
29.30989 272
29.33 287
29.35012 256
29.37023 281
29.39034 278
29.41046 255
29.43057 311
29.45069 297
29.4708 268
29.49091 287
29.51103 242
29.53114 274
29.55125 264
29.57137 257
29.59148 253
29.6116 257
29.63171 271
29.65182 256
29.67194 240
29.69205 270
29.71216 261
29.73228 262
29.75239 285
29.7725 278
29.79262 263
29.81273 275
29.83285 257
29.85296 251
29.87307 250
29.89319 248
29.9133 277
29.93341 271
29.95353 267
29.97364 254
29.99376 247
30.01387 245
30.03398 267
30.0541 257
30.07421 256
30.09432 246
30.11444 256
30.13455 272
30.15467 262
30.17478 259
30.19489 283
30.21501 244
30.23512 269
30.25523 268
30.27535 227
30.29546 260
30.31557 244
30.33569 226
30.3558 257
30.37592 264
30.39603 277
30.41614 241
30.43626 243
30.45637 263
30.47648 213
30.4966 250
30.51671 254
30.53683 256
30.55694 244
30.57705 257
30.59717 242
30.61728 221
30.63739 246
30.65751 272
30.67762 270
30.69773 227
30.71785 279
30.73796 268
30.75808 268
30.77819 268
30.7983 260
30.81842 266
30.83853 257
30.85864 247
30.87876 193
30.89887 224
30.91899 224
30.9391 234
30.95921 256
30.97933 224
30.99944 222
31.01955 235
31.03967 242
31.05978 211
31.0799 215
31.10001 206
31.12012 239
31.14024 224
31.16035 228
31.18046 232
31.20058 224
31.22069 234
31.2408 223
31.26092 234
31.28103 202
31.30115 205
31.32126 200
31.34137 202
31.36149 207
31.3816 219
31.40171 225
31.42183 238
31.44194 199
31.46206 213
31.48217 228
31.50228 245
31.5224 199
31.54251 186
31.56262 206
31.58274 236
31.60285 190
31.62297 215
31.64308 206
31.66319 220
31.68331 223
31.70342 197
31.72353 181
31.74365 190
31.76376 223
31.78387 223
31.80399 203
31.8241 213
31.84422 193
31.86433 247
31.88444 204
31.90456 206
31.92467 228
31.94478 199
31.9649 193
31.98501 231
32.00513 193
32.02524 202
32.04535 237
32.06547 195
32.08558 228
32.10569 187
32.12581 191
32.14592 208
32.16604 206
32.18615 199
32.20626 209
32.22638 197
32.24649 221
32.2666 219
32.28672 208
32.30683 220
32.32694 209
32.34706 197
32.36717 207
32.38729 180
32.4074 237
32.42751 221
32.44763 204
32.46774 182
32.48785 197
32.50797 180
32.52808 200
32.5482 201
32.56831 203
32.58842 199
32.60854 207
32.62865 202
32.64876 197
32.66888 179
32.68899 182
32.7091 205
32.72922 204
32.74933 197
32.76945 200
32.78956 191
32.80967 215
32.82979 232
32.8499 212
32.87001 168
32.89013 182
32.91024 221
32.93036 179
32.95047 161
32.97058 169
32.9907 203
33.01081 192
33.03092 189
33.05104 195
33.07115 204
33.09127 189
33.11138 199
33.13149 203
33.15161 222
33.17172 171
33.19183 182
33.21195 193
33.23206 188
33.25217 205
33.27229 204
33.2924 171
33.31252 160
33.33263 189
33.35274 189
33.37286 206
33.39297 170
33.41308 154
33.4332 157
33.45331 171
33.47343 165
33.49354 174
33.51365 172
33.53377 203
33.55388 187
33.57399 185
33.59411 183
33.61422 173
33.63434 176
33.65445 176
33.67456 182
33.69468 208
33.71479 193
33.7349 197
33.75502 201
33.77513 193
33.79524 185
33.81536 191
33.83547 178
33.85559 177
33.8757 198
33.89581 208
33.91593 193
33.93604 176
33.95615 174
33.97627 184
33.99638 172
34.0165 169
34.03661 203
34.05672 208
34.07684 189
34.09695 197
34.11706 178
34.13718 193
34.15729 200
34.17741 209
34.19752 175
34.21763 192
34.23775 179
34.25786 206
34.27797 187
34.29809 202
34.3182 190
34.33831 219
34.35843 214
34.37854 203
34.39866 202
34.41877 235
34.43888 218
34.459 217
34.47911 199
34.49922 192
34.51934 225
34.53945 235
34.55957 200
34.57968 204
34.59979 216
34.61991 219
34.64002 221
34.66013 221
34.68025 236
34.70036 219
34.72047 242
34.74059 252
34.7607 233
34.78082 234
34.80093 230
34.82104 204
34.84116 267
34.86127 234
34.88138 239
34.9015 257
34.92161 233
34.94173 232
34.96184 235
34.98195 198
35.00207 226
35.02218 210
35.04229 243
35.06241 212
35.08252 232
35.10264 244
35.12275 258
35.14286 240
35.16298 235
35.18309 233
35.2032 222
35.22332 209
35.24343 202
35.26354 254
35.28366 230
35.30377 231
35.32389 201
35.344 226
35.36411 221
35.38423 230
35.40434 231
35.42445 260
35.44457 237
35.46468 232
35.4848 235
35.50491 263
35.52502 246
35.54514 243
35.56525 234
35.58536 206
35.60548 244
35.62559 222
35.64571 226
35.66582 221
35.68593 231
35.70605 216
35.72616 258
35.74627 203
35.76639 198
35.7865 228
35.80661 237
35.82673 249
35.84684 183
35.86696 211
35.88707 219
35.90718 218
35.9273 207
35.94741 238
35.96752 262
35.98764 230
36.00775 215
36.02787 219
36.04798 232
36.06809 229
36.08821 233
36.10832 262
36.12843 249
36.14855 262
36.16866 283
36.18878 277
36.20889 296
36.229 309
36.24912 337
36.26923 367
36.28934 412
36.30946 459
36.32957 598
36.34968 569
36.3698 769
36.38991 980
36.41003 1204
36.43014 1471
36.45025 1774
36.47037 2133
36.49048 2307
36.51059 2310
36.53071 2206
36.55082 1793
36.57094 1582
36.59105 1334
36.61116 1157
36.63128 982
36.65139 681
36.6715 511
36.69162 347
36.71173 324
36.73184 318
36.75196 274
36.77207 245
36.79219 229
36.8123 278
36.83241 236
36.85253 238
36.87264 222
36.89275 218
36.91287 223
36.93298 232
36.9531 228
36.97321 208
36.99332 217
37.01344 233
37.03355 222
37.05366 228
37.07378 228
37.09389 204
37.11401 195
37.13412 203
37.15423 216
37.17435 192
37.19446 238
37.21457 214
37.23469 200
37.2548 202
37.27491 199
37.29503 196
37.31514 233
37.33526 182
37.35537 191
37.37548 204
37.3956 213
37.41571 198
37.43582 203
37.45594 195
37.47605 217
37.49617 184
37.51628 211
37.53639 213
37.55651 190
37.57662 220
37.59673 191
37.61685 221
37.63696 198
37.65708 194
37.67719 191
37.6973 227
37.71742 213
37.73753 208
37.75764 189
37.77776 189
37.79787 205
37.81798 198
37.8381 201
37.85821 209
37.87833 199
37.89844 174
37.91855 183
37.93867 186
37.95878 209
37.97889 193
37.99901 212
38.01912 198
38.03924 178
38.05935 188
38.07946 203
38.09958 211
38.11969 190
38.1398 214
38.15992 196
38.18003 214
38.20015 191
38.22026 165
38.24037 207
38.26049 204
38.2806 206
38.30071 190
38.32083 193
38.34094 231
38.36105 228
38.38117 190
38.40128 231
38.4214 203
38.44151 221
38.46162 166
38.48174 188
38.50185 217
38.52196 218
38.54208 210
38.56219 237
38.58231 211
38.60242 216
38.62253 203
38.64265 177
38.66276 212
38.68287 212
38.70299 206
38.7231 198
38.74321 210
38.76333 187
38.78344 200
38.80356 193
38.82367 224
38.84378 227
38.8639 193
38.88401 210
38.90412 202
38.92424 194
38.94435 219
38.96447 204
38.98458 201
39.00469 199
39.02481 243
39.04492 230
39.06503 248
39.08515 263
39.10526 268
39.12538 258
39.14549 274
39.1656 310
39.18572 338
39.20583 381
39.22594 439
39.24606 488
39.26617 578
39.28628 707
39.3064 910
39.32651 1031
39.34663 1255
39.36674 1611
39.38685 1831
39.40697 2063
39.42708 2115
39.44719 2088
39.46731 1864
39.48742 1520
39.50754 1317
39.52765 1158
39.54776 937
39.56788 755
39.58799 557
39.6081 406
39.62822 315
39.64833 297
39.66845 265
39.68856 234
39.70867 245
39.72879 258
39.7489 242
39.76901 241
39.78913 276
39.80924 234
39.82935 238
39.84947 192
39.86958 221
39.8897 239
39.90981 246
39.92992 233
39.95004 253
39.97015 259
39.99026 291
40.01038 309
40.03049 296
40.05061 305
40.07072 363
40.09083 407
40.11095 475
40.13106 554
40.15117 679
40.17129 758
40.1914 804
40.21152 1033
40.23163 1123
40.25174 1155
40.27186 1064
40.29197 993
40.31208 831
40.3322 723
40.35231 688
40.37242 565
40.39254 496
40.41265 395
40.43277 331
40.45288 247
40.47299 242
40.49311 245
40.51322 217
40.53333 204
40.55345 220
40.57356 200
40.59368 196
40.61379 216
40.6339 214
40.65402 178
40.67413 175
40.69424 208
40.71436 199
40.73447 175
40.75458 187
40.7747 192
40.79481 197
40.81493 195
40.83504 187
40.85515 179
40.87527 197
40.89538 185
40.91549 193
40.93561 176
40.95572 193
40.97584 203
40.99595 211
41.01606 186
41.03618 177
41.05629 219
41.0764 216
41.09652 184
41.11663 230
41.13675 199
41.15686 194
41.17697 204
41.19709 190
41.2172 194
41.23731 188
41.25743 200
41.27754 209
41.29765 174
41.31777 175
41.33788 227
41.358 198
41.37811 193
41.39822 212
41.41834 176
41.43845 175
41.45856 190
41.47868 194
41.49879 189
41.51891 209
41.53902 180
41.55913 181
41.57925 181
41.59936 185
41.61947 213
41.63959 232
41.6597 195
41.67982 219
41.69993 192
41.72004 218
41.74016 217
41.76027 219
41.78038 230
41.8005 208
41.82061 208
41.84072 199
41.86084 205
41.88095 211
41.90107 202
41.92118 201
41.94129 195
41.96141 224
41.98152 190
42.00163 212
42.02175 217
42.04186 211
42.06198 243
42.08209 240
42.1022 239
42.12232 250
42.14243 287
42.16254 324
42.18266 354
42.20277 372
42.22289 455
42.243 503
42.26311 577
42.28323 678
42.30334 811
42.32345 943
42.34357 1133
42.36368 1372
42.38379 1544
42.40391 1631
42.42402 1611
42.44414 1420
42.46425 1170
42.48436 1007
42.50448 919
42.52459 811
42.5447 745
42.56482 611
42.58493 415
42.60505 310
42.62516 283
42.64527 238
42.66539 256
42.6855 210
42.70561 226
42.72573 195
42.74584 215
42.76595 241
42.78607 221
42.80618 225
42.8263 216
42.84641 199
42.86652 190
42.88664 193
42.90675 192
42.92686 176
42.94698 195
42.96709 166
42.98721 209
43.00732 177
43.02743 163
43.04755 202
43.06766 178
43.08777 170
43.10789 195
43.128 175
43.14812 184
43.16823 170
43.18834 188
43.20846 162
43.22857 160
43.24868 181
43.2688 172
43.28891 167
43.30902 182
43.32914 185
43.34925 167
43.36937 192
43.38948 177
43.40959 174
43.42971 162
43.44982 175
43.46993 179
43.49005 170
43.51016 176
43.53028 146
43.55039 180
43.5705 176
43.59062 161
43.61073 178
43.63084 158
43.65096 183
43.67107 201
43.69119 186
43.7113 159
43.73141 184
43.75153 158
43.77164 194
43.79175 156
43.81187 175
43.83198 159
43.85209 168
43.87221 151
43.89232 159
43.91244 150
43.93255 177
43.95266 155
43.97278 156
43.99289 186
44.013 183
44.03312 183
44.05323 173
44.07335 169
44.09346 178
44.11357 171
44.13369 159
44.1538 181
44.17391 159
44.19403 170
44.21414 194
44.23426 163
44.25437 186
44.27448 174
44.2946 178
44.31471 162
44.33482 179
44.35494 207
44.37505 174
44.39516 164
44.41528 179
44.43539 170
44.45551 185
44.47562 149
44.49573 173
44.51585 165
44.53596 178
44.55607 185
44.57619 175
44.5963 166
44.61642 172
44.63653 175
44.65664 186
44.67676 174
44.69687 163
44.71698 157
44.7371 163
44.75721 160
44.77732 160
44.79744 182
44.81755 172
44.83767 184
44.85778 175
44.87789 191
44.89801 162
44.91812 207
44.93823 186
44.95835 176
44.97846 168
44.99858 167
45.01869 187
45.0388 168
45.05892 164
45.07903 176
45.09914 165
45.11926 191
45.13937 197
45.15949 165
45.1796 168
45.19971 166
45.21983 187
45.23994 183
45.26005 169
45.28017 185
45.30028 193
45.32039 171
45.34051 226
45.36062 190
45.38074 200
45.40085 209
45.42096 224
45.44108 225
45.46119 225
45.4813 250
45.50142 247
45.52153 263
45.54165 313
45.56176 340
45.58187 345
45.60199 430
45.6221 470
45.64221 580
45.66233 702
45.68244 774
45.70256 916
45.72267 1035
45.74278 1069
45.7629 1068
45.78301 957
45.80312 833
45.82324 691
45.84335 667
45.86346 618
45.88358 596
45.90369 524
45.92381 361
45.94392 301
45.96403 227
45.98415 225
46.00426 196
46.02437 222
46.04449 202
46.0646 218
46.08472 203
46.10483 210
46.12494 182
46.14506 195
46.16517 165
46.18528 175
46.2054 155
46.22551 175
46.24563 172
46.26574 174
46.28585 168
46.30597 164
46.32608 178
46.34619 174
46.36631 147
46.38642 187
46.40653 157
46.42665 178
46.44676 180
46.46688 174
46.48699 167
46.5071 164
46.52722 157
46.54733 192
46.56744 168
46.58756 162
46.60767 164
46.62779 154
46.6479 184
46.66801 141
46.68813 157
46.70824 154
46.72835 187
46.74847 141
46.76858 144
46.78869 161
46.80881 168
46.82892 143
46.84904 149
46.86915 162
46.88926 158
46.90938 170
46.92949 193
46.9496 169
46.96972 152
46.98983 166
47.00995 174
47.03006 152
47.05017 163
47.07029 148
47.0904 161
47.11051 155
47.13063 174
47.15074 165
47.17086 162
47.19097 168
47.21108 153
47.2312 184
47.25131 146
47.27142 182
47.29154 164
47.31165 169
47.33176 164
47.35188 157
47.37199 159
47.39211 174
47.41222 159
47.43233 188
47.45245 148
47.47256 177
47.49267 141
47.51279 161
47.5329 155
47.55302 145
47.57313 151
47.59324 150
47.61336 157
47.63347 176
47.65358 177
47.6737 141
47.69381 164
47.71393 151
47.73404 151
47.75415 156
47.77427 161
47.79438 169
47.81449 150
47.83461 166
47.85472 168
47.87483 161
47.89495 170
47.91506 153
47.93518 152
47.95529 170
47.9754 159
47.99552 152
48.01563 154
48.03574 144
48.05586 161
48.07597 168
48.09609 147
48.1162 143
48.13631 145
48.15643 154
48.17654 159
48.19665 157
48.21677 186
48.23688 153
48.257 147
48.27711 151
48.29722 171
48.31734 189
48.33745 168
48.35756 140
48.37768 157
48.39779 156
48.4179 160
48.43802 141
48.45813 168
48.47825 172
48.49836 182
48.51847 167
48.53859 167
48.5587 147
48.57881 178
48.59893 168
48.61904 151
48.63916 158
48.65927 161
48.67938 175
48.6995 176
48.71961 174
48.73972 182
48.75984 156
48.77995 164
48.80006 172
48.82018 189
48.84029 176
48.86041 181
48.88052 169
48.90063 172
48.92075 180
48.94086 160
48.96097 170
48.98109 172
49.0012 171
49.02132 186
49.04143 155
49.06154 163
49.08166 180
49.10177 174
49.12188 161
49.142 177
49.16211 183
49.18223 164
49.20234 168
49.22245 182
49.24257 147
49.26268 176
49.28279 175
49.30291 194
49.32302 182
49.34313 201
49.36325 191
49.38336 172
49.40348 175
49.42359 190
49.4437 209
49.46382 144
49.48393 190
49.50404 215
49.52416 185
49.54427 191
49.56439 229
49.5845 221
49.60461 229
49.62473 216
49.64484 264
49.66495 240
49.68507 259
49.70518 255
49.7253 323
49.74541 302
49.76552 361
49.78564 392
49.80575 405
49.82586 477
49.84598 564
49.86609 617
49.8862 680
49.90632 852
49.92643 1009
49.94655 1127
49.96666 1420
49.98677 1733
50.00689 2077
50.027 2582
50.04711 2931
50.06723 3269
50.08734 3393
50.10746 3347
50.12757 3018
50.14768 2527
50.1678 2077
50.18791 1860
50.20802 1740
50.22814 1659
50.24825 1511
50.26837 1195
50.28848 862
50.30859 575
50.32871 436
50.34882 398
50.36893 333
50.38905 330
50.40916 328
50.42927 314
50.44939 275
50.4695 292
50.48962 312
50.50973 306
50.52984 275
50.54996 295
50.57007 279
50.59018 295
50.6103 308
50.63041 279
50.65053 235
50.67064 274
50.69075 227
50.71087 220
50.73098 235
50.75109 207
50.77121 201
50.79132 186
50.81143 179
50.83155 177
50.85166 173
50.87178 173
50.89189 177
50.912 204
50.93212 170
50.95223 189
50.97234 165
50.99246 160
51.01257 189
51.03269 159
51.0528 154
51.07291 163
51.09303 151
51.11314 160
51.13325 167
51.15337 180
51.17348 138
51.1936 137
51.21371 164
51.23382 154
51.25394 141
51.27405 143
51.29416 160
51.31428 178
51.33439 159
51.3545 148
51.37462 167
51.39473 159
51.41485 151
51.43496 149
51.45507 165
51.47519 155
51.4953 154
51.51541 166
51.53553 163
51.55564 152
51.57576 176
51.59587 161
51.61598 152
51.6361 142
51.65621 161
51.67632 157
51.69644 172
51.71655 147
51.73667 156
51.75678 145
51.77689 149
51.79701 148
51.81712 144
51.83723 150
51.85735 153
51.87746 139
51.89757 143
51.91769 159
51.9378 154
51.95792 155
51.97803 125
51.99814 140
52.01826 154
52.03837 135
52.05848 135
52.0786 154
52.09871 148
52.11883 164
52.13894 158
52.15905 134
52.17917 143
52.19928 160
52.21939 151
52.23951 169
52.25962 139
52.27974 132
52.29985 160
52.31996 156
52.34008 155
52.36019 128
52.3803 158
52.40042 166
52.42053 144
52.44064 164
52.46076 149
52.48087 151
52.50099 136
52.5211 145
52.54121 141
52.56133 151
52.58144 155
52.60155 172
52.62167 148
52.64178 157
52.6619 178
52.68201 155
52.70212 166
52.72224 155
52.74235 153
52.76246 147
52.78258 159
52.80269 175
52.8228 158
52.84292 153
52.86303 156
52.88315 141
52.90326 145
52.92337 174
52.94349 169
52.9636 151
52.98371 155
53.00383 164
53.02394 171
53.04406 163
53.06417 152
53.08428 140
53.1044 152
53.12451 149
53.14462 133
53.16474 193
53.18485 183
53.20497 158
53.22508 147
53.24519 172
53.26531 163
53.28542 157
53.30553 146
53.32565 181
53.34576 161
53.36587 176
53.38599 176
53.4061 159
53.42622 167
53.44633 151
53.46644 149
53.48656 173
53.50667 156
53.52678 161
53.5469 168
53.56701 147
53.58713 148
53.60724 179
53.62735 170
53.64747 151
53.66758 147
53.68769 155
53.70781 173
53.72792 139
53.74804 145
53.76815 163
53.78826 174
53.80838 155
53.82849 157
53.8486 185
53.86872 166
53.88883 167
53.90894 168
53.92906 162
53.94917 177
53.96929 172
53.9894 190
54.00951 179
54.02963 198
54.04974 166
54.06985 170
54.08997 162
54.11008 165
54.1302 150
54.15031 184
54.17042 181
54.19054 175
54.21065 145
54.23076 175
54.25088 182
54.27099 162
54.29111 196
54.31122 199
54.33133 158
54.35145 165
54.37156 187
54.39167 184
54.41179 189
54.4319 197
54.45201 189
54.47213 207
54.49224 230
54.51236 241
54.53247 251
54.55258 261
54.5727 275
54.59281 289
54.61292 326
54.63304 318
54.65315 391
54.67327 463
54.69338 534
54.71349 632
54.73361 697
54.75372 853
54.77383 937
54.79395 996
54.81406 1057
54.83417 1130
54.85429 1085
54.8744 910
54.89452 714
54.91463 655
54.93474 622
54.95486 622
54.97497 628
54.99508 603
55.0152 545
55.03531 416
55.05543 328
55.07554 340
55.09565 328
55.11577 332
55.13588 333
55.15599 373
55.17611 391
55.19622 417
55.21634 441
55.23645 512
55.25656 571
55.27668 556
55.29679 581
55.3169 496
55.33702 452
55.35713 386
55.37724 381
55.39736 350
55.41747 377
55.43759 322
55.4577 306
55.47781 288
55.49793 254
55.51804 214
55.53815 200
55.55827 203
55.57838 219
55.5985 198
55.61861 161
55.63872 163
55.65884 177
55.67895 156
55.69906 192
55.71918 142
55.73929 164
55.75941 168
55.77952 175
55.79963 171
55.81975 154
55.83986 162
55.85997 157
55.88009 172
55.9002 183
55.92031 165
55.94043 158
55.96054 158
55.98066 190
56.00077 175
56.02088 155
56.041 146
56.06111 148
56.08122 147
56.10134 139
56.12145 156
56.14157 128
56.16168 154
56.18179 169
56.20191 175
56.22202 143
56.24213 151
56.26225 147
56.28236 146
56.30248 182
56.32259 151
56.3427 156
56.36282 148
56.38293 148
56.40304 158
56.42316 158
56.44327 166
56.46338 175
56.4835 166
56.50361 141
56.52373 157
56.54384 153
56.56395 160
56.58407 171
56.60418 142
56.62429 177
56.64441 173
56.66452 168
56.68464 144
56.70475 174
56.72486 161
56.74498 168
56.76509 152
56.7852 171
56.80532 166
56.82543 159
56.84554 164
56.86566 170
56.88577 143
56.90589 150
56.926 165
56.94611 156
56.96623 144
56.98634 173
57.00645 176
57.02657 184
57.04668 176
57.0668 180
57.08691 149
57.10702 164
57.12714 195
57.14725 204
57.16736 214
57.18748 215
57.20759 172
57.22771 196
57.24782 197
57.26793 189
57.28805 182
57.30816 175
57.32827 192
57.34839 186
57.3685 176
57.38861 182
57.40873 172
57.42884 168
57.44896 188
57.46907 153
57.48918 155
57.5093 148
57.52941 151
57.54952 146
57.56964 134
57.58975 150
57.60987 155
57.62998 159
57.65009 172
57.67021 142
57.69032 173
57.71043 142
57.73055 168
57.75066 171
57.77078 168
57.79089 163
57.811 147
57.83112 144
57.85123 172
57.87134 159
57.89146 145
57.91157 165
57.93168 145
57.9518 129
57.97191 173
57.99203 137
58.01214 157
58.03225 155
58.05237 147
58.07248 119
58.09259 161
58.11271 153
58.13282 161
58.15294 144
58.17305 150
58.19316 135
58.21328 155
58.23339 149
58.2535 152
58.27362 185
58.29373 132
58.31385 146
58.33396 148
58.35407 166
58.37419 164
58.3943 146
58.41441 164
58.43453 161
58.45464 149
58.47475 148
58.49487 176
58.51498 156
58.5351 166
58.55521 146
58.57532 171
58.59544 142
58.61555 180
58.63566 175
58.65578 156
58.67589 174
58.69601 146
58.71612 157
58.73623 167
58.75635 161
58.77646 179
58.79657 138
58.81669 167
58.8368 158
58.85691 178
58.87703 161
58.89714 175
58.91726 156
58.93737 143
58.95748 170
58.9776 156
58.99771 180
59.01782 162
59.03794 137
59.05805 184
59.07817 146
59.09828 173
59.11839 175
59.13851 142
59.15862 170
59.17873 152
59.19885 174
59.21896 175
59.23908 163
59.25919 156
59.2793 172
59.29942 184
59.31953 187
59.33964 170
59.35976 166
59.37987 166
59.39998 199
59.4201 205
59.44021 198
59.46033 229
59.48044 225
59.50055 242
59.52067 251
59.54078 270
59.56089 278
59.58101 318
59.60112 335
59.62124 368
59.64135 415
59.66146 437
59.68158 504
59.70169 567
59.7218 649
59.74192 754
59.76203 932
59.78215 1139
59.80226 1270
59.82237 1527
59.84249 1730
59.8626 2056
59.88271 2130
59.90283 2207
59.92294 2225
59.94305 1864
59.96317 1548
59.98328 1313
60.0034 1237
60.02351 1184
60.04362 1209
60.06374 1190
60.08385 1184
60.10396 931
60.12408 710
60.14419 549
60.16431 400
60.18442 294
60.20453 285
60.22465 296
60.24476 252
60.26487 239
60.28499 203
60.3051 188
60.32522 183
60.34533 188
60.36544 187
60.38556 196
60.40567 172
60.42578 194
60.4459 193
60.46601 150
60.48612 174
60.50624 169
60.52635 181
60.54647 170
60.56658 176
60.58669 172
60.60681 187
60.62692 147
60.64703 196
60.66715 173
60.68726 164
60.70738 149
60.72749 161
60.7476 159
60.76772 166
60.78783 146
60.80794 175
60.82806 173
60.84817 166
60.86828 170
60.8884 179
60.90851 175
60.92863 164
60.94874 172
60.96885 153
60.98897 158
61.00908 152
61.02919 159
61.04931 173
61.06942 156
61.08954 179
61.10965 154
61.12976 156
61.14988 185
61.16999 157
61.1901 146
61.21022 165
61.23033 172
61.25045 158
61.27056 168
61.29067 149
61.31079 163
61.3309 177
61.35101 175
61.37113 151
61.39124 176
61.41135 157
61.43147 154
61.45158 178
61.4717 187
61.49181 160
61.51192 151
61.53204 174
61.55215 156
61.57226 170
61.59238 167
61.61249 167
61.63261 176
61.65272 152
61.67283 169
61.69295 150
61.71306 177
61.73317 184
61.75329 161
61.7734 159
61.79352 154
61.81363 181
61.83374 160
61.85386 172
61.87397 172
61.89408 182
61.9142 188
61.93431 151
61.95442 162
61.97454 169
61.99465 164
62.01477 191
62.03488 182
62.05499 173
62.07511 175
62.09522 153
62.11533 174
62.13545 151
62.15556 177
62.17568 173
62.19579 180
62.2159 182
62.23602 160
62.25613 190
62.27624 173
62.29636 167
62.31647 145
62.33659 179
62.3567 151
62.37681 158
62.39693 187
62.41704 167
62.43715 155
62.45727 154
62.47738 161
62.49749 154
62.51761 143
62.53772 159
62.55784 145
62.57795 163
62.59806 169
62.61818 151
62.63829 147
62.6584 151
62.67852 150
62.69863 149
62.71875 180
62.73886 139
62.75897 165
62.77909 151
62.7992 159
62.81931 154
62.83943 173
62.85954 146
62.87965 189
62.89977 153
62.91988 163
62.94 165
62.96011 151
62.98022 145
63.00034 156
63.02045 137
63.04056 144
63.06068 166
63.08079 152
63.10091 155
63.12102 150
63.14113 142
63.16125 143
63.18136 146
63.20147 155
63.22159 164
63.2417 172
63.26182 166
63.28193 172
63.30204 155
63.32216 168
63.34227 149
63.36238 155
63.3825 171
63.40261 169
63.42272 160
63.44284 157
63.46295 148
63.48307 156
63.50318 164
63.52329 167
63.54341 156
63.56352 159
63.58363 149
63.60375 154
63.62386 184
63.64398 166
63.66409 188
63.6842 178
63.70432 203
63.72443 214
63.74454 183
63.76466 205
63.78477 239
63.80489 220
63.825 276
63.84511 276
63.86523 312
63.88534 351
63.90545 389
63.92557 437
63.94568 516
63.96579 502
63.98591 548
64.00602 503
64.02614 446
64.04625 396
64.06636 337
64.08648 307
64.10659 311
64.1267 341
64.14682 321
64.16693 307
64.18705 313
64.20716 296
64.22727 210
64.24739 206
64.2675 166
64.28761 182
64.30773 165
64.32784 169
64.34796 157
64.36807 156
64.38818 148
64.4083 148
64.42841 154
64.44852 140
64.46864 156
64.48875 141
64.50886 154
64.52898 152
64.54909 137
64.56921 139
64.58932 144
64.60943 162
64.62955 140
64.64966 154
64.66977 156
64.68989 152
64.71 152
64.73012 137
64.75023 156
64.77034 168
64.79046 132
64.81057 170
64.83068 155
64.8508 153
64.87091 142
64.89102 154
64.91114 144
64.93125 135
64.95137 138
64.97148 155
64.99159 163
65.01171 162
65.03182 153
65.05193 152
65.07205 139
65.09216 158
65.11228 154
65.13239 160
65.1525 163
65.17262 143
65.19273 160
65.21284 138
65.23296 153
65.25307 168
65.27319 142
65.2933 174
65.31341 134
65.33353 173
65.35364 162
65.37375 175
65.39387 162
65.41398 153
65.43409 148
65.45421 163
65.47432 157
65.49444 174
65.51455 159
65.53466 182
65.55478 169
65.57489 175
65.595 198
65.61512 196
65.63523 203
65.65535 222
65.67546 220
65.69557 243
65.71569 242
65.7358 232
65.75591 250
65.77603 230
65.79614 215
65.81626 192
65.83637 205
65.85648 204
65.8766 196
65.89671 184
65.91682 223
65.93694 184
65.95705 182
65.97716 173
65.99728 152
66.01739 162
66.03751 141
66.05762 156
66.07773 170
66.09785 179
66.11796 178
66.13807 151
66.15819 156
66.1783 155
66.19842 163
66.21853 148
66.23864 170
66.25876 156
66.27887 167
66.29898 157
66.3191 165
66.33921 164
66.35933 141
66.37944 166
66.39955 149
66.41967 154
66.43978 136
66.45989 143
66.48001 158
66.50012 147
66.52023 151
66.54035 155
66.56046 160
66.58058 152
66.60069 144
66.6208 147
66.64092 151
66.66103 139
66.68114 164
66.70126 174
66.72137 153
66.74149 161
66.7616 179
66.78171 156
66.80183 170
66.82194 159
66.84205 172
66.86217 162
66.88228 176
66.90239 165
66.92251 175
66.94262 185
66.96274 160
66.98285 172
67.00296 187
67.02308 170
67.04319 178
67.0633 151
67.08342 168
67.10353 188
67.12365 187
67.14376 207
67.16387 202
67.18399 188
67.2041 196
67.22421 233
67.24433 229
67.26444 202
67.28456 235
67.30467 215
67.32478 258
67.3449 258
67.36501 295
67.38512 298
67.40524 309
67.42535 320
67.44546 350
67.46558 405
67.48569 429
67.50581 474
67.52592 554
67.54603 631
67.56615 712
67.58626 838
67.60637 973
67.62649 1098
67.6466 1209
67.66672 1341
67.68683 1394
67.70694 1390
67.72706 1261
67.74717 1102
67.76728 953
67.7874 880
67.80751 808
67.82763 938
67.84774 962
67.86785 1045
67.88797 1068
67.90808 1074
67.92819 1110
67.94831 1076
67.96842 1093
67.98853 1135
68.00865 1270
68.02876 1455
68.04888 1651
68.06899 1718
68.0891 1836
68.10922 1872
68.12933 1762
68.14944 1622
68.16956 1468
68.18967 1416
68.20979 1523
68.2299 1594
68.25001 1661
68.27013 1758
68.29024 1563
68.31035 1365
68.33047 1158
68.35058 914
68.3707 753
68.39081 702
68.41092 652
68.43104 673
68.45115 627
68.47126 571
68.49138 504
68.51149 410
68.5316 361
68.55172 304
68.57183 276
68.59195 220
68.61206 227
68.63217 195
68.65229 205
68.6724 205
68.69251 215
68.71263 187
68.73274 171
68.75286 200
68.77297 186
68.79308 197
68.8132 174
68.83331 186
68.85342 179
68.87354 196
68.89365 149
68.91376 172
68.93388 172
68.95399 158
68.97411 168
68.99422 152
69.01433 152
69.03445 170
69.05456 148
69.07467 157
69.09479 153
69.1149 143
69.13502 143
69.15513 174
69.17524 171
69.19536 166
69.21547 146
69.23558 164
69.2557 170
69.27581 144
69.29593 138
69.31604 175
69.33615 137
69.35627 143
69.37638 155
69.39649 155
69.41661 171
69.43672 166
69.45683 166
69.47695 143
69.49706 149
69.51718 130
69.53729 169
69.5574 195
69.57752 137
69.59763 148
69.61774 144
69.63786 139
69.65797 149
69.67809 141
69.6982 140
69.71831 132
69.73843 156
69.75854 148
69.77865 155
69.79877 142
69.81888 135
69.839 136
69.85911 136
69.87922 141
69.89934 141
69.91945 146
69.93956 164
69.95968 158
69.97979 158
69.9999 130
70.02002 147
70.04013 150
70.06025 149
70.08036 152
70.10047 150
70.12059 153
70.1407 137
70.16081 153
70.18093 127
70.20104 136
70.22116 132
70.24127 146
70.26138 130
70.2815 144
70.30161 141
70.32172 148
70.34184 135
70.36195 145
70.38207 138
70.40218 142
70.42229 138
70.44241 138
70.46252 159
70.48263 144
70.50275 132
70.52286 136
70.54297 132
70.56309 140
70.5832 144
70.60332 144
70.62343 134
70.64354 155
70.66366 147
70.68377 142
70.70388 154
70.724 130
70.74411 151
70.76423 163
70.78434 154
70.80445 161
70.82457 146
70.84468 152
70.86479 148
70.88491 141
70.90502 154
70.92513 141
70.94525 144
70.96536 146
70.98548 131
71.00559 153
71.0257 128
71.04582 161
71.06593 144
71.08604 130
71.10616 148
71.12627 148
71.14639 133
71.1665 127
71.18661 140
71.20673 143
71.22684 132
71.24695 143
71.26707 123
71.28718 135
71.3073 155
71.32741 141
71.34752 130
71.36764 134
71.38775 123
71.40786 140
71.42798 135
71.44809 171
71.4682 149
71.48832 146
71.50843 142
71.52855 154
71.54866 145
71.56877 153
71.58889 133
71.609 147
71.62911 134
71.64923 144
71.66934 133
71.68946 152
71.70957 138
71.72968 150
71.7498 139
71.76991 155
71.79002 165
71.81014 128
71.83025 136
71.85037 140
71.87048 134
71.89059 135
71.91071 138
71.93082 135
71.95093 148
71.97105 135
71.99116 183
72.01127 140
72.03139 149
72.0515 122
72.07162 135
72.09173 161
72.11184 163
72.13196 142
72.15207 142
72.17218 136
72.1923 140
72.21241 152
72.23253 137
72.25264 136
72.27275 162
72.29287 150
72.31298 133
72.33309 142
72.35321 147
72.37332 139
72.39344 172
72.41355 150
72.43366 135
72.45378 135
72.47389 130
72.494 142
72.51412 126
72.53423 134
72.55434 141
72.57446 158
72.59457 136
72.61469 129
72.6348 142
72.65491 131
72.67503 141
72.69514 143
72.71525 135
72.73537 154
72.75548 147
72.7756 170
72.79571 144
72.81582 144
72.83594 137
72.85605 130
72.87616 141
72.89628 163
72.91639 154
72.9365 158
72.95662 151
72.97673 149
72.99685 181
73.01696 164
73.03707 169
73.05719 198
73.0773 180
73.09741 174
73.11753 193
73.13764 187
73.15776 202
73.17787 240
73.19798 245
73.2181 212
73.23821 279
73.25832 253
73.27844 322
73.29855 353
73.31867 361
73.33878 440
73.35889 510
73.37901 568
73.39912 614
73.41923 560
73.43935 486
73.45946 511
73.47957 412
73.49969 368
73.5198 339
73.53992 304
73.56003 310
73.58014 347
73.60026 334
73.62037 314
73.64048 353
73.6606 317
73.68071 264
73.70083 228
73.72094 194
73.74105 188
73.76117 182
73.78128 162
73.80139 159
73.82151 170
73.84162 148
73.86174 157
73.88185 146
73.90196 144
73.92208 162
73.94219 172
73.9623 138
73.98242 142
74.00253 155
74.02264 154
74.04276 140
74.06287 136
74.08299 150
74.1031 132
74.12321 144
74.14333 167
74.16344 148
74.18355 139
74.20367 144
74.22378 158
74.2439 144
74.26401 135
74.28412 141
74.30424 148
74.32435 134
74.34446 139
74.36458 143
74.38469 144
74.40481 137
74.42492 117
74.44503 149
74.46515 152
74.48526 148
74.50537 137
74.52549 142
74.5456 163
74.56571 141
74.58583 138
74.60594 137
74.62606 136
74.64617 166
74.66628 151
74.6864 148
74.70651 142
74.72662 151
74.74674 139
74.76685 141
74.78697 158
74.80708 158
74.82719 152
74.84731 156
74.86742 153
74.88753 155
74.90765 124
74.92776 139
74.94787 146
74.96799 150
74.9881 165
75.00822 139
