3.00117 25881
3.02128 25194
3.0414 24597
3.06151 24513
3.08162 23171
3.10174 22478
3.12185 22315
3.14197 21337
3.16208 21147
3.18219 19854
3.20231 19738
3.22242 19278
3.24253 18290
3.26265 18283
3.28276 17322
3.30288 16829
3.32299 16881
3.3431 16079
3.36322 15746
3.38333 14836
3.40344 14695
3.42356 14260
3.44367 13594
3.46379 13496
3.4839 12783
3.50401 12715
3.52413 12390
3.54424 11745
3.56435 11519
3.58447 10725
3.60458 10529
3.62469 10419
3.64481 9826
3.66492 9795
3.68504 9131
3.70515 9055
3.72526 8807
3.74538 8436
3.76549 8456
3.7856 7662
3.80572 7751
3.82583 7276
3.84595 6941
3.86606 6883
3.88617 6440
3.90629 6303
3.9264 6125
3.94651 5876
3.96663 5760
3.98674 5270
4.00686 5257
4.02697 5106
4.04708 4801
4.0672 4806
4.08731 4383
4.10742 4254
4.12754 4294
4.14765 4087
4.16776 4067
4.18788 3723
4.20799 3658
4.22811 3593
4.24822 3484
4.26833 3403
4.28845 3249
4.30856 3109
4.32867 3273
4.34879 2991
4.3689 3181
4.38902 2843
4.40913 2844
4.42924 2992
4.44936 2794
4.46947 2692
4.48958 2683
4.5097 2757
4.52981 2678
4.54992 2645
4.57004 2700
4.59015 2482
4.61027 2478
4.63038 2646
4.65049 2462
4.67061 2494
4.69072 2353
4.71083 2323
4.73095 2511
4.75106 2294
4.77118 2342
4.79129 2443
4.8114 2325
4.83152 2276
4.85163 2251
4.87174 2256
4.89186 2253
4.91197 2243
4.93209 2242
4.9522 2291
4.97231 2204
4.99243 2207
5.01254 2165
5.03265 2230
5.05277 2236
5.07288 2220
5.09299 2218
5.11311 2031
5.13322 2135
5.15334 2129
5.17345 2157
5.19356 2255
5.21368 2058
5.23379 2168
5.2539 2183
5.27402 2139
5.29413 2092
5.31425 2165
5.33436 2116
5.35447 2025
5.37459 2123
5.3947 2042
5.41481 2061
5.43493 2118
5.45504 2147
5.47516 2039
5.49527 2059
5.51538 2142
5.5355 2039
5.55561 2093
5.57572 2009
5.59584 1975
5.61595 2019
5.63606 2011
5.65618 1962
5.67629 2046
5.69641 1985
5.71652 1945
5.73663 1917
5.75675 1890
5.77686 1871
5.79697 1868
5.81709 1830
5.8372 1776
5.85732 1858
5.87743 1753
5.89754 1772
5.91766 1846
5.93777 1809
5.95788 1785
5.978 1648
5.99811 1692
6.01823 1586
6.03834 1744
6.05845 1582
6.07857 1533
6.09868 1590
6.11879 1614
6.13891 1500
6.15902 1522
6.17913 1432
6.19925 1433
6.21936 1415
6.23948 1403
6.25959 1274
6.2797 1467
6.29982 1301
6.31993 1249
6.34004 1326
6.36016 1282
6.38027 1289
6.40039 1270
6.4205 1227
6.44061 1171
6.46073 1193
6.48084 1205
6.50095 1163
6.52107 1166
6.54118 1193
6.56129 1077
6.58141 1204
6.60152 1148
6.62164 1063
6.64175 1050
6.66186 1062
6.68198 1042
6.70209 998
6.7222 980
6.74232 982
6.76243 957
6.78255 964
6.80266 995
6.82277 938
6.84289 938
6.863 912
6.88311 914
6.90323 855
6.92334 879
6.94346 902
6.96357 844
6.98368 883
7.0038 880
7.02391 841
7.04402 823
7.06414 830
7.08425 814
7.10436 816
7.12448 793
7.14459 759
7.16471 783
7.18482 796
7.20493 755
7.22505 759
7.24516 741
7.26527 712
7.28539 721
7.3055 691
7.32562 713
7.34573 682
7.36584 698
7.38596 667
7.40607 656
7.42618 720
7.4463 678
7.46641 646
7.48653 622
7.50664 668
7.52675 657
7.54687 641
7.56698 648
7.58709 668
7.60721 672
7.62732 671
7.64743 616
7.66755 555
7.68766 618
7.70778 571
7.72789 610
7.748 572
7.76812 580
7.78823 602
7.80834 633
7.82846 540
7.84857 594
7.86869 564
7.8888 581
7.90891 589
7.92903 560
7.94914 628
7.96925 569
7.98937 544
8.00948 552
8.0296 584
8.04971 558
8.06982 553
8.08994 491
8.11005 545
8.13016 517
8.15028 534
8.17039 499
8.1905 554
8.21062 555
8.23073 527
8.25085 521
8.27096 530
8.29107 523
8.31119 537
8.3313 517
8.35141 522
8.37153 454
8.39164 515
8.41176 501
8.43187 489
8.45198 521
8.4721 527
8.49221 536
8.51232 499
8.53244 535
8.55255 491
8.57266 466
8.59278 492
8.61289 506
8.63301 491
8.65312 526
8.67323 484
8.69335 547
8.71346 487
8.73357 487
8.75369 505
8.7738 517
8.79392 471
8.81403 516
8.83414 459
8.85426 486
8.87437 494
8.89448 471
8.9146 509
8.93471 487
8.95483 453
8.97494 462
8.99505 430
9.01517 464
9.03528 472
9.05539 457
9.07551 464
9.09562 449
9.11573 500
9.13585 441
9.15596 459
9.17608 458
9.19619 480
9.2163 459
9.23642 419
9.25653 438
9.27664 435
9.29676 446
9.31687 422
9.33699 439
9.3571 478
9.37721 429
9.39733 455
9.41744 405
9.43755 445
9.45767 471
9.47778 400
9.4979 403
9.51801 438
9.53812 434
9.55824 451
9.57835 431
9.59846 394
9.61858 398
9.63869 389
9.6588 397
9.67892 407
9.69903 425
9.71915 448
9.73926 420
9.75937 396
9.77949 401
9.7996 393
9.81971 450
9.83983 414
9.85994 459
9.88006 437
9.90017 413
9.92028 402
9.9404 429
9.96051 383
9.98062 372
10.00074 396
10.02085 388
10.04097 413
10.06108 385
10.08119 404
10.10131 387
10.12142 405
10.14153 411
10.16165 378
10.18176 362
10.20187 399
10.22199 401
10.2421 447
10.26222 397
10.28233 408
10.30244 446
10.32256 354
10.34267 401
10.36278 393
10.3829 374
10.40301 459
10.42313 410
10.44324 419
10.46335 389
10.48347 364
10.50358 367
10.52369 382
10.54381 353
10.56392 386
10.58403 369
10.60415 386
10.62426 385
10.64438 387
10.66449 414
10.6846 386
10.70472 355
10.72483 379
10.74494 369
10.76506 406
10.78517 436
10.80529 427
10.8254 390
10.84551 376
10.86563 405
10.88574 412
10.90585 398
10.92597 385
10.94608 428
10.9662 389
10.98631 398
11.00642 403
11.02654 399
11.04665 386
11.06676 394
11.08688 411
11.10699 375
11.1271 389
11.14722 396
11.16733 380
11.18745 343
11.20756 373
11.22767 380
11.24779 389
11.2679 380
11.28801 375
11.30813 372
11.32824 394
11.34836 400
11.36847 360
11.38858 372
11.4087 389
11.42881 342
11.44892 380
11.46904 371
11.48915 355
11.50927 344
11.52938 401
11.54949 361
11.56961 392
11.58972 358
11.60983 358
11.62995 345
11.65006 407
11.67017 399
11.69029 326
11.7104 365
11.73052 380
11.75063 357
11.77074 368
11.79086 328
11.81097 373
11.83108 335
11.8512 346
11.87131 366
11.89143 379
11.91154 357
11.93165 383
11.95177 379
11.97188 342
11.99199 406
12.01211 391
12.03222 357
12.05234 375
12.07245 407
12.09256 400
12.11268 351
12.13279 397
12.1529 378
12.17302 384
12.19313 377
12.21324 367
12.23336 390
12.25347 403
12.27359 361
12.2937 389
12.31381 370
12.33393 388
12.35404 378
12.37415 358
12.39427 361
12.41438 352
12.4345 379
12.45461 381
12.47472 409
12.49484 370
12.51495 356
12.53506 367
12.55518 363
12.57529 360
12.5954 370
12.61552 335
12.63563 359
12.65575 374
12.67586 361
12.69597 320
12.71609 387
12.7362 343
12.75631 369
12.77643 331
12.79654 384
12.81666 353
12.83677 360
12.85688 384
12.877 355
12.89711 360
12.91722 329
12.93734 381
12.95745 391
12.97757 374
12.99768 374
13.01779 374
13.03791 352
13.05802 333
13.07813 376
13.09825 378
13.11836 379
13.13847 401
13.15859 389
13.1787 390
13.19882 342
13.21893 386
13.23904 372
13.25916 361
13.27927 319
13.29938 394
13.3195 371
13.33961 375
13.35973 396
13.37984 377
13.39995 362
13.42007 348
13.44018 387
13.46029 373
13.48041 346
13.50052 390
13.52064 370
13.54075 405
13.56086 418
13.58098 435
13.60109 430
13.6212 439
13.64132 460
13.66143 438
13.68154 392
13.70166 393
13.72177 387
13.74189 427
13.762 363
13.78211 401
13.80223 369
13.82234 377
13.84245 441
13.86257 334
13.88268 375
13.9028 359
13.92291 372
13.94302 366
13.96314 326
13.98325 337
14.00336 346
14.02348 326
14.04359 368
14.06371 360
14.08382 382
14.10393 363
14.12405 358
14.14416 387
14.16427 376
14.18439 370
14.2045 388
14.22461 333
14.24473 358
14.26484 349
14.28496 358
14.30507 347
14.32518 355
14.3453 312
14.36541 342
14.38552 349
14.40564 328
14.42575 323
14.44587 348
14.46598 352
14.48609 363
14.50621 324
14.52632 308
14.54643 340
14.56655 337
14.58666 358
14.60677 378
14.62689 369
14.647 362
14.66712 378
14.68723 343
14.70734 344
14.72746 322
14.74757 355
14.76768 383
14.7878 318
14.80791 360
14.82803 353
14.84814 370
14.86825 370
14.88837 370
14.90848 376
14.92859 348
14.94871 389
14.96882 326
14.98894 357
15.00905 373
15.02916 341
15.04928 426
15.06939 367
15.0895 339
15.10962 366
15.12973 426
15.14984 399
15.16996 402
15.19007 400
15.21019 354
15.2303 361
15.25041 386
15.27053 355
15.29064 419
15.31075 356
15.33087 393
15.35098 367
15.3711 359
15.39121 386
15.41132 346
15.43144 359
15.45155 351
15.47166 379
15.49178 411
15.51189 369
15.53201 366
15.55212 365
15.57223 355
15.59235 340
15.61246 331
15.63257 357
15.65269 378
15.6728 357
15.69291 349
15.71303 349
15.73314 353
15.75326 369
15.77337 360
15.79348 371
15.8136 331
15.83371 414
15.85382 348
15.87394 376
15.89405 346
15.91417 335
15.93428 352
15.95439 333
15.97451 354
15.99462 378
16.01473 371
16.03485 371
16.05496 389
16.07508 343
16.09519 358
16.1153 396
16.13542 374
16.15553 331
16.17564 342
16.19576 384
16.21587 368
16.23598 383
16.2561 387
16.27621 363
16.29633 375
16.31644 359
16.33655 349
16.35667 368
16.37678 357
16.39689 355
16.41701 350
16.43712 393
16.45724 366
16.47735 389
16.49746 348
16.51758 370
16.53769 373
16.5578 375
16.57792 378
16.59803 360
16.61814 382
16.63826 384
16.65837 381
16.67849 321
16.6986 364
16.71871 370
16.73883 362
16.75894 377
16.77905 361
16.79917 378
16.81928 383
16.8394 345
16.85951 338
16.87962 402
16.89974 384
16.91985 377
16.93996 369
16.96008 403
16.98019 354
17.00031 372
17.02042 377
17.04053 395
17.06065 362
17.08076 417
17.10087 375
17.12099 441
17.1411 370
17.16121 411
17.18133 431
17.20144 351
17.22156 365
17.24167 407
17.26178 395
17.2819 387
17.30201 419
17.32212 389
17.34224 380
17.36235 408
17.38247 379
17.40258 369
17.42269 345
17.44281 401
17.46292 408
17.48303 377
17.50315 364
17.52326 395
17.54338 388
17.56349 429
17.5836 371
17.60372 401
17.62383 426
17.64394 385
17.66406 406
17.68417 394
17.70428 397
17.7244 384
17.74451 396
17.76463 351
17.78474 414
17.80485 373
17.82497 403
17.84508 391
17.86519 381
17.88531 362
17.90542 402
17.92554 411
17.94565 404
17.96576 378
17.98588 404
18.00599 443
18.0261 375
18.04622 347
18.06633 427
18.08645 411
18.10656 389
18.12667 370
18.14679 383
18.1669 420
18.18701 382
18.20713 370
18.22724 360
18.24735 376
18.26747 369
18.28758 381
18.3077 397
18.32781 332
18.34792 400
18.36804 387
18.38815 390
18.40826 364
18.42838 392
18.44849 417
18.46861 389
18.48872 380
18.50883 359
18.52895 376
18.54906 369
18.56917 398
18.58929 408
18.6094 375
18.62951 404
18.64963 366
18.66974 409
18.68986 397
18.70997 414
18.73008 412
18.7502 401
18.77031 396
18.79042 411
18.81054 431
18.83065 394
18.85077 393
18.87088 397
18.89099 418
18.91111 411
18.93122 412
18.95133 415
18.97145 395
18.99156 410
19.01168 453
19.03179 410
19.0519 376
19.07202 378
19.09213 439
19.11224 472
19.13236 446
19.15247 446
19.17258 438
19.1927 462
19.21281 491
19.23293 457
19.25304 526
19.27315 503
19.29327 562
19.31338 552
19.33349 546
19.35361 619
19.37372 614
19.39384 652
19.41395 666
19.43406 686
19.45418 678
19.47429 728
19.4944 799
19.51452 784
19.53463 861
19.55475 948
19.57486 910
19.59497 960
19.61509 977
19.6352 991
19.65531 1043
19.67543 1112
19.69554 1039
19.71565 1129
19.73577 1133
19.75588 1095
19.776 1065
19.79611 1111
19.81622 1049
19.83634 1056
19.85645 1001
19.87656 1003
19.89668 960
19.91679 927
19.93691 960
19.95702 934
19.97713 907
19.99725 827
20.01736 907
20.03747 850
20.05759 884
20.0777 873
20.09782 832
20.11793 824
20.13804 853
20.15816 818
20.17827 792
20.19838 777
20.2185 794
20.23861 777
20.25872 803
20.27884 780
20.29895 773
20.31907 761
20.33918 748
20.35929 738
20.37941 793
20.39952 785
20.41963 686
20.43975 741
20.45986 763
20.47998 714
20.50009 733
20.5202 776
20.54032 797
20.56043 798
20.58054 857
20.60066 811
20.62077 897
20.64088 955
20.661 1052
20.68111 1191
20.70123 1418
20.72134 1668
20.74145 1885
20.76157 2280
20.78168 2423
20.80179 2600
20.82191 2696
20.84202 2412
20.86214 2045
20.88225 1769
20.90236 1461
20.92248 1173
20.94259 1029
20.9627 839
20.98282 801
21.00293 796
21.02305 689
21.04316 708
21.06327 667
21.08339 705
21.1035 664
21.12361 673
21.14373 732
21.16384 655
21.18395 661
21.20407 588
21.22418 631
21.2443 656
21.26441 612
21.28452 619
21.30464 585
21.32475 672
21.34486 682
21.36498 608
21.38509 622
21.40521 655
21.42532 687
21.44543 683
21.46555 721
21.48566 725
21.50577 734
21.52589 738
21.546 762
21.56612 772
21.58623 798
21.60634 658
21.62646 709
21.64657 678
21.66668 643
21.6868 623
21.70691 629
21.72702 615
21.74714 588
21.76725 599
21.78737 591
21.80748 622
21.82759 628
21.84771 618
21.86782 573
21.88793 615
21.90805 600
21.92816 663
21.94828 605
21.96839 616
21.9885 654
22.00862 673
22.02873 608
22.04884 617
22.06896 566
22.08907 555
22.10919 549
22.1293 550
22.14941 542
22.16953 560
22.18964 537
22.20975 546
22.22987 543
22.24998 573
22.27009 562
22.29021 549
22.31032 543
22.33044 516
22.35055 514
22.37066 553
22.39078 532
22.41089 549
22.431 583
22.45112 503
22.47123 533
22.49135 528
22.51146 583
22.53157 566
22.55169 572
22.5718 565
22.59191 573
22.61203 540
22.63214 541
22.65225 538
22.67237 577
22.69248 549
22.7126 613
22.73271 567
22.75282 659
22.77294 635
22.79305 632
22.81316 597
22.83328 585
22.85339 620
22.87351 642
22.89362 649
22.91373 649
22.93385 654
22.95396 669
22.97407 661
22.99419 654
23.0143 668
23.03442 645
23.05453 657
23.07464 624
23.09476 620
23.11487 601
23.13498 561
23.1551 508
23.17521 602
23.19532 536
23.21544 537
23.23555 546
23.25567 596
23.27578 551
23.29589 569
23.31601 554
23.33612 604
23.35623 550
23.37635 595
23.39646 617
23.41658 608
23.43669 631
23.4568 611
23.47692 664
23.49703 642
23.51714 637
23.53726 680
23.55737 679
23.57749 728
23.5976 719
23.61771 677
23.63783 702
23.65794 698
23.67805 639
23.69817 685
23.71828 643
23.73839 643
23.75851 689
23.77862 637
23.79874 638
23.81885 588
23.83896 582
23.85908 620
23.87919 645
23.8993 600
23.91942 589
23.93953 604
23.95965 606
23.97976 538
23.99987 560
24.01999 613
24.0401 613
24.06021 556
24.08033 560
24.10044 576
24.12056 558
24.14067 565
24.16078 527
24.1809 579
24.20101 574
24.22112 569
24.24124 556
24.26135 590
24.28146 541
24.30158 526
24.32169 584
24.34181 516
24.36192 553
24.38203 532
24.40215 500
24.42226 520
24.44237 513
24.46249 528
24.4826 539
24.50272 547
24.52283 559
24.54294 551
24.56306 580
24.58317 526
24.60328 526
24.6234 551
24.64351 567
24.66362 516
24.68374 536
24.70385 547
24.72397 541
24.74408 554
24.76419 536
24.78431 497
24.80442 562
24.82453 511
24.84465 559
24.86476 580
24.88488 532
24.90499 542
24.9251 540
24.94522 536
24.96533 590
24.98544 526
25.00556 519
25.02567 540
25.04579 539
25.0659 590
25.08601 465
25.10613 571
25.12624 508
25.14635 555
25.16647 567
25.18658 566
25.20669 597
25.22681 549
25.24692 595
25.26704 546
25.28715 548
25.30726 551
25.32738 536
25.34749 585
25.3676 538
25.38772 589
25.40783 526
25.42795 592
25.44806 557
25.46817 597
25.48829 602
25.5084 580
25.52851 621
25.54863 596
25.56874 605
25.58886 592
25.60897 632
25.62908 674
25.6492 642
25.66931 676
25.68942 659
25.70954 709
25.72965 687
25.74976 660
25.76988 626
25.78999 663
25.81011 625
25.83022 623
25.85033 688
25.87045 663
25.89056 654
25.91067 602
25.93079 588
25.9509 686
25.97102 572
25.99113 681
26.01124 671
26.03136 645
26.05147 636
26.07158 622
26.0917 672
26.11181 682
26.13193 690
26.15204 736
26.17215 768
26.19227 754
26.21238 805
26.23249 860
26.25261 920
26.27272 969
26.29283 1065
26.31295 1137
26.33306 1273
26.35318 1409
26.37329 1658
26.3934 1883
26.41352 2457
26.43363 2927
26.45374 3731
26.47386 4787
26.49397 5902
26.51409 7308
26.5342 8340
26.55431 9521
26.57443 9710
26.59454 9509
26.61465 8953
26.63477 7807
26.65488 6235
26.67499 4773
26.69511 3561
26.71522 2681
26.73534 1969
26.75545 1496
26.77556 1198
26.79568 1109
26.81579 978
26.8359 899
26.85602 923
26.87613 790
26.89625 852
26.91636 776
26.93647 771
26.95659 720
26.9767 732
26.99681 739
27.01693 674
27.03704 700
27.05716 672
27.07727 715
27.09738 644
27.1175 724
27.13761 672
27.15772 697
27.17784 699
27.19795 687
27.21806 761
27.23818 772
27.25829 770
27.27841 802
27.29852 799
27.31863 925
27.33875 953
27.35886 971
27.37897 1130
27.39909 1136
27.4192 1091
27.43932 1173
27.45943 1143
27.47954 1072
27.49966 1071
27.51977 1012
27.53988 982
27.56 907
27.58011 907
27.60023 931
27.62034 947
27.64045 886
27.66057 897
27.68068 974
27.70079 904
27.72091 965
27.74102 919
27.76113 914
27.78125 903
27.80136 754
27.82148 825
27.84159 738
27.8617 773
27.88182 703
27.90193 708
27.92204 746
27.94216 663
27.96227 667
27.98239 603
28.0025 612
28.02261 627
28.04273 630
28.06284 631
28.08295 651
28.10307 630
28.12318 643
28.1433 636
28.16341 644
28.18352 685
28.20364 648
28.22375 668
28.24386 652
28.26398 655
28.28409 613
28.3042 570
28.32432 584
28.34443 582
28.36455 587
28.38466 580
28.40477 554
28.42489 503
28.445 593
28.46511 525
28.48523 536
28.50534 554
28.52546 564
28.54557 566
28.56568 543
28.5858 582
28.60591 543
28.62602 571
28.64614 529
28.66625 555
28.68636 531
28.70648 535
28.72659 560
28.74671 550
28.76682 514
28.78693 589
28.80705 578
28.82716 546
28.84727 532
28.86739 569
28.8875 556
28.90762 578
28.92773 526
28.94784 629
28.96796 556
28.98807 572
29.00818 582
29.0283 562
29.04841 539
29.06853 662
29.08864 567
29.10875 613
29.12887 686
29.14898 644
29.16909 719
29.18921 769
29.20932 831
29.22943 926
29.24955 1042
29.26966 1085
29.28978 1237
29.30989 1331
29.33 1340
29.35012 1408
29.37023 1360
29.39034 1318
29.41046 1225
29.43057 1096
29.45069 934
29.4708 840
29.49091 809
29.51103 713
29.53114 675
29.55125 615
29.57137 634
29.59148 586
29.6116 573
29.63171 599
29.65182 578
29.67194 551
29.69205 633
29.71216 609
29.73228 615
29.75239 593
29.7725 592
29.79262 608
29.81273 562
29.83285 585
29.85296 619
29.87307 560
29.89319 586
29.9133 550
29.93341 576
29.95353 572
29.97364 560
29.99376 581
30.01387 584
30.03398 570
30.0541 574
30.07421 600
30.09432 575
30.11444 514
30.13455 595
30.15467 555
30.17478 514
30.19489 560
30.21501 562
30.23512 501
30.25523 512
30.27535 547
30.29546 564
30.31557 534
30.33569 537
30.3558 543
30.37592 533
30.39603 515
30.41614 527
30.43626 543
30.45637 499
30.47648 553
30.4966 538
30.51671 508
30.53683 509
30.55694 518
30.57705 550
30.59717 493
30.61728 538
30.63739 510
30.65751 493
30.67762 565
30.69773 564
30.71785 582
30.73796 531
30.75808 536
30.77819 526
30.7983 553
30.81842 544
30.83853 510
30.85864 484
30.87876 481
30.89887 481
30.91899 524
30.9391 535
30.95921 501
30.97933 502
30.99944 483
31.01955 498
31.03967 468
31.05978 489
31.0799 478
31.10001 475
31.12012 452
31.14024 505
31.16035 527
31.18046 477
31.20058 477
31.22069 488
31.2408 469
31.26092 476
31.28103 470
31.30115 469
31.32126 461
31.34137 461
31.36149 463
31.3816 501
31.40171 458
31.42183 455
31.44194 455
31.46206 459
31.48217 479
31.50228 486
31.5224 450
31.54251 429
31.56262 419
31.58274 425
31.60285 445
31.62297 417
31.64308 425
31.66319 406
31.68331 416
31.70342 454
31.72353 414
31.74365 441
31.76376 457
31.78387 410
31.80399 425
31.8241 428
31.84422 400
31.86433 418
31.88444 424
31.90456 432
31.92467 434
31.94478 405
31.9649 406
31.98501 470
32.00513 435
32.02524 425
32.04535 400
32.06547 452
32.08558 451
32.10569 393
32.12581 423
32.14592 433
32.16604 425
32.18615 457
32.20626 427
32.22638 455
32.24649 467
32.2666 446
32.28672 434
32.30683 446
32.32694 417
32.34706 420
32.36717 400
32.38729 442
32.4074 401
32.42751 407
32.44763 429
32.46774 455
32.48785 434
32.50797 423
32.52808 418
32.5482 429
32.56831 405
32.58842 433
32.60854 435
32.62865 399
32.64876 445
32.66888 419
32.68899 419
32.7091 421
32.72922 399
32.74933 441
32.76945 364
32.78956 425
32.80967 383
32.82979 432
32.8499 387
32.87001 450
32.89013 406
32.91024 447
32.93036 416
32.95047 405
32.97058 456
32.9907 422
33.01081 395
33.03092 397
33.05104 423
33.07115 404
33.09127 396
33.11138 401
33.13149 439
33.15161 424
33.17172 398
33.19183 383
33.21195 401
33.23206 426
33.25217 376
33.27229 389
33.2924 409
33.31252 413
33.33263 385
33.35274 398
33.37286 385
33.39297 426
33.41308 382
33.4332 376
33.45331 411
33.47343 414
33.49354 394
33.51365 402
33.53377 489
33.55388 419
33.57399 427
33.59411 403
33.61422 415
33.63434 418
33.65445 401
33.67456 461
33.69468 404
33.71479 418
33.7349 408
33.75502 391
33.77513 406
33.79524 439
33.81536 441
33.83547 421
33.85559 441
33.8757 417
33.89581 455
33.91593 445
33.93604 433
33.95615 463
33.97627 425
33.99638 456
34.0165 430
34.03661 433
34.05672 452
34.07684 454
34.09695 471
34.11706 510
34.13718 493
34.15729 502
34.17741 502
34.19752 523
34.21763 510
34.23775 521
34.25786 530
34.27797 491
34.29809 553
34.3182 565
34.33831 555
34.35843 513
34.37854 571
34.39866 628
34.41877 590
34.43888 601
34.459 627
34.47911 609
34.49922 634
34.51934 639
34.53945 587
34.55957 642
34.57968 621
34.59979 635
34.61991 685
34.64002 645
34.66013 707
34.68025 701
34.70036 683
34.72047 647
34.74059 672
34.7607 676
34.78082 725
34.80093 693
34.82104 755
34.84116 740
34.86127 665
34.88138 782
34.9015 641
34.92161 677
34.94173 712
34.96184 697
34.98195 686
35.00207 718
35.02218 713
35.04229 711
35.06241 647
35.08252 703
35.10264 710
35.12275 739
35.14286 694
35.16298 708
35.18309 783
35.2032 685
35.22332 675
35.24343 641
35.26354 652
35.28366 651
35.30377 720
35.32389 647
35.344 691
35.36411 661
35.38423 646
35.40434 632
35.42445 637
35.44457 675
35.46468 606
35.4848 601
35.50491 655
35.52502 571
35.54514 565
35.56525 628
35.58536 647
35.60548 644
35.62559 563
35.64571 595
35.66582 608
35.68593 635
35.70605 532
35.72616 601
35.74627 609
35.76639 566
35.7865 627
35.80661 601
35.82673 639
35.84684 667
35.86696 670
35.88707 642
35.90718 685
35.9273 651
35.94741 689
35.96752 637
35.98764 593
36.00775 636
36.02787 607
36.04798 655
36.06809 649
36.08821 591
36.10832 612
36.12843 567
36.14855 578
36.16866 631
36.18878 621
36.20889 607
36.229 608
36.24912 651
36.26923 634
36.28934 668
36.30946 755
36.32957 767
36.34968 787
36.3698 882
36.38991 1021
36.41003 995
36.43014 1088
36.45025 1130
36.47037 1119
36.49048 1129
36.51059 1018
36.53071 1010
36.55082 997
36.57094 856
36.59105 799
36.61116 737
36.63128 734
36.65139 647
36.6715 614
36.69162 595
36.71173 585
36.73184 574
36.75196 536
36.77207 609
36.79219 531
36.8123 578
36.83241 587
36.85253 564
36.87264 530
36.89275 554
36.91287 529
36.93298 545
36.9531 501
36.97321 487
36.99332 536
37.01344 538
37.03355 538
37.05366 524
37.07378 579
37.09389 544
37.11401 523
37.13412 526
37.15423 526
37.17435 491
37.19446 520
37.21457 512
37.23469 523
37.2548 494
37.27491 527
37.29503 508
37.31514 520
37.33526 558
37.35537 485
37.37548 511
37.3956 508
37.41571 484
37.43582 495
37.45594 504
37.47605 528
37.49617 470
37.51628 538
37.53639 485
37.55651 489
37.57662 483
37.59673 515
37.61685 491
37.63696 535
37.65708 462
37.67719 485
37.6973 529
37.71742 509
37.73753 504
37.75764 479
37.77776 500
37.79787 469
37.81798 440
37.8381 454
37.85821 483
37.87833 474
37.89844 430
37.91855 491
37.93867 472
37.95878 489
37.97889 469
37.99901 450
38.01912 471
38.03924 440
38.05935 472
38.07946 481
38.09958 503
38.11969 480
38.1398 466
38.15992 442
38.18003 464
38.20015 472
38.22026 480
38.24037 491
38.26049 476
38.2806 505
38.30071 501
38.32083 442
38.34094 500
38.36105 459
38.38117 455
38.40128 481
38.4214 495
38.44151 539
38.46162 481
38.48174 473
38.50185 450
38.52196 457
38.54208 475
38.56219 480
38.58231 486
38.60242 499
38.62253 437
38.64265 466
38.66276 522
38.68287 437
38.70299 476
38.7231 432
38.74321 508
38.76333 454
38.78344 474
38.80356 459
38.82367 511
38.84378 473
38.8639 458
38.88401 435
38.90412 426
38.92424 455
38.94435 464
38.96447 472
38.98458 470
39.00469 484
39.02481 517
39.04492 514
39.06503 516
39.08515 476
39.10526 553
39.12538 520
39.14549 545
39.1656 538
39.18572 613
39.20583 599
39.22594 743
39.24606 680
39.26617 763
39.28628 804
39.3064 954
39.32651 1021
39.34663 1066
39.36674 1149
39.38685 1144
39.40697 1120
39.42708 1100
39.44719 966
39.46731 907
39.48742 911
39.50754 761
39.52765 695
39.54776 669
39.56788 588
39.58799 522
39.6081 520
39.62822 471
39.64833 521
39.66845 528
39.68856 487
39.70867 476
39.72879 471
39.7489 522
39.76901 479
39.78913 429
39.80924 503
39.82935 468
39.84947 491
39.86958 460
39.8897 460
39.90981 503
39.92992 446
39.95004 473
39.97015 507
39.99026 476
40.01038 467
40.03049 507
40.05061 519
40.07072 561
40.09083 557
40.11095 573
40.13106 615
40.15117 660
40.17129 686
40.1914 693
40.21152 698
40.23163 686
40.25174 629
40.27186 709
40.29197 598
40.31208 560
40.3322 545
40.35231 536
40.37242 550
40.39254 487
40.41265 523
40.43277 469
40.45288 512
40.47299 437
40.49311 486
40.51322 465
40.53333 446
40.55345 480
40.57356 464
40.59368 429
40.61379 442
40.6339 440
40.65402 439
40.67413 458
40.69424 428
40.71436 459
40.73447 426
40.75458 445
40.7747 448
40.79481 413
40.81493 446
40.83504 447
40.85515 421
40.87527 464
40.89538 442
40.91549 445
40.93561 465
40.95572 418
40.97584 443
40.99595 450
41.01606 456
41.03618 431
41.05629 411
41.0764 430
41.09652 459
41.11663 460
41.13675 460
41.15686 458
41.17697 455
41.19709 462
41.2172 451
41.23731 438
41.25743 415
41.27754 472
41.29765 425
41.31777 441
41.33788 468
41.358 458
41.37811 470
41.39822 428
41.41834 445
41.43845 443
41.45856 451
41.47868 458
41.49879 443
41.51891 466
41.53902 438
41.55913 487
41.57925 468
41.59936 479
41.61947 465
41.63959 471
41.6597 464
41.67982 455
41.69993 507
41.72004 492
41.74016 476
41.76027 492
41.78038 434
41.8005 461
41.82061 441
41.84072 450
41.86084 426
41.88095 437
41.90107 429
41.92118 417
41.94129 467
41.96141 434
41.98152 436
42.00163 442
42.02175 428
42.04186 479
42.06198 440
42.08209 499
42.1022 449
42.12232 502
42.14243 502
42.16254 490
42.18266 552
42.20277 508
42.22289 574
42.243 586
42.26311 650
42.28323 670
42.30334 728
42.32345 736
42.34357 772
42.36368 760
42.38379 801
42.40391 784
42.42402 814
42.44414 734
42.46425 703
42.48436 629
42.50448 596
42.52459 604
42.5447 490
42.56482 488
42.58493 494
42.60505 457
42.62516 446
42.64527 475
42.66539 407
42.6855 426
42.70561 473
42.72573 423
42.74584 494
42.76595 451
42.78607 469
42.80618 466
42.8263 451
42.84641 470
42.86652 475
42.88664 439
42.90675 449
42.92686 454
42.94698 487
42.96709 525
42.98721 479
43.00732 520
43.02743 570
43.04755 521
43.06766 524
43.08777 531
43.10789 544
43.128 617
43.14812 542
43.16823 501
43.18834 526
43.20846 501
43.22857 504
43.24868 447
43.2688 441
43.28891 451
43.30902 471
43.32914 444
43.34925 408
43.36937 410
43.38948 405
43.40959 421
43.42971 389
43.44982 382
43.46993 463
43.49005 412
43.51016 391
43.53028 408
43.55039 418
43.5705 395
43.59062 427
43.61073 440
43.63084 440
43.65096 380
43.67107 404
43.69119 403
43.7113 378
43.73141 418
43.75153 392
43.77164 458
43.79175 414
43.81187 411
43.83198 391
43.85209 419
43.87221 399
43.89232 385
43.91244 413
43.93255 422
43.95266 445
43.97278 422
43.99289 433
44.013 418
44.03312 429
44.05323 399
44.07335 403
44.09346 384
44.11357 412
44.13369 404
44.1538 356
44.17391 413
44.19403 404
44.21414 409
44.23426 396
44.25437 408
44.27448 402
44.2946 404
44.31471 439
44.33482 426
44.35494 378
44.37505 396
44.39516 426
44.41528 401
44.43539 393
44.45551 367
44.47562 367
44.49573 413
44.51585 444
44.53596 390
44.55607 397
44.57619 384
44.5963 355
44.61642 387
44.63653 413
44.65664 395
44.67676 399
44.69687 360
44.71698 427
44.7371 379
44.75721 410
44.77732 363
44.79744 378
44.81755 376
44.83767 385
44.85778 429
44.87789 368
44.89801 380
44.91812 399
44.93823 395
44.95835 389
44.97846 384
44.99858 418
45.01869 392
45.0388 395
45.05892 344
45.07903 361
45.09914 426
45.11926 385
45.13937 390
45.15949 365
45.1796 353
45.19971 413
45.21983 362
45.23994 411
45.26005 410
45.28017 413
45.30028 401
45.32039 373
45.34051 418
45.36062 389
45.38074 376
45.40085 394
45.42096 371
45.44108 421
45.46119 445
45.4813 426
45.50142 429
45.52153 414
45.54165 442
45.56176 493
45.58187 508
45.60199 483
45.6221 522
45.64221 568
45.66233 597
45.68244 643
45.70256 652
45.72267 650
45.74278 618
45.7629 620
45.78301 557
45.80312 559
45.82324 519
45.84335 539
45.86346 468
45.88358 438
45.90369 461
45.92381 410
45.94392 413
45.96403 406
45.98415 441
46.00426 372
46.02437 399
46.04449 395
46.0646 382
46.08472 400
46.10483 426
46.12494 417
46.14506 370
46.16517 368
46.18528 391
46.2054 407
46.22551 398
46.24563 370
46.26574 373
46.28585 395
46.30597 388
46.32608 379
46.34619 393
46.36631 398
46.38642 405
46.40653 377
46.42665 354
46.44676 392
46.46688 363
46.48699 349
46.5071 357
46.52722 415
46.54733 396
46.56744 394
46.58756 366
46.60767 401
46.62779 381
46.6479 401
46.66801 419
46.68813 421
46.70824 416
46.72835 428
46.74847 421
46.76858 410
46.78869 424
46.80881 440
46.82892 414
46.84904 438
46.86915 450
46.88926 428
46.90938 479
46.92949 470
46.9496 476
46.96972 444
46.98983 475
47.00995 451
47.03006 485
47.05017 478
47.07029 425
47.0904 410
47.11051 445
47.13063 435
47.15074 457
47.17086 408
47.19097 428
47.21108 433
47.2312 408
47.25131 422
47.27142 436
47.29154 479
47.31165 451
47.33176 450
47.35188 452
47.37199 443
47.39211 465
47.41222 492
47.43233 489
47.45245 515
47.47256 503
47.49267 521
47.51279 473
47.5329 441
47.55302 469
47.57313 443
47.59324 431
47.61336 436
47.63347 445
47.65358 396
47.6737 381
47.69381 430
47.71393 349
47.73404 395
47.75415 368
47.77427 406
47.79438 373
47.81449 385
47.83461 398
47.85472 397
47.87483 359
47.89495 411
47.91506 368
47.93518 392
47.95529 398
47.9754 380
47.99552 375
48.01563 430
48.03574 352
48.05586 414
48.07597 423
48.09609 383
48.1162 378
48.13631 414
48.15643 363
48.17654 380
48.19665 454
48.21677 411
48.23688 374
48.257 420
48.27711 420
48.29722 434
48.31734 452
48.33745 470
48.35756 538
48.37768 500
48.39779 506
48.4179 519
48.43802 516
48.45813 510
48.47825 535
48.49836 521
48.51847 439
48.53859 445
48.5587 457
48.57881 443
48.59893 441
48.61904 422
48.63916 391
48.65927 423
48.67938 412
48.6995 406
48.71961 406
48.73972 406
48.75984 365
48.77995 416
48.80006 392
48.82018 393
48.84029 394
48.86041 343
48.88052 379
48.90063 370
48.92075 378
48.94086 386
48.96097 377
48.98109 387
49.0012 420
49.02132 357
49.04143 410
49.06154 355
49.08166 390
49.10177 369
49.12188 339
49.142 376
49.16211 346
49.18223 335
49.20234 360
49.22245 375
49.24257 375
49.26268 359
49.28279 378
49.30291 388
49.32302 368
49.34313 360
49.36325 356
49.38336 393
49.40348 347
49.42359 374
49.4437 409
49.46382 339
49.48393 378
49.50404 381
49.52416 364
49.54427 375
49.56439 401
49.5845 401
49.60461 399
49.62473 382
49.64484 380
49.66495 429
49.68507 404
49.70518 439
49.7253 437
49.74541 486
49.76552 480
49.78564 535
49.80575 515
49.82586 536
49.84598 555
49.86609 595
49.8862 648
49.90632 730
49.92643 759
49.94655 843
49.96666 898
49.98677 1005
50.00689 1163
50.027 1211
50.04711 1202
50.06723 1233
50.08734 1186
50.10746 1119
50.12757 1095
50.14768 978
50.1678 857
50.18791 754
50.20802 749
50.22814 691
50.24825 611
50.26837 545
50.28848 494
50.30859 447
50.32871 408
50.34882 425
50.36893 433
50.38905 400
50.40916 437
50.42927 427
50.44939 392
50.4695 396
50.48962 451
50.50973 406
50.52984 408
50.54996 398
50.57007 392
50.59018 378
50.6103 408
50.63041 450
50.65053 389
50.67064 388
50.69075 406
50.71087 374
50.73098 409
50.75109 420
50.77121 416
50.79132 468
50.81143 369
50.83155 452
50.85166 420
50.87178 426
50.89189 410
50.912 403
50.93212 423
50.95223 404
50.97234 435
50.99246 379
51.01257 396
51.03269 382
51.0528 404
51.07291 378
51.09303 360
51.11314 394
51.13325 369
51.15337 368
51.17348 347
51.1936 371
51.21371 360
51.23382 376
51.25394 379
51.27405 331
51.29416 357
51.31428 351
51.33439 381
51.3545 381
51.37462 330
51.39473 361
51.41485 339
51.43496 337
51.45507 340
51.47519 353
51.4953 334
51.51541 339
51.53553 345
51.55564 376
51.57576 357
51.59587 346
51.61598 350
51.6361 366
51.65621 330
51.67632 340
51.69644 352
51.71655 334
51.73667 335
51.75678 318
51.77689 369
51.79701 341
51.81712 336
51.83723 346
51.85735 333
51.87746 352
51.89757 339
51.91769 337
51.9378 345
51.95792 332
51.97803 325
51.99814 320
52.01826 391
52.03837 329
52.05848 333
52.0786 341
52.09871 335
52.11883 365
52.13894 373
52.15905 349
52.17917 341
52.19928 371
52.21939 319
52.23951 361
52.25962 341
52.27974 373
52.29985 354
52.31996 328
52.34008 346
52.36019 327
52.3803 345
52.40042 370
52.42053 343
52.44064 354
52.46076 355
52.48087 391
52.50099 362
52.5211 316
52.54121 345
52.56133 351
52.58144 368
52.60155 384
52.62167 379
52.64178 335
52.6619 339
52.68201 363
52.70212 381
52.72224 343
52.74235 401
52.76246 363
52.78258 354
52.80269 371
52.8228 387
52.84292 388
52.86303 370
52.88315 347
52.90326 385
52.92337 368
52.94349 361
52.9636 353
52.98371 375
53.00383 380
53.02394 397
53.04406 390
53.06417 355
53.08428 355
53.1044 359
53.12451 364
53.14462 350
53.16474 377
53.18485 398
53.20497 366
53.22508 371
53.24519 377
53.26531 407
53.28542 400
53.30553 386
53.32565 403
53.34576 369
53.36587 413
53.38599 386
53.4061 413
53.42622 380
53.44633 406
53.46644 408
53.48656 412
53.50667 436
53.52678 408
53.5469 421
53.56701 425
53.58713 399
53.60724 421
53.62735 409
53.64747 412
53.66758 426
53.68769 393
53.70781 419
53.72792 418
53.74804 417
53.76815 420
53.78826 397
53.80838 405
53.82849 431
53.8486 409
53.86872 426
53.88883 417
53.90894 414
53.92906 391
53.94917 435
53.96929 360
53.9894 397
54.00951 398
54.02963 412
54.04974 411
54.06985 411
54.08997 408
54.11008 422
54.1302 390
54.15031 376
54.17042 416
54.19054 431
54.21065 451
54.23076 400
54.25088 436
54.27099 417
54.29111 438
54.31122 426
54.33133 457
54.35145 431
54.37156 416
54.39167 443
54.41179 421
54.4319 422
54.45201 435
54.47213 432
54.49224 470
54.51236 495
54.53247 436
54.55258 454
54.5727 505
54.59281 466
54.61292 507
54.63304 541
54.65315 505
54.67327 569
54.69338 596
54.71349 593
54.73361 642
54.75372 654
54.77383 617
54.79395 638
54.81406 644
54.83417 627
54.85429 633
54.8744 594
54.89452 583
54.91463 573
54.93474 557
54.95486 513
54.97497 524
54.99508 461
55.0152 499
55.03531 472
55.05543 480
55.07554 407
55.09565 482
55.11577 469
55.13588 458
55.15599 500
55.17611 516
55.19622 506
55.21634 492
55.23645 544
55.25656 465
55.27668 525
55.29679 492
55.3169 488
55.33702 449
55.35713 449
55.37724 428
55.39736 424
55.41747 463
55.43759 474
55.4577 435
55.47781 398
55.49793 401
55.51804 419
55.53815 407
55.55827 389
55.57838 414
55.5985 372
55.61861 402
55.63872 397
55.65884 417
55.67895 417
55.69906 383
55.71918 399
55.73929 388
55.75941 406
55.77952 405
55.79963 391
55.81975 391
55.83986 388
55.85997 395
55.88009 389
55.9002 412
55.92031 386
55.94043 365
55.96054 369
55.98066 359
56.00077 372
56.02088 344
56.041 357
56.06111 349
56.08122 379
56.10134 381
56.12145 369
56.14157 366
56.16168 385
56.18179 417
56.20191 411
56.22202 371
56.24213 399
56.26225 386
56.28236 422
56.30248 382
56.32259 402
56.3427 414
56.36282 355
56.38293 382
56.40304 365
56.42316 398
56.44327 385
56.46338 438
56.4835 384
56.50361 394
56.52373 388
56.54384 395
56.56395 425
56.58407 370
56.60418 380
56.62429 411
56.64441 432
56.66452 392
56.68464 391
56.70475 414
56.72486 365
56.74498 382
56.76509 396
56.7852 375
56.80532 366
56.82543 351
56.84554 369
56.86566 338
56.88577 375
56.90589 381
56.926 399
56.94611 382
56.96623 393
56.98634 371
57.00645 358
57.02657 356
57.04668 350
57.0668 392
57.08691 378
57.10702 408
57.12714 420
57.14725 420
57.16736 428
57.18748 391
57.20759 403
57.22771 408
57.24782 371
57.26793 453
57.28805 455
57.30816 403
57.32827 466
57.34839 409
57.3685 405
57.38861 391
57.40873 427
57.42884 381
57.44896 427
57.46907 378
57.48918 426
57.5093 376
57.52941 404
57.54952 399
57.56964 353
57.58975 333
57.60987 354
57.62998 358
57.65009 404
57.67021 386
57.69032 375
57.71043 376
57.73055 373
57.75066 371
57.77078 338
57.79089 344
57.811 395
57.83112 336
57.85123 363
57.87134 366
57.89146 355
57.91157 357
57.93168 377
57.9518 361
57.97191 353
57.99203 359
58.01214 398
58.03225 370
58.05237 389
58.07248 325
58.09259 352
58.11271 368
58.13282 359
58.15294 360
58.17305 350
58.19316 344
58.21328 383
58.23339 340
58.2535 352
58.27362 332
58.29373 345
58.31385 353
58.33396 379
58.35407 371
58.37419 369
58.3943 369
58.41441 379
58.43453 398
58.45464 384
58.47475 350
58.49487 325
58.51498 364
58.5351 392
58.55521 332
58.57532 407
58.59544 368
58.61555 359
58.63566 323
58.65578 361
58.67589 358
58.69601 352
58.71612 357
58.73623 369
58.75635 365
58.77646 342
58.79657 360
58.81669 333
58.8368 347
58.85691 350
58.87703 349
58.89714 352
58.91726 341
58.93737 340
58.95748 362
58.9776 353
58.99771 367
59.01782 375
59.03794 356
59.05805 363
59.07817 351
59.09828 344
59.11839 342
59.13851 364
59.15862 356
59.17873 360
59.19885 349
59.21896 376
59.23908 355
59.25919 346
59.2793 362
59.29942 359
59.31953 394
59.33964 369
59.35976 373
59.37987 387
59.39998 390
59.4201 367
59.44021 357
59.46033 442
59.48044 385
59.50055 411
59.52067 416
59.54078 434
59.56089 444
59.58101 422
59.60112 442
59.62124 448
59.64135 469
59.66146 517
59.68158 548
59.70169 553
59.7218 622
59.74192 663
59.76203 692
59.78215 712
59.80226 853
59.82237 848
59.84249 905
59.8626 920
59.88271 921
59.90283 845
59.92294 846
59.94305 752
59.96317 746
59.98328 661
60.0034 726
60.02351 663
60.04362 610
60.06374 555
60.08385 545
60.10396 549
60.12408 471
60.14419 428
60.16431 383
60.18442 409
60.20453 363
60.22465 401
60.24476 417
60.26487 373
60.28499 392
60.3051 352
60.32522 382
60.34533 392
60.36544 425
60.38556 405
60.40567 401
60.42578 378
60.4459 385
60.46601 393
60.48612 378
60.50624 407
60.52635 403
60.54647 418
60.56658 384
60.58669 447
60.60681 389
60.62692 430
60.64703 380
60.66715 392
60.68726 428
60.70738 387
60.72749 395
60.7476 430
60.76772 412
60.78783 443
60.80794 410
60.82806 387
60.84817 401
60.86828 361
60.8884 424
60.90851 400
60.92863 435
60.94874 431
60.96885 447
60.98897 425
61.00908 451
61.02919 449
61.04931 450
61.06942 441
61.08954 431
61.10965 473
61.12976 523
61.14988 471
61.16999 463
61.1901 476
61.21022 463
61.23033 494
61.25045 503
61.27056 506
61.29067 485
61.31079 478
61.3309 478
61.35101 530
61.37113 550
61.39124 537
61.41135 567
61.43147 544
61.45158 513
61.4717 534
61.49181 542
61.51192 515
61.53204 591
61.55215 546
61.57226 514
61.59238 540
61.61249 551
61.63261 534
61.65272 524
61.67283 502
61.69295 512
61.71306 523
61.73317 529
61.75329 531
61.7734 536
61.79352 481
61.81363 460
61.83374 491
61.85386 476
61.87397 479
61.89408 497
61.9142 451
61.93431 459
61.95442 460
61.97454 467
61.99465 439
62.01477 451
62.03488 447
62.05499 483
62.07511 451
62.09522 471
62.11533 439
62.13545 452
62.15556 439
62.17568 444
62.19579 432
62.2159 425
62.23602 441
62.25613 449
62.27624 428
62.29636 438
62.31647 409
62.33659 397
62.3567 378
62.37681 438
62.39693 397
62.41704 390
62.43715 395
62.45727 387
62.47738 385
62.49749 381
62.51761 387
62.53772 360
62.55784 353
62.57795 354
62.59806 373
62.61818 375
62.63829 372
62.6584 386
62.67852 412
62.69863 324
62.71875 351
62.73886 402
62.75897 372
62.77909 351
62.7992 341
62.81931 351
62.83943 345
62.85954 375
62.87965 346
62.89977 373
62.91988 347
62.94 377
62.96011 369
62.98022 400
63.00034 386
63.02045 333
63.04056 395
63.06068 380
63.08079 338
63.10091 351
63.12102 342
63.14113 365
63.16125 350
63.18136 325
63.20147 312
63.22159 358
63.2417 399
63.26182 312
63.28193 373
63.30204 336
63.32216 342
63.34227 345
63.36238 345
63.3825 343
63.40261 360
63.42272 344
63.44284 337
63.46295 335
63.48307 334
63.50318 332
63.52329 321
63.54341 331
63.56352 373
63.58363 354
63.60375 360
63.62386 342
63.64398 368
63.66409 347
63.6842 360
63.70432 338
63.72443 362
63.74454 363
63.76466 390
63.78477 396
63.80489 403
63.825 387
63.84511 420
63.86523 384
63.88534 408
63.90545 484
63.92557 415
63.94568 488
63.96579 466
63.98591 423
64.00602 433
64.02614 453
64.04625 433
64.06636 372
64.08648 404
64.10659 403
64.1267 397
64.14682 380
64.16693 407
64.18705 347
64.20716 392
64.22727 374
64.24739 323
64.2675 349
64.28761 312
64.30773 316
64.32784 328
64.34796 342
64.36807 348
64.38818 375
64.4083 336
64.42841 339
64.44852 340
64.46864 363
64.48875 355
64.50886 358
64.52898 397
64.54909 352
64.56921 331
64.58932 362
64.60943 378
64.62955 374
64.64966 373
64.66977 387
64.68989 363
64.71 368
64.73012 362
64.75023 336
64.77034 370
64.79046 380
64.81057 349
64.83068 373
64.8508 345
64.87091 344
64.89102 332
64.91114 347
64.93125 336
64.95137 338
64.97148 344
64.99159 393
65.01171 317
65.03182 315
65.05193 312
65.07205 320
65.09216 350
65.11228 368
65.13239 339
65.1525 360
65.17262 343
65.19273 309
65.21284 326
65.23296 322
65.25307 331
65.27319 314
65.2933 338
65.31341 338
65.33353 355
65.35364 386
65.37375 352
65.39387 363
65.41398 368
65.43409 353
65.45421 345
65.47432 374
65.49444 383
65.51455 369
65.53466 360
65.55478 357
65.57489 388
65.595 360
65.61512 372
65.63523 340
65.65535 364
65.67546 390
65.69557 344
65.71569 330
65.7358 382
65.75591 362
65.77603 359
65.79614 341
65.81626 354
65.83637 377
65.85648 324
65.8766 388
65.89671 339
65.91682 378
65.93694 330
65.95705 311
65.97716 333
65.99728 331
66.01739 339
66.03751 364
66.05762 307
66.07773 320
66.09785 325
66.11796 351
66.13807 342
66.15819 337
66.1783 322
66.19842 345
66.21853 358
66.23864 322
66.25876 365
66.27887 335
66.29898 332
66.3191 325
66.33921 336
66.35933 324
66.37944 338
66.39955 319
66.41967 354
66.43978 318
66.45989 322
66.48001 356
66.50012 326
66.52023 342
66.54035 338
66.56046 341
66.58058 310
66.60069 337
66.6208 323
66.64092 346
66.66103 334
66.68114 335
66.70126 324
66.72137 342
66.74149 322
66.7616 329
66.78171 335
66.80183 331
66.82194 317
66.84205 331
66.86217 335
66.88228 325
66.90239 299
66.92251 341
66.94262 348
66.96274 321
66.98285 344
67.00296 320
67.02308 329
67.04319 325
67.0633 379
67.08342 339
67.10353 363
67.12365 354
67.14376 354
67.16387 337
67.18399 325
67.2041 333
67.22421 377
67.24433 372
67.26444 366
67.28456 355
67.30467 345
67.32478 383
67.3449 365
67.36501 417
67.38512 373
67.40524 417
67.42535 436
67.44546 432
67.46558 457
67.48569 468
67.50581 526
67.52592 531
67.54603 522
67.56615 596
67.58626 639
67.60637 624
67.62649 713
67.6466 734
67.66672 708
67.68683 656
67.70694 621
67.72706 617
67.74717 631
67.76728 569
67.7874 609
67.80751 570
67.82763 628
67.84774 616
67.86785 645
67.88797 613
67.90808 634
67.92819 665
67.94831 673
67.96842 686
67.98853 762
68.00865 821
68.02876 827
68.04888 793
68.06899 806
68.0891 806
68.10922 836
68.12933 778
68.14944 793
68.16956 744
68.18967 793
68.20979 777
68.2299 766
68.25001 764
68.27013 739
68.29024 626
68.31035 552
68.33047 574
68.35058 487
68.3707 497
68.39081 505
68.41092 504
68.43104 481
68.45115 446
68.47126 436
68.49138 440
68.51149 424
68.5316 382
68.55172 359
68.57183 381
68.59195 345
68.61206 369
68.63217 358
68.65229 373
68.6724 361
68.69251 349
68.71263 308
68.73274 368
68.75286 344
68.77297 378
68.79308 353
68.8132 343
68.83331 351
68.85342 318
68.87354 357
68.89365 355
68.91376 346
68.93388 350
68.95399 320
68.97411 358
68.99422 314
69.01433 318
69.03445 320
69.05456 355
69.07467 354
69.09479 316
69.1149 344
69.13502 365
69.15513 350
69.17524 364
69.19536 343
69.21547 339
69.23558 331
69.2557 294
69.27581 329
69.29593 315
69.31604 348
69.33615 340
69.35627 300
69.37638 308
69.39649 342
69.41661 322
69.43672 321
69.45683 347
69.47695 349
69.49706 352
69.51718 328
69.53729 347
69.5574 328
69.57752 347
69.59763 315
69.61774 355
69.63786 341
69.65797 327
69.67809 362
69.6982 333
69.71831 325
69.73843 326
69.75854 304
69.77865 329
69.79877 320
69.81888 344
69.839 343
69.85911 321
69.87922 314
69.89934 346
69.91945 343
69.93956 333
69.95968 317
69.97979 340
69.9999 320
70.02002 332
70.04013 316
70.06025 325
70.08036 332
70.10047 308
70.12059 361
70.1407 306
70.16081 322
70.18093 310
70.20104 327
70.22116 311
70.24127 345
70.26138 336
70.2815 304
70.30161 327
70.32172 338
70.34184 329
70.36195 313
70.38207 353
70.40218 325
70.42229 275
70.44241 337
70.46252 297
70.48263 315
70.50275 325
70.52286 339
70.54297 332
70.56309 347
70.5832 343
70.60332 311
70.62343 334
70.64354 372
70.66366 316
70.68377 323
70.70388 300
70.724 304
70.74411 309
70.76423 309
70.78434 314
70.80445 317
70.82457 318
70.84468 319
70.86479 341
70.88491 360
70.90502 333
70.92513 334
70.94525 315
70.96536 342
70.98548 325
71.00559 342
71.0257 317
71.04582 335
71.06593 351
71.08604 318
71.10616 317
71.12627 325
71.14639 307
71.1665 337
71.18661 335
71.20673 310
71.22684 325
71.24695 313
71.26707 326
71.28718 349
71.3073 326
71.32741 328
71.34752 337
71.36764 338
71.38775 323
71.40786 336
71.42798 284
71.44809 322
71.4682 350
71.48832 320
71.50843 310
71.52855 325
71.54866 336
71.56877 356
71.58889 327
71.609 337
71.62911 322
71.64923 319
71.66934 352
71.68946 331
71.70957 321
71.72968 347
71.7498 331
71.76991 334
71.79002 326
71.81014 326
71.83025 333
71.85037 314
71.87048 309
71.89059 335
71.91071 373
71.93082 367
71.95093 370
71.97105 321
71.99116 344
72.01127 358
72.03139 330
72.0515 352
72.07162 353
72.09173 339
72.11184 368
72.13196 366
72.15207 346
72.17218 364
72.1923 353
72.21241 364
72.23253 350
72.25264 350
72.27275 347
72.29287 376
72.31298 356
72.33309 385
72.35321 342
72.37332 387
72.39344 339
72.41355 375
72.43366 388
72.45378 376
72.47389 351
72.494 389
72.51412 347
72.53423 365
72.55434 364
72.57446 389
72.59457 376
72.61469 375
72.6348 371
72.65491 352
72.67503 405
72.69514 392
72.71525 379
72.73537 378
72.75548 406
72.7756 406
72.79571 363
72.81582 412
72.83594 383
72.85605 347
72.87616 389
72.89628 411
72.91639 410
72.9365 384
72.95662 398
72.97673 383
72.99685 362
73.01696 396
73.03707 372
73.05719 393
73.0773 388
73.09741 392
73.11753 408
73.13764 376
73.15776 383
73.17787 408
73.19798 417
73.2181 418
73.23821 401
73.25832 411
73.27844 441
73.29855 472
73.31867 506
73.33878 450
73.35889 468
73.37901 523
73.39912 495
73.41923 461
73.43935 488
73.45946 423
73.47957 410
73.49969 412
73.5198 402
73.53992 426
73.56003 429
73.58014 388
73.60026 412
73.62037 429
73.64048 394
73.6606 376
73.68071 403
73.70083 391
73.72094 354
73.74105 356
73.76117 350
73.78128 342
73.80139 350
73.82151 327
73.84162 368
73.86174 347
73.88185 362
73.90196 356
73.92208 348
73.94219 332
73.9623 346
73.98242 343
74.00253 330
74.02264 380
74.04276 345
74.06287 369
74.08299 342
74.1031 331
74.12321 361
74.14333 344
74.16344 339
74.18355 328
74.20367 340
74.22378 379
74.2439 356
74.26401 318
74.28412 338
74.30424 357
74.32435 358
74.34446 330
74.36458 343
74.38469 366
74.40481 344
74.42492 350
74.44503 354
74.46515 361
74.48526 358
74.50537 356
74.52549 369
74.5456 361
74.56571 345
74.58583 332
74.60594 325
74.62606 330
74.64617 348
74.66628 316
74.6864 339
74.70651 339
74.72662 329
74.74674 363
74.76685 328
74.78697 340
74.80708 326
74.82719 354
74.84731 367
74.86742 359
74.88753 340
74.90765 317
74.92776 337
74.94787 313
74.96799 312
74.9881 310
75.00822 348
