3.00117 19919
3.02128 19654
3.0414 19213
3.06151 18257
3.08162 17805
3.10174 17669
3.12185 16849
3.14197 16726
3.16208 15659
3.18219 15329
3.20231 15030
3.22242 14523
3.24253 14123
3.26265 13676
3.28276 13239
3.30288 12777
3.32299 12540
3.3431 12090
3.36322 11600
3.38333 11130
3.40344 10971
3.42356 10357
3.44367 10282
3.46379 9776
3.4839 9464
3.50401 9179
3.52413 8761
3.54424 8652
3.56435 8056
3.58447 7733
3.60458 7694
3.62469 7291
3.64481 6917
3.66492 6689
3.68504 6526
3.70515 6343
3.72526 5745
3.74538 5788
3.76549 5561
3.7856 5160
3.80572 5154
3.82583 4789
3.84595 4577
3.86606 4422
3.88617 4307
3.90629 4159
3.9264 3637
3.94651 3682
3.96663 3438
3.98674 3452
4.00686 3418
4.02697 2968
4.04708 2911
4.0672 2811
4.08731 2685
4.10742 2692
4.12754 2451
4.14765 2303
4.16776 2324
4.18788 2118
4.20799 2227
4.22811 1982
4.24822 1970
4.26833 1824
4.28845 1767
4.30856 1812
4.32867 1636
4.34879 1664
4.3689 1656
4.38902 1545
4.40913 1657
4.42924 1401
4.44936 1381
4.46947 1412
4.48958 1415
4.5097 1390
4.52981 1130
4.54992 1192
4.57004 1231
4.59015 1190
4.61027 1170
4.63038 1055
4.65049 1117
4.67061 1051
4.69072 1044
4.71083 1046
4.73095 1006
4.75106 1005
4.77118 938
4.79129 947
4.8114 916
4.83152 918
4.85163 829
4.87174 859
4.89186 825
4.91197 820
4.93209 806
4.9522 760
4.97231 755
4.99243 775
5.01254 733
5.03265 709
5.05277 667
5.07288 656
5.09299 717
5.11311 613
5.13322 624
5.15334 658
5.17345 654
5.19356 634
5.21368 566
5.23379 574
5.2539 545
5.27402 567
5.29413 556
5.31425 481
5.33436 505
5.35447 488
5.37459 442
5.3947 522
5.41481 441
5.43493 427
5.45504 450
5.47516 410
5.49527 459
5.51538 446
5.5355 445
5.55561 370
5.57572 404
5.59584 395
5.61595 371
5.63606 380
5.65618 389
5.67629 368
5.69641 402
5.71652 347
5.73663 343
5.75675 335
5.77686 338
5.79697 343
5.81709 351
5.8372 307
5.85732 310
5.87743 307
5.89754 346
5.91766 295
5.93777 271
5.95788 348
5.978 328
5.99811 312
6.01823 311
6.03834 319
6.05845 276
6.07857 269
6.09868 272
6.11879 278
6.13891 255
6.15902 302
6.17913 264
6.19925 254
6.21936 235
6.23948 250
6.25959 285
6.2797 276
6.29982 251
6.31993 238
6.34004 229
6.36016 242
6.38027 255
6.40039 249
6.4205 240
6.44061 221
6.46073 245
6.48084 250
6.50095 259
6.52107 242
6.54118 249
6.56129 240
6.58141 215
6.60152 238
6.62164 219
6.64175 270
6.66186 254
6.68198 252
6.70209 244
6.7222 250
6.74232 253
6.76243 277
6.78255 237
6.80266 246
6.82277 212
6.84289 234
6.863 248
6.88311 252
6.90323 257
6.92334 234
6.94346 225
6.96357 258
6.98368 272
7.0038 255
7.02391 257
7.04402 235
7.06414 264
7.08425 250
7.10436 229
7.12448 234
7.14459 245
7.16471 223
7.18482 228
7.20493 224
7.22505 231
7.24516 251
7.26527 256
7.28539 232
7.3055 221
7.32562 213
7.34573 191
7.36584 260
7.38596 276
7.40607 215
7.42618 235
7.4463 231
7.46641 213
7.48653 253
7.50664 243
7.52675 233
7.54687 242
7.56698 219
7.58709 225
7.60721 239
7.62732 251
7.64743 256
7.66755 246
7.68766 238
7.70778 239
7.72789 234
7.748 224
7.76812 207
7.78823 234
7.80834 228
7.82846 213
7.84857 211
7.86869 233
7.8888 233
7.90891 245
7.92903 280
7.94914 215
7.96925 232
7.98937 231
8.00948 207
8.0296 281
8.04971 228
8.06982 247
8.08994 266
8.11005 242
8.13016 243
8.15028 229
8.17039 238
8.1905 244
8.21062 242
8.23073 205
8.25085 226
8.27096 262
8.29107 236
8.31119 266
8.3313 236
8.35141 231
8.37153 233
8.39164 227
8.41176 241
8.43187 244
8.45198 252
8.4721 249
8.49221 243
8.51232 236
8.53244 276
8.55255 247
8.57266 258
8.59278 266
8.61289 243
8.63301 225
8.65312 255
8.67323 231
8.69335 273
8.71346 266
8.73357 280
8.75369 267
8.7738 240
8.79392 252
8.81403 267
8.83414 233
8.85426 232
8.87437 248
8.89448 238
8.9146 261
8.93471 234
8.95483 240
8.97494 255
8.99505 227
9.01517 258
9.03528 237
9.05539 247
9.07551 244
9.09562 219
9.11573 248
9.13585 234
9.15596 263
9.17608 254
9.19619 236
9.2163 255
9.23642 246
9.25653 254
9.27664 243
9.29676 281
9.31687 241
9.33699 240
9.3571 241
9.37721 253
9.39733 246
9.41744 254
9.43755 255
9.45767 226
9.47778 239
9.4979 251
9.51801 259
9.53812 257
9.55824 231
9.57835 243
9.59846 258
9.61858 250
9.63869 256
9.6588 231
9.67892 247
9.69903 254
9.71915 241
9.73926 245
9.75937 288
9.77949 216
9.7996 234
9.81971 255
9.83983 239
9.85994 210
9.88006 251
9.90017 268
9.92028 254
9.9404 260
9.96051 232
9.98062 229
10.00074 266
10.02085 241
10.04097 223
10.06108 220
10.08119 248
10.10131 237
10.12142 267
10.14153 228
10.16165 254
10.18176 255
10.20187 272
10.22199 275
10.2421 269
10.26222 223
10.28233 245
10.30244 258
10.32256 244
10.34267 246
10.36278 268
10.3829 258
10.40301 242
10.42313 236
10.44324 256
10.46335 243
10.48347 268
10.50358 226
10.52369 246
10.54381 240
10.56392 225
10.58403 249
10.60415 260
10.62426 211
10.64438 279
10.66449 252
10.6846 242
10.70472 264
10.72483 246
10.74494 262
10.76506 257
10.78517 242
10.80529 273
10.8254 245
10.84551 237
10.86563 245
10.88574 241
10.90585 223
10.92597 237
10.94608 246
10.9662 262
10.98631 257
11.00642 266
11.02654 255
11.04665 254
11.06676 291
11.08688 264
11.10699 249
11.1271 213
11.14722 238
11.16733 273
11.18745 261
11.20756 256
11.22767 258
11.24779 236
11.2679 267
11.28801 232
11.30813 286
11.32824 265
11.34836 259
11.36847 228
11.38858 244
11.4087 258
11.42881 254
11.44892 251
11.46904 211
11.48915 236
11.50927 258
11.52938 250
11.54949 264
11.56961 268
11.58972 256
11.60983 259
11.62995 249
11.65006 245
11.67017 261
11.69029 236
11.7104 277
11.73052 248
11.75063 278
11.77074 269
11.79086 257
11.81097 277
11.83108 274
11.8512 252
11.87131 249
11.89143 275
11.91154 278
11.93165 273
11.95177 257
11.97188 264
11.99199 291
12.01211 288
12.03222 298
12.05234 273
12.07245 279
12.09256 288
12.11268 293
12.13279 303
12.1529 299
12.17302 293
12.19313 320
12.21324 254
12.23336 282
12.25347 280
12.27359 305
12.2937 262
12.31381 275
12.33393 293
12.35404 282
12.37415 306
12.39427 246
12.41438 242
12.4345 277
12.45461 245
12.47472 303
12.49484 256
12.51495 249
12.53506 254
12.55518 251
12.57529 244
12.5954 208
12.61552 254
12.63563 255
12.65575 263
12.67586 245
12.69597 232
12.71609 275
12.7362 251
12.75631 257
12.77643 247
12.79654 233
12.81666 231
12.83677 236
12.85688 266
12.877 230
12.89711 238
12.91722 242
12.93734 248
12.95745 254
12.97757 255
12.99768 214
13.01779 236
13.03791 232
13.05802 253
13.07813 260
13.09825 258
13.11836 259
13.13847 261
13.15859 273
13.1787 250
13.19882 285
13.21893 261
13.23904 261
13.25916 261
13.27927 241
13.29938 255
13.3195 252
13.33961 308
13.35973 239
13.37984 240
13.39995 246
13.42007 231
13.44018 235
13.46029 255
13.48041 253
13.50052 234
13.52064 268
13.54075 263
13.56086 292
13.58098 265
13.60109 316
13.6212 327
13.64132 346
13.66143 344
13.68154 304
13.70166 294
13.72177 239
13.74189 250
13.762 245
13.78211 205
13.80223 222
13.82234 245
13.84245 269
13.86257 236
13.88268 268
13.9028 231
13.92291 230
13.94302 226
13.96314 241
13.98325 217
14.00336 242
14.02348 220
14.04359 211
14.06371 237
14.08382 230
14.10393 221
14.12405 232
14.14416 200
14.16427 222
14.18439 209
14.2045 222
14.22461 209
14.24473 213
14.26484 209
14.28496 240
14.30507 205
14.32518 205
14.3453 227
14.36541 215
14.38552 200
14.40564 225
14.42575 216
14.44587 214
14.46598 212
14.48609 219
14.50621 195
14.52632 196
14.54643 200
14.56655 194
14.58666 227
14.60677 201
14.62689 211
14.647 230
14.66712 230
14.68723 223
14.70734 229
14.72746 217
14.74757 228
14.76768 209
14.7878 217
14.80791 234
14.82803 219
14.84814 231
14.86825 246
14.88837 220
14.90848 283
14.92859 263
14.94871 263
14.96882 262
14.98894 287
15.00905 280
15.02916 249
15.04928 266
15.06939 276
15.0895 293
15.10962 288
15.12973 272
15.14984 251
15.16996 230
15.19007 251
15.21019 256
15.2303 251
15.25041 229
15.27053 234
15.29064 230
15.31075 236
15.33087 207
15.35098 224
15.3711 216
15.39121 200
15.41132 216
15.43144 213
15.45155 221
15.47166 199
15.49178 201
15.51189 214
15.53201 201
15.55212 181
15.57223 198
15.59235 245
15.61246 200
15.63257 215
15.65269 225
15.6728 232
15.69291 223
15.71303 188
15.73314 212
15.75326 179
15.77337 217
15.79348 217
15.8136 220
15.83371 194
15.85382 227
15.87394 197
15.89405 194
15.91417 212
15.93428 199
15.95439 168
15.97451 207
15.99462 203
16.01473 200
16.03485 237
16.05496 209
16.07508 209
16.09519 220
16.1153 213
16.13542 185
16.15553 197
16.17564 210
16.19576 216
16.21587 209
16.23598 197
16.2561 209
16.27621 198
16.29633 197
16.31644 205
16.33655 191
16.35667 200
16.37678 210
16.39689 211
16.41701 187
16.43712 189
16.45724 191
16.47735 225
16.49746 188
16.51758 221
16.53769 216
16.5578 216
16.57792 202
16.59803 188
16.61814 183
16.63826 189
16.65837 192
16.67849 193
16.6986 203
16.71871 183
16.73883 194
16.75894 241
16.77905 195
16.79917 199
16.81928 204
16.8394 186
16.85951 186
16.87962 176
16.89974 190
16.91985 194
16.93996 190
16.96008 202
16.98019 177
17.00031 206
17.02042 210
17.04053 197
17.06065 175
17.08076 224
17.10087 195
17.12099 204
17.1411 215
17.16121 210
17.18133 211
17.20144 211
17.22156 221
17.24167 189
17.26178 186
17.2819 195
17.30201 197
17.32212 207
17.34224 177
17.36235 182
17.38247 168
17.40258 180
17.42269 175
17.44281 195
17.46292 217
17.48303 219
17.50315 221
17.52326 196
17.54338 195
17.56349 213
17.5836 175
17.60372 213
17.62383 212
17.64394 223
17.66406 200
17.68417 220
17.70428 181
17.7244 209
17.74451 194
17.76463 207
17.78474 205
17.80485 198
17.82497 228
17.84508 175
17.86519 178
17.88531 177
17.90542 174
17.92554 215
17.94565 197
17.96576 211
17.98588 206
18.00599 197
18.0261 214
18.04622 195
18.06633 159
18.08645 203
18.10656 192
18.12667 220
18.14679 204
18.1669 203
18.18701 193
18.20713 190
18.22724 192
18.24735 200
18.26747 200
18.28758 190
18.3077 168
18.32781 204
18.34792 197
18.36804 219
18.38815 219
18.40826 207
18.42838 195
18.44849 191
18.46861 198
18.48872 208
18.50883 209
18.52895 211
18.54906 206
18.56917 191
18.58929 183
18.6094 184
18.62951 191
18.64963 213
18.66974 206
18.68986 213
18.70997 230
18.73008 237
18.7502 185
18.77031 215
18.79042 228
18.81054 203
18.83065 218
18.85077 207
18.87088 197
18.89099 193
18.91111 199
18.93122 207
18.95133 212
18.97145 182
18.99156 223
19.01168 201
19.03179 186
19.0519 209
19.07202 219
19.09213 209
19.11224 205
19.13236 201
19.15247 187
19.17258 217
19.1927 182
19.21281 222
19.23293 228
19.25304 231
19.27315 259
19.29327 244
19.31338 241
19.33349 241
19.35361 242
19.37372 231
19.39384 248
19.41395 239
19.43406 220
19.45418 231
19.47429 226
19.4944 241
19.51452 222
19.53463 229
19.55475 257
19.57486 262
19.59497 266
19.61509 234
19.6352 223
19.65531 255
19.67543 267
19.69554 240
19.71565 276
19.73577 306
19.75588 310
19.776 320
19.79611 334
19.81622 310
19.83634 327
19.85645 340
19.87656 342
19.89668 345
19.91679 344
19.93691 337
19.95702 346
19.97713 371
19.99725 398
20.01736 344
20.03747 355
20.05759 343
20.0777 303
20.09782 316
20.11793 355
20.13804 343
20.15816 347
20.17827 348
20.19838 362
20.2185 349
20.23861 355
20.25872 335
20.27884 282
20.29895 328
20.31907 373
20.33918 315
20.35929 354
20.37941 348
20.39952 388
20.41963 362
20.43975 370
20.45986 390
20.47998 418
20.50009 365
20.5202 394
20.54032 426
20.56043 429
20.58054 420
20.60066 436
20.62077 490
20.64088 531
20.661 641
20.68111 707
20.70123 911
20.72134 1129
20.74145 1517
20.76157 2066
20.78168 2853
20.80179 3674
20.82191 4304
20.84202 4784
20.86214 4599
20.88225 3981
20.90236 3142
20.92248 2486
20.94259 1896
20.9627 1492
20.98282 1270
21.00293 1221
21.02305 1109
21.04316 1040
21.06327 871
21.08339 731
21.1035 581
21.12361 524
21.14373 514
21.16384 419
21.18395 448
21.20407 408
21.22418 378
21.2443 345
21.26441 374
21.28452 339
21.30464 374
21.32475 389
21.34486 360
21.36498 353
21.38509 348
21.40521 350
21.42532 384
21.44543 327
21.46555 318
21.48566 350
21.50577 340
21.52589 342
21.546 296
21.56612 303
21.58623 317
21.60634 280
21.62646 294
21.64657 266
21.66668 340
21.6868 298
21.70691 257
21.72702 267
21.74714 281
21.76725 305
21.78737 321
21.80748 282
21.82759 302
21.84771 322
21.86782 322
21.88793 311
21.90805 352
21.92816 369
21.94828 384
21.96839 434
21.9885 420
22.00862 477
22.02873 396
22.04884 414
22.06896 354
22.08907 337
22.10919 290
22.1293 284
22.14941 270
22.16953 289
22.18964 319
22.20975 307
22.22987 358
22.24998 358
22.27009 327
22.29021 363
22.31032 345
22.33044 368
22.35055 321
22.37066 377
22.39078 376
22.41089 352
22.431 369
22.45112 386
22.47123 418
22.49135 411
22.51146 386
22.53157 410
22.55169 360
22.5718 335
22.59191 327
22.61203 329
22.63214 288
22.65225 288
22.67237 266
22.69248 287
22.7126 251
22.73271 259
22.75282 272
22.77294 252
22.79305 253
22.81316 252
22.83328 313
22.85339 314
22.87351 297
22.89362 280
22.91373 261
22.93385 336
22.95396 291
22.97407 326
22.99419 350
23.0143 375
23.03442 357
23.05453 370
23.07464 389
23.09476 391
23.11487 375
23.13498 397
23.1551 398
23.17521 409
23.19532 393
23.21544 385
23.23555 434
23.25567 383
23.27578 403
23.29589 404
23.31601 369
23.33612 378
23.35623 384
23.37635 416
23.39646 406
23.41658 479
23.43669 501
23.4568 508
23.47692 571
23.49703 575
23.51714 638
23.53726 624
23.55737 632
23.57749 619
23.5976 646
23.61771 578
23.63783 553
23.65794 483
23.67805 477
23.69817 427
23.71828 416
23.73839 376
23.75851 371
23.77862 376
23.79874 399
23.81885 401
23.83896 371
23.85908 367
23.87919 418
23.8993 446
23.91942 434
23.93953 454
23.95965 493
23.97976 527
23.99987 474
24.01999 435
24.0401 401
24.06021 413
24.08033 359
24.10044 384
24.12056 358
24.14067 354
24.16078 360
24.1809 335
24.20101 352
24.22112 394
24.24124 384
24.26135 378
24.28146 401
24.30158 428
24.32169 418
24.34181 404
24.36192 351
24.38203 332
24.40215 351
24.42226 360
24.44237 332
24.46249 370
24.4826 345
24.50272 350
24.52283 377
24.54294 368
24.56306 383
24.58317 401
24.60328 402
24.6234 413
24.64351 396
24.66362 356
24.68374 375
24.70385 391
24.72397 361
24.74408 353
24.76419 361
24.78431 350
24.80442 346
24.82453 336
24.84465 330
24.86476 368
24.88488 352
24.90499 343
24.9251 373
24.94522 368
24.96533 340
24.98544 361
25.00556 358
25.02567 336
25.04579 357
25.0659 390
25.08601 373
25.10613 372
25.12624 394
25.14635 375
25.16647 371
25.18658 399
25.20669 404
25.22681 411
25.24692 384
25.26704 381
25.28715 438
25.30726 377
25.32738 411
25.34749 420
25.3676 417
25.38772 425
25.40783 446
25.42795 447
25.44806 456
25.46817 521
25.48829 591
25.5084 627
25.52851 702
25.54863 735
25.56874 819
25.58886 837
25.60897 863
25.62908 905
25.6492 808
25.66931 733
25.68942 736
25.70954 640
25.72965 515
25.74976 535
25.76988 469
25.78999 440
25.81011 458
25.83022 442
25.85033 406
25.87045 430
25.89056 448
25.91067 431
25.93079 463
25.9509 456
25.97102 493
25.99113 466
26.01124 497
26.03136 486
26.05147 480
26.07158 510
26.0917 502
26.11181 514
26.13193 553
26.15204 604
26.17215 595
26.19227 652
26.21238 722
26.23249 752
26.25261 824
26.27272 852
26.29283 909
26.31295 1015
26.33306 1243
26.35318 1288
26.37329 1415
26.3934 1570
26.41352 1860
26.43363 2235
26.45374 2745
26.47386 3709
26.49397 4988
26.51409 6838
26.5342 8965
26.55431 12394
26.57443 16226
26.59454 19622
26.61465 21311
26.63477 21434
26.65488 18686
26.67499 15086
26.69511 11602
26.71522 8525
26.73534 5528
26.75545 3562
26.77556 2285
26.79568 1743
26.81579 1691
26.8359 1564
26.85602 1511
26.87613 1410
26.89625 1406
26.91636 1398
26.93647 1355
26.95659 1338
26.9767 1417
26.99681 1336
27.01693 1459
27.03704 1403
27.05716 1438
27.07727 1363
27.09738 1262
27.1175 1069
27.13761 959
27.15772 877
27.17784 797
27.19795 698
27.21806 664
27.23818 689
27.25829 704
27.27841 719
27.29852 804
27.31863 955
27.33875 886
27.35886 1050
27.37897 1163
27.39909 1381
27.4192 1574
27.43932 1698
27.45943 1721
27.47954 1745
27.49966 1676
27.51977 1502
27.53988 1356
27.56 1051
27.58011 916
27.60023 761
27.62034 661
27.64045 575
27.66057 519
27.68068 536
27.70079 577
27.72091 551
27.74102 563
27.76113 565
27.78125 559
27.80136 576
27.82148 531
27.84159 633
27.8617 551
27.88182 608
27.90193 672
27.92204 641
27.94216 604
27.96227 597
27.98239 539
28.0025 497
28.02261 466
28.04273 429
28.06284 425
28.08295 420
28.10307 370
28.12318 349
28.1433 370
28.16341 306
28.18352 364
28.20364 308
28.22375 367
28.24386 325
28.26398 338
28.28409 336
28.3042 309
28.32432 337
28.34443 348
28.36455 312
28.38466 314
28.40477 276
28.42489 279
28.445 270
28.46511 267
28.48523 300
28.50534 309
28.52546 276
28.54557 270
28.56568 282
28.5858 288
28.60591 277
28.62602 301
28.64614 244
28.66625 243
28.68636 309
28.70648 252
28.72659 283
28.74671 273
28.76682 275
28.78693 240
28.80705 266
28.82716 279
28.84727 273
28.86739 267
28.8875 272
28.90762 242
28.92773 279
28.94784 242
28.96796 245
28.98807 253
29.00818 239
29.0283 233
29.04841 274
29.06853 239
29.08864 287
29.10875 251
29.12887 249
29.14898 230
29.16909 259
29.18921 259
29.20932 261
29.22943 266
29.24955 273
29.26966 272
29.28978 315
29.30989 282
29.33 324
29.35012 309
29.37023 309
29.39034 356
29.41046 338
29.43057 357
29.45069 373
29.4708 375
29.49091 350
29.51103 362
29.53114 359
29.55125 340
29.57137 400
29.59148 363
29.6116 379
29.63171 372
29.65182 379
29.67194 388
29.69205 414
29.71216 434
29.73228 457
29.75239 514
29.7725 497
29.79262 513
29.81273 509
29.83285 521
29.85296 540
29.87307 495
29.89319 482
29.9133 432
29.93341 452
29.95353 397
29.97364 410
29.99376 387
30.01387 390
30.03398 434
30.0541 429
30.07421 416
30.09432 445
30.11444 432
30.13455 440
30.15467 375
30.17478 411
30.19489 402
30.21501 411
30.23512 404
30.25523 370
30.27535 380
30.29546 336
30.31557 379
30.33569 385
30.3558 386
30.37592 350
30.39603 325
30.41614 371
30.43626 387
30.45637 362
30.47648 350
30.4966 345
30.51671 328
30.53683 312
30.55694 310
30.57705 319
30.59717 321
30.61728 335
30.63739 401
30.65751 410
30.67762 415
30.69773 512
30.71785 508
30.73796 612
30.75808 585
30.77819 578
30.7983 616
30.81842 606
30.83853 532
30.85864 488
30.87876 443
30.89887 393
30.91899 359
30.9391 309
30.95921 310
30.97933 289
30.99944 276
31.01955 248
31.03967 246
31.05978 253
31.0799 269
31.10001 242
31.12012 277
31.14024 231
31.16035 252
31.18046 258
31.20058 250
31.22069 242
31.2408 275
31.26092 268
31.28103 279
31.30115 228
31.32126 249
31.34137 249
31.36149 224
31.3816 211
31.40171 231
31.42183 258
31.44194 220
31.46206 238
31.48217 250
31.50228 226
31.5224 222
31.54251 254
31.56262 225
31.58274 248
31.60285 209
31.62297 219
31.64308 222
31.66319 223
31.68331 212
31.70342 238
31.72353 235
31.74365 224
31.76376 212
31.78387 241
31.80399 218
31.8241 225
31.84422 207
31.86433 231
31.88444 224
31.90456 228
31.92467 220
31.94478 234
31.9649 247
31.98501 243
32.00513 234
32.02524 256
32.04535 269
32.06547 263
32.08558 293
32.10569 269
32.12581 272
32.14592 299
32.16604 270
32.18615 311
32.20626 324
32.22638 310
32.24649 354
32.2666 380
32.28672 359
32.30683 404
32.32694 344
32.34706 372
32.36717 377
32.38729 326
32.4074 351
32.42751 338
32.44763 297
32.46774 317
32.48785 311
32.50797 257
32.52808 254
32.5482 255
32.56831 264
32.58842 260
32.60854 253
32.62865 253
32.64876 231
32.66888 194
32.68899 225
32.7091 217
32.72922 214
32.74933 227
32.76945 216
32.78956 205
32.80967 234
32.82979 219
32.8499 226
32.87001 191
32.89013 243
32.91024 221
32.93036 249
32.95047 222
32.97058 226
32.9907 218
33.01081 224
33.03092 212
33.05104 226
33.07115 240
33.09127 218
33.11138 228
33.13149 237
33.15161 201
33.17172 197
33.19183 231
33.21195 220
33.23206 228
33.25217 211
33.27229 216
33.2924 230
33.31252 209
33.33263 211
33.35274 204
33.37286 236
33.39297 211
33.41308 182
33.4332 220
33.45331 224
33.47343 213
33.49354 238
33.51365 217
33.53377 201
33.55388 212
33.57399 205
33.59411 221
33.61422 226
33.63434 240
33.65445 225
33.67456 182
33.69468 235
33.71479 236
33.7349 215
33.75502 202
33.77513 233
33.79524 216
33.81536 254
33.83547 222
33.85559 236
33.8757 218
33.89581 233
33.91593 216
33.93604 246
33.95615 245
33.97627 231
33.99638 211
34.0165 242
34.03661 248
34.05672 237
34.07684 228
34.09695 262
34.11706 294
34.13718 305
34.15729 302
34.17741 306
34.19752 291
34.21763 329
34.23775 307
34.25786 317
34.27797 292
34.29809 318
34.3182 349
34.33831 296
34.35843 354
34.37854 345
34.39866 330
34.41877 342
34.43888 315
34.459 325
34.47911 345
34.49922 326
34.51934 341
34.53945 350
34.55957 352
34.57968 300
34.59979 318
34.61991 332
34.64002 336
34.66013 330
34.68025 385
34.70036 362
34.72047 362
34.74059 366
34.7607 332
34.78082 403
34.80093 398
34.82104 385
34.84116 407
34.86127 438
34.88138 439
34.9015 398
34.92161 403
34.94173 406
34.96184 407
34.98195 408
35.00207 398
35.02218 383
35.04229 408
35.06241 371
35.08252 383
35.10264 403
35.12275 395
35.14286 382
35.16298 397
35.18309 335
35.2032 361
35.22332 330
35.24343 323
35.26354 342
35.28366 366
35.30377 355
35.32389 344
35.344 338
35.36411 329
35.38423 318
35.40434 320
35.42445 349
35.44457 385
35.46468 362
35.4848 381
35.50491 370
35.52502 406
35.54514 424
35.56525 406
35.58536 436
35.60548 374
35.62559 402
35.64571 371
35.66582 347
35.68593 356
35.70605 329
35.72616 304
35.74627 351
35.76639 289
35.7865 315
35.80661 292
35.82673 299
35.84684 285
35.86696 283
35.88707 271
35.90718 280
35.9273 303
35.94741 259
35.96752 288
35.98764 319
36.00775 248
36.02787 270
36.04798 269
36.06809 302
36.08821 263
36.10832 309
36.12843 289
36.14855 295
36.16866 293
36.18878 293
36.20889 270
36.229 324
36.24912 318
36.26923 351
36.28934 355
36.30946 363
36.32957 370
36.34968 436
36.3698 474
36.38991 590
36.41003 771
36.43014 953
36.45025 1128
36.47037 1381
36.49048 1425
36.51059 1551
36.53071 1482
36.55082 1371
36.57094 1146
36.59105 998
36.61116 903
36.63128 769
36.65139 609
36.6715 511
36.69162 398
36.71173 335
36.73184 316
36.75196 304
36.77207 321
36.79219 318
36.8123 319
36.83241 313
36.85253 304
36.87264 316
36.89275 343
36.91287 308
36.93298 335
36.9531 340
36.97321 346
36.99332 336
37.01344 319
37.03355 278
37.05366 335
37.07378 314
37.09389 321
37.11401 311
37.13412 300
37.15423 310
37.17435 286
37.19446 308
37.21457 286
37.23469 299
37.2548 284
37.27491 282
37.29503 248
37.31514 284
37.33526 258
37.35537 262
37.37548 230
37.3956 243
37.41571 255
37.43582 239
37.45594 243
37.47605 264
37.49617 234
37.51628 232
37.53639 263
37.55651 269
37.57662 237
37.59673 276
37.61685 299
37.63696 280
37.65708 292
37.67719 289
37.6973 268
37.71742 252
37.73753 277
37.75764 247
37.77776 253
37.79787 266
37.81798 272
37.8381 239
37.85821 241
37.87833 273
37.89844 274
37.91855 250
37.93867 221
37.95878 234
37.97889 256
37.99901 254
38.01912 231
38.03924 271
38.05935 248
38.07946 272
38.09958 244
38.11969 223
38.1398 263
38.15992 218
38.18003 231
38.20015 225
38.22026 244
38.24037 267
38.26049 239
38.2806 235
38.30071 237
38.32083 197
38.34094 240
38.36105 283
38.38117 237
38.40128 252
38.4214 266
38.44151 246
38.46162 300
38.48174 262
38.50185 307
38.52196 306
38.54208 288
38.56219 293
38.58231 282
38.60242 326
38.62253 310
38.64265 305
38.66276 289
38.68287 263
38.70299 296
38.7231 270
38.74321 277
38.76333 267
38.78344 223
38.80356 257
38.82367 245
38.84378 228
38.8639 235
38.88401 236
38.90412 259
38.92424 243
38.94435 234
38.96447 205
38.98458 240
39.00469 263
39.02481 237
39.04492 280
39.06503 267
39.08515 277
39.10526 262
39.12538 251
39.14549 271
39.1656 265
39.18572 305
39.20583 296
39.22594 337
39.24606 352
39.26617 386
39.28628 512
39.3064 544
39.32651 636
39.34663 813
39.36674 961
39.38685 1153
39.40697 1378
39.42708 1469
39.44719 1437
39.46731 1351
39.48742 1120
39.50754 964
39.52765 833
39.54776 765
39.56788 699
39.58799 533
39.6081 408
39.62822 331
39.64833 310
39.66845 267
39.68856 281
39.70867 253
39.72879 250
39.7489 266
39.76901 261
39.78913 244
39.80924 245
39.82935 243
39.84947 242
39.86958 246
39.8897 248
39.90981 236
39.92992 249
39.95004 236
39.97015 222
39.99026 253
40.01038 241
40.03049 265
40.05061 269
40.07072 309
40.09083 309
40.11095 382
40.13106 402
40.15117 452
40.17129 517
40.1914 620
40.21152 652
40.23163 685
40.25174 748
40.27186 782
40.29197 721
40.31208 664
40.3322 575
40.35231 549
40.37242 482
40.39254 507
40.41265 375
40.43277 328
40.45288 305
40.47299 269
40.49311 240
40.51322 248
40.53333 256
40.55345 246
40.57356 246
40.59368 225
40.61379 226
40.6339 270
40.65402 232
40.67413 215
40.69424 232
40.71436 222
40.73447 219
40.75458 221
40.7747 206
40.79481 232
40.81493 238
40.83504 217
40.85515 245
40.87527 237
40.89538 220
40.91549 238
40.93561 247
40.95572 236
40.97584 228
40.99595 259
41.01606 196
41.03618 244
41.05629 211
41.0764 238
41.09652 240
41.11663 237
41.13675 231
41.15686 235
41.17697 251
41.19709 255
41.2172 232
41.23731 248
41.25743 210
41.27754 244
41.29765 256
41.31777 238
41.33788 224
41.358 228
41.37811 258
41.39822 238
41.41834 217
41.43845 234
41.45856 250
41.47868 266
41.49879 230
41.51891 272
41.53902 278
41.55913 273
41.57925 279
41.59936 295
41.61947 335
41.63959 357
41.6597 374
41.67982 421
41.69993 430
41.72004 434
41.74016 466
41.76027 410
41.78038 394
41.8005 419
41.82061 414
41.84072 386
41.86084 332
41.88095 330
41.90107 291
41.92118 276
41.94129 280
41.96141 265
41.98152 244
42.00163 249
42.02175 232
42.04186 219
42.06198 253
42.08209 263
42.1022 246
42.12232 246
42.14243 278
42.16254 290
42.18266 296
42.20277 306
42.22289 328
42.243 356
42.26311 408
42.28323 423
42.30334 516
42.32345 660
42.34357 724
42.36368 887
42.38379 917
42.40391 1043
42.42402 1065
42.44414 1003
42.46425 867
42.48436 753
42.50448 690
42.52459 645
42.5447 608
42.56482 561
42.58493 442
42.60505 357
42.62516 313
42.64527 322
42.66539 318
42.6855 329
42.70561 309
42.72573 288
42.74584 308
42.76595 258
42.78607 274
42.80618 262
42.8263 304
42.84641 252
42.86652 224
42.88664 217
42.90675 253
42.92686 233
42.94698 254
42.96709 244
42.98721 247
43.00732 226
43.02743 202
43.04755 216
43.06766 211
43.08777 222
43.10789 216
43.128 218
43.14812 206
43.16823 220
43.18834 180
43.20846 183
43.22857 199
43.24868 203
43.2688 186
43.28891 185
43.30902 192
43.32914 190
43.34925 196
43.36937 213
43.38948 206
43.40959 197
43.42971 208
43.44982 220
43.46993 202
43.49005 210
43.51016 244
43.53028 206
43.55039 232
43.5705 219
43.59062 247
43.61073 247
43.63084 215
43.65096 209
43.67107 224
43.69119 253
43.7113 267
43.73141 215
43.75153 219
43.77164 234
43.79175 220
43.81187 193
43.83198 208
43.85209 214
43.87221 219
43.89232 226
43.91244 200
43.93255 184
43.95266 197
43.97278 206
43.99289 212
44.013 210
44.03312 209
44.05323 205
44.07335 200
44.09346 225
44.11357 215
44.13369 215
44.1538 219
44.17391 195
44.19403 207
44.21414 209
44.23426 212
44.25437 204
44.27448 200
44.2946 200
44.31471 188
44.33482 204
44.35494 189
44.37505 212
44.39516 212
44.41528 176
44.43539 197
44.45551 186
44.47562 199
44.49573 166
44.51585 217
44.53596 219
44.55607 198
44.57619 191
44.5963 213
44.61642 171
44.63653 195
44.65664 190
44.67676 219
44.69687 208
44.71698 160
44.7371 222
44.75721 213
44.77732 175
44.79744 195
44.81755 205
44.83767 194
44.85778 213
44.87789 194
44.89801 203
44.91812 185
44.93823 216
44.95835 223
44.97846 236
44.99858 244
45.01869 234
45.0388 212
45.05892 218
45.07903 239
45.09914 213
45.11926 222
45.13937 230
45.15949 227
45.1796 218
45.19971 239
45.21983 220
45.23994 215
45.26005 218
45.28017 233
45.30028 220
45.32039 259
45.34051 243
45.36062 239
45.38074 223
45.40085 235
45.42096 245
45.44108 272
45.46119 280
45.4813 277
45.50142 271
45.52153 303
45.54165 294
45.56176 333
45.58187 372
45.60199 361
45.6221 437
45.64221 463
45.66233 493
45.68244 564
45.70256 652
45.72267 776
45.74278 770
45.7629 904
45.78301 735
45.80312 693
45.82324 626
45.84335 553
45.86346 569
45.88358 529
45.90369 485
45.92381 449
45.94392 360
45.96403 310
45.98415 265
46.00426 283
46.02437 228
46.04449 241
46.0646 241
46.08472 224
46.10483 221
46.12494 222
46.14506 224
46.16517 256
46.18528 237
46.2054 230
46.22551 200
46.24563 199
46.26574 215
46.28585 194
46.30597 180
46.32608 192
46.34619 207
46.36631 188
46.38642 225
46.40653 206
46.42665 202
46.44676 200
46.46688 199
46.48699 206
46.5071 196
46.52722 173
46.54733 188
46.56744 170
46.58756 171
46.60767 172
46.62779 180
46.6479 171
46.66801 187
46.68813 188
46.70824 176
46.72835 198
46.74847 176
46.76858 181
46.78869 202
46.80881 198
46.82892 211
46.84904 194
46.86915 191
46.88926 214
46.90938 231
46.92949 206
46.9496 208
46.96972 219
46.98983 213
47.00995 258
47.03006 223
47.05017 284
47.07029 257
47.0904 265
47.11051 272
47.13063 287
47.15074 260
47.17086 251
47.19097 263
47.21108 250
47.2312 249
47.25131 217
47.27142 270
47.29154 251
47.31165 223
47.33176 218
47.35188 216
47.37199 246
47.39211 255
47.41222 250
47.43233 251
47.45245 294
47.47256 249
47.49267 236
47.51279 245
47.5329 230
47.55302 252
47.57313 263
47.59324 188
47.61336 213
47.63347 199
47.65358 208
47.6737 200
47.69381 202
47.71393 196
47.73404 218
47.75415 198
47.77427 207
47.79438 216
47.81449 209
47.83461 208
47.85472 192
47.87483 223
47.89495 198
47.91506 204
47.93518 198
47.95529 221
47.9754 204
47.99552 184
48.01563 229
48.03574 202
48.05586 243
48.07597 211
48.09609 202
48.1162 218
48.13631 216
48.15643 222
48.17654 210
48.19665 182
48.21677 200
48.23688 210
48.257 241
48.27711 177
48.29722 179
48.31734 190
48.33745 213
48.35756 208
48.37768 222
48.39779 181
48.4179 198
48.43802 175
48.45813 207
48.47825 193
48.49836 164
48.51847 190
48.53859 174
48.5587 185
48.57881 193
48.59893 201
48.61904 219
48.63916 184
48.65927 217
48.67938 211
48.6995 206
48.71961 211
48.73972 226
48.75984 222
48.77995 228
48.80006 204
48.82018 243
48.84029 234
48.86041 237
48.88052 228
48.90063 237
48.92075 242
48.94086 276
48.96097 257
48.98109 280
49.0012 277
49.02132 277
49.04143 283
49.06154 271
49.08166 245
49.10177 251
49.12188 213
49.142 232
49.16211 242
49.18223 240
49.20234 258
49.22245 250
49.24257 226
49.26268 251
49.28279 222
49.30291 213
49.32302 216
49.34313 215
49.36325 202
49.38336 208
49.40348 230
49.42359 228
49.4437 207
49.46382 240
49.48393 202
49.50404 240
49.52416 227
49.54427 241
49.56439 224
49.5845 251
49.60461 264
49.62473 249
49.64484 252
49.66495 285
49.68507 244
49.70518 298
49.7253 300
49.74541 293
49.76552 321
49.78564 346
49.80575 365
49.82586 324
49.84598 425
49.86609 445
49.8862 469
49.90632 485
49.92643 590
49.94655 668
49.96666 753
49.98677 929
50.00689 1162
50.027 1426
50.04711 1722
50.06723 2008
50.08734 2175
50.10746 2113
50.12757 1996
50.14768 1683
50.1678 1449
50.18791 1282
50.20802 1285
50.22814 1205
50.24825 1135
50.26837 929
50.28848 745
50.30859 544
50.32871 464
50.34882 422
50.36893 375
50.38905 391
50.40916 384
50.42927 392
50.44939 414
50.4695 430
50.48962 467
50.50973 489
50.52984 485
50.54996 497
50.57007 500
50.59018 503
50.6103 513
50.63041 471
50.65053 485
50.67064 422
50.69075 441
50.71087 423
50.73098 397
50.75109 428
50.77121 386
50.79132 294
50.81143 324
50.83155 287
50.85166 298
50.87178 292
50.89189 262
50.912 253
50.93212 228
50.95223 250
50.97234 224
50.99246 257
51.01257 268
51.03269 203
51.0528 221
51.07291 221
51.09303 231
51.11314 234
51.13325 213
51.15337 198
51.17348 235
51.1936 204
51.21371 208
51.23382 233
51.25394 209
51.27405 222
51.29416 236
51.31428 214
51.33439 207
51.3545 210
51.37462 208
51.39473 194
51.41485 193
51.43496 187
51.45507 205
51.47519 219
51.4953 204
51.51541 205
51.53553 216
51.55564 202
51.57576 213
51.59587 200
51.61598 183
51.6361 200
51.65621 183
51.67632 167
51.69644 191
51.71655 203
51.73667 181
51.75678 186
51.77689 182
51.79701 190
51.81712 196
51.83723 177
51.85735 212
51.87746 151
51.89757 161
51.91769 185
51.9378 161
51.95792 188
51.97803 194
51.99814 186
52.01826 208
52.03837 177
52.05848 188
52.0786 184
52.09871 181
52.11883 184
52.13894 188
52.15905 171
52.17917 193
52.19928 191
52.21939 206
52.23951 211
52.25962 188
52.27974 175
52.29985 159
52.31996 207
52.34008 185
52.36019 223
52.3803 184
52.40042 211
52.42053 167
52.44064 204
52.46076 200
52.48087 204
52.50099 180
52.5211 192
52.54121 218
52.56133 203
52.58144 202
52.60155 185
52.62167 192
52.64178 211
52.6619 176
52.68201 183
52.70212 191
52.72224 181
52.74235 206
52.76246 209
52.78258 195
52.80269 215
52.8228 184
52.84292 197
52.86303 223
52.88315 180
52.90326 215
52.92337 199
52.94349 191
52.9636 221
52.98371 182
53.00383 209
53.02394 209
53.04406 218
53.06417 196
53.08428 215
53.1044 197
53.12451 200
53.14462 186
53.16474 214
53.18485 229
53.20497 207
53.22508 208
53.24519 221
53.26531 211
53.28542 224
53.30553 213
53.32565 225
53.34576 224
53.36587 239
53.38599 223
53.4061 242
53.42622 269
53.44633 232
53.46644 221
53.48656 251
53.50667 203
53.52678 220
53.5469 216
53.56701 169
53.58713 179
53.60724 225
53.62735 190
53.64747 223
53.66758 207
53.68769 215
53.70781 215
53.72792 206
53.74804 210
53.76815 193
53.78826 199
53.80838 203
53.82849 232
53.8486 244
53.86872 217
53.88883 227
53.90894 230
53.92906 220
53.94917 206
53.96929 203
53.9894 192
54.00951 215
54.02963 203
54.04974 218
54.06985 233
54.08997 208
54.11008 196
54.1302 213
54.15031 225
54.17042 229
54.19054 212
54.21065 223
54.23076 203
54.25088 230
54.27099 222
54.29111 200
54.31122 208
54.33133 207
54.35145 208
54.37156 250
54.39167 204
54.41179 232
54.4319 205
54.45201 237
54.47213 215
54.49224 221
54.51236 258
54.53247 262
54.55258 226
54.5727 247
54.59281 256
54.61292 281
54.63304 278
54.65315 315
54.67327 353
54.69338 364
54.71349 440
54.73361 442
54.75372 553
54.77383 606
54.79395 704
54.81406 744
54.83417 766
54.85429 773
54.8744 633
54.89452 552
54.91463 491
54.93474 494
54.95486 530
54.97497 490
54.99508 483
55.0152 416
55.03531 358
55.05543 312
55.07554 316
55.09565 280
55.11577 288
55.13588 316
55.15599 336
55.17611 312
55.19622 366
55.21634 388
55.23645 357
55.25656 414
55.27668 469
55.29679 447
55.3169 419
55.33702 386
55.35713 349
55.37724 310
55.39736 312
55.41747 354
55.43759 327
55.4577 325
55.47781 288
55.49793 269
55.51804 272
55.53815 223
55.55827 245
55.57838 218
55.5985 235
55.61861 233
55.63872 221
55.65884 209
55.67895 214
55.69906 196
55.71918 204
55.73929 217
55.75941 230
55.77952 177
55.79963 189
55.81975 189
55.83986 215
55.85997 201
55.88009 193
55.9002 171
55.92031 187
55.94043 158
55.96054 189
55.98066 171
56.00077 167
56.02088 214
56.041 202
56.06111 186
56.08122 191
56.10134 193
56.12145 199
56.14157 224
56.16168 191
56.18179 186
56.20191 184
56.22202 199
56.24213 201
56.26225 200
56.28236 198
56.30248 190
56.32259 176
56.3427 201
56.36282 187
56.38293 189
56.40304 183
56.42316 196
56.44327 196
56.46338 217
56.4835 197
56.50361 199
56.52373 204
56.54384 186
56.56395 199
56.58407 197
56.60418 187
56.62429 204
56.64441 172
56.66452 196
56.68464 220
56.70475 206
56.72486 208
56.74498 204
56.76509 190
56.7852 197
56.80532 165
56.82543 183
56.84554 198
56.86566 187
56.88577 178
56.90589 183
56.926 193
56.94611 188
56.96623 178
56.98634 166
57.00645 167
57.02657 169
57.04668 189
57.0668 158
57.08691 216
57.10702 209
57.12714 225
57.14725 212
57.16736 186
57.18748 196
57.20759 177
57.22771 199
57.24782 195
57.26793 204
57.28805 196
57.30816 207
57.32827 214
57.34839 205
57.3685 206
57.38861 208
57.40873 188
57.42884 141
57.44896 160
57.46907 194
57.48918 202
57.5093 185
57.52941 175
57.54952 172
57.56964 194
57.58975 159
57.60987 196
57.62998 202
57.65009 201
57.67021 172
57.69032 201
57.71043 198
57.73055 177
57.75066 196
57.77078 202
57.79089 171
57.811 181
57.83112 191
57.85123 190
57.87134 208
57.89146 171
57.91157 176
57.93168 204
57.9518 175
57.97191 193
57.99203 180
58.01214 168
58.03225 214
58.05237 214
58.07248 184
58.09259 196
58.11271 177
58.13282 180
58.15294 167
58.17305 182
58.19316 192
58.21328 176
58.23339 179
58.2535 194
58.27362 172
58.29373 181
58.31385 182
58.33396 180
58.35407 183
58.37419 187
58.3943 209
58.41441 180
58.43453 173
58.45464 188
58.47475 200
58.49487 196
58.51498 200
58.5351 208
58.55521 202
58.57532 213
58.59544 204
58.61555 225
58.63566 210
58.65578 196
58.67589 226
58.69601 190
58.71612 219
58.73623 208
58.75635 212
58.77646 182
58.79657 171
58.81669 195
58.8368 179
58.85691 170
58.87703 163
58.89714 201
58.91726 173
58.93737 149
58.95748 156
58.9776 185
58.99771 179
59.01782 169
59.03794 183
59.05805 211
59.07817 179
59.09828 194
59.11839 170
59.13851 221
59.15862 188
59.17873 186
59.19885 185
59.21896 198
59.23908 169
59.25919 197
59.2793 199
59.29942 192
59.31953 187
59.33964 168
59.35976 209
59.37987 200
59.39998 204
59.4201 231
59.44021 209
59.46033 214
59.48044 229
59.50055 255
59.52067 227
59.54078 224
59.56089 227
59.58101 276
59.60112 260
59.62124 275
59.64135 299
59.66146 330
59.68158 334
59.70169 383
59.7218 414
59.74192 454
59.76203 519
59.78215 628
59.80226 747
59.82237 889
59.84249 979
59.8626 1177
59.88271 1209
59.90283 1411
59.92294 1336
59.94305 1251
59.96317 1069
59.98328 887
60.0034 743
60.02351 838
60.04362 808
60.06374 791
60.08385 777
60.10396 677
60.12408 592
60.14419 437
60.16431 363
60.18442 323
60.20453 267
60.22465 278
60.24476 225
60.26487 241
60.28499 220
60.3051 197
60.32522 247
60.34533 236
60.36544 213
60.38556 211
60.40567 232
60.42578 192
60.4459 208
60.46601 203
60.48612 192
60.50624 195
60.52635 197
60.54647 173
60.56658 178
60.58669 207
60.60681 166
60.62692 197
60.64703 197
60.66715 225
60.68726 188
60.70738 191
60.72749 177
60.7476 194
60.76772 188
60.78783 187
60.80794 191
60.82806 192
60.84817 204
60.86828 169
60.8884 207
60.90851 161
60.92863 208
60.94874 197
60.96885 203
60.98897 177
61.00908 176
61.02919 216
61.04931 229
61.06942 202
61.08954 188
61.10965 222
61.12976 222
61.14988 209
61.16999 227
61.1901 223
61.21022 194
61.23033 223
61.25045 199
61.27056 221
61.29067 188
61.31079 191
61.3309 205
61.35101 202
61.37113 223
61.39124 186
61.41135 191
61.43147 190
61.45158 214
61.4717 215
61.49181 197
61.51192 219
61.53204 187
61.55215 217
61.57226 211
61.59238 218
61.61249 203
61.63261 195
61.65272 180
61.67283 189
61.69295 214
61.71306 209
61.73317 220
61.75329 194
61.7734 198
61.79352 212
61.81363 239
61.83374 207
61.85386 224
61.87397 248
61.89408 230
61.9142 235
61.93431 231
61.95442 216
61.97454 212
61.99465 209
62.01477 216
62.03488 236
62.05499 228
62.07511 245
62.09522 249
62.11533 231
62.13545 208
62.15556 234
62.17568 227
62.19579 216
62.2159 192
62.23602 240
62.25613 223
62.27624 212
62.29636 197
62.31647 235
62.33659 221
62.3567 210
62.37681 224
62.39693 201
62.41704 228
62.43715 214
62.45727 208
62.47738 195
62.49749 209
62.51761 204
62.53772 194
62.55784 230
62.57795 195
62.59806 192
62.61818 229
62.63829 203
62.6584 179
62.67852 197
62.69863 235
62.71875 200
62.73886 175
62.75897 234
62.77909 237
62.7992 191
62.81931 213
62.83943 189
62.85954 192
62.87965 214
62.89977 185
62.91988 192
62.94 177
62.96011 192
62.98022 195
63.00034 186
63.02045 178
63.04056 191
63.06068 192
63.08079 225
63.10091 179
63.12102 201
63.14113 180
63.16125 209
63.18136 173
63.20147 199
63.22159 183
63.2417 197
63.26182 179
63.28193 195
63.30204 196
63.32216 215
63.34227 194
63.36238 180
63.3825 189
63.40261 198
63.42272 209
63.44284 183
63.46295 200
63.48307 192
63.50318 201
63.52329 184
63.54341 177
63.56352 204
63.58363 186
63.60375 192
63.62386 170
63.64398 214
63.66409 226
63.6842 221
63.70432 232
63.72443 230
63.74454 231
63.76466 224
63.78477 243
63.80489 276
63.825 266
63.84511 265
63.86523 299
63.88534 321
63.90545 340
63.92557 384
63.94568 393
63.96579 391
63.98591 426
64.00602 412
64.02614 393
64.04625 338
64.06636 340
64.08648 285
64.10659 288
64.1267 332
64.14682 291
64.16693 280
64.18705 296
64.20716 269
64.22727 253
64.24739 218
64.2675 214
64.28761 212
64.30773 200
64.32784 189
64.34796 221
64.36807 193
64.38818 148
64.4083 188
64.42841 176
64.44852 164
64.46864 192
64.48875 202
64.50886 212
64.52898 201
64.54909 192
64.56921 170
64.58932 193
64.60943 204
64.62955 173
64.64966 168
64.66977 185
64.68989 187
64.71 176
64.73012 196
64.75023 197
64.77034 169
64.79046 189
64.81057 196
64.83068 176
64.8508 189
64.87091 197
64.89102 182
64.91114 173
64.93125 194
64.95137 173
64.97148 187
64.99159 205
65.01171 188
65.03182 171
65.05193 218
65.07205 202
65.09216 180
65.11228 201
65.13239 175
65.1525 208
65.17262 190
65.19273 210
65.21284 212
65.23296 221
65.25307 212
65.27319 200
65.2933 189
65.31341 216
65.33353 203
65.35364 205
65.37375 159
65.39387 213
65.41398 195
65.43409 190
65.45421 191
65.47432 177
65.49444 178
65.51455 185
65.53466 206
65.55478 200
65.57489 184
65.595 183
65.61512 196
65.63523 198
65.65535 207
65.67546 191
65.69557 201
65.71569 217
65.7358 219
65.75591 220
65.77603 199
65.79614 190
65.81626 195
65.83637 190
65.85648 209
65.8766 208
65.89671 191
65.91682 184
65.93694 206
65.95705 189
65.97716 204
65.99728 175
66.01739 172
66.03751 163
66.05762 193
66.07773 164
66.09785 185
66.11796 178
66.13807 178
66.15819 182
66.1783 158
66.19842 198
66.21853 190
66.23864 201
66.25876 222
66.27887 192
66.29898 173
66.3191 216
66.33921 216
66.35933 207
66.37944 209
66.39955 191
66.41967 172
66.43978 189
66.45989 159
66.48001 191
66.50012 172
66.52023 175
66.54035 176
66.56046 168
66.58058 178
66.60069 182
66.6208 155
66.64092 180
66.66103 188
66.68114 165
66.70126 198
66.72137 173
66.74149 186
66.7616 154
66.78171 169
66.80183 155
66.82194 153
66.84205 190
66.86217 155
66.88228 163
66.90239 173
66.92251 171
66.94262 185
66.96274 183
66.98285 152
67.00296 180
67.02308 188
67.04319 181
67.0633 194
67.08342 197
67.10353 192
67.12365 192
67.14376 182
67.16387 191
67.18399 195
67.2041 194
67.22421 187
67.24433 198
67.26444 214
67.28456 184
67.30467 193
67.32478 235
67.3449 213
67.36501 229
67.38512 252
67.40524 255
67.42535 234
67.44546 242
67.46558 277
67.48569 298
67.50581 325
67.52592 408
67.54603 412
67.56615 453
67.58626 543
67.60637 574
67.62649 647
67.6466 734
67.66672 783
67.68683 783
67.70694 826
67.72706 768
67.74717 671
67.76728 614
67.7874 583
67.80751 512
67.82763 581
67.84774 584
67.86785 627
67.88797 655
67.90808 674
67.92819 659
67.94831 605
67.96842 639
67.98853 715
68.00865 741
68.02876 840
68.04888 931
68.06899 928
68.0891 1091
68.10922 1018
68.12933 1062
68.14944 932
68.16956 914
68.18967 862
68.20979 891
68.2299 924
68.25001 994
68.27013 996
68.29024 1010
68.31035 911
68.33047 766
68.35058 644
68.3707 544
68.39081 458
68.41092 449
68.43104 463
68.45115 482
68.47126 399
68.49138 426
68.51149 357
68.5316 307
68.55172 238
68.57183 248
68.59195 237
68.61206 192
68.63217 210
68.65229 197
68.6724 233
68.69251 229
68.71263 196
68.73274 194
68.75286 198
68.77297 202
68.79308 196
68.8132 218
68.83331 162
68.85342 188
68.87354 192
68.89365 182
68.91376 170
68.93388 184
68.95399 158
68.97411 178
68.99422 158
69.01433 153
69.03445 165
69.05456 183
69.07467 155
69.09479 184
69.1149 164
69.13502 186
69.15513 172
69.17524 179
69.19536 177
69.21547 146
69.23558 177
69.2557 149
69.27581 161
69.29593 167
69.31604 168
69.33615 171
69.35627 157
69.37638 198
69.39649 162
69.41661 163
69.43672 158
69.45683 171
69.47695 174
69.49706 153
69.51718 156
69.53729 170
69.5574 153
69.57752 168
69.59763 155
69.61774 150
69.63786 163
69.65797 161
69.67809 153
69.6982 157
69.71831 154
69.73843 159
69.75854 169
69.77865 177
69.79877 163
69.81888 159
69.839 161
69.85911 161
69.87922 151
69.89934 194
69.91945 164
69.93956 158
69.95968 151
69.97979 133
69.9999 163
70.02002 166
70.04013 148
70.06025 188
70.08036 152
70.10047 162
70.12059 164
70.1407 141
70.16081 172
70.18093 186
70.20104 176
70.22116 177
70.24127 156
70.26138 192
70.2815 160
70.30161 171
70.32172 167
70.34184 162
70.36195 187
70.38207 146
70.40218 152
70.42229 149
70.44241 156
70.46252 135
70.48263 161
70.50275 142
70.52286 148
70.54297 156
70.56309 156
70.5832 153
70.60332 147
70.62343 179
70.64354 158
70.66366 169
70.68377 159
70.70388 162
70.724 160
70.74411 160
70.76423 162
70.78434 160
70.80445 147
70.82457 178
70.84468 175
70.86479 158
70.88491 146
70.90502 143
70.92513 163
70.94525 152
70.96536 140
70.98548 174
71.00559 142
71.0257 167
71.04582 164
71.06593 148
71.08604 151
71.10616 155
71.12627 152
71.14639 150
71.1665 151
71.18661 146
71.20673 145
71.22684 158
71.24695 156
71.26707 153
71.28718 156
71.3073 143
71.32741 150
71.34752 136
71.36764 119
71.38775 157
71.40786 160
71.42798 162
71.44809 162
71.4682 178
71.48832 175
71.50843 163
71.52855 155
71.54866 180
71.56877 186
71.58889 176
71.609 177
71.62911 180
71.64923 171
71.66934 174
71.68946 190
71.70957 168
71.72968 178
71.7498 146
71.76991 179
71.79002 173
71.81014 171
71.83025 161
71.85037 191
71.87048 193
71.89059 178
71.91071 155
71.93082 168
71.95093 180
71.97105 173
71.99116 154
72.01127 177
72.03139 173
72.0515 169
72.07162 174
72.09173 158
72.11184 181
72.13196 146
72.15207 191
72.17218 166
72.1923 177
72.21241 185
72.23253 187
72.25264 161
72.27275 149
72.29287 188
72.31298 167
72.33309 173
72.35321 152
72.37332 177
72.39344 156
72.41355 167
72.43366 173
72.45378 157
72.47389 145
72.494 156
72.51412 162
72.53423 150
72.55434 171
72.57446 147
72.59457 181
72.61469 138
72.6348 165
72.65491 171
72.67503 169
72.69514 170
72.71525 160
72.73537 175
72.75548 177
72.7756 185
72.79571 162
72.81582 173
72.83594 179
72.85605 164
72.87616 176
72.89628 179
72.91639 185
72.9365 166
72.95662 172
72.97673 186
72.99685 191
73.01696 187
73.03707 165
73.05719 192
73.0773 175
73.09741 181
73.11753 178
73.13764 188
73.15776 201
73.17787 202
73.19798 204
73.2181 226
73.23821 226
73.25832 230
73.27844 255
73.29855 300
73.31867 289
73.33878 323
73.35889 339
73.37901 372
73.39912 363
73.41923 389
73.43935 375
73.45946 344
73.47957 326
73.49969 299
73.5198 291
73.53992 291
73.56003 249
73.58014 258
73.60026 276
73.62037 310
73.64048 281
73.6606 289
73.68071 227
73.70083 219
73.72094 218
73.74105 167
73.76117 200
73.78128 203
73.80139 192
73.82151 176
73.84162 151
73.86174 178
73.88185 178
73.90196 158
73.92208 183
73.94219 181
73.9623 176
73.98242 155
74.00253 165
74.02264 167
74.04276 171
74.06287 170
74.08299 172
74.1031 168
74.12321 167
74.14333 176
74.16344 163
74.18355 158
74.20367 139
74.22378 167
74.2439 151
74.26401 186
74.28412 161
74.30424 144
74.32435 172
74.34446 154
74.36458 161
74.38469 191
74.40481 193
74.42492 166
74.44503 158
74.46515 160
74.48526 165
74.50537 176
74.52549 166
74.5456 157
74.56571 167
74.58583 136
74.60594 165
74.62606 166
74.64617 147
74.66628 178
74.6864 174
74.70651 184
74.72662 181
74.74674 187
74.76685 162
74.78697 180
74.80708 171
74.82719 151
74.84731 173
74.86742 174
74.88753 162
74.90765 173
74.92776 169
74.94787 163
74.96799 169
74.9881 149
75.00822 151
