3.00117 21000
3.02128 19751
3.0414 19587
3.06151 19153
3.08162 18549
3.10174 18040
3.12185 17403
3.14197 17196
3.16208 16226
3.18219 16087
3.20231 15538
3.22242 15195
3.24253 14775
3.26265 14006
3.28276 13879
3.30288 13403
3.32299 12856
3.3431 12739
3.36322 12267
3.38333 12262
3.40344 11495
3.42356 11037
3.44367 11076
3.46379 10233
3.4839 9875
3.50401 9712
3.52413 9374
3.54424 9344
3.56435 8632
3.58447 8665
3.60458 7826
3.62469 7825
3.64481 7745
3.66492 7089
3.68504 7053
3.70515 6627
3.72526 6388
3.74538 6361
3.76549 6054
3.7856 5728
3.80572 5637
3.82583 5232
3.84595 5333
3.86606 4912
3.88617 4636
3.90629 4434
3.9264 4253
3.94651 4263
3.96663 3998
3.98674 3973
4.00686 3648
4.02697 3459
4.04708 3566
4.0672 3339
4.08731 3201
4.10742 3107
4.12754 2867
4.14765 2849
4.16776 2759
4.18788 2598
4.20799 2429
4.22811 2380
4.24822 2503
4.26833 2281
4.28845 2331
4.30856 2226
4.32867 2110
4.34879 2124
4.3689 2128
4.38902 1988
4.40913 1884
4.42924 1840
4.44936 1902
4.46947 1787
4.48958 1746
4.5097 1720
4.52981 1630
4.54992 1761
4.57004 1692
4.59015 1583
4.61027 1622
4.63038 1539
4.65049 1525
4.67061 1473
4.69072 1473
4.71083 1405
4.73095 1388
4.75106 1359
4.77118 1470
4.79129 1258
4.8114 1327
4.83152 1310
4.85163 1224
4.87174 1333
4.89186 1192
4.91197 1216
4.93209 1227
4.9522 1225
4.97231 1178
4.99243 1168
5.01254 1129
5.03265 1107
5.05277 1126
5.07288 1070
5.09299 1126
5.11311 1093
5.13322 1022
5.15334 1010
5.17345 1099
5.19356 999
5.21368 974
5.23379 933
5.2539 1032
5.27402 1013
5.29413 896
5.31425 951
5.33436 880
5.35447 915
5.37459 1012
5.3947 879
5.41481 906
5.43493 844
5.45504 866
5.47516 870
5.49527 852
5.51538 898
5.5355 880
5.55561 857
5.57572 833
5.59584 769
5.61595 828
5.63606 829
5.65618 881
5.67629 916
5.69641 834
5.71652 813
5.73663 768
5.75675 774
5.77686 831
5.79697 754
5.81709 833
5.8372 825
5.85732 889
5.87743 820
5.89754 875
5.91766 815
5.93777 821
5.95788 763
5.978 819
5.99811 848
6.01823 825
6.03834 865
6.05845 856
6.07857 832
6.09868 817
6.11879 918
6.13891 827
6.15902 766
6.17913 849
6.19925 828
6.21936 755
6.23948 773
6.25959 749
6.2797 739
6.29982 704
6.31993 743
6.34004 656
6.36016 634
6.38027 712
6.40039 640
6.4205 622
6.44061 621
6.46073 646
6.48084 593
6.50095 590
6.52107 640
6.54118 557
6.56129 573
6.58141 600
6.60152 642
6.62164 578
6.64175 572
6.66186 561
6.68198 591
6.70209 587
6.7222 546
6.74232 541
6.76243 574
6.78255 553
6.80266 571
6.82277 552
6.84289 575
6.863 518
6.88311 523
6.90323 544
6.92334 593
6.94346 563
6.96357 549
6.98368 519
7.0038 558
7.02391 529
7.04402 519
7.06414 536
7.08425 458
7.10436 556
7.12448 564
7.14459 495
7.16471 540
7.18482 530
7.20493 519
7.22505 483
7.24516 549
7.26527 540
7.28539 479
7.3055 502
7.32562 492
7.34573 499
7.36584 502
7.38596 512
7.40607 461
7.42618 503
7.4463 447
7.46641 463
7.48653 484
7.50664 462
7.52675 505
7.54687 504
7.56698 447
7.58709 492
7.60721 504
7.62732 481
7.64743 470
7.66755 473
7.68766 466
7.70778 489
7.72789 469
7.748 498
7.76812 468
7.78823 462
7.80834 452
7.82846 485
7.84857 441
7.86869 496
7.8888 471
7.90891 461
7.92903 435
7.94914 476
7.96925 454
7.98937 424
8.00948 439
8.0296 459
8.04971 432
8.06982 458
8.08994 469
8.11005 501
8.13016 464
8.15028 432
8.17039 466
8.1905 474
8.21062 480
8.23073 492
8.25085 476
8.27096 451
8.29107 498
8.31119 451
8.3313 465
8.35141 432
8.37153 460
8.39164 430
8.41176 431
8.43187 423
8.45198 450
8.4721 471
8.49221 439
8.51232 442
8.53244 470
8.55255 469
8.57266 448
8.59278 445
8.61289 503
8.63301 458
8.65312 459
8.67323 459
8.69335 458
8.71346 475
8.73357 465
8.75369 489
8.7738 451
8.79392 478
8.81403 461
8.83414 466
8.85426 473
8.87437 469
8.89448 483
8.9146 438
8.93471 497
8.95483 435
8.97494 462
8.99505 464
9.01517 473
9.03528 429
9.05539 464
9.07551 467
9.09562 407
9.11573 449
9.13585 422
9.15596 417
9.17608 425
9.19619 489
9.2163 412
9.23642 464
9.25653 413
9.27664 469
9.29676 436
9.31687 422
9.33699 403
9.3571 429
9.37721 431
9.39733 423
9.41744 404
9.43755 458
9.45767 462
9.47778 461
9.4979 432
9.51801 421
9.53812 443
9.55824 380
9.57835 416
9.59846 449
9.61858 442
9.63869 411
9.6588 439
9.67892 413
9.69903 414
9.71915 444
9.73926 429
9.75937 398
9.77949 452
9.7996 432
9.81971 393
9.83983 437
9.85994 420
9.88006 461
9.90017 434
9.92028 396
9.9404 421
9.96051 424
9.98062 431
10.00074 403
10.02085 417
10.04097 450
10.06108 396
10.08119 434
10.10131 445
10.12142 458
10.14153 437
10.16165 462
10.18176 402
10.20187 434
10.22199 454
10.2421 381
10.26222 443
10.28233 427
10.30244 452
10.32256 433
10.34267 465
10.36278 426
10.3829 434
10.40301 461
10.42313 435
10.44324 444
10.46335 405
10.48347 413
10.50358 490
10.52369 418
10.54381 428
10.56392 422
10.58403 442
10.60415 403
10.62426 401
10.64438 439
10.66449 420
10.6846 378
10.70472 412
10.72483 417
10.74494 436
10.76506 486
10.78517 417
10.80529 440
10.8254 422
10.84551 461
10.86563 414
10.88574 465
10.90585 482
10.92597 474
10.94608 402
10.9662 452
10.98631 482
11.00642 435
11.02654 472
11.04665 422
11.06676 499
11.08688 448
11.10699 432
11.1271 448
11.14722 430
11.16733 459
11.18745 482
11.20756 437
11.22767 439
11.24779 434
11.2679 442
11.28801 485
11.30813 415
11.32824 468
11.34836 488
11.36847 415
11.38858 457
11.4087 434
11.42881 505
11.44892 456
11.46904 452
11.48915 400
11.50927 459
11.52938 476
11.54949 451
11.56961 456
11.58972 451
11.60983 509
11.62995 458
11.65006 474
11.67017 469
11.69029 457
11.7104 472
11.73052 480
11.75063 519
11.77074 449
11.79086 469
11.81097 490
11.83108 522
11.8512 515
11.87131 505
11.89143 518
11.91154 509
11.93165 558
11.95177 501
11.97188 520
11.99199 508
12.01211 535
12.03222 537
12.05234 515
12.07245 529
12.09256 528
12.11268 533
12.13279 548
12.1529 543
12.17302 572
12.19313 555
12.21324 587
12.23336 590
12.25347 530
12.27359 571
12.2937 563
12.31381 546
12.33393 546
12.35404 477
12.37415 505
12.39427 530
12.41438 498
12.4345 524
12.45461 506
12.47472 453
12.49484 500
12.51495 486
12.53506 453
12.55518 475
12.57529 448
12.5954 461
12.61552 454
12.63563 452
12.65575 443
12.67586 449
12.69597 432
12.71609 422
12.7362 436
12.75631 400
12.77643 446
12.79654 416
12.81666 449
12.83677 422
12.85688 430
12.877 425
12.89711 408
12.91722 398
12.93734 419
12.95745 394
12.97757 389
12.99768 385
13.01779 361
13.03791 391
13.05802 386
13.07813 371
13.09825 373
13.11836 396
13.13847 393
13.15859 385
13.1787 360
13.19882 416
13.21893 375
13.23904 347
13.25916 394
13.27927 369
13.29938 394
13.3195 382
13.33961 357
13.35973 398
13.37984 355
13.39995 388
13.42007 404
13.44018 385
13.46029 370
13.48041 377
13.50052 401
13.52064 389
13.54075 355
13.56086 388
13.58098 373
13.60109 365
13.6212 395
13.64132 370
13.66143 365
13.68154 408
13.70166 377
13.72177 364
13.74189 413
13.762 377
13.78211 441
13.80223 471
13.82234 460
13.84245 417
13.86257 412
13.88268 463
13.9028 434
13.92291 391
13.94302 419
13.96314 393
13.98325 377
14.00336 419
14.02348 360
14.04359 408
14.06371 374
14.08382 394
14.10393 343
14.12405 357
14.14416 379
14.16427 402
14.18439 361
14.2045 353
14.22461 359
14.24473 374
14.26484 378
14.28496 373
14.30507 335
14.32518 360
14.3453 361
14.36541 329
14.38552 340
14.40564 340
14.42575 390
14.44587 340
14.46598 347
14.48609 347
14.50621 354
14.52632 334
14.54643 362
14.56655 352
14.58666 349
14.60677 313
14.62689 396
14.647 362
14.66712 337
14.68723 394
14.70734 331
14.72746 357
14.74757 348
14.76768 362
14.7878 342
14.80791 334
14.82803 353
14.84814 368
14.86825 386
14.88837 403
14.90848 390
14.92859 359
14.94871 368
14.96882 386
14.98894 358
15.00905 398
15.02916 368
15.04928 369
15.06939 334
15.0895 342
15.10962 338
15.12973 365
15.14984 310
15.16996 359
15.19007 381
15.21019 303
15.2303 368
15.25041 346
15.27053 365
15.29064 321
15.31075 323
15.33087 354
15.35098 350
15.3711 343
15.39121 343
15.41132 379
15.43144 385
15.45155 379
15.47166 337
15.49178 356
15.51189 339
15.53201 349
15.55212 337
15.57223 348
15.59235 345
15.61246 328
15.63257 360
15.65269 342
15.6728 347
15.69291 366
15.71303 356
15.73314 398
15.75326 363
15.77337 348
15.79348 377
15.8136 360
15.83371 378
15.85382 363
15.87394 348
15.89405 329
15.91417 336
15.93428 377
15.95439 332
15.97451 369
15.99462 349
16.01473 360
16.03485 383
16.05496 377
16.07508 367
16.09519 357
16.1153 346
16.13542 371
16.15553 369
16.17564 358
16.19576 337
16.21587 385
16.23598 350
16.2561 379
16.27621 337
16.29633 356
16.31644 389
16.33655 337
16.35667 358
16.37678 311
16.39689 339
16.41701 354
16.43712 335
16.45724 347
16.47735 296
16.49746 349
16.51758 334
16.53769 332
16.5578 351
16.57792 329
16.59803 322
16.61814 352
16.63826 307
16.65837 340
16.67849 375
16.6986 333
16.71871 355
16.73883 401
16.75894 340
16.77905 354
16.79917 332
16.81928 336
16.8394 336
16.85951 336
16.87962 355
16.89974 361
16.91985 368
16.93996 341
16.96008 360
16.98019 318
17.00031 358
17.02042 324
17.04053 353
17.06065 351
17.08076 333
17.10087 350
17.12099 385
17.1411 402
17.16121 346
17.18133 357
17.20144 348
17.22156 346
17.24167 339
17.26178 370
17.2819 354
17.30201 341
17.32212 340
17.34224 367
17.36235 322
17.38247 366
17.40258 358
17.42269 334
17.44281 377
17.46292 364
17.48303 372
17.50315 359
17.52326 323
17.54338 370
17.56349 361
17.5836 362
17.60372 352
17.62383 398
17.64394 365
17.66406 410
17.68417 402
17.70428 379
17.7244 409
17.74451 423
17.76463 438
17.78474 359
17.80485 448
17.82497 359
17.84508 387
17.86519 387
17.88531 380
17.90542 419
17.92554 373
17.94565 343
17.96576 380
17.98588 410
18.00599 308
18.0261 370
18.04622 368
18.06633 347
18.08645 361
18.10656 374
18.12667 354
18.14679 371
18.1669 385
18.18701 337
18.20713 381
18.22724 329
18.24735 379
18.26747 358
18.28758 368
18.3077 378
18.32781 320
18.34792 369
18.36804 338
18.38815 375
18.40826 358
18.42838 369
18.44849 388
18.46861 412
18.48872 360
18.50883 380
18.52895 355
18.54906 367
18.56917 385
18.58929 330
18.6094 386
18.62951 394
18.64963 374
18.66974 360
18.68986 391
18.70997 374
18.73008 357
18.7502 369
18.77031 387
18.79042 393
18.81054 374
18.83065 410
18.85077 382
18.87088 427
18.89099 369
18.91111 369
18.93122 367
18.95133 373
18.97145 382
18.99156 392
19.01168 332
19.03179 376
19.0519 373
19.07202 350
19.09213 390
19.11224 378
19.13236 396
19.15247 410
19.17258 437
19.1927 406
19.21281 411
19.23293 411
19.25304 459
19.27315 427
19.29327 448
19.31338 469
19.33349 473
19.35361 481
19.37372 453
19.39384 440
19.41395 508
19.43406 457
19.45418 491
19.47429 511
19.4944 508
19.51452 545
19.53463 531
19.55475 555
19.57486 555
19.59497 624
19.61509 656
19.6352 628
19.65531 717
19.67543 721
19.69554 717
19.71565 771
19.73577 780
19.75588 906
19.776 788
19.79611 855
19.81622 904
19.83634 883
19.85645 894
19.87656 904
19.89668 866
19.91679 847
19.93691 881
19.95702 781
19.97713 794
19.99725 802
20.01736 791
20.03747 817
20.05759 757
20.0777 801
20.09782 780
20.11793 715
20.13804 808
20.15816 742
20.17827 757
20.19838 738
20.2185 735
20.23861 772
20.25872 778
20.27884 752
20.29895 752
20.31907 742
20.33918 753
20.35929 770
20.37941 743
20.39952 761
20.41963 783
20.43975 708
20.45986 772
20.47998 698
20.50009 671
20.5202 784
20.54032 767
20.56043 735
20.58054 784
20.60066 775
20.62077 855
20.64088 795
20.661 872
20.68111 1025
20.70123 1133
20.72134 1326
20.74145 1673
20.76157 2057
20.78168 2444
20.80179 2778
20.82191 3033
20.84202 2932
20.86214 2729
20.88225 2258
20.90236 1818
20.92248 1386
20.94259 1177
20.9627 972
20.98282 843
21.00293 799
21.02305 820
21.04316 733
21.06327 740
21.08339 724
21.1035 711
21.12361 708
21.14373 691
21.16384 736
21.18395 721
21.20407 755
21.22418 695
21.2443 740
21.26441 762
21.28452 681
21.30464 736
21.32475 687
21.34486 692
21.36498 732
21.38509 691
21.40521 664
21.42532 661
21.44543 672
21.46555 657
21.48566 643
21.50577 623
21.52589 699
21.546 651
21.56612 633
21.58623 615
21.60634 627
21.62646 627
21.64657 598
21.66668 615
21.6868 610
21.70691 623
21.72702 581
21.74714 549
21.76725 583
21.78737 612
21.80748 586
21.82759 593
21.84771 615
21.86782 634
21.88793 718
21.90805 709
21.92816 790
21.94828 870
21.96839 876
21.9885 919
22.00862 977
22.02873 887
22.04884 829
22.06896 824
22.08907 716
22.10919 708
22.1293 656
22.14941 596
22.16953 637
22.18964 558
22.20975 581
22.22987 565
22.24998 543
22.27009 546
22.29021 548
22.31032 531
22.33044 549
22.35055 539
22.37066 534
22.39078 548
22.41089 529
22.431 481
22.45112 497
22.47123 555
22.49135 533
22.51146 511
22.53157 501
22.55169 503
22.5718 520
22.59191 519
22.61203 476
22.63214 487
22.65225 510
22.67237 535
22.69248 472
22.7126 505
22.73271 503
22.75282 470
22.77294 501
22.79305 480
22.81316 504
22.83328 532
22.85339 517
22.87351 512
22.89362 526
22.91373 555
22.93385 559
22.95396 531
22.97407 576
22.99419 545
23.0143 552
23.03442 548
23.05453 556
23.07464 545
23.09476 581
23.11487 504
23.13498 543
23.1551 532
23.17521 521
23.19532 530
23.21544 492
23.23555 530
23.25567 513
23.27578 555
23.29589 503
23.31601 504
23.33612 532
23.35623 555
23.37635 553
23.39646 554
23.41658 573
23.43669 608
23.4568 675
23.47692 688
23.49703 679
23.51714 745
23.53726 716
23.55737 717
23.57749 659
23.5976 612
23.61771 585
23.63783 559
23.65794 547
23.67805 555
23.69817 541
23.71828 516
23.73839 561
23.75851 566
23.77862 523
23.79874 525
23.81885 506
23.83896 507
23.85908 512
23.87919 526
23.8993 520
23.91942 557
23.93953 517
23.95965 529
23.97976 581
23.99987 621
24.01999 616
24.0401 651
24.06021 628
24.08033 709
24.10044 699
24.12056 716
24.14067 766
24.16078 818
24.1809 826
24.20101 764
24.22112 805
24.24124 784
24.26135 760
24.28146 697
24.30158 723
24.32169 642
24.34181 613
24.36192 605
24.38203 643
24.40215 575
24.42226 600
24.44237 537
24.46249 561
24.4826 592
24.50272 598
24.52283 558
24.54294 612
24.56306 557
24.58317 565
24.60328 580
24.6234 624
24.64351 587
24.66362 604
24.68374 574
24.70385 589
24.72397 610
24.74408 607
24.76419 595
24.78431 656
24.80442 616
24.82453 658
24.84465 633
24.86476 634
24.88488 668
24.90499 578
24.9251 639
24.94522 595
24.96533 670
24.98544 633
25.00556 688
25.02567 651
25.04579 640
25.0659 639
25.08601 648
25.10613 636
25.12624 616
25.14635 685
25.16647 628
25.18658 698
25.20669 612
25.22681 601
25.24692 634
25.26704 657
25.28715 650
25.30726 621
25.32738 656
25.34749 662
25.3676 690
25.38772 668
25.40783 627
25.42795 597
25.44806 668
25.46817 631
25.48829 602
25.5084 651
25.52851 678
25.54863 599
25.56874 604
25.58886 650
25.60897 625
25.62908 633
25.6492 621
25.66931 709
25.68942 603
25.70954 573
25.72965 540
25.74976 622
25.76988 558
25.78999 609
25.81011 576
25.83022 648
25.85033 617
25.87045 573
25.89056 576
25.91067 607
25.93079 575
25.9509 604
25.97102 580
25.99113 577
26.01124 662
26.03136 591
26.05147 643
26.07158 615
26.0917 643
26.11181 675
26.13193 666
26.15204 696
26.17215 667
26.19227 770
26.21238 731
26.23249 780
26.25261 812
26.27272 848
26.29283 862
26.31295 972
26.33306 1066
26.35318 1049
26.37329 1178
26.3934 1422
26.41352 1628
26.43363 1952
26.45374 2452
26.47386 3145
26.49397 4166
26.51409 5705
26.5342 7243
26.55431 9085
26.57443 10530
26.59454 11581
26.61465 11558
26.63477 10484
26.65488 8554
26.67499 6611
26.69511 5019
26.71522 3477
26.73534 2419
26.75545 1657
26.77556 1231
26.79568 1060
26.81579 974
26.8359 965
26.85602 880
26.87613 833
26.89625 799
26.91636 776
26.93647 686
26.95659 753
26.9767 736
26.99681 694
27.01693 693
27.03704 636
27.05716 696
27.07727 660
27.09738 664
27.1175 576
27.13761 579
27.15772 543
27.17784 549
27.19795 592
27.21806 549
27.23818 558
27.25829 518
27.27841 589
27.29852 591
27.31863 568
27.33875 570
27.35886 564
27.37897 657
27.39909 620
27.4192 621
27.43932 626
27.45943 622
27.47954 630
27.49966 635
27.51977 654
27.53988 674
27.56 638
27.58011 659
27.60023 682
27.62034 736
27.64045 783
27.66057 848
27.68068 880
27.70079 921
27.72091 895
27.74102 877
27.76113 866
27.78125 953
27.80136 950
27.82148 993
27.84159 1127
27.8617 1156
27.88182 1248
27.90193 1192
27.92204 1195
27.94216 1129
27.96227 1090
27.98239 918
28.0025 848
28.02261 788
28.04273 706
28.06284 764
28.08295 695
28.10307 694
28.12318 653
28.1433 684
28.16341 727
28.18352 681
28.20364 701
28.22375 647
28.24386 628
28.26398 588
28.28409 539
28.3042 524
28.32432 533
28.34443 493
28.36455 461
28.38466 448
28.40477 452
28.42489 468
28.445 447
28.46511 441
28.48523 441
28.50534 464
28.52546 472
28.54557 459
28.56568 458
28.5858 450
28.60591 485
28.62602 459
28.64614 429
28.66625 460
28.68636 423
28.70648 496
28.72659 468
28.74671 439
28.76682 501
28.78693 407
28.80705 443
28.82716 440
28.84727 439
28.86739 426
28.8875 445
28.90762 437
28.92773 439
28.94784 446
28.96796 459
28.98807 448
29.00818 471
29.0283 440
29.04841 444
29.06853 449
29.08864 439
29.10875 468
29.12887 426
29.14898 482
29.16909 435
29.18921 437
29.20932 447
29.22943 423
29.24955 432
29.26966 423
29.28978 431
29.30989 410
29.33 394
29.35012 436
29.37023 435
29.39034 441
29.41046 428
29.43057 416
29.45069 473
29.4708 436
29.49091 423
29.51103 449
29.53114 449
29.55125 431
29.57137 425
29.59148 434
29.6116 459
29.63171 409
29.65182 450
29.67194 455
29.69205 475
29.71216 416
29.73228 440
29.75239 456
29.7725 476
29.79262 439
29.81273 458
29.83285 464
29.85296 470
29.87307 495
29.89319 475
29.9133 490
29.93341 501
29.95353 531
29.97364 499
29.99376 521
30.01387 495
30.03398 548
30.0541 515
30.07421 520
30.09432 509
30.11444 506
30.13455 484
30.15467 531
30.17478 547
30.19489 501
30.21501 542
30.23512 515
30.25523 508
30.27535 530
30.29546 467
30.31557 500
30.33569 508
30.3558 530
30.37592 547
30.39603 559
30.41614 556
30.43626 581
30.45637 577
30.47648 574
30.4966 544
30.51671 500
30.53683 530
30.55694 516
30.57705 461
30.59717 478
30.61728 450
30.63739 431
30.65751 472
30.67762 484
30.69773 451
30.71785 481
30.73796 453
30.75808 471
30.77819 455
30.7983 479
30.81842 463
30.83853 439
30.85864 436
30.87876 474
30.89887 439
30.91899 440
30.9391 444
30.95921 409
30.97933 491
30.99944 408
31.01955 415
31.03967 426
31.05978 438
31.0799 417
31.10001 426
31.12012 418
31.14024 417
31.16035 410
31.18046 455
31.20058 507
31.22069 422
31.2408 464
31.26092 479
31.28103 495
31.30115 465
31.32126 446
31.34137 433
31.36149 382
31.3816 432
31.40171 428
31.42183 406
31.44194 425
31.46206 422
31.48217 417
31.50228 430
31.5224 384
31.54251 431
31.56262 397
31.58274 399
31.60285 375
31.62297 426
31.64308 384
31.66319 397
31.68331 405
31.70342 408
31.72353 432
31.74365 419
31.76376 403
31.78387 433
31.80399 390
31.8241 402
31.84422 380
31.86433 378
31.88444 366
31.90456 400
31.92467 420
31.94478 402
31.9649 441
31.98501 420
32.00513 391
32.02524 405
32.04535 386
32.06547 372
32.08558 354
32.10569 407
32.12581 418
32.14592 406
32.16604 378
32.18615 388
32.20626 378
32.22638 408
32.24649 414
32.2666 411
32.28672 400
32.30683 389
32.32694 408
32.34706 378
32.36717 380
32.38729 414
32.4074 410
32.42751 413
32.44763 408
32.46774 379
32.48785 397
32.50797 413
32.52808 433
32.5482 371
32.56831 426
32.58842 353
32.60854 371
32.62865 380
32.64876 426
32.66888 378
32.68899 412
32.7091 428
32.72922 417
32.74933 397
32.76945 399
32.78956 397
32.80967 391
32.82979 433
32.8499 427
32.87001 378
32.89013 411
32.91024 406
32.93036 371
32.95047 387
32.97058 440
32.9907 376
33.01081 415
33.03092 403
33.05104 405
33.07115 428
33.09127 411
33.11138 406
33.13149 427
33.15161 445
33.17172 439
33.19183 446
33.21195 429
33.23206 408
33.25217 428
33.27229 440
33.2924 438
33.31252 436
33.33263 426
33.35274 425
33.37286 426
33.39297 433
33.41308 421
33.4332 426
33.45331 402
33.47343 469
33.49354 411
33.51365 416
33.53377 418
33.55388 419
33.57399 425
33.59411 413
33.61422 428
33.63434 439
33.65445 421
33.67456 437
33.69468 422
33.71479 418
33.7349 415
33.75502 412
33.77513 441
33.79524 449
33.81536 445
33.83547 415
33.85559 432
33.8757 454
33.89581 451
33.91593 443
33.93604 457
33.95615 501
33.97627 443
33.99638 432
34.0165 462
34.03661 466
34.05672 416
34.07684 414
34.09695 426
34.11706 413
34.13718 435
34.15729 437
34.17741 401
34.19752 410
34.21763 427
34.23775 453
34.25786 441
34.27797 450
34.29809 431
34.3182 453
34.33831 478
34.35843 464
34.37854 487
34.39866 487
34.41877 520
34.43888 519
34.459 519
34.47911 539
34.49922 522
34.51934 502
34.53945 533
34.55957 514
34.57968 535
34.59979 527
34.61991 562
34.64002 573
34.66013 613
34.68025 639
34.70036 578
34.72047 593
34.74059 656
34.7607 657
34.78082 652
34.80093 657
34.82104 695
34.84116 697
34.86127 709
34.88138 770
34.9015 721
34.92161 761
34.94173 715
34.96184 729
34.98195 756
35.00207 744
35.02218 697
35.04229 693
35.06241 722
35.08252 659
35.10264 639
35.12275 629
35.14286 685
35.16298 634
35.18309 609
35.2032 624
35.22332 609
35.24343 611
35.26354 589
35.28366 627
35.30377 619
35.32389 602
35.344 584
35.36411 588
35.38423 561
35.40434 564
35.42445 566
35.44457 493
35.46468 594
35.4848 557
35.50491 548
35.52502 566
35.54514 570
35.56525 540
35.58536 582
35.60548 632
35.62559 596
35.64571 538
35.66582 583
35.68593 663
35.70605 566
35.72616 576
35.74627 584
35.76639 571
35.7865 590
35.80661 582
35.82673 573
35.84684 570
35.86696 612
35.88707 540
35.90718 558
35.9273 541
35.94741 543
35.96752 532
35.98764 607
36.00775 589
36.02787 568
36.04798 486
36.06809 551
36.08821 602
36.10832 574
36.12843 536
36.14855 556
36.16866 519
36.18878 566
36.20889 594
36.229 537
36.24912 556
36.26923 621
36.28934 565
36.30946 657
36.32957 660
36.34968 674
36.3698 783
36.38991 775
36.41003 928
36.43014 1007
36.45025 1119
36.47037 1177
36.49048 1264
36.51059 1248
36.53071 1221
36.55082 1082
36.57094 1031
36.59105 957
36.61116 894
36.63128 803
36.65139 697
36.6715 684
36.69162 653
36.71173 605
36.73184 639
36.75196 591
36.77207 596
36.79219 581
36.8123 579
36.83241 583
36.85253 542
36.87264 591
36.89275 621
36.91287 581
36.93298 576
36.9531 594
36.97321 580
36.99332 570
37.01344 599
37.03355 581
37.05366 569
37.07378 558
37.09389 553
37.11401 574
37.13412 536
37.15423 526
37.17435 538
37.19446 522
37.21457 534
37.23469 510
37.2548 561
37.27491 554
37.29503 501
37.31514 540
37.33526 555
37.35537 551
37.37548 540
37.3956 584
37.41571 545
37.43582 528
37.45594 521
37.47605 536
37.49617 519
37.51628 501
37.53639 537
37.55651 549
37.57662 563
37.59673 530
37.61685 568
37.63696 535
37.65708 601
37.67719 552
37.6973 557
37.71742 603
37.73753 544
37.75764 518
37.77776 494
37.79787 541
37.81798 493
37.8381 540
37.85821 488
37.87833 535
37.89844 502
37.91855 501
37.93867 531
37.95878 550
37.97889 478
37.99901 490
38.01912 516
38.03924 509
38.05935 491
38.07946 476
38.09958 507
38.11969 491
38.1398 519
38.15992 519
38.18003 528
38.20015 551
38.22026 512
38.24037 496
38.26049 500
38.2806 544
38.30071 548
38.32083 530
38.34094 515
38.36105 547
38.38117 502
38.40128 514
38.4214 511
38.44151 549
38.46162 510
38.48174 525
38.50185 510
38.52196 544
38.54208 531
38.56219 479
38.58231 468
38.60242 528
38.62253 551
38.64265 504
38.66276 526
38.68287 487
38.70299 511
38.7231 512
38.74321 468
38.76333 508
38.78344 477
38.80356 502
38.82367 501
38.84378 470
38.8639 488
38.88401 514
38.90412 506
38.92424 494
38.94435 520
38.96447 522
38.98458 459
39.00469 461
39.02481 488
39.04492 495
39.06503 496
39.08515 508
39.10526 484
39.12538 453
39.14549 506
39.1656 509
39.18572 542
39.20583 521
39.22594 539
39.24606 568
39.26617 610
39.28628 627
39.3064 661
39.32651 765
39.34663 835
39.36674 942
39.38685 998
39.40697 1132
39.42708 1093
39.44719 1080
39.46731 980
39.48742 923
39.50754 844
39.52765 733
39.54776 717
39.56788 634
39.58799 582
39.6081 505
39.62822 491
39.64833 490
39.66845 452
39.68856 454
39.70867 452
39.72879 464
39.7489 461
39.76901 423
39.78913 451
39.80924 447
39.82935 448
39.84947 441
39.86958 459
39.8897 479
39.90981 433
39.92992 456
39.95004 420
39.97015 475
39.99026 423
40.01038 444
40.03049 502
40.05061 490
40.07072 484
40.09083 517
40.11095 526
40.13106 531
40.15117 589
40.17129 652
40.1914 698
40.21152 702
40.23163 719
40.25174 745
40.27186 732
40.29197 662
40.31208 645
40.3322 608
40.35231 568
40.37242 553
40.39254 586
40.41265 483
40.43277 484
40.45288 446
40.47299 425
40.49311 450
40.51322 454
40.53333 432
40.55345 427
40.57356 450
40.59368 440
40.61379 416
40.6339 440
40.65402 439
40.67413 457
40.69424 455
40.71436 417
40.73447 432
40.75458 383
40.7747 434
40.79481 459
40.81493 446
40.83504 426
40.85515 455
40.87527 422
40.89538 409
40.91549 424
40.93561 406
40.95572 442
40.97584 451
40.99595 474
41.01606 423
41.03618 443
41.05629 439
41.0764 448
41.09652 431
41.11663 451
41.13675 434
41.15686 454
41.17697 470
41.19709 433
41.2172 441
41.23731 475
41.25743 430
41.27754 414
41.29765 415
41.31777 432
41.33788 398
41.358 431
41.37811 418
41.39822 434
41.41834 435
41.43845 424
41.45856 400
41.47868 398
41.49879 387
41.51891 415
41.53902 418
41.55913 427
41.57925 420
41.59936 403
41.61947 420
41.63959 446
41.6597 422
41.67982 410
41.69993 418
41.72004 429
41.74016 422
41.76027 412
41.78038 413
41.8005 446
41.82061 398
41.84072 403
41.86084 406
41.88095 398
41.90107 393
41.92118 442
41.94129 369
41.96141 397
41.98152 423
42.00163 392
42.02175 395
42.04186 438
42.06198 424
42.08209 394
42.1022 431
42.12232 436
42.14243 421
42.16254 403
42.18266 424
42.20277 452
42.22289 469
42.243 520
42.26311 555
42.28323 639
42.30334 663
42.32345 725
42.34357 799
42.36368 851
42.38379 958
42.40391 899
42.42402 894
42.44414 809
42.46425 760
42.48436 708
42.50448 646
42.52459 633
42.5447 624
42.56482 541
42.58493 489
42.60505 477
42.62516 444
42.64527 453
42.66539 414
42.6855 443
42.70561 438
42.72573 426
42.74584 386
42.76595 387
42.78607 353
42.80618 390
42.8263 412
42.84641 419
42.86652 392
42.88664 336
42.90675 362
42.92686 402
42.94698 409
42.96709 373
42.98721 372
43.00732 400
43.02743 397
43.04755 365
43.06766 353
43.08777 367
43.10789 378
43.128 401
43.14812 373
43.16823 422
43.18834 395
43.20846 445
43.22857 376
43.24868 361
43.2688 372
43.28891 408
43.30902 414
43.32914 398
43.34925 384
43.36937 428
43.38948 386
43.40959 428
43.42971 373
43.44982 398
43.46993 413
43.49005 374
43.51016 345
43.53028 404
43.55039 386
43.5705 397
43.59062 401
43.61073 369
43.63084 400
43.65096 390
43.67107 376
43.69119 382
43.7113 376
43.73141 378
43.75153 347
43.77164 392
43.79175 407
43.81187 400
43.83198 385
43.85209 354
43.87221 345
43.89232 357
43.91244 387
43.93255 386
43.95266 359
43.97278 366
43.99289 378
44.013 353
44.03312 394
44.05323 367
44.07335 361
44.09346 343
44.11357 390
44.13369 332
44.1538 374
44.17391 391
44.19403 414
44.21414 388
44.23426 325
44.25437 369
44.27448 355
44.2946 372
44.31471 369
44.33482 411
44.35494 364
44.37505 346
44.39516 345
44.41528 364
44.43539 398
44.45551 403
44.47562 404
44.49573 364
44.51585 355
44.53596 366
44.55607 404
44.57619 373
44.5963 404
44.61642 357
44.63653 388
44.65664 349
44.67676 360
44.69687 380
44.71698 358
44.7371 402
44.75721 396
44.77732 393
44.79744 391
44.81755 368
44.83767 432
44.85778 368
44.87789 376
44.89801 375
44.91812 393
44.93823 376
44.95835 384
44.97846 390
44.99858 380
45.01869 397
45.0388 373
45.05892 431
45.07903 393
45.09914 385
45.11926 425
45.13937 407
45.15949 396
45.1796 406
45.19971 377
45.21983 396
45.23994 426
45.26005 367
45.28017 403
45.30028 412
45.32039 424
45.34051 369
45.36062 386
45.38074 401
45.40085 391
45.42096 374
45.44108 446
45.46119 426
45.4813 434
45.50142 434
45.52153 437
45.54165 454
45.56176 448
45.58187 515
45.60199 515
45.6221 504
45.64221 538
45.66233 571
45.68244 622
45.70256 681
45.72267 671
45.74278 722
45.7629 642
45.78301 648
45.80312 620
45.82324 599
45.84335 576
45.86346 541
45.88358 548
45.90369 521
45.92381 440
45.94392 440
45.96403 405
45.98415 401
46.00426 417
46.02437 426
46.04449 389
46.0646 380
46.08472 390
46.10483 365
46.12494 417
46.14506 396
46.16517 407
46.18528 354
46.2054 387
46.22551 375
46.24563 373
46.26574 381
46.28585 351
46.30597 415
46.32608 372
46.34619 386
46.36631 383
46.38642 392
46.40653 357
46.42665 390
46.44676 361
46.46688 392
46.48699 390
46.5071 373
46.52722 374
46.54733 401
46.56744 389
46.58756 380
46.60767 369
46.62779 373
46.6479 388
46.66801 372
46.68813 412
46.70824 400
46.72835 401
46.74847 379
46.76858 380
46.78869 386
46.80881 383
46.82892 363
46.84904 373
46.86915 380
46.88926 384
46.90938 367
46.92949 378
46.9496 388
46.96972 365
46.98983 347
47.00995 374
47.03006 399
47.05017 375
47.07029 380
47.0904 406
47.11051 375
47.13063 405
47.15074 393
47.17086 350
47.19097 392
47.21108 361
47.2312 384
47.25131 360
47.27142 390
47.29154 361
47.31165 363
47.33176 388
47.35188 384
47.37199 365
47.39211 385
47.41222 382
47.43233 355
47.45245 379
47.47256 395
47.49267 379
47.51279 351
47.5329 363
47.55302 393
47.57313 409
47.59324 403
47.61336 370
47.63347 422
47.65358 401
47.6737 421
47.69381 425
47.71393 398
47.73404 420
47.75415 386
47.77427 391
47.79438 420
47.81449 390
47.83461 395
47.85472 377
47.87483 381
47.89495 396
47.91506 362
47.93518 387
47.95529 410
47.9754 376
47.99552 417
48.01563 388
48.03574 421
48.05586 405
48.07597 406
48.09609 409
48.1162 365
48.13631 387
48.15643 399
48.17654 364
48.19665 441
48.21677 392
48.23688 334
48.257 377
48.27711 382
48.29722 336
48.31734 384
48.33745 363
48.35756 357
48.37768 348
48.39779 374
48.4179 374
48.43802 384
48.45813 373
48.47825 378
48.49836 342
48.51847 394
48.53859 369
48.5587 370
48.57881 366
48.59893 358
48.61904 348
48.63916 378
48.65927 367
48.67938 361
48.6995 365
48.71961 380
48.73972 376
48.75984 337
48.77995 390
48.80006 369
48.82018 379
48.84029 371
48.86041 343
48.88052 361
48.90063 368
48.92075 330
48.94086 345
48.96097 347
48.98109 401
49.0012 340
49.02132 391
49.04143 401
49.06154 419
49.08166 398
49.10177 396
49.12188 426
49.142 384
49.16211 382
49.18223 397
49.20234 404
49.22245 412
49.24257 434
49.26268 379
49.28279 421
49.30291 382
49.32302 368
49.34313 390
49.36325 390
49.38336 412
49.40348 361
49.42359 384
49.4437 358
49.46382 366
49.48393 363
49.50404 416
49.52416 375
49.54427 413
49.56439 431
49.5845 357
49.60461 401
49.62473 452
49.64484 439
49.66495 457
49.68507 446
49.70518 453
49.7253 456
49.74541 482
49.76552 487
49.78564 472
49.80575 474
49.82586 536
49.84598 500
49.86609 567
49.8862 579
49.90632 630
49.92643 664
49.94655 820
49.96666 852
49.98677 989
50.00689 1109
50.027 1212
50.04711 1396
50.06723 1532
50.08734 1483
50.10746 1456
50.12757 1279
50.14768 1242
50.1678 1063
50.18791 1013
50.20802 963
50.22814 940
50.24825 811
50.26837 723
50.28848 587
50.30859 530
50.32871 441
50.34882 426
50.36893 445
50.38905 413
50.40916 424
50.42927 432
50.44939 429
50.4695 416
50.48962 426
50.50973 460
50.52984 429
50.54996 436
50.57007 425
50.59018 457
50.6103 416
50.63041 415
50.65053 417
50.67064 403
50.69075 415
50.71087 393
50.73098 380
50.75109 406
50.77121 403
50.79132 365
50.81143 391
50.83155 395
50.85166 367
50.87178 387
50.89189 363
50.912 365
50.93212 390
50.95223 356
50.97234 383
50.99246 363
51.01257 369
51.03269 367
51.0528 397
51.07291 412
51.09303 411
51.11314 437
51.13325 415
51.15337 405
51.17348 390
51.1936 419
51.21371 393
51.23382 419
51.25394 399
51.27405 383
51.29416 389
51.31428 335
51.33439 372
51.3545 349
51.37462 352
51.39473 383
51.41485 390
51.43496 395
51.45507 391
51.47519 366
51.4953 372
51.51541 348
51.53553 350
51.55564 362
51.57576 351
51.59587 329
51.61598 337
51.6361 340
51.65621 357
51.67632 344
51.69644 339
51.71655 329
51.73667 338
51.75678 356
51.77689 323
51.79701 334
51.81712 363
51.83723 369
51.85735 357
51.87746 350
51.89757 325
51.91769 342
51.9378 363
51.95792 364
51.97803 340
51.99814 355
52.01826 376
52.03837 372
52.05848 388
52.0786 369
52.09871 370
52.11883 370
52.13894 367
52.15905 413
52.17917 380
52.19928 357
52.21939 373
52.23951 365
52.25962 360
52.27974 370
52.29985 361
52.31996 370
52.34008 342
52.36019 352
52.3803 373
52.40042 345
52.42053 371
52.44064 386
52.46076 357
52.48087 337
52.50099 359
52.5211 384
52.54121 362
52.56133 431
52.58144 355
52.60155 337
52.62167 330
52.64178 412
52.6619 375
52.68201 339
52.70212 374
52.72224 352
52.74235 420
52.76246 362
52.78258 377
52.80269 342
52.8228 358
52.84292 357
52.86303 391
52.88315 399
52.90326 360
52.92337 337
52.94349 366
52.9636 389
52.98371 374
53.00383 352
53.02394 384
53.04406 416
53.06417 405
53.08428 422
53.1044 436
53.12451 409
53.14462 413
53.16474 395
53.18485 386
53.20497 412
53.22508 408
53.24519 414
53.26531 429
53.28542 414
53.30553 421
53.32565 415
53.34576 428
53.36587 414
53.38599 428
53.4061 445
53.42622 445
53.44633 419
53.46644 431
53.48656 424
53.50667 451
53.52678 436
53.5469 442
53.56701 391
53.58713 449
53.60724 428
53.62735 429
53.64747 418
53.66758 424
53.68769 449
53.70781 412
53.72792 426
53.74804 390
53.76815 439
53.78826 443
53.80838 457
53.82849 446
53.8486 422
53.86872 432
53.88883 388
53.90894 412
53.92906 417
53.94917 427
53.96929 444
53.9894 466
54.00951 452
54.02963 433
54.04974 447
54.06985 416
54.08997 452
54.11008 443
54.1302 429
54.15031 433
54.17042 473
54.19054 427
54.21065 468
54.23076 449
54.25088 469
54.27099 418
54.29111 479
54.31122 438
54.33133 436
54.35145 439
54.37156 433
54.39167 459
54.41179 448
54.4319 439
54.45201 441
54.47213 424
54.49224 463
54.51236 490
54.53247 455
54.55258 458
54.5727 451
54.59281 451
54.61292 530
54.63304 523
54.65315 526
54.67327 574
54.69338 547
54.71349 570
54.73361 613
54.75372 657
54.77383 648
54.79395 777
54.81406 734
54.83417 679
54.85429 661
54.8744 695
54.89452 607
54.91463 563
54.93474 618
54.95486 589
54.97497 585
54.99508 570
55.0152 504
55.03531 521
55.05543 490
55.07554 465
55.09565 504
55.11577 487
55.13588 477
55.15599 514
55.17611 514
55.19622 550
55.21634 578
55.23645 582
55.25656 597
55.27668 538
55.29679 558
55.3169 539
55.33702 491
55.35713 489
55.37724 461
55.39736 502
55.41747 513
55.43759 485
55.4577 454
55.47781 456
55.49793 428
55.51804 413
55.53815 456
55.55827 425
55.57838 440
55.5985 393
55.61861 412
55.63872 422
55.65884 441
55.67895 403
55.69906 409
55.71918 395
55.73929 378
55.75941 392
55.77952 393
55.79963 417
55.81975 427
55.83986 408
55.85997 424
55.88009 394
55.9002 389
55.92031 417
55.94043 374
55.96054 400
55.98066 416
56.00077 428
56.02088 374
56.041 433
56.06111 386
56.08122 398
56.10134 413
56.12145 396
56.14157 421
56.16168 383
56.18179 391
56.20191 389
56.22202 368
56.24213 394
56.26225 397
56.28236 416
56.30248 416
56.32259 388
56.3427 423
56.36282 406
56.38293 385
56.40304 418
56.42316 358
56.44327 390
56.46338 376
56.4835 365
56.50361 349
56.52373 379
56.54384 394
56.56395 385
56.58407 383
56.60418 378
56.62429 369
56.64441 402
56.66452 346
56.68464 399
56.70475 379
56.72486 361
56.74498 361
56.76509 409
56.7852 376
56.80532 366
56.82543 352
56.84554 374
56.86566 370
56.88577 342
56.90589 374
56.926 379
56.94611 375
56.96623 383
56.98634 366
57.00645 366
57.02657 404
57.04668 354
57.0668 407
57.08691 408
57.10702 363
57.12714 369
57.14725 346
57.16736 417
57.18748 382
57.20759 378
57.22771 350
57.24782 379
57.26793 365
57.28805 391
57.30816 365
57.32827 386
57.34839 406
57.3685 406
57.38861 391
57.40873 364
57.42884 369
57.44896 384
57.46907 386
57.48918 347
57.5093 369
57.52941 365
57.54952 362
57.56964 379
57.58975 379
57.60987 378
57.62998 417
57.65009 395
57.67021 409
57.69032 398
57.71043 392
57.73055 394
57.75066 405
57.77078 381
57.79089 354
57.811 404
57.83112 413
57.85123 407
57.87134 376
57.89146 402
57.91157 345
57.93168 379
57.9518 398
57.97191 399
57.99203 387
58.01214 389
58.03225 361
58.05237 397
58.07248 405
58.09259 388
58.11271 363
58.13282 399
58.15294 383
58.17305 377
58.19316 388
58.21328 361
58.23339 399
58.2535 391
58.27362 354
58.29373 378
58.31385 324
58.33396 381
58.35407 392
58.37419 342
58.3943 375
58.41441 382
58.43453 380
58.45464 429
58.47475 372
58.49487 386
58.51498 364
58.5351 358
58.55521 370
58.57532 341
58.59544 395
58.61555 369
58.63566 380
58.65578 417
58.67589 345
58.69601 379
58.71612 378
58.73623 348
58.75635 416
58.77646 359
58.79657 376
58.81669 391
58.8368 337
58.85691 358
58.87703 354
58.89714 366
58.91726 347
58.93737 379
58.95748 367
58.9776 372
58.99771 354
59.01782 353
59.03794 396
59.05805 376
59.07817 391
59.09828 371
59.11839 371
59.13851 376
59.15862 418
59.17873 406
59.19885 365
59.21896 374
59.23908 385
59.25919 381
59.2793 364
59.29942 395
59.31953 411
59.33964 382
59.35976 420
59.37987 365
59.39998 378
59.4201 399
59.44021 418
59.46033 382
59.48044 417
59.50055 421
59.52067 448
59.54078 359
59.56089 430
59.58101 428
59.60112 423
59.62124 464
59.64135 448
59.66146 485
59.68158 509
59.70169 535
59.7218 537
59.74192 606
59.76203 669
59.78215 697
59.80226 759
59.82237 857
59.84249 936
59.8626 991
59.88271 1010
59.90283 1118
59.92294 1053
59.94305 933
59.96317 866
59.98328 777
60.0034 698
60.02351 785
60.04362 728
60.06374 712
60.08385 715
60.10396 645
60.12408 619
60.14419 528
60.16431 486
60.18442 450
60.20453 410
60.22465 412
60.24476 437
60.26487 444
60.28499 459
60.3051 388
60.32522 397
60.34533 392
60.36544 403
60.38556 393
60.40567 381
60.42578 394
60.4459 350
60.46601 383
60.48612 364
60.50624 369
60.52635 348
60.54647 392
60.56658 345
60.58669 392
60.60681 397
60.62692 377
60.64703 395
60.66715 385
60.68726 361
60.70738 393
60.72749 367
60.7476 362
60.76772 388
60.78783 375
60.80794 383
60.82806 405
60.84817 359
60.86828 369
60.8884 365
60.90851 396
60.92863 358
60.94874 378
60.96885 405
60.98897 387
61.00908 379
61.02919 368
61.04931 396
61.06942 376
61.08954 378
61.10965 392
61.12976 429
61.14988 388
61.16999 372
61.1901 388
61.21022 449
61.23033 362
61.25045 373
61.27056 379
61.29067 404
61.31079 426
61.3309 396
61.35101 406
61.37113 419
61.39124 423
61.41135 467
61.43147 409
61.45158 423
61.4717 454
61.49181 423
61.51192 495
61.53204 510
61.55215 477
61.57226 451
61.59238 437
61.61249 475
61.63261 454
61.65272 501
61.67283 471
61.69295 482
61.71306 506
61.73317 493
61.75329 524
61.7734 469
61.79352 482
61.81363 488
61.83374 466
61.85386 473
61.87397 523
61.89408 480
61.9142 442
61.93431 462
61.95442 510
61.97454 502
61.99465 430
62.01477 446
62.03488 492
62.05499 524
62.07511 475
62.09522 492
62.11533 489
62.13545 503
62.15556 498
62.17568 493
62.19579 449
62.2159 493
62.23602 512
62.25613 485
62.27624 488
62.29636 483
62.31647 499
62.33659 474
62.3567 485
62.37681 437
62.39693 456
62.41704 467
62.43715 458
62.45727 409
62.47738 439
62.49749 422
62.51761 379
62.53772 369
62.55784 413
62.57795 444
62.59806 389
62.61818 399
62.63829 394
62.6584 418
62.67852 388
62.69863 374
62.71875 408
62.73886 399
62.75897 377
62.77909 380
62.7992 370
62.81931 392
62.83943 377
62.85954 391
62.87965 395
62.89977 366
62.91988 371
62.94 380
62.96011 359
62.98022 401
63.00034 340
63.02045 377
63.04056 354
63.06068 376
63.08079 375
63.10091 416
63.12102 401
63.14113 408
63.16125 342
63.18136 379
63.20147 372
63.22159 378
63.2417 366
63.26182 416
63.28193 398
63.30204 392
63.32216 379
63.34227 418
63.36238 338
63.3825 367
63.40261 404
63.42272 393
63.44284 401
63.46295 394
63.48307 387
63.50318 400
63.52329 434
63.54341 399
63.56352 395
63.58363 436
63.60375 396
63.62386 404
63.64398 406
63.66409 366
63.6842 409
63.70432 412
63.72443 421
63.74454 443
63.76466 364
63.78477 410
63.80489 393
63.825 424
63.84511 462
63.86523 463
63.88534 483
63.90545 516
63.92557 505
63.94568 519
63.96579 463
63.98591 464
64.00602 479
64.02614 501
64.04625 439
64.06636 443
64.08648 459
64.10659 462
64.1267 434
64.14682 444
64.16693 434
64.18705 400
64.20716 425
64.22727 391
64.24739 374
64.2675 418
64.28761 368
64.30773 380
64.32784 377
64.34796 381
64.36807 364
64.38818 383
64.4083 390
64.42841 392
64.44852 353
64.46864 385
64.48875 365
64.50886 367
64.52898 370
64.54909 386
64.56921 338
64.58932 382
64.60943 386
64.62955 354
64.64966 336
64.66977 374
64.68989 368
64.71 357
64.73012 363
64.75023 347
64.77034 355
64.79046 348
64.81057 374
64.83068 341
64.8508 346
64.87091 338
64.89102 365
64.91114 365
64.93125 395
64.95137 376
64.97148 341
64.99159 349
65.01171 363
65.03182 345
65.05193 371
65.07205 381
65.09216 385
65.11228 372
65.13239 352
65.1525 348
65.17262 369
65.19273 359
65.21284 340
65.23296 393
65.25307 360
65.27319 385
65.2933 370
65.31341 387
65.33353 364
65.35364 384
65.37375 337
65.39387 344
65.41398 352
65.43409 358
65.45421 372
65.47432 366
65.49444 377
65.51455 326
65.53466 391
65.55478 376
65.57489 368
65.595 399
65.61512 378
65.63523 371
65.65535 388
65.67546 385
65.69557 391
65.71569 383
65.7358 387
65.75591 383
65.77603 366
65.79614 341
65.81626 377
65.83637 399
65.85648 347
65.8766 342
65.89671 348
65.91682 350
65.93694 391
65.95705 348
65.97716 356
65.99728 342
66.01739 330
66.03751 348
66.05762 322
66.07773 343
66.09785 344
66.11796 311
66.13807 357
66.15819 349
66.1783 346
66.19842 361
66.21853 373
66.23864 348
66.25876 338
66.27887 355
66.29898 359
66.3191 360
66.33921 379
66.35933 333
66.37944 345
66.39955 359
66.41967 357
66.43978 356
66.45989 363
66.48001 354
66.50012 335
66.52023 329
66.54035 319
66.56046 362
66.58058 366
66.60069 349
66.6208 364
66.64092 339
66.66103 353
66.68114 360
66.70126 318
66.72137 321
66.74149 306
66.7616 361
66.78171 345
66.80183 322
66.82194 322
66.84205 344
66.86217 319
66.88228 348
66.90239 317
66.92251 349
66.94262 327
66.96274 358
66.98285 329
67.00296 373
67.02308 367
67.04319 357
67.0633 370
67.08342 403
67.10353 332
67.12365 399
67.14376 392
67.16387 367
67.18399 357
67.2041 400
67.22421 356
67.24433 375
67.26444 382
67.28456 377
67.30467 388
67.32478 378
67.3449 408
67.36501 386
67.38512 397
67.40524 393
67.42535 416
67.44546 408
67.46558 424
67.48569 432
67.50581 438
67.52592 454
67.54603 505
67.56615 538
67.58626 582
67.60637 627
67.62649 684
67.6466 722
67.66672 768
67.68683 775
67.70694 778
67.72706 720
67.74717 689
67.76728 595
67.7874 653
67.80751 615
67.82763 641
67.84774 682
67.86785 679
67.88797 625
67.90808 656
67.92819 694
67.94831 663
67.96842 709
67.98853 729
68.00865 757
68.02876 841
68.04888 908
68.06899 930
68.0891 889
68.10922 961
68.12933 956
68.14944 799
68.16956 776
68.18967 831
68.20979 847
68.2299 865
68.25001 829
68.27013 897
68.29024 835
68.31035 787
68.33047 657
68.35058 602
68.3707 610
68.39081 529
68.41092 540
68.43104 525
68.45115 523
68.47126 496
68.49138 479
68.51149 458
68.5316 397
68.55172 413
68.57183 383
68.59195 408
68.61206 345
68.63217 356
68.65229 343
68.6724 370
68.69251 400
68.71263 373
68.73274 339
68.75286 364
68.77297 356
68.79308 356
68.8132 368
68.83331 385
68.85342 373
68.87354 382
68.89365 365
68.91376 352
68.93388 357
68.95399 336
68.97411 359
68.99422 332
69.01433 358
69.03445 377
69.05456 370
69.07467 372
69.09479 362
69.1149 360
69.13502 368
69.15513 373
69.17524 335
69.19536 373
69.21547 376
69.23558 372
69.2557 383
69.27581 395
69.29593 351
69.31604 373
69.33615 392
69.35627 404
69.37638 363
69.39649 364
69.41661 361
69.43672 365
69.45683 375
69.47695 360
69.49706 374
69.51718 374
69.53729 385
69.5574 382
69.57752 373
69.59763 378
69.61774 386
69.63786 363
69.65797 388
69.67809 370
69.6982 353
69.71831 375
69.73843 326
69.75854 366
69.77865 377
69.79877 358
69.81888 338
69.839 383
69.85911 385
69.87922 359
69.89934 371
69.91945 365
69.93956 342
69.95968 348
69.97979 390
69.9999 335
70.02002 352
70.04013 355
70.06025 348
70.08036 342
70.10047 327
70.12059 354
70.1407 361
70.16081 334
70.18093 347
70.20104 350
70.22116 353
70.24127 343
70.26138 369
70.2815 353
70.30161 350
70.32172 323
70.34184 352
70.36195 352
70.38207 360
70.40218 378
70.42229 319
70.44241 346
70.46252 320
70.48263 344
70.50275 369
70.52286 352
70.54297 366
70.56309 336
70.5832 328
70.60332 341
70.62343 335
70.64354 349
70.66366 331
70.68377 371
70.70388 322
70.724 321
70.74411 318
70.76423 343
70.78434 362
70.80445 369
70.82457 334
70.84468 371
70.86479 334
70.88491 354
70.90502 373
70.92513 337
70.94525 379
70.96536 362
70.98548 362
71.00559 371
71.0257 321
71.04582 378
71.06593 347
71.08604 357
71.10616 349
71.12627 355
71.14639 358
71.1665 353
71.18661 339
71.20673 361
71.22684 374
71.24695 332
71.26707 322
71.28718 362
71.3073 368
71.32741 342
71.34752 354
71.36764 331
71.38775 345
71.40786 337
71.42798 361
71.44809 342
71.4682 358
71.48832 342
71.50843 354
71.52855 341
71.54866 375
71.56877 356
71.58889 328
71.609 363
71.62911 357
71.64923 370
71.66934 375
71.68946 355
71.70957 375
71.72968 345
71.7498 338
71.76991 362
71.79002 369
71.81014 368
71.83025 335
71.85037 293
71.87048 309
71.89059 341
71.91071 363
71.93082 365
71.95093 342
71.97105 360
71.99116 360
72.01127 353
72.03139 330
72.0515 313
72.07162 322
72.09173 340
72.11184 319
72.13196 331
72.15207 318
72.17218 327
72.1923 346
72.21241 342
72.23253 354
72.25264 324
72.27275 328
72.29287 335
72.31298 340
72.33309 333
72.35321 375
72.37332 364
72.39344 334
72.41355 337
72.43366 339
72.45378 354
72.47389 329
72.494 356
72.51412 338
72.53423 327
72.55434 332
72.57446 401
72.59457 377
72.61469 349
72.6348 368
72.65491 389
72.67503 356
72.69514 359
72.71525 379
72.73537 385
72.75548 322
72.7756 349
72.79571 387
72.81582 369
72.83594 359
72.85605 362
72.87616 358
72.89628 376
72.91639 330
72.9365 380
72.95662 341
72.97673 373
72.99685 377
73.01696 356
73.03707 368
73.05719 363
73.0773 381
73.09741 389
73.11753 368
73.13764 361
73.15776 393
73.17787 373
73.19798 424
73.2181 392
73.23821 459
73.25832 448
73.27844 446
73.29855 412
73.31867 465
73.33878 481
73.35889 464
73.37901 513
73.39912 507
73.41923 485
73.43935 484
73.45946 475
73.47957 433
73.49969 449
73.5198 434
73.53992 438
73.56003 427
73.58014 428
73.60026 430
73.62037 428
73.64048 410
73.6606 411
73.68071 373
73.70083 383
73.72094 403
73.74105 405
73.76117 351
73.78128 360
73.80139 367
73.82151 395
73.84162 356
73.86174 388
73.88185 347
73.90196 360
73.92208 343
73.94219 386
73.9623 361
73.98242 382
74.00253 368
74.02264 347
74.04276 360
74.06287 343
74.08299 388
74.1031 353
74.12321 330
74.14333 311
74.16344 337
74.18355 337
74.20367 380
74.22378 373
74.2439 360
74.26401 347
74.28412 335
74.30424 332
74.32435 329
74.34446 331
74.36458 369
74.38469 347
74.40481 356
74.42492 371
74.44503 387
74.46515 360
74.48526 339
74.50537 341
74.52549 379
74.5456 377
74.56571 342
74.58583 364
74.60594 342
74.62606 360
74.64617 359
74.66628 359
74.6864 358
74.70651 387
74.72662 365
74.74674 354
74.76685 350
74.78697 321
74.80708 329
74.82719 376
74.84731 372
74.86742 331
74.88753 348
74.90765 350
74.92776 355
74.94787 375
74.96799 361
74.9881 353
75.00822 356
