3.00117 21331
3.02128 20808
3.0414 19952
3.06151 19625
3.08162 18705
3.10174 18219
3.12185 17860
3.14197 17434
3.16208 16827
3.18219 16374
3.20231 15624
3.22242 15595
3.24253 15177
3.26265 14518
3.28276 14351
3.30288 13870
3.32299 13439
3.3431 13176
3.36322 12239
3.38333 12255
3.40344 11597
3.42356 11236
3.44367 11413
3.46379 10501
3.4839 10452
3.50401 9813
3.52413 9420
3.54424 9327
3.56435 8712
3.58447 8634
3.60458 8194
3.62469 7961
3.64481 7685
3.66492 7218
3.68504 7097
3.70515 6752
3.72526 6636
3.74538 6433
3.76549 5897
3.7856 5798
3.80572 5466
3.82583 5405
3.84595 5210
3.86606 4815
3.88617 4727
3.90629 4583
3.9264 4241
3.94651 4229
3.96663 3785
3.98674 3871
4.00686 3621
4.02697 3342
4.04708 3398
4.0672 3066
4.08731 3003
4.10742 2934
4.12754 2755
4.14765 2791
4.16776 2515
4.18788 2473
4.20799 2375
4.22811 2254
4.24822 2239
4.26833 2037
4.28845 2018
4.30856 1977
4.32867 1951
4.34879 1909
4.3689 1713
4.38902 1713
4.40913 1651
4.42924 1610
4.44936 1665
4.46947 1433
4.48958 1522
4.5097 1464
4.52981 1467
4.54992 1497
4.57004 1298
4.59015 1402
4.61027 1314
4.63038 1307
4.65049 1343
4.67061 1173
4.69072 1161
4.71083 1157
4.73095 1135
4.75106 1121
4.77118 1059
4.79129 1031
4.8114 1091
4.83152 987
4.85163 1037
4.87174 991
4.89186 933
4.91197 967
4.93209 959
4.9522 960
4.97231 861
4.99243 846
5.01254 876
5.03265 910
5.05277 763
5.07288 824
5.09299 752
5.11311 787
5.13322 773
5.15334 757
5.17345 722
5.19356 706
5.21368 689
5.23379 738
5.2539 637
5.27402 693
5.29413 610
5.31425 611
5.33436 638
5.35447 606
5.37459 588
5.3947 590
5.41481 606
5.43493 596
5.45504 621
5.47516 605
5.49527 540
5.51538 538
5.5355 539
5.55561 584
5.57572 482
5.59584 510
5.61595 490
5.63606 515
5.65618 471
5.67629 513
5.69641 508
5.71652 510
5.73663 506
5.75675 433
5.77686 430
5.79697 398
5.81709 435
5.8372 417
5.85732 429
5.87743 406
5.89754 473
5.91766 437
5.93777 441
5.95788 405
5.978 371
5.99811 427
6.01823 356
6.03834 431
6.05845 411
6.07857 425
6.09868 408
6.11879 432
6.13891 381
6.15902 427
6.17913 348
6.19925 397
6.21936 385
6.23948 323
6.25959 410
6.2797 376
6.29982 348
6.31993 389
6.34004 402
6.36016 390
6.38027 382
6.40039 362
6.4205 341
6.44061 355
6.46073 354
6.48084 361
6.50095 415
6.52107 367
6.54118 322
6.56129 374
6.58141 338
6.60152 379
6.62164 338
6.64175 359
6.66186 329
6.68198 340
6.70209 332
6.7222 342
6.74232 338
6.76243 327
6.78255 394
6.80266 360
6.82277 378
6.84289 334
6.863 344
6.88311 342
6.90323 360
6.92334 336
6.94346 311
6.96357 320
6.98368 294
7.0038 324
7.02391 335
7.04402 318
7.06414 360
7.08425 322
7.10436 372
7.12448 373
7.14459 333
7.16471 330
7.18482 340
7.20493 356
7.22505 335
7.24516 340
7.26527 350
7.28539 345
7.3055 354
7.32562 323
7.34573 341
7.36584 328
7.38596 338
7.40607 319
7.42618 358
7.4463 335
7.46641 324
7.48653 373
7.50664 379
7.52675 340
7.54687 386
7.56698 314
7.58709 301
7.60721 331
7.62732 321
7.64743 361
7.66755 289
7.68766 358
7.70778 329
7.72789 345
7.748 347
7.76812 344
7.78823 374
7.80834 336
7.82846 320
7.84857 340
7.86869 338
7.8888 345
7.90891 333
7.92903 333
7.94914 320
7.96925 336
7.98937 349
8.00948 312
8.0296 341
8.04971 330
8.06982 331
8.08994 350
8.11005 352
8.13016 308
8.15028 343
8.17039 358
8.1905 343
8.21062 322
8.23073 339
8.25085 323
8.27096 342
8.29107 305
8.31119 346
8.3313 346
8.35141 307
8.37153 305
8.39164 340
8.41176 358
8.43187 339
8.45198 320
8.4721 290
8.49221 376
8.51232 350
8.53244 353
8.55255 396
8.57266 343
8.59278 291
8.61289 327
8.63301 309
8.65312 338
8.67323 344
8.69335 315
8.71346 373
8.73357 326
8.75369 392
8.7738 384
8.79392 362
8.81403 391
8.83414 341
8.85426 399
8.87437 391
8.89448 340
8.9146 333
8.93471 326
8.95483 312
8.97494 353
8.99505 333
9.01517 365
9.03528 420
9.05539 330
9.07551 340
9.09562 369
9.11573 357
9.13585 352
9.15596 327
9.17608 326
9.19619 352
9.2163 376
9.23642 373
9.25653 370
9.27664 364
9.29676 293
9.31687 356
9.33699 342
9.3571 338
9.37721 333
9.39733 334
9.41744 314
9.43755 306
9.45767 318
9.47778 356
9.4979 330
9.51801 334
9.53812 376
9.55824 396
9.57835 348
9.59846 295
9.61858 323
9.63869 371
9.6588 354
9.67892 355
9.69903 320
9.71915 335
9.73926 277
9.75937 315
9.77949 316
9.7996 336
9.81971 328
9.83983 323
9.85994 312
9.88006 348
9.90017 319
9.92028 380
9.9404 294
9.96051 310
9.98062 365
10.00074 340
10.02085 339
10.04097 373
10.06108 289
10.08119 341
10.10131 327
10.12142 313
10.14153 352
10.16165 331
10.18176 352
10.20187 369
10.22199 310
10.2421 342
10.26222 328
10.28233 327
10.30244 365
10.32256 323
10.34267 317
10.36278 337
10.3829 314
10.40301 310
10.42313 345
10.44324 368
10.46335 330
10.48347 396
10.50358 326
10.52369 364
10.54381 368
10.56392 346
10.58403 366
10.60415 387
10.62426 362
10.64438 334
10.66449 365
10.6846 342
10.70472 346
10.72483 374
10.74494 315
10.76506 328
10.78517 344
10.80529 342
10.8254 368
10.84551 344
10.86563 318
10.88574 349
10.90585 357
10.92597 348
10.94608 313
10.9662 339
10.98631 355
11.00642 371
11.02654 342
11.04665 368
11.06676 353
11.08688 338
11.10699 382
11.1271 358
11.14722 324
11.16733 332
11.18745 315
11.20756 393
11.22767 368
11.24779 360
11.2679 386
11.28801 383
11.30813 337
11.32824 369
11.34836 367
11.36847 348
11.38858 359
11.4087 338
11.42881 360
11.44892 363
11.46904 382
11.48915 367
11.50927 355
11.52938 371
11.54949 343
11.56961 361
11.58972 355
11.60983 398
11.62995 338
11.65006 340
11.67017 372
11.69029 361
11.7104 359
11.73052 348
11.75063 437
11.77074 358
11.79086 410
11.81097 365
11.83108 387
11.8512 426
11.87131 403
11.89143 381
11.91154 445
11.93165 434
11.95177 441
11.97188 449
11.99199 442
12.01211 405
12.03222 462
12.05234 435
12.07245 486
12.09256 466
12.11268 525
12.13279 558
12.1529 535
12.17302 625
12.19313 589
12.21324 578
12.23336 632
12.25347 641
12.27359 671
12.2937 610
12.31381 685
12.33393 683
12.35404 719
12.37415 654
12.39427 650
12.41438 653
12.4345 615
12.45461 593
12.47472 587
12.49484 567
12.51495 513
12.53506 518
12.55518 521
12.57529 492
12.5954 504
12.61552 441
12.63563 421
12.65575 384
12.67586 407
12.69597 414
12.71609 377
12.7362 428
12.75631 370
12.77643 377
12.79654 387
12.81666 358
12.83677 363
12.85688 366
12.877 356
12.89711 351
12.91722 332
12.93734 376
12.95745 331
12.97757 350
12.99768 348
13.01779 347
13.03791 319
13.05802 351
13.07813 336
13.09825 310
13.11836 313
13.13847 312
13.15859 332
13.1787 328
13.19882 360
13.21893 333
13.23904 358
13.25916 309
13.27927 319
13.29938 358
13.3195 320
13.33961 333
13.35973 340
13.37984 297
13.39995 347
13.42007 310
13.44018 322
13.46029 316
13.48041 343
13.50052 326
13.52064 357
13.54075 312
13.56086 308
13.58098 314
13.60109 330
13.6212 298
13.64132 332
13.66143 295
13.68154 326
13.70166 302
13.72177 336
13.74189 360
13.762 370
13.78211 311
13.80223 350
13.82234 299
13.84245 343
13.86257 330
13.88268 317
13.9028 339
13.92291 299
13.94302 306
13.96314 321
13.98325 315
14.00336 313
14.02348 307
14.04359 303
14.06371 302
14.08382 315
14.10393 313
14.12405 288
14.14416 325
14.16427 261
14.18439 332
14.2045 322
14.22461 307
14.24473 312
14.26484 316
14.28496 322
14.30507 350
14.32518 308
14.3453 292
14.36541 316
14.38552 288
14.40564 266
14.42575 305
14.44587 291
14.46598 280
14.48609 345
14.50621 289
14.52632 278
14.54643 299
14.56655 317
14.58666 324
14.60677 327
14.62689 314
14.647 338
14.66712 327
14.68723 315
14.70734 339
14.72746 330
14.74757 298
14.76768 278
14.7878 289
14.80791 306
14.82803 311
14.84814 305
14.86825 315
14.88837 316
14.90848 311
14.92859 327
14.94871 305
14.96882 347
14.98894 313
15.00905 314
15.02916 291
15.04928 305
15.06939 298
15.0895 311
15.10962 312
15.12973 309
15.14984 283
15.16996 320
15.19007 302
15.21019 314
15.2303 307
15.25041 312
15.27053 294
15.29064 273
15.31075 308
15.33087 304
15.35098 309
15.3711 318
15.39121 311
15.41132 289
15.43144 325
15.45155 299
15.47166 313
15.49178 340
15.51189 313
15.53201 313
15.55212 274
15.57223 276
15.59235 299
15.61246 288
15.63257 338
15.65269 298
15.6728 312
15.69291 298
15.71303 288
15.73314 337
15.75326 286
15.77337 330
15.79348 327
15.8136 299
15.83371 334
15.85382 331
15.87394 290
15.89405 306
15.91417 349
15.93428 286
15.95439 329
15.97451 311
15.99462 310
16.01473 352
16.03485 320
16.05496 324
16.07508 296
16.09519 278
16.1153 294
16.13542 301
16.15553 297
16.17564 289
16.19576 320
16.21587 337
16.23598 279
16.2561 304
16.27621 320
16.29633 311
16.31644 323
16.33655 325
16.35667 296
16.37678 282
16.39689 286
16.41701 327
16.43712 329
16.45724 300
16.47735 338
16.49746 302
16.51758 277
16.53769 324
16.5578 309
16.57792 272
16.59803 285
16.61814 286
16.63826 323
16.65837 291
16.67849 304
16.6986 304
16.71871 317
16.73883 272
16.75894 290
16.77905 283
16.79917 298
16.81928 274
16.8394 325
16.85951 282
16.87962 299
16.89974 314
16.91985 275
16.93996 293
16.96008 305
16.98019 302
17.00031 282
17.02042 262
17.04053 315
17.06065 279
17.08076 313
17.10087 296
17.12099 291
17.1411 295
17.16121 288
17.18133 306
17.20144 271
17.22156 300
17.24167 333
17.26178 305
17.2819 334
17.30201 346
17.32212 320
17.34224 302
17.36235 312
17.38247 312
17.40258 275
17.42269 333
17.44281 311
17.46292 320
17.48303 324
17.50315 304
17.52326 311
17.54338 303
17.56349 291
17.5836 333
17.60372 295
17.62383 296
17.64394 352
17.66406 318
17.68417 342
17.70428 327
17.7244 345
17.74451 314
17.76463 356
17.78474 293
17.80485 343
17.82497 337
17.84508 310
17.86519 282
17.88531 312
17.90542 323
17.92554 321
17.94565 355
17.96576 337
17.98588 321
18.00599 332
18.0261 333
18.04622 332
18.06633 325
18.08645 326
18.10656 304
18.12667 318
18.14679 295
18.1669 296
18.18701 305
18.20713 333
18.22724 316
18.24735 325
18.26747 291
18.28758 278
18.3077 343
18.32781 316
18.34792 321
18.36804 302
18.38815 311
18.40826 319
18.42838 316
18.44849 276
18.46861 282
18.48872 304
18.50883 304
18.52895 252
18.54906 316
18.56917 296
18.58929 315
18.6094 323
18.62951 287
18.64963 340
18.66974 339
18.68986 273
18.70997 311
18.73008 320
18.7502 302
18.77031 286
18.79042 300
18.81054 329
18.83065 300
18.85077 341
18.87088 320
18.89099 306
18.91111 284
18.93122 289
18.95133 336
18.97145 306
18.99156 358
19.01168 302
19.03179 347
19.0519 309
19.07202 311
19.09213 313
19.11224 272
19.13236 350
19.15247 384
19.17258 326
19.1927 309
19.21281 324
19.23293 295
19.25304 330
19.27315 342
19.29327 334
19.31338 305
19.33349 324
19.35361 323
19.37372 349
19.39384 333
19.41395 381
19.43406 384
19.45418 332
19.47429 336
19.4944 354
19.51452 373
19.53463 371
19.55475 385
19.57486 387
19.59497 347
19.61509 382
19.6352 408
19.65531 398
19.67543 401
19.69554 408
19.71565 399
19.73577 491
19.75588 493
19.776 464
19.79611 568
19.81622 522
19.83634 609
19.85645 577
19.87656 589
19.89668 598
19.91679 624
19.93691 586
19.95702 608
19.97713 577
19.99725 584
20.01736 556
20.03747 555
20.05759 598
20.0777 547
20.09782 598
20.11793 508
20.13804 581
20.15816 551
20.17827 508
20.19838 600
20.2185 561
20.23861 593
20.25872 522
20.27884 514
20.29895 546
20.31907 531
20.33918 583
20.35929 570
20.37941 566
20.39952 564
20.41963 568
20.43975 629
20.45986 618
20.47998 612
20.50009 637
20.5202 623
20.54032 593
20.56043 663
20.58054 619
20.60066 639
20.62077 645
20.64088 746
20.661 809
20.68111 858
20.70123 981
20.72134 1229
20.74145 1729
20.76157 2092
20.78168 2855
20.80179 3651
20.82191 4579
20.84202 5205
20.86214 5412
20.88225 4827
20.90236 3932
20.92248 2948
20.94259 2079
20.9627 1413
20.98282 949
21.00293 883
21.02305 753
21.04316 776
21.06327 755
21.08339 724
21.1035 650
21.12361 716
21.14373 697
21.16384 630
21.18395 681
21.20407 629
21.22418 684
21.2443 641
21.26441 663
21.28452 688
21.30464 711
21.32475 678
21.34486 717
21.36498 706
21.38509 681
21.40521 617
21.42532 582
21.44543 579
21.46555 572
21.48566 544
21.50577 551
21.52589 541
21.546 513
21.56612 509
21.58623 547
21.60634 504
21.62646 499
21.64657 514
21.66668 476
21.6868 469
21.70691 513
21.72702 481
21.74714 464
21.76725 429
21.78737 482
21.80748 482
21.82759 490
21.84771 475
21.86782 416
21.88793 470
21.90805 495
21.92816 490
21.94828 500
21.96839 542
21.9885 503
22.00862 483
22.02873 448
22.04884 499
22.06896 461
22.08907 439
22.10919 474
22.1293 396
22.14941 441
22.16953 431
22.18964 419
22.20975 461
22.22987 406
22.24998 467
22.27009 391
22.29021 488
22.31032 458
22.33044 434
22.35055 381
22.37066 427
22.39078 438
22.41089 416
22.431 445
22.45112 377
22.47123 416
22.49135 421
22.51146 392
22.53157 433
22.55169 412
22.5718 397
22.59191 384
22.61203 433
22.63214 436
22.65225 466
22.67237 429
22.69248 423
22.7126 401
22.73271 416
22.75282 382
22.77294 393
22.79305 375
22.81316 418
22.83328 423
22.85339 434
22.87351 403
22.89362 443
22.91373 414
22.93385 378
22.95396 367
22.97407 411
22.99419 387
23.0143 399
23.03442 346
23.05453 406
23.07464 424
23.09476 410
23.11487 353
23.13498 385
23.1551 448
23.17521 383
23.19532 354
23.21544 398
23.23555 384
23.25567 400
23.27578 407
23.29589 363
23.31601 400
23.33612 382
23.35623 403
23.37635 418
23.39646 401
23.41658 378
23.43669 367
23.4568 378
23.47692 373
23.49703 359
23.51714 390
23.53726 399
23.55737 379
23.57749 431
23.5976 374
23.61771 416
23.63783 400
23.65794 368
23.67805 405
23.69817 388
23.71828 403
23.73839 383
23.75851 454
23.77862 417
23.79874 389
23.81885 447
23.83896 442
23.85908 393
23.87919 431
23.8993 426
23.91942 441
23.93953 446
23.95965 411
23.97976 467
23.99987 434
24.01999 438
24.0401 439
24.06021 411
24.08033 410
24.10044 451
24.12056 422
24.14067 412
24.16078 440
24.1809 449
24.20101 445
24.22112 424
24.24124 463
24.26135 424
24.28146 417
24.30158 453
24.32169 432
24.34181 473
24.36192 407
24.38203 438
24.40215 446
24.42226 452
24.44237 447
24.46249 416
24.4826 421
24.50272 417
24.52283 436
24.54294 468
24.56306 468
24.58317 501
24.60328 465
24.6234 529
24.64351 532
24.66362 456
24.68374 498
24.70385 535
24.72397 548
24.74408 525
24.76419 610
24.78431 600
24.80442 621
24.82453 653
24.84465 640
24.86476 651
24.88488 669
24.90499 634
24.9251 623
24.94522 597
24.96533 603
24.98544 566
25.00556 603
25.02567 595
25.04579 570
25.0659 583
25.08601 541
25.10613 556
25.12624 521
25.14635 560
25.16647 516
25.18658 540
25.20669 545
25.22681 488
25.24692 502
25.26704 507
25.28715 479
25.30726 532
25.32738 517
25.34749 481
25.3676 447
25.38772 418
25.40783 485
25.42795 416
25.44806 441
25.46817 399
25.48829 412
25.5084 422
25.52851 436
25.54863 403
25.56874 430
25.58886 424
25.60897 415
25.62908 427
25.6492 459
25.66931 412
25.68942 462
25.70954 470
25.72965 467
25.74976 535
25.76988 520
25.78999 508
25.81011 516
25.83022 516
25.85033 512
25.87045 487
25.89056 493
25.91067 485
25.93079 521
25.9509 509
25.97102 501
25.99113 505
26.01124 511
26.03136 578
26.05147 573
26.07158 572
26.0917 581
26.11181 647
26.13193 604
26.15204 658
26.17215 670
26.19227 741
26.21238 714
26.23249 731
26.25261 817
26.27272 851
26.29283 894
26.31295 932
26.33306 1060
26.35318 1103
26.37329 1240
26.3934 1390
26.41352 1626
26.43363 1982
26.45374 2605
26.47386 3336
26.49397 4443
26.51409 6290
26.5342 8848
26.55431 12101
26.57443 16086
26.59454 19776
26.61465 22293
26.63477 22961
26.65488 21095
26.67499 17244
26.69511 13166
26.71522 9685
26.73534 6600
26.75545 3910
26.77556 2428
26.79568 1729
26.81579 1384
26.8359 1237
26.85602 1068
26.87613 1020
26.89625 959
26.91636 920
26.93647 816
26.95659 744
26.9767 725
26.99681 631
27.01693 631
27.03704 569
27.05716 589
27.07727 584
27.09738 517
27.1175 513
27.13761 536
27.15772 477
27.17784 522
27.19795 494
27.21806 457
27.23818 497
27.25829 512
27.27841 470
27.29852 447
27.31863 476
27.33875 495
27.35886 485
27.37897 459
27.39909 460
27.4192 476
27.43932 472
27.45943 460
27.47954 509
27.49966 485
27.51977 466
27.53988 439
27.56 471
27.58011 409
27.60023 454
27.62034 450
27.64045 420
27.66057 428
27.68068 448
27.70079 452
27.72091 434
27.74102 470
27.76113 451
27.78125 455
27.80136 483
27.82148 462
27.84159 475
27.8617 487
27.88182 498
27.90193 505
27.92204 467
27.94216 476
27.96227 467
27.98239 451
28.0025 450
28.02261 486
28.04273 410
28.06284 426
28.08295 393
28.10307 381
28.12318 415
28.1433 423
28.16341 421
28.18352 394
28.20364 400
28.22375 392
28.24386 406
28.26398 445
28.28409 410
28.3042 398
28.32432 394
28.34443 394
28.36455 378
28.38466 374
28.40477 340
28.42489 361
28.445 426
28.46511 369
28.48523 362
28.50534 384
28.52546 395
28.54557 364
28.56568 361
28.5858 344
28.60591 356
28.62602 366
28.64614 407
28.66625 393
28.68636 345
28.70648 406
28.72659 377
28.74671 347
28.76682 348
28.78693 380
28.80705 349
28.82716 368
28.84727 372
28.86739 337
28.8875 372
28.90762 380
28.92773 357
28.94784 352
28.96796 346
28.98807 376
29.00818 377
29.0283 361
29.04841 374
29.06853 387
29.08864 362
29.10875 364
29.12887 370
29.14898 385
29.16909 352
29.18921 352
29.20932 350
29.22943 352
29.24955 339
29.26966 304
29.28978 342
29.30989 348
29.33 329
29.35012 344
29.37023 338
29.39034 382
29.41046 357
29.43057 352
29.45069 383
29.4708 373
29.49091 359
29.51103 356
29.53114 382
29.55125 402
29.57137 430
29.59148 468
29.6116 444
29.63171 433
29.65182 479
29.67194 425
29.69205 444
29.71216 418
29.73228 415
29.75239 387
29.7725 380
29.79262 380
29.81273 373
29.83285 344
29.85296 357
29.87307 361
29.89319 364
29.9133 334
29.93341 367
29.95353 365
29.97364 359
29.99376 342
30.01387 327
30.03398 371
30.0541 318
30.07421 366
30.09432 316
30.11444 337
30.13455 372
30.15467 335
30.17478 337
30.19489 362
30.21501 351
30.23512 340
30.25523 381
30.27535 368
30.29546 371
30.31557 364
30.33569 400
30.3558 348
30.37592 356
30.39603 345
30.41614 370
30.43626 337
30.45637 319
30.47648 323
30.4966 381
30.51671 365
30.53683 369
30.55694 350
30.57705 317
30.59717 315
30.61728 340
30.63739 335
30.65751 340
30.67762 330
30.69773 324
30.71785 329
30.73796 342
30.75808 327
30.77819 349
30.7983 318
30.81842 346
30.83853 351
30.85864 327
30.87876 320
30.89887 290
30.91899 330
30.9391 353
30.95921 332
30.97933 326
30.99944 360
31.01955 325
31.03967 352
31.05978 366
31.0799 340
31.10001 345
31.12012 339
31.14024 320
31.16035 340
31.18046 336
31.20058 356
31.22069 351
31.2408 348
31.26092 368
31.28103 311
31.30115 338
31.32126 355
31.34137 339
31.36149 325
31.3816 346
31.40171 347
31.42183 333
31.44194 323
31.46206 359
31.48217 348
31.50228 332
31.5224 320
31.54251 346
31.56262 356
31.58274 358
31.60285 327
31.62297 327
31.64308 335
31.66319 343
31.68331 357
31.70342 334
31.72353 345
31.74365 318
31.76376 348
31.78387 325
31.80399 333
31.8241 337
31.84422 279
31.86433 330
31.88444 338
31.90456 319
31.92467 337
31.94478 359
31.9649 370
31.98501 340
32.00513 321
32.02524 318
32.04535 348
32.06547 301
32.08558 333
32.10569 356
32.12581 349
32.14592 342
32.16604 370
32.18615 350
32.20626 388
32.22638 384
32.24649 423
32.2666 440
32.28672 403
32.30683 385
32.32694 417
32.34706 416
32.36717 378
32.38729 379
32.4074 400
32.42751 401
32.44763 426
32.46774 438
32.48785 376
32.50797 391
32.52808 390
32.5482 396
32.56831 376
32.58842 365
32.60854 364
32.62865 361
32.64876 354
32.66888 374
32.68899 355
32.7091 371
32.72922 342
32.74933 343
32.76945 340
32.78956 361
32.80967 358
32.82979 370
32.8499 336
32.87001 384
32.89013 341
32.91024 346
32.93036 359
32.95047 349
32.97058 343
32.9907 377
33.01081 358
33.03092 387
33.05104 356
33.07115 405
33.09127 394
33.11138 426
33.13149 444
33.15161 462
33.17172 414
33.19183 474
33.21195 449
33.23206 469
33.25217 478
33.27229 465
33.2924 441
33.31252 442
33.33263 411
33.35274 461
33.37286 450
33.39297 414
33.41308 387
33.4332 390
33.45331 361
33.47343 407
33.49354 351
33.51365 357
33.53377 377
33.55388 392
33.57399 363
33.59411 339
33.61422 376
33.63434 352
33.65445 349
33.67456 338
33.69468 333
33.71479 359
33.7349 319
33.75502 340
33.77513 299
33.79524 313
33.81536 338
33.83547 337
33.85559 361
33.8757 348
33.89581 351
33.91593 327
33.93604 302
33.95615 336
33.97627 359
33.99638 332
34.0165 368
34.03661 302
34.05672 344
34.07684 320
34.09695 312
34.11706 345
34.13718 346
34.15729 337
34.17741 341
34.19752 327
34.21763 341
34.23775 317
34.25786 318
34.27797 342
34.29809 309
34.3182 326
34.33831 336
34.35843 349
34.37854 372
34.39866 331
34.41877 371
34.43888 317
34.459 371
34.47911 364
34.49922 350
34.51934 344
34.53945 328
34.55957 366
34.57968 336
34.59979 346
34.61991 377
34.64002 405
34.66013 424
34.68025 410
34.70036 385
34.72047 451
34.74059 410
34.7607 411
34.78082 444
34.80093 416
34.82104 506
34.84116 481
34.86127 477
34.88138 465
34.9015 498
34.92161 524
34.94173 521
34.96184 490
34.98195 560
35.00207 506
35.02218 503
35.04229 516
35.06241 487
35.08252 505
35.10264 510
35.12275 497
35.14286 508
35.16298 482
35.18309 505
35.2032 466
35.22332 500
35.24343 469
35.26354 511
35.28366 455
35.30377 434
35.32389 458
35.344 451
35.36411 426
35.38423 487
35.40434 473
35.42445 473
35.44457 487
35.46468 434
35.4848 463
35.50491 456
35.52502 423
35.54514 458
35.56525 445
35.58536 465
35.60548 441
35.62559 445
35.64571 445
35.66582 441
35.68593 476
35.70605 461
35.72616 460
35.74627 462
35.76639 457
35.7865 450
35.80661 495
35.82673 520
35.84684 494
35.86696 462
35.88707 551
35.90718 498
35.9273 475
35.94741 515
35.96752 508
35.98764 458
36.00775 462
36.02787 491
36.04798 469
36.06809 472
36.08821 444
36.10832 473
36.12843 420
36.14855 480
36.16866 443
36.18878 461
36.20889 405
36.229 418
36.24912 425
36.26923 474
36.28934 467
36.30946 479
36.32957 538
36.34968 605
36.3698 651
36.38991 788
36.41003 839
36.43014 1038
36.45025 1244
36.47037 1428
36.49048 1655
36.51059 1825
36.53071 1868
36.55082 1737
36.57094 1549
36.59105 1251
36.61116 1212
36.63128 1055
36.65139 874
36.6715 699
36.69162 583
36.71173 568
36.73184 529
36.75196 488
36.77207 508
36.79219 484
36.8123 507
36.83241 511
36.85253 447
36.87264 503
36.89275 472
36.91287 453
36.93298 451
36.9531 488
36.97321 435
36.99332 455
37.01344 445
37.03355 384
37.05366 415
37.07378 398
37.09389 422
37.11401 394
37.13412 372
37.15423 395
37.17435 392
37.19446 408
37.21457 406
37.23469 419
37.2548 394
37.27491 399
37.29503 376
37.31514 419
37.33526 418
37.35537 411
37.37548 439
37.3956 449
37.41571 468
37.43582 453
37.45594 434
37.47605 483
37.49617 430
37.51628 457
37.53639 415
37.55651 414
37.57662 384
37.59673 384
37.61685 386
37.63696 409
37.65708 395
37.67719 397
37.6973 395
37.71742 378
37.73753 402
37.75764 443
37.77776 419
37.79787 409
37.81798 403
37.8381 432
37.85821 472
37.87833 433
37.89844 433
37.91855 432
37.93867 468
37.95878 421
37.97889 429
37.99901 383
38.01912 410
38.03924 445
38.05935 445
38.07946 464
38.09958 462
38.11969 426
38.1398 497
38.15992 466
38.18003 473
38.20015 467
38.22026 501
38.24037 530
38.26049 446
38.2806 480
38.30071 490
38.32083 482
38.34094 498
38.36105 488
38.38117 480
38.40128 473
38.4214 500
38.44151 499
38.46162 471
38.48174 438
38.50185 454
38.52196 451
38.54208 425
38.56219 436
38.58231 456
38.60242 443
38.62253 421
38.64265 415
38.66276 401
38.68287 379
38.70299 390
38.7231 403
38.74321 385
38.76333 391
38.78344 401
38.80356 383
38.82367 377
38.84378 382
38.8639 376
38.88401 406
38.90412 413
38.92424 459
38.94435 397
38.96447 408
38.98458 375
39.00469 390
39.02481 418
39.04492 432
39.06503 407
39.08515 424
39.10526 422
39.12538 460
39.14549 472
39.1656 489
39.18572 479
39.20583 471
39.22594 531
39.24606 580
39.26617 573
39.28628 628
39.3064 664
39.32651 808
39.34663 936
39.36674 1118
39.38685 1355
39.40697 1441
39.42708 1719
39.44719 1595
39.46731 1526
39.48742 1371
39.50754 1243
39.52765 1073
39.54776 1001
39.56788 873
39.58799 789
39.6081 583
39.62822 507
39.64833 428
39.66845 421
39.68856 387
39.70867 402
39.72879 394
39.7489 379
39.76901 391
39.78913 371
39.80924 363
39.82935 366
39.84947 390
39.86958 391
39.8897 371
39.90981 388
39.92992 384
39.95004 386
39.97015 375
39.99026 394
40.01038 406
40.03049 403
40.05061 436
40.07072 424
40.09083 474
40.11095 511
40.13106 551
40.15117 608
40.17129 653
40.1914 759
40.21152 808
40.23163 961
40.25174 1013
40.27186 986
40.29197 968
40.31208 894
40.3322 800
40.35231 670
40.37242 651
40.39254 600
40.41265 539
40.43277 470
40.45288 377
40.47299 400
40.49311 375
40.51322 375
40.53333 333
40.55345 339
40.57356 355
40.59368 368
40.61379 326
40.6339 344
40.65402 338
40.67413 317
40.69424 372
40.71436 323
40.73447 385
40.75458 344
40.7747 341
40.79481 361
40.81493 325
40.83504 364
40.85515 362
40.87527 360
40.89538 324
40.91549 368
40.93561 368
40.95572 372
40.97584 353
40.99595 340
41.01606 361
41.03618 353
41.05629 385
41.0764 380
41.09652 366
41.11663 420
41.13675 373
41.15686 335
41.17697 366
41.19709 354
41.2172 382
41.23731 345
41.25743 380
41.27754 368
41.29765 375
41.31777 391
41.33788 365
41.358 383
41.37811 383
41.39822 362
41.41834 346
41.43845 381
41.45856 334
41.47868 357
41.49879 353
41.51891 361
41.53902 362
41.55913 328
41.57925 332
41.59936 346
41.61947 327
41.63959 343
41.6597 350
41.67982 323
41.69993 339
41.72004 332
41.74016 305
41.76027 302
41.78038 348
41.8005 309
41.82061 365
41.84072 328
41.86084 308
41.88095 319
41.90107 333
41.92118 328
41.94129 305
41.96141 330
41.98152 334
42.00163 341
42.02175 334
42.04186 337
42.06198 326
42.08209 348
42.1022 306
42.12232 331
42.14243 353
42.16254 365
42.18266 388
42.20277 383
42.22289 433
42.243 437
42.26311 492
42.28323 514
42.30334 585
42.32345 677
42.34357 827
42.36368 939
42.38379 1095
42.40391 1225
42.42402 1217
42.44414 1202
42.46425 1031
42.48436 930
42.50448 904
42.52459 800
42.5447 794
42.56482 650
42.58493 511
42.60505 482
42.62516 380
42.64527 374
42.66539 361
42.6855 314
42.70561 358
42.72573 318
42.74584 356
42.76595 349
42.78607 327
42.80618 351
42.8263 320
42.84641 324
42.86652 345
42.88664 328
42.90675 311
42.92686 292
42.94698 288
42.96709 321
42.98721 345
43.00732 313
43.02743 300
43.04755 302
43.06766 302
43.08777 285
43.10789 264
43.128 278
43.14812 280
43.16823 312
43.18834 298
43.20846 315
43.22857 332
43.24868 324
43.2688 289
43.28891 308
43.30902 298
43.32914 262
43.34925 304
43.36937 299
43.38948 273
43.40959 294
43.42971 294
43.44982 278
43.46993 299
43.49005 297
43.51016 257
43.53028 282
43.55039 285
43.5705 273
43.59062 319
43.61073 300
43.63084 280
43.65096 299
43.67107 247
43.69119 324
43.7113 285
43.73141 278
43.75153 285
43.77164 294
43.79175 270
43.81187 283
43.83198 301
43.85209 292
43.87221 267
43.89232 278
43.91244 316
43.93255 298
43.95266 267
43.97278 281
43.99289 282
44.013 321
44.03312 309
44.05323 312
44.07335 290
44.09346 285
44.11357 294
44.13369 295
44.1538 302
44.17391 307
44.19403 337
44.21414 264
44.23426 292
44.25437 299
44.27448 295
44.2946 296
44.31471 277
44.33482 301
44.35494 294
44.37505 270
44.39516 289
44.41528 270
44.43539 322
44.45551 306
44.47562 303
44.49573 322
44.51585 301
44.53596 280
44.55607 274
44.57619 284
44.5963 316
44.61642 314
44.63653 263
44.65664 315
44.67676 282
44.69687 297
44.71698 314
44.7371 276
44.75721 292
44.77732 283
44.79744 311
44.81755 306
44.83767 281
44.85778 316
44.87789 308
44.89801 287
44.91812 296
44.93823 324
44.95835 304
44.97846 341
44.99858 330
45.01869 318
45.0388 325
45.05892 343
45.07903 310
45.09914 297
45.11926 326
45.13937 350
45.15949 300
45.1796 292
45.19971 316
45.21983 353
45.23994 351
45.26005 313
45.28017 336
45.30028 360
45.32039 341
45.34051 351
45.36062 379
45.38074 350
45.40085 334
45.42096 379
45.44108 400
45.46119 358
45.4813 364
45.50142 376
45.52153 392
45.54165 402
45.56176 383
45.58187 443
45.60199 445
45.6221 511
45.64221 513
45.66233 627
45.68244 703
45.70256 860
45.72267 887
45.74278 928
45.7629 1005
45.78301 960
45.80312 850
45.82324 755
45.84335 715
45.86346 691
45.88358 654
45.90369 555
45.92381 570
45.94392 462
45.96403 435
45.98415 380
46.00426 348
46.02437 379
46.04449 402
46.0646 365
46.08472 342
46.10483 336
46.12494 352
46.14506 339
46.16517 327
46.18528 329
46.2054 335
46.22551 327
46.24563 335
46.26574 336
46.28585 325
46.30597 315
46.32608 321
46.34619 321
46.36631 305
46.38642 315
46.40653 317
46.42665 298
46.44676 298
46.46688 305
46.48699 274
46.5071 325
46.52722 291
46.54733 260
46.56744 296
46.58756 282
46.60767 300
46.62779 314
46.6479 341
46.66801 286
46.68813 316
46.70824 312
46.72835 302
46.74847 310
46.76858 298
46.78869 300
46.80881 274
46.82892 324
46.84904 321
46.86915 323
46.88926 296
46.90938 332
46.92949 313
46.9496 323
46.96972 310
46.98983 330
47.00995 309
47.03006 321
47.05017 327
47.07029 295
47.0904 285
47.11051 271
47.13063 282
47.15074 297
47.17086 300
47.19097 300
47.21108 291
47.2312 289
47.25131 301
47.27142 294
47.29154 291
47.31165 290
47.33176 284
47.35188 312
47.37199 340
47.39211 314
47.41222 318
47.43233 284
47.45245 320
47.47256 325
47.49267 328
47.51279 292
47.5329 318
47.55302 329
47.57313 313
47.59324 284
47.61336 274
47.63347 291
47.65358 289
47.6737 308
47.69381 316
47.71393 298
47.73404 306
47.75415 320
47.77427 280
47.79438 276
47.81449 280
47.83461 332
47.85472 317
47.87483 324
47.89495 319
47.91506 340
47.93518 325
47.95529 305
47.9754 319
47.99552 324
48.01563 325
48.03574 296
48.05586 298
48.07597 321
48.09609 317
48.1162 271
48.13631 295
48.15643 298
48.17654 327
48.19665 301
48.21677 270
48.23688 280
48.257 317
48.27711 323
48.29722 302
48.31734 274
48.33745 285
48.35756 309
48.37768 313
48.39779 281
48.4179 314
48.43802 315
48.45813 302
48.47825 301
48.49836 318
48.51847 325
48.53859 289
48.5587 289
48.57881 298
48.59893 323
48.61904 294
48.63916 340
48.65927 290
48.67938 313
48.6995 314
48.71961 318
48.73972 335
48.75984 291
48.77995 298
48.80006 333
48.82018 290
48.84029 302
48.86041 308
48.88052 299
48.90063 320
48.92075 309
48.94086 307
48.96097 331
48.98109 295
49.0012 301
49.02132 308
49.04143 311
49.06154 331
49.08166 313
49.10177 296
49.12188 352
49.142 289
49.16211 304
49.18223 298
49.20234 327
49.22245 322
49.24257 303
49.26268 321
49.28279 331
49.30291 310
49.32302 300
49.34313 303
49.36325 299
49.38336 320
49.40348 341
49.42359 317
49.4437 336
49.46382 319
49.48393 309
49.50404 310
49.52416 351
49.54427 378
49.56439 322
49.5845 348
49.60461 362
49.62473 367
49.64484 336
49.66495 332
49.68507 360
49.70518 362
49.7253 372
49.74541 409
49.76552 395
49.78564 371
49.80575 425
49.82586 434
49.84598 444
49.86609 507
49.8862 557
49.90632 602
49.92643 659
49.94655 736
49.96666 906
49.98677 1046
50.00689 1265
50.027 1542
50.04711 1777
50.06723 2116
50.08734 2311
50.10746 2409
50.12757 2237
50.14768 2087
50.1678 1792
50.18791 1522
50.20802 1393
50.22814 1373
50.24825 1344
50.26837 1152
50.28848 929
50.30859 725
50.32871 532
50.34882 448
50.36893 414
50.38905 396
50.40916 366
50.42927 386
50.44939 378
50.4695 365
50.48962 373
50.50973 367
50.52984 393
50.54996 365
50.57007 354
50.59018 389
50.6103 388
50.63041 370
50.65053 368
50.67064 336
50.69075 331
50.71087 337
50.73098 343
50.75109 307
50.77121 351
50.79132 333
50.81143 331
50.83155 316
50.85166 331
50.87178 346
50.89189 326
50.912 325
50.93212 321
50.95223 294
50.97234 292
50.99246 277
51.01257 302
51.03269 292
51.0528 327
51.07291 331
51.09303 287
51.11314 319
51.13325 313
51.15337 303
51.17348 280
51.1936 336
51.21371 298
51.23382 320
51.25394 308
51.27405 309
51.29416 278
51.31428 295
51.33439 274
51.3545 271
51.37462 285
51.39473 299
51.41485 332
51.43496 268
51.45507 293
51.47519 252
51.4953 272
51.51541 315
51.53553 277
51.55564 294
51.57576 282
51.59587 296
51.61598 305
51.6361 280
51.65621 308
51.67632 267
51.69644 270
51.71655 285
51.73667 313
51.75678 281
51.77689 255
51.79701 304
51.81712 280
51.83723 278
51.85735 283
51.87746 277
51.89757 283
51.91769 265
51.9378 266
51.95792 278
51.97803 290
51.99814 293
52.01826 280
52.03837 286
52.05848 290
52.0786 291
52.09871 302
52.11883 279
52.13894 277
52.15905 284
52.17917 296
52.19928 291
52.21939 326
52.23951 266
52.25962 289
52.27974 301
52.29985 268
52.31996 284
52.34008 251
52.36019 297
52.3803 273
52.40042 302
52.42053 322
52.44064 302
52.46076 301
52.48087 271
52.50099 276
52.5211 263
52.54121 263
52.56133 268
52.58144 273
52.60155 297
52.62167 318
52.64178 284
52.6619 262
52.68201 307
52.70212 309
52.72224 286
52.74235 305
52.76246 291
52.78258 318
52.80269 304
52.8228 307
52.84292 286
52.86303 324
52.88315 340
52.90326 318
52.92337 311
52.94349 312
52.9636 320
52.98371 330
53.00383 306
53.02394 328
53.04406 343
53.06417 294
53.08428 311
53.1044 319
53.12451 315
53.14462 314
53.16474 317
53.18485 279
53.20497 342
53.22508 327
53.24519 346
53.26531 346
53.28542 331
53.30553 367
53.32565 331
53.34576 340
53.36587 360
53.38599 366
53.4061 329
53.42622 367
53.44633 321
53.46644 347
53.48656 323
53.50667 321
53.52678 336
53.5469 350
53.56701 347
53.58713 346
53.60724 345
53.62735 319
53.64747 352
53.66758 343
53.68769 303
53.70781 354
53.72792 354
53.74804 331
53.76815 321
53.78826 335
53.80838 359
53.82849 341
53.8486 348
53.86872 324
53.88883 360
53.90894 359
53.92906 356
53.94917 348
53.96929 372
53.9894 336
54.00951 377
54.02963 347
54.04974 342
54.06985 350
54.08997 331
54.11008 356
54.1302 342
54.15031 343
54.17042 366
54.19054 379
54.21065 364
54.23076 323
54.25088 369
54.27099 367
54.29111 395
54.31122 355
54.33133 353
54.35145 381
54.37156 360
54.39167 355
54.41179 376
54.4319 374
54.45201 419
54.47213 366
54.49224 370
54.51236 386
54.53247 379
54.55258 426
54.5727 395
54.59281 413
54.61292 383
54.63304 467
54.65315 441
54.67327 493
54.69338 535
54.71349 595
54.73361 596
54.75372 699
54.77383 752
54.79395 831
54.81406 941
54.83417 957
54.85429 957
54.8744 861
54.89452 723
54.91463 707
54.93474 707
54.95486 692
54.97497 692
54.99508 679
55.0152 670
55.03531 562
55.05543 515
55.07554 477
55.09565 442
55.11577 435
55.13588 449
55.15599 473
55.17611 507
55.19622 498
55.21634 535
55.23645 548
55.25656 613
55.27668 598
55.29679 578
55.3169 581
55.33702 494
55.35713 520
55.37724 489
55.39736 484
55.41747 454
55.43759 429
55.4577 448
55.47781 453
55.49793 413
55.51804 371
55.53815 339
55.55827 319
55.57838 341
55.5985 324
55.61861 331
55.63872 327
55.65884 336
55.67895 314
55.69906 337
55.71918 299
55.73929 325
55.75941 303
55.77952 293
55.79963 270
55.81975 318
55.83986 286
55.85997 334
55.88009 308
55.9002 329
55.92031 279
55.94043 305
55.96054 282
55.98066 289
56.00077 330
56.02088 300
56.041 299
56.06111 301
56.08122 305
56.10134 281
56.12145 328
56.14157 297
56.16168 310
56.18179 306
56.20191 312
56.22202 299
56.24213 306
56.26225 294
56.28236 343
56.30248 295
56.32259 317
56.3427 317
56.36282 312
56.38293 287
56.40304 287
56.42316 306
56.44327 295
56.46338 316
56.4835 322
56.50361 303
56.52373 288
56.54384 287
56.56395 324
56.58407 367
56.60418 297
56.62429 325
56.64441 301
56.66452 295
56.68464 306
56.70475 279
56.72486 328
56.74498 299
56.76509 299
56.7852 272
56.80532 313
56.82543 325
56.84554 286
56.86566 287
56.88577 318
56.90589 297
56.926 313
56.94611 283
56.96623 297
56.98634 284
57.00645 278
57.02657 318
57.04668 340
57.0668 313
57.08691 332
57.10702 344
57.12714 333
57.14725 342
57.16736 324
57.18748 341
57.20759 327
57.22771 315
57.24782 343
57.26793 319
57.28805 309
57.30816 298
57.32827 327
57.34839 352
57.3685 304
57.38861 335
57.40873 299
57.42884 288
57.44896 281
57.46907 288
57.48918 294
57.5093 311
57.52941 327
57.54952 286
57.56964 310
57.58975 278
57.60987 283
57.62998 260
57.65009 311
57.67021 272
57.69032 293
57.71043 297
57.73055 299
57.75066 282
57.77078 299
57.79089 268
57.811 293
57.83112 273
57.85123 268
57.87134 308
57.89146 293
57.91157 294
57.93168 292
57.9518 296
57.97191 289
57.99203 271
58.01214 330
58.03225 309
58.05237 277
58.07248 326
58.09259 277
58.11271 294
58.13282 305
58.15294 303
58.17305 291
58.19316 276
58.21328 290
58.23339 265
58.2535 286
58.27362 286
58.29373 283
58.31385 300
58.33396 282
58.35407 298
58.37419 287
58.3943 282
58.41441 270
58.43453 282
58.45464 272
58.47475 300
58.49487 271
58.51498 296
58.5351 278
58.55521 284
58.57532 287
58.59544 274
58.61555 297
58.63566 289
58.65578 316
58.67589 307
58.69601 288
58.71612 295
58.73623 294
58.75635 315
58.77646 287
58.79657 294
58.81669 299
58.8368 321
58.85691 298
58.87703 298
58.89714 283
58.91726 272
58.93737 314
58.95748 278
58.9776 265
58.99771 304
59.01782 308
59.03794 329
59.05805 292
59.07817 292
59.09828 308
59.11839 305
59.13851 329
59.15862 293
59.17873 322
59.19885 286
59.21896 303
59.23908 310
59.25919 345
59.2793 307
59.29942 304
59.31953 309
59.33964 323
59.35976 343
59.37987 328
59.39998 324
59.4201 359
59.44021 351
59.46033 321
59.48044 321
59.50055 356
59.52067 363
59.54078 346
59.56089 360
59.58101 353
59.60112 366
59.62124 387
59.64135 394
59.66146 470
59.68158 467
59.70169 497
59.7218 518
59.74192 585
59.76203 705
59.78215 746
59.80226 879
59.82237 998
59.84249 1179
59.8626 1336
59.88271 1517
59.90283 1619
59.92294 1656
59.94305 1502
59.96317 1353
59.98328 1171
60.0034 993
60.02351 956
60.04362 948
60.06374 950
60.08385 950
60.10396 940
60.12408 746
60.14419 607
60.16431 514
60.18442 428
60.20453 387
60.22465 380
60.24476 359
60.26487 312
60.28499 312
60.3051 286
60.32522 324
60.34533 319
60.36544 335
60.38556 322
60.40567 302
60.42578 312
60.4459 315
60.46601 278
60.48612 291
60.50624 305
60.52635 264
60.54647 334
60.56658 325
60.58669 325
60.60681 277
60.62692 305
60.64703 283
60.66715 341
60.68726 280
60.70738 298
60.72749 254
60.7476 258
60.76772 276
60.78783 297
60.80794 292
60.82806 309
60.84817 304
60.86828 307
60.8884 299
60.90851 299
60.92863 303
60.94874 317
60.96885 321
60.98897 298
61.00908 287
61.02919 331
61.04931 297
61.06942 305
61.08954 334
61.10965 298
61.12976 290
61.14988 315
61.16999 296
61.1901 311
61.21022 308
61.23033 278
61.25045 317
61.27056 299
61.29067 333
61.31079 325
61.3309 315
61.35101 321
61.37113 359
61.39124 310
61.41135 312
61.43147 311
61.45158 320
61.4717 338
61.49181 350
61.51192 297
61.53204 326
61.55215 321
61.57226 278
61.59238 319
61.61249 254
61.63261 299
61.65272 309
61.67283 340
61.69295 315
61.71306 323
61.73317 326
61.75329 345
61.7734 295
61.79352 310
61.81363 320
61.83374 335
61.85386 349
61.87397 325
61.89408 310
61.9142 304
61.93431 337
61.95442 339
61.97454 331
61.99465 324
62.01477 324
62.03488 384
62.05499 353
62.07511 345
62.09522 363
62.11533 367
62.13545 357
62.15556 366
62.17568 348
62.19579 385
62.2159 409
62.23602 431
62.25613 379
62.27624 389
62.29636 389
62.31647 399
62.33659 382
62.3567 390
62.37681 379
62.39693 386
62.41704 405
62.43715 379
62.45727 404
62.47738 327
62.49749 326
62.51761 315
62.53772 349
62.55784 346
62.57795 350
62.59806 313
62.61818 322
62.63829 304
62.6584 301
62.67852 303
62.69863 319
62.71875 293
62.73886 296
62.75897 316
62.77909 291
62.7992 310
62.81931 316
62.83943 278
62.85954 285
62.87965 279
62.89977 303
62.91988 266
62.94 292
62.96011 265
62.98022 271
63.00034 318
63.02045 305
63.04056 303
63.06068 293
63.08079 314
63.10091 323
63.12102 316
63.14113 296
63.16125 281
63.18136 327
63.20147 297
63.22159 263
63.2417 299
63.26182 297
63.28193 302
63.30204 333
63.32216 282
63.34227 274
63.36238 294
63.3825 316
63.40261 260
63.42272 296
63.44284 268
63.46295 306
63.48307 321
63.50318 300
63.52329 319
63.54341 290
63.56352 314
63.58363 304
63.60375 295
63.62386 311
63.64398 311
63.66409 323
63.6842 303
63.70432 327
63.72443 338
63.74454 322
63.76466 370
63.78477 318
63.80489 318
63.825 359
63.84511 388
63.86523 380
63.88534 396
63.90545 427
63.92557 523
63.94568 515
63.96579 534
63.98591 586
64.00602 505
64.02614 526
64.04625 473
64.06636 449
64.08648 434
64.10659 392
64.1267 429
64.14682 415
64.16693 430
64.18705 402
64.20716 368
64.22727 372
64.24739 336
64.2675 326
64.28761 314
64.30773 329
64.32784 292
64.34796 346
64.36807 321
64.38818 287
64.4083 265
64.42841 284
64.44852 291
64.46864 293
64.48875 254
64.50886 305
64.52898 295
64.54909 272
64.56921 296
64.58932 293
64.60943 294
64.62955 298
64.64966 278
64.66977 278
64.68989 264
64.71 273
64.73012 263
64.75023 279
64.77034 243
64.79046 266
64.81057 244
64.83068 282
64.8508 264
64.87091 251
64.89102 248
64.91114 268
64.93125 269
64.95137 275
64.97148 285
64.99159 266
65.01171 286
65.03182 272
65.05193 279
65.07205 269
65.09216 277
65.11228 288
65.13239 283
65.1525 269
65.17262 266
65.19273 299
65.21284 260
65.23296 282
65.25307 288
65.27319 262
65.2933 286
65.31341 275
65.33353 257
65.35364 270
65.37375 286
65.39387 285
65.41398 289
65.43409 300
65.45421 267
65.47432 289
65.49444 257
65.51455 292
65.53466 292
65.55478 256
65.57489 274
65.595 277
65.61512 306
65.63523 277
65.65535 309
65.67546 283
65.69557 318
65.71569 331
65.7358 318
65.75591 358
65.77603 312
65.79614 299
65.81626 298
65.83637 321
65.85648 305
65.8766 325
65.89671 322
65.91682 337
65.93694 309
65.95705 308
65.97716 315
65.99728 305
66.01739 302
66.03751 315
66.05762 313
66.07773 318
66.09785 285
66.11796 278
66.13807 286
66.15819 263
66.1783 277
66.19842 274
66.21853 275
66.23864 259
66.25876 271
66.27887 268
66.29898 254
66.3191 264
66.33921 256
66.35933 275
66.37944 269
66.39955 267
66.41967 274
66.43978 283
66.45989 268
66.48001 245
66.50012 287
66.52023 258
66.54035 272
66.56046 268
66.58058 271
66.60069 255
66.6208 283
66.64092 294
66.66103 276
66.68114 295
66.70126 264
66.72137 279
66.74149 294
66.7616 296
66.78171 320
66.80183 292
66.82194 287
66.84205 324
66.86217 325
66.88228 311
66.90239 346
66.92251 352
66.94262 365
66.96274 340
66.98285 339
67.00296 343
67.02308 334
67.04319 342
67.0633 355
67.08342 334
67.10353 303
67.12365 312
67.14376 322
67.16387 339
67.18399 324
67.2041 340
67.22421 369
67.24433 320
67.26444 334
67.28456 321
67.30467 315
67.32478 321
67.3449 315
67.36501 331
67.38512 349
67.40524 387
67.42535 365
67.44546 395
67.46558 390
67.48569 451
67.50581 450
67.52592 493
67.54603 518
67.56615 600
67.58626 669
67.60637 717
67.62649 835
67.6466 924
67.66672 952
67.68683 1030
67.70694 1086
67.72706 976
67.74717 961
67.76728 845
67.7874 793
67.80751 703
67.82763 754
67.84774 732
67.86785 788
67.88797 793
67.90808 850
67.92819 818
67.94831 767
67.96842 777
67.98853 831
68.00865 931
68.02876 1007
68.04888 1075
68.06899 1276
68.0891 1364
68.10922 1314
68.12933 1315
68.14944 1204
68.16956 1098
68.18967 1135
68.20979 1133
68.2299 1145
68.25001 1197
68.27013 1250
68.29024 1217
68.31035 1131
68.33047 991
68.35058 780
68.3707 690
68.39081 674
68.41092 615
68.43104 596
68.45115 569
68.47126 600
68.49138 537
68.51149 463
68.5316 463
68.55172 383
68.57183 357
68.59195 314
68.61206 324
68.63217 285
68.65229 304
68.6724 333
68.69251 293
68.71263 322
68.73274 321
68.75286 294
68.77297 289
68.79308 273
68.8132 289
68.83331 313
68.85342 281
68.87354 295
68.89365 300
68.91376 274
68.93388 281
68.95399 271
68.97411 274
68.99422 278
69.01433 273
69.03445 258
69.05456 260
69.07467 288
69.09479 262
69.1149 255
69.13502 254
69.15513 286
69.17524 257
69.19536 291
69.21547 249
69.23558 287
69.2557 264
69.27581 289
69.29593 269
69.31604 269
69.33615 277
69.35627 272
69.37638 270
69.39649 262
69.41661 280
69.43672 260
69.45683 295
69.47695 275
69.49706 293
69.51718 270
69.53729 270
69.5574 278
69.57752 275
69.59763 272
69.61774 269
69.63786 284
69.65797 278
69.67809 260
69.6982 285
69.71831 264
69.73843 246
69.75854 277
69.77865 258
69.79877 293
69.81888 273
69.839 246
69.85911 273
69.87922 254
69.89934 269
69.91945 268
69.93956 278
69.95968 269
69.97979 274
69.9999 256
70.02002 263
70.04013 242
70.06025 296
70.08036 276
70.10047 280
70.12059 266
70.1407 232
70.16081 248
70.18093 279
70.20104 269
70.22116 275
70.24127 252
70.26138 288
70.2815 297
70.30161 275
70.32172 252
70.34184 274
70.36195 259
70.38207 278
70.40218 250
70.42229 252
70.44241 261
70.46252 258
70.48263 251
70.50275 257
70.52286 273
70.54297 246
70.56309 259
70.5832 255
70.60332 263
70.62343 238
70.64354 242
70.66366 248
70.68377 227
70.70388 241
70.724 255
70.74411 256
70.76423 241
70.78434 257
70.80445 255
70.82457 243
70.84468 246
70.86479 280
70.88491 234
70.90502 269
70.92513 273
70.94525 240
70.96536 289
70.98548 229
71.00559 252
71.0257 262
71.04582 222
71.06593 263
71.08604 261
71.10616 245
71.12627 263
71.14639 261
71.1665 265
71.18661 243
71.20673 272
71.22684 257
71.24695 266
71.26707 247
71.28718 268
71.3073 236
71.32741 242
71.34752 254
71.36764 226
71.38775 245
71.40786 266
71.42798 269
71.44809 268
71.4682 271
71.48832 242
71.50843 259
71.52855 265
71.54866 279
71.56877 262
71.58889 251
71.609 256
71.62911 246
71.64923 282
71.66934 230
71.68946 284
71.70957 242
71.72968 244
71.7498 265
71.76991 240
71.79002 248
71.81014 272
71.83025 271
71.85037 275
71.87048 282
71.89059 289
71.91071 264
71.93082 265
71.95093 262
71.97105 256
71.99116 273
72.01127 273
72.03139 252
72.0515 263
72.07162 273
72.09173 250
72.11184 279
72.13196 283
72.15207 263
72.17218 282
72.1923 265
72.21241 274
72.23253 253
72.25264 250
72.27275 263
72.29287 270
72.31298 251
72.33309 276
72.35321 267
72.37332 301
72.39344 277
72.41355 252
72.43366 260
72.45378 238
72.47389 244
72.494 249
72.51412 245
72.53423 253
72.55434 266
72.57446 265
72.59457 254
72.61469 258
72.6348 261
72.65491 238
72.67503 262
72.69514 269
72.71525 260
72.73537 217
72.75548 263
72.7756 240
72.79571 245
72.81582 249
72.83594 239
72.85605 266
72.87616 258
72.89628 259
72.91639 255
72.9365 265
72.95662 247
72.97673 266
72.99685 263
73.01696 219
73.03707 239
73.05719 263
73.0773 254
73.09741 261
73.11753 251
73.13764 279
73.15776 298
73.17787 307
73.19798 284
73.2181 325
73.23821 322
73.25832 363
73.27844 353
73.29855 313
73.31867 360
73.33878 417
73.35889 441
73.37901 487
73.39912 524
73.41923 532
73.43935 517
73.45946 493
73.47957 464
73.49969 445
73.5198 392
73.53992 356
73.56003 378
73.58014 381
73.60026 404
73.62037 376
73.64048 381
73.6606 386
73.68071 301
73.70083 349
73.72094 363
73.74105 269
73.76117 290
73.78128 273
73.80139 274
73.82151 282
73.84162 257
73.86174 264
73.88185 263
73.90196 275
73.92208 243
73.94219 263
73.9623 253
73.98242 273
74.00253 274
74.02264 274
74.04276 237
74.06287 280
74.08299 284
74.1031 224
74.12321 221
74.14333 238
74.16344 292
74.18355 269
74.20367 285
74.22378 249
74.2439 261
74.26401 234
74.28412 249
74.30424 273
74.32435 239
74.34446 262
74.36458 253
74.38469 235
74.40481 249
74.42492 241
74.44503 244
74.46515 263
74.48526 252
74.50537 239
74.52549 263
74.5456 238
74.56571 240
74.58583 281
74.60594 254
74.62606 265
74.64617 247
74.66628 248
74.6864 272
74.70651 235
74.72662 254
74.74674 246
74.76685 266
74.78697 262
74.80708 252
74.82719 242
74.84731 251
74.86742 257
74.88753 283
74.90765 249
74.92776 245
74.94787 245
74.96799 257
74.9881 260
75.00822 249
