3.00117 20101
3.02128 19549
3.0414 18777
3.06151 18349
3.08162 17609
3.10174 17479
3.12185 16788
3.14197 16477
3.16208 16004
3.18219 15382
3.20231 15400
3.22242 14393
3.24253 14021
3.26265 13944
3.28276 13122
3.30288 12901
3.32299 12326
3.3431 12193
3.36322 11641
3.38333 11233
3.40344 10976
3.42356 10364
3.44367 10235
3.46379 9732
3.4839 9209
3.50401 9380
3.52413 8884
3.54424 8540
3.56435 8283
3.58447 7947
3.60458 7639
3.62469 7225
3.64481 6975
3.66492 6844
3.68504 6470
3.70515 6274
3.72526 5833
3.74538 5808
3.76549 5576
3.7856 5181
3.80572 5263
3.82583 4867
3.84595 4701
3.86606 4351
3.88617 4179
3.90629 4081
3.9264 3885
3.94651 3616
3.96663 3538
3.98674 3203
4.00686 3339
4.02697 2970
4.04708 2914
4.0672 2822
4.08731 2796
4.10742 2796
4.12754 2519
4.14765 2423
4.16776 2315
4.18788 2218
4.20799 2073
4.22811 2111
4.24822 1945
4.26833 1818
4.28845 1717
4.30856 1786
4.32867 1751
4.34879 1591
4.3689 1599
4.38902 1541
4.40913 1618
4.42924 1496
4.44936 1392
4.46947 1352
4.48958 1419
4.5097 1275
4.52981 1283
4.54992 1232
4.57004 1192
4.59015 1115
4.61027 1193
4.63038 1168
4.65049 1089
4.67061 1111
4.69072 1110
4.71083 1050
4.73095 1055
4.75106 1027
4.77118 978
4.79129 909
4.8114 974
4.83152 914
4.85163 832
4.87174 894
4.89186 805
4.91197 866
4.93209 865
4.9522 766
4.97231 705
4.99243 782
5.01254 759
5.03265 733
5.05277 706
5.07288 623
5.09299 681
5.11311 672
5.13322 700
5.15334 621
5.17345 659
5.19356 635
5.21368 591
5.23379 616
5.2539 528
5.27402 524
5.29413 555
5.31425 518
5.33436 526
5.35447 486
5.37459 460
5.3947 512
5.41481 483
5.43493 447
5.45504 440
5.47516 469
5.49527 456
5.51538 469
5.5355 390
5.55561 424
5.57572 364
5.59584 360
5.61595 396
5.63606 366
5.65618 387
5.67629 372
5.69641 390
5.71652 352
5.73663 372
5.75675 353
5.77686 352
5.79697 335
5.81709 331
5.8372 349
5.85732 348
5.87743 355
5.89754 340
5.91766 343
5.93777 336
5.95788 325
5.978 310
5.99811 284
6.01823 289
6.03834 311
6.05845 320
6.07857 270
6.09868 329
6.11879 300
6.13891 316
6.15902 321
6.17913 316
6.19925 283
6.21936 322
6.23948 271
6.25959 280
6.2797 310
6.29982 281
6.31993 269
6.34004 269
6.36016 308
6.38027 266
6.40039 307
6.4205 299
6.44061 237
6.46073 272
6.48084 305
6.50095 263
6.52107 280
6.54118 300
6.56129 298
6.58141 244
6.60152 238
6.62164 244
6.64175 245
6.66186 227
6.68198 250
6.70209 249
6.7222 275
6.74232 262
6.76243 256
6.78255 264
6.80266 225
6.82277 285
6.84289 276
6.863 278
6.88311 236
6.90323 279
6.92334 248
6.94346 265
6.96357 236
6.98368 248
7.0038 241
7.02391 235
7.04402 290
7.06414 232
7.08425 239
7.10436 229
7.12448 248
7.14459 269
7.16471 243
7.18482 247
7.20493 290
7.22505 277
7.24516 256
7.26527 276
7.28539 231
7.3055 283
7.32562 217
7.34573 247
7.36584 263
7.38596 280
7.40607 308
7.42618 226
7.4463 281
7.46641 284
7.48653 271
7.50664 269
7.52675 254
7.54687 249
7.56698 274
7.58709 280
7.60721 260
7.62732 245
7.64743 263
7.66755 288
7.68766 260
7.70778 296
7.72789 239
7.748 271
7.76812 274
7.78823 274
7.80834 244
7.82846 267
7.84857 267
7.86869 253
7.8888 259
7.90891 258
7.92903 267
7.94914 247
7.96925 302
7.98937 275
8.00948 263
8.0296 256
8.04971 288
8.06982 267
8.08994 310
8.11005 279
8.13016 262
8.15028 298
8.17039 289
8.1905 292
8.21062 273
8.23073 290
8.25085 279
8.27096 298
8.29107 330
8.31119 280
8.3313 280
8.35141 255
8.37153 262
8.39164 276
8.41176 274
8.43187 280
8.45198 251
8.4721 290
8.49221 273
8.51232 270
8.53244 296
8.55255 253
8.57266 297
8.59278 282
8.61289 298
8.63301 286
8.65312 292
8.67323 316
8.69335 318
8.71346 298
8.73357 313
8.75369 299
8.7738 272
8.79392 332
8.81403 313
8.83414 302
8.85426 330
8.87437 313
8.89448 304
8.9146 321
8.93471 282
8.95483 256
8.97494 276
8.99505 270
9.01517 314
9.03528 293
9.05539 273
9.07551 242
9.09562 305
9.11573 285
9.13585 252
9.15596 253
9.17608 267
9.19619 250
9.2163 297
9.23642 282
9.25653 242
9.27664 244
9.29676 267
9.31687 281
9.33699 259
9.3571 277
9.37721 263
9.39733 226
9.41744 259
9.43755 278
9.45767 234
9.47778 230
9.4979 246
9.51801 264
9.53812 262
9.55824 255
9.57835 272
9.59846 247
9.61858 256
9.63869 271
9.6588 247
9.67892 257
9.69903 228
9.71915 273
9.73926 265
9.75937 284
9.77949 269
9.7996 247
9.81971 239
9.83983 228
9.85994 224
9.88006 223
9.90017 250
9.92028 225
9.9404 227
9.96051 267
9.98062 245
10.00074 257
10.02085 248
10.04097 265
10.06108 244
10.08119 238
10.10131 248
10.12142 239
10.14153 225
10.16165 252
10.18176 240
10.20187 243
10.22199 270
10.2421 244
10.26222 264
10.28233 300
10.30244 230
10.32256 278
10.34267 266
10.36278 204
10.3829 256
10.40301 243
10.42313 234
10.44324 238
10.46335 260
10.48347 240
10.50358 237
10.52369 284
10.54381 230
10.56392 239
10.58403 257
10.60415 249
10.62426 266
10.64438 248
10.66449 245
10.6846 235
10.70472 244
10.72483 247
10.74494 257
10.76506 224
10.78517 231
10.80529 242
10.8254 273
10.84551 249
10.86563 253
10.88574 245
10.90585 249
10.92597 245
10.94608 273
10.9662 244
10.98631 260
11.00642 246
11.02654 300
11.04665 255
11.06676 251
11.08688 210
11.10699 245
11.1271 239
11.14722 194
11.16733 279
11.18745 280
11.20756 250
11.22767 267
11.24779 276
11.2679 260
11.28801 276
11.30813 256
11.32824 269
11.34836 241
11.36847 246
11.38858 274
11.4087 253
11.42881 260
11.44892 264
11.46904 231
11.48915 218
11.50927 250
11.52938 256
11.54949 310
11.56961 274
11.58972 238
11.60983 230
11.62995 247
11.65006 216
11.67017 261
11.69029 234
11.7104 258
11.73052 268
11.75063 256
11.77074 272
11.79086 249
11.81097 230
11.83108 257
11.8512 242
11.87131 254
11.89143 268
11.91154 262
11.93165 268
11.95177 310
11.97188 264
11.99199 282
12.01211 263
12.03222 293
12.05234 247
12.07245 267
12.09256 235
12.11268 256
12.13279 272
12.1529 274
12.17302 260
12.19313 266
12.21324 296
12.23336 329
12.25347 310
12.27359 287
12.2937 269
12.31381 263
12.33393 229
12.35404 262
12.37415 287
12.39427 290
12.41438 258
12.4345 257
12.45461 261
12.47472 275
12.49484 298
12.51495 282
12.53506 225
12.55518 278
12.57529 246
12.5954 245
12.61552 240
12.63563 274
12.65575 258
12.67586 226
12.69597 242
12.71609 264
12.7362 240
12.75631 218
12.77643 228
12.79654 241
12.81666 247
12.83677 208
12.85688 252
12.877 234
12.89711 232
12.91722 268
12.93734 236
12.95745 231
12.97757 230
12.99768 237
13.01779 227
13.03791 224
13.05802 226
13.07813 241
13.09825 209
13.11836 243
13.13847 244
13.15859 237
13.1787 209
13.19882 255
13.21893 210
13.23904 239
13.25916 237
13.27927 230
13.29938 221
13.3195 229
13.33961 250
13.35973 216
13.37984 256
13.39995 220
13.42007 250
13.44018 220
13.46029 195
13.48041 216
13.50052 220
13.52064 206
13.54075 178
13.56086 217
13.58098 224
13.60109 216
13.6212 225
13.64132 220
13.66143 252
13.68154 204
13.70166 213
13.72177 223
13.74189 220
13.762 207
13.78211 220
13.80223 258
13.82234 247
13.84245 247
13.86257 232
13.88268 226
13.9028 202
13.92291 231
13.94302 216
13.96314 215
13.98325 238
14.00336 225
14.02348 204
14.04359 243
14.06371 213
14.08382 225
14.10393 228
14.12405 219
14.14416 195
14.16427 207
14.18439 204
14.2045 227
14.22461 211
14.24473 206
14.26484 215
14.28496 241
14.30507 207
14.32518 205
14.3453 229
14.36541 207
14.38552 202
14.40564 196
14.42575 204
14.44587 190
14.46598 179
14.48609 204
14.50621 193
14.52632 216
14.54643 222
14.56655 208
14.58666 208
14.60677 215
14.62689 207
14.647 202
14.66712 208
14.68723 202
14.70734 206
14.72746 206
14.74757 203
14.76768 182
14.7878 190
14.80791 229
14.82803 221
14.84814 190
14.86825 204
14.88837 201
14.90848 190
14.92859 204
14.94871 205
14.96882 210
14.98894 200
15.00905 221
15.02916 218
15.04928 173
15.06939 181
15.0895 213
15.10962 219
15.12973 203
15.14984 198
15.16996 228
15.19007 223
15.21019 183
15.2303 196
15.25041 197
15.27053 179
15.29064 216
15.31075 174
15.33087 227
15.35098 199
15.3711 187
15.39121 176
15.41132 212
15.43144 194
15.45155 186
15.47166 194
15.49178 191
15.51189 179
15.53201 220
15.55212 206
15.57223 198
15.59235 175
15.61246 170
15.63257 206
15.65269 194
15.6728 195
15.69291 184
15.71303 198
15.73314 210
15.75326 197
15.77337 196
15.79348 223
15.8136 202
15.83371 174
15.85382 199
15.87394 208
15.89405 189
15.91417 173
15.93428 181
15.95439 187
15.97451 185
15.99462 226
16.01473 204
16.03485 203
16.05496 205
16.07508 193
16.09519 206
16.1153 187
16.13542 200
16.15553 221
16.17564 172
16.19576 195
16.21587 191
16.23598 191
16.2561 215
16.27621 199
16.29633 188
16.31644 205
16.33655 211
16.35667 149
16.37678 203
16.39689 209
16.41701 193
16.43712 192
16.45724 206
16.47735 202
16.49746 225
16.51758 224
16.53769 207
16.5578 197
16.57792 210
16.59803 190
16.61814 174
16.63826 182
16.65837 212
16.67849 225
16.6986 201
16.71871 184
16.73883 174
16.75894 195
16.77905 179
16.79917 174
16.81928 186
16.8394 190
16.85951 189
16.87962 175
16.89974 206
16.91985 201
16.93996 198
16.96008 203
16.98019 178
17.00031 141
17.02042 190
17.04053 190
17.06065 166
17.08076 190
17.10087 193
17.12099 183
17.1411 205
17.16121 194
17.18133 197
17.20144 207
17.22156 195
17.24167 183
17.26178 206
17.2819 198
17.30201 190
17.32212 209
17.34224 212
17.36235 203
17.38247 203
17.40258 193
17.42269 207
17.44281 204
17.46292 215
17.48303 192
17.50315 188
17.52326 203
17.54338 214
17.56349 189
17.5836 219
17.60372 218
17.62383 197
17.64394 230
17.66406 218
17.68417 203
17.70428 230
17.7244 239
17.74451 220
17.76463 217
17.78474 218
17.80485 199
17.82497 225
17.84508 212
17.86519 212
17.88531 198
17.90542 246
17.92554 195
17.94565 211
17.96576 204
17.98588 222
18.00599 218
18.0261 190
18.04622 209
18.06633 201
18.08645 199
18.10656 222
18.12667 203
18.14679 194
18.1669 201
18.18701 194
18.20713 210
18.22724 213
18.24735 184
18.26747 199
18.28758 187
18.3077 177
18.32781 205
18.34792 207
18.36804 185
18.38815 199
18.40826 197
18.42838 183
18.44849 201
18.46861 208
18.48872 192
18.50883 204
18.52895 178
18.54906 217
18.56917 222
18.58929 205
18.6094 203
18.62951 193
18.64963 205
18.66974 240
18.68986 194
18.70997 203
18.73008 195
18.7502 187
18.77031 209
18.79042 204
18.81054 211
18.83065 198
18.85077 189
18.87088 200
18.89099 199
18.91111 211
18.93122 216
18.95133 183
18.97145 203
18.99156 213
19.01168 195
19.03179 200
19.0519 178
19.07202 224
19.09213 198
19.11224 198
19.13236 190
19.15247 230
19.17258 195
19.1927 214
19.21281 220
19.23293 189
19.25304 203
19.27315 212
19.29327 184
19.31338 224
19.33349 227
19.35361 195
19.37372 195
19.39384 210
19.41395 179
19.43406 217
19.45418 218
19.47429 229
19.4944 248
19.51452 247
19.53463 233
19.55475 273
19.57486 271
19.59497 314
19.61509 346
19.6352 371
19.65531 369
19.67543 394
19.69554 475
19.71565 491
19.73577 490
19.75588 458
19.776 455
19.79611 492
19.81622 490
19.83634 532
19.85645 527
19.87656 482
19.89668 468
19.91679 479
19.93691 442
19.95702 376
19.97713 387
19.99725 370
20.01736 375
20.03747 350
20.05759 359
20.0777 379
20.09782 379
20.11793 368
20.13804 340
20.15816 381
20.17827 359
20.19838 373
20.2185 406
20.23861 358
20.25872 386
20.27884 377
20.29895 370
20.31907 386
20.33918 400
20.35929 390
20.37941 409
20.39952 397
20.41963 427
20.43975 420
20.45986 426
20.47998 423
20.50009 478
20.5202 478
20.54032 516
20.56043 512
20.58054 475
20.60066 632
20.62077 670
20.64088 725
20.661 876
20.68111 1168
20.70123 1541
20.72134 2016
20.74145 2785
20.76157 3747
20.78168 4627
20.80179 5773
20.82191 6473
20.84202 6455
20.86214 6201
20.88225 5153
20.90236 3703
20.92248 2638
20.94259 1797
20.9627 1189
20.98282 811
21.00293 644
21.02305 547
21.04316 560
21.06327 459
21.08339 463
21.1035 463
21.12361 469
21.14373 436
21.16384 452
21.18395 384
21.20407 399
21.22418 378
21.2443 363
21.26441 353
21.28452 358
21.30464 348
21.32475 354
21.34486 342
21.36498 318
21.38509 325
21.40521 331
21.42532 310
21.44543 329
21.46555 331
21.48566 320
21.50577 318
21.52589 327
21.546 282
21.56612 331
21.58623 292
21.60634 285
21.62646 263
21.64657 294
21.66668 295
21.6868 346
21.70691 304
21.72702 322
21.74714 300
21.76725 304
21.78737 292
21.80748 291
21.82759 304
21.84771 294
21.86782 266
21.88793 303
21.90805 276
21.92816 284
21.94828 316
21.96839 319
21.9885 322
22.00862 295
22.02873 317
22.04884 308
22.06896 322
22.08907 323
22.10919 306
22.1293 277
22.14941 275
22.16953 263
22.18964 265
22.20975 274
22.22987 282
22.24998 257
22.27009 256
22.29021 288
22.31032 294
22.33044 259
22.35055 276
22.37066 275
22.39078 314
22.41089 258
22.431 272
22.45112 294
22.47123 277
22.49135 276
22.51146 278
22.53157 258
22.55169 238
22.5718 271
22.59191 244
22.61203 274
22.63214 255
22.65225 288
22.67237 247
22.69248 270
22.7126 239
22.73271 250
22.75282 276
22.77294 286
22.79305 292
22.81316 295
22.83328 263
22.85339 289
22.87351 298
22.89362 268
22.91373 272
22.93385 270
22.95396 259
22.97407 254
22.99419 287
23.0143 279
23.03442 279
23.05453 279
23.07464 272
23.09476 266
23.11487 261
23.13498 247
23.1551 264
23.17521 255
23.19532 250
23.21544 240
23.23555 265
23.25567 253
23.27578 273
23.29589 257
23.31601 267
23.33612 271
23.35623 263
23.37635 269
23.39646 276
23.41658 220
23.43669 287
23.4568 288
23.47692 242
23.49703 273
23.51714 300
23.53726 292
23.55737 294
23.57749 246
23.5976 277
23.61771 294
23.63783 275
23.65794 241
23.67805 269
23.69817 272
23.71828 289
23.73839 273
23.75851 291
23.77862 301
23.79874 288
23.81885 285
23.83896 294
23.85908 301
23.87919 296
23.8993 310
23.91942 329
23.93953 314
23.95965 322
23.97976 313
23.99987 341
24.01999 328
24.0401 371
24.06021 318
24.08033 305
24.10044 328
24.12056 304
24.14067 325
24.16078 313
24.1809 335
24.20101 333
24.22112 296
24.24124 305
24.26135 305
24.28146 325
24.30158 309
24.32169 315
24.34181 274
24.36192 328
24.38203 293
24.40215 274
24.42226 267
24.44237 269
24.46249 267
24.4826 274
24.50272 302
24.52283 289
24.54294 310
24.56306 278
24.58317 270
24.60328 293
24.6234 283
24.64351 279
24.66362 292
24.68374 293
24.70385 289
24.72397 284
24.74408 271
24.76419 272
24.78431 291
24.80442 289
24.82453 293
24.84465 293
24.86476 278
24.88488 299
24.90499 301
24.9251 268
24.94522 323
24.96533 294
24.98544 313
25.00556 295
25.02567 317
25.04579 289
25.0659 338
25.08601 319
25.10613 305
25.12624 300
25.14635 315
25.16647 326
25.18658 315
25.20669 331
25.22681 343
25.24692 348
25.26704 356
25.28715 330
25.30726 356
25.32738 354
25.34749 371
25.3676 324
25.38772 331
25.40783 352
25.42795 383
25.44806 349
25.46817 330
25.48829 321
25.5084 373
25.52851 336
25.54863 335
25.56874 372
25.58886 302
25.60897 359
25.62908 351
25.6492 365
25.66931 429
25.68942 435
25.70954 454
25.72965 471
25.74976 503
25.76988 488
25.78999 507
25.81011 483
25.83022 492
25.85033 463
25.87045 500
25.89056 498
25.91067 542
25.93079 500
25.9509 468
25.97102 555
25.99113 555
26.01124 537
26.03136 573
26.05147 616
26.07158 667
26.0917 656
26.11181 674
26.13193 741
26.15204 793
26.17215 763
26.19227 899
26.21238 961
26.23249 967
26.25261 1043
26.27272 1143
26.29283 1257
26.31295 1328
26.33306 1469
26.35318 1657
26.37329 2030
26.3934 2478
26.41352 3139
26.43363 4032
26.45374 5186
26.47386 7035
26.49397 9576
26.51409 12875
26.5342 17175
26.55431 21894
26.57443 26414
26.59454 29839
26.61465 30147
26.63477 29055
26.65488 24286
26.67499 19061
26.69511 14541
26.71522 10264
26.73534 6759
26.75545 4297
26.77556 2832
26.79568 2086
26.81579 1725
26.8359 1586
26.85602 1341
26.87613 1228
26.89625 1125
26.91636 986
26.93647 883
26.95659 861
26.9767 782
26.99681 716
27.01693 664
27.03704 656
27.05716 574
27.07727 534
27.09738 554
27.1175 593
27.13761 504
27.15772 484
27.17784 486
27.19795 439
27.21806 428
27.23818 493
27.25829 454
27.27841 439
27.29852 423
27.31863 391
27.33875 447
27.35886 399
27.37897 421
27.39909 421
27.4192 406
27.43932 405
27.45943 397
27.47954 388
27.49966 365
27.51977 387
27.53988 380
27.56 399
27.58011 359
27.60023 377
27.62034 386
27.64045 356
27.66057 412
27.68068 439
27.70079 412
27.72091 437
27.74102 388
27.76113 388
27.78125 434
27.80136 404
27.82148 411
27.84159 443
27.8617 449
27.88182 450
27.90193 478
27.92204 438
27.94216 425
27.96227 385
27.98239 388
28.0025 400
28.02261 378
28.04273 353
28.06284 368
28.08295 354
28.10307 341
28.12318 362
28.1433 323
28.16341 363
28.18352 304
28.20364 334
28.22375 325
28.24386 336
28.26398 317
28.28409 330
28.3042 295
28.32432 324
28.34443 302
28.36455 336
28.38466 291
28.40477 278
28.42489 301
28.445 300
28.46511 293
28.48523 295
28.50534 306
28.52546 319
28.54557 308
28.56568 295
28.5858 258
28.60591 259
28.62602 301
28.64614 306
28.66625 305
28.68636 265
28.70648 282
28.72659 292
28.74671 302
28.76682 290
28.78693 267
28.80705 269
28.82716 277
28.84727 249
28.86739 271
28.8875 279
28.90762 296
28.92773 295
28.94784 266
28.96796 290
28.98807 280
29.00818 287
29.0283 283
29.04841 303
29.06853 275
29.08864 292
29.10875 269
29.12887 284
29.14898 290
29.16909 241
29.18921 242
29.20932 279
29.22943 259
29.24955 260
29.26966 236
29.28978 258
29.30989 273
29.33 273
29.35012 247
29.37023 243
29.39034 278
29.41046 282
29.43057 270
29.45069 285
29.4708 251
29.49091 242
29.51103 257
29.53114 244
29.55125 255
29.57137 281
29.59148 267
29.6116 241
29.63171 291
29.65182 297
29.67194 259
29.69205 290
29.71216 297
29.73228 248
29.75239 256
29.7725 270
29.79262 291
29.81273 310
29.83285 264
29.85296 273
29.87307 265
29.89319 284
29.9133 259
29.93341 243
29.95353 272
29.97364 281
29.99376 267
30.01387 268
30.03398 276
30.0541 249
30.07421 276
30.09432 278
30.11444 241
30.13455 269
30.15467 242
30.17478 298
30.19489 266
30.21501 258
30.23512 285
30.25523 258
30.27535 276
30.29546 261
30.31557 237
30.33569 271
30.3558 238
30.37592 275
30.39603 248
30.41614 274
30.43626 286
30.45637 297
30.47648 278
30.4966 252
30.51671 262
30.53683 242
30.55694 237
30.57705 257
30.59717 245
30.61728 226
30.63739 254
30.65751 257
30.67762 239
30.69773 241
30.71785 251
30.73796 238
30.75808 233
30.77819 255
30.7983 224
30.81842 244
30.83853 261
30.85864 237
30.87876 256
30.89887 250
30.91899 249
30.9391 251
30.95921 230
30.97933 229
30.99944 250
31.01955 232
31.03967 234
31.05978 273
31.0799 224
31.10001 244
31.12012 255
31.14024 260
31.16035 245
31.18046 265
31.20058 270
31.22069 280
31.2408 234
31.26092 229
31.28103 268
31.30115 232
31.32126 266
31.34137 230
31.36149 209
31.3816 231
31.40171 233
31.42183 225
31.44194 220
31.46206 236
31.48217 244
31.50228 207
31.5224 193
31.54251 222
31.56262 205
31.58274 227
31.60285 231
31.62297 231
31.64308 218
31.66319 207
31.68331 206
31.70342 223
31.72353 203
31.74365 226
31.76376 203
31.78387 225
31.80399 247
31.8241 216
31.84422 228
31.86433 188
31.88444 235
31.90456 242
31.92467 217
31.94478 202
31.9649 234
31.98501 230
32.00513 212
32.02524 210
32.04535 196
32.06547 194
32.08558 210
32.10569 224
32.12581 210
32.14592 202
32.16604 219
32.18615 210
32.20626 204
32.22638 198
32.24649 221
32.2666 193
32.28672 193
32.30683 198
32.32694 201
32.34706 202
32.36717 187
32.38729 215
32.4074 197
32.42751 196
32.44763 213
32.46774 209
32.48785 196
32.50797 201
32.52808 201
32.5482 194
32.56831 224
32.58842 182
32.60854 206
32.62865 203
32.64876 244
32.66888 187
32.68899 186
32.7091 174
32.72922 212
32.74933 208
32.76945 211
32.78956 231
32.80967 207
32.82979 198
32.8499 176
32.87001 162
32.89013 199
32.91024 231
32.93036 218
32.95047 219
32.97058 222
32.9907 231
33.01081 204
33.03092 204
33.05104 231
33.07115 229
33.09127 220
33.11138 231
33.13149 263
33.15161 220
33.17172 211
33.19183 197
33.21195 235
33.23206 216
33.25217 255
33.27229 260
33.2924 223
33.31252 242
33.33263 212
33.35274 227
33.37286 184
33.39297 192
33.41308 195
33.4332 184
33.45331 211
33.47343 194
33.49354 209
33.51365 200
33.53377 225
33.55388 182
33.57399 190
33.59411 179
33.61422 179
33.63434 211
33.65445 183
33.67456 204
33.69468 201
33.71479 222
33.7349 187
33.75502 204
33.77513 209
33.79524 189
33.81536 200
33.83547 183
33.85559 210
33.8757 187
33.89581 210
33.91593 197
33.93604 194
33.95615 208
33.97627 178
33.99638 202
34.0165 182
34.03661 181
34.05672 207
34.07684 201
34.09695 194
34.11706 183
34.13718 188
34.15729 213
34.17741 237
34.19752 199
34.21763 174
34.23775 215
34.25786 224
34.27797 207
34.29809 209
34.3182 195
34.33831 253
34.35843 215
34.37854 235
34.39866 263
34.41877 241
34.43888 238
34.459 284
34.47911 283
34.49922 297
34.51934 301
34.53945 280
34.55957 310
34.57968 316
34.59979 342
34.61991 325
34.64002 321
34.66013 307
34.68025 334
34.70036 355
34.72047 378
34.74059 358
34.7607 363
34.78082 342
34.80093 358
34.82104 400
34.84116 418
34.86127 404
34.88138 397
34.9015 391
34.92161 427
34.94173 400
34.96184 427
34.98195 416
35.00207 394
35.02218 352
35.04229 353
35.06241 330
35.08252 316
35.10264 327
35.12275 319
35.14286 284
35.16298 274
35.18309 316
35.2032 276
35.22332 279
35.24343 269
35.26354 253
35.28366 260
35.30377 250
35.32389 237
35.344 256
35.36411 231
35.38423 287
35.40434 279
35.42445 271
35.44457 275
35.46468 242
35.4848 274
35.50491 287
35.52502 266
35.54514 303
35.56525 266
35.58536 262
35.60548 262
35.62559 263
35.64571 304
35.66582 239
35.68593 262
35.70605 264
35.72616 282
35.74627 256
35.76639 253
35.7865 292
35.80661 268
35.82673 238
35.84684 258
35.86696 250
35.88707 281
35.90718 272
35.9273 297
35.94741 244
35.96752 267
35.98764 283
36.00775 276
36.02787 263
36.04798 276
36.06809 244
36.08821 277
36.10832 286
36.12843 251
36.14855 270
36.16866 296
36.18878 299
36.20889 310
36.229 348
36.24912 325
36.26923 379
36.28934 437
36.30946 501
36.32957 552
36.34968 663
36.3698 826
36.38991 978
36.41003 1190
36.43014 1413
36.45025 1621
36.47037 1877
36.49048 2030
36.51059 2135
36.53071 1991
36.55082 1834
36.57094 1506
36.59105 1306
36.61116 1112
36.63128 886
36.65139 697
36.6715 559
36.69162 474
36.71173 386
36.73184 372
36.75196 331
36.77207 359
36.79219 339
36.8123 313
36.83241 295
36.85253 290
36.87264 275
36.89275 271
36.91287 272
36.93298 274
36.9531 282
36.97321 269
36.99332 254
37.01344 272
37.03355 243
37.05366 258
37.07378 241
37.09389 230
37.11401 228
37.13412 227
37.15423 233
37.17435 265
37.19446 262
37.21457 262
37.23469 271
37.2548 252
37.27491 252
37.29503 230
37.31514 261
37.33526 264
37.35537 240
37.37548 230
37.3956 237
37.41571 255
37.43582 244
37.45594 225
37.47605 249
37.49617 243
37.51628 248
37.53639 270
37.55651 237
37.57662 261
37.59673 245
37.61685 267
37.63696 247
37.65708 290
37.67719 262
37.6973 268
37.71742 278
37.73753 267
37.75764 261
37.77776 238
37.79787 262
37.81798 239
37.8381 259
37.85821 211
37.87833 248
37.89844 232
37.91855 236
37.93867 259
37.95878 241
37.97889 286
37.99901 227
38.01912 228
38.03924 231
38.05935 217
38.07946 243
38.09958 232
38.11969 239
38.1398 221
38.15992 248
38.18003 259
38.20015 241
38.22026 220
38.24037 245
38.26049 232
38.2806 219
38.30071 244
38.32083 247
38.34094 226
38.36105 244
38.38117 243
38.40128 217
38.4214 250
38.44151 239
38.46162 235
38.48174 215
38.50185 253
38.52196 211
38.54208 232
38.56219 268
38.58231 248
38.60242 211
38.62253 262
38.64265 219
38.66276 218
38.68287 252
38.70299 210
38.7231 235
38.74321 239
38.76333 248
38.78344 214
38.80356 202
38.82367 238
38.84378 196
38.8639 205
38.88401 222
38.90412 253
38.92424 241
38.94435 252
38.96447 229
38.98458 262
39.00469 242
39.02481 247
39.04492 246
39.06503 239
39.08515 274
39.10526 270
39.12538 295
39.14549 295
39.1656 288
39.18572 367
39.20583 354
39.22594 462
39.24606 481
39.26617 572
39.28628 721
39.3064 831
39.32651 989
39.34663 1228
39.36674 1403
39.38685 1606
39.40697 1905
39.42708 1895
39.44719 1741
39.46731 1661
39.48742 1496
39.50754 1264
39.52765 1106
39.54776 1003
39.56788 776
39.58799 642
39.6081 442
39.62822 396
39.64833 338
39.66845 336
39.68856 317
39.70867 254
39.72879 293
39.7489 266
39.76901 257
39.78913 282
39.80924 303
39.82935 233
39.84947 259
39.86958 234
39.8897 279
39.90981 290
39.92992 301
39.95004 306
39.97015 294
39.99026 308
40.01038 294
40.03049 314
40.05061 360
40.07072 371
40.09083 418
40.11095 499
40.13106 548
40.15117 648
40.17129 747
40.1914 894
40.21152 905
40.23163 995
40.25174 1080
40.27186 1001
40.29197 888
40.31208 796
40.3322 712
40.35231 672
40.37242 589
40.39254 508
40.41265 420
40.43277 355
40.45288 286
40.47299 288
40.49311 253
40.51322 236
40.53333 243
40.55345 240
40.57356 210
40.59368 236
40.61379 220
40.6339 224
40.65402 226
40.67413 244
40.69424 261
40.71436 212
40.73447 208
40.75458 237
40.7747 235
40.79481 241
40.81493 252
40.83504 253
40.85515 223
40.87527 232
40.89538 232
40.91549 215
40.93561 245
40.95572 221
40.97584 247
40.99595 196
41.01606 215
41.03618 193
41.05629 198
41.0764 227
41.09652 245
41.11663 225
41.13675 223
41.15686 222
41.17697 216
41.19709 236
41.2172 215
41.23731 221
41.25743 214
41.27754 232
41.29765 205
41.31777 249
41.33788 228
41.358 225
41.37811 257
41.39822 207
41.41834 202
41.43845 224
41.45856 186
41.47868 241
41.49879 218
41.51891 223
41.53902 232
41.55913 193
41.57925 194
41.59936 216
41.61947 234
41.63959 196
41.6597 211
41.67982 220
41.69993 208
41.72004 225
41.74016 218
41.76027 202
41.78038 232
41.8005 218
41.82061 236
41.84072 216
41.86084 228
41.88095 237
41.90107 230
41.92118 247
41.94129 259
41.96141 250
41.98152 232
42.00163 256
42.02175 264
42.04186 240
42.06198 248
42.08209 259
42.1022 307
42.12232 288
42.14243 331
42.16254 321
42.18266 379
42.20277 362
42.22289 454
42.243 492
42.26311 522
42.28323 700
42.30334 811
42.32345 956
42.34357 1068
42.36368 1278
42.38379 1349
42.40391 1412
42.42402 1373
42.44414 1207
42.46425 1072
42.48436 900
42.50448 877
42.52459 769
42.5447 704
42.56482 526
42.58493 393
42.60505 358
42.62516 316
42.64527 284
42.66539 235
42.6855 250
42.70561 223
42.72573 234
42.74584 224
42.76595 213
42.78607 209
42.80618 221
42.8263 210
42.84641 204
42.86652 191
42.88664 199
42.90675 188
42.92686 228
42.94698 220
42.96709 198
42.98721 210
43.00732 183
43.02743 197
43.04755 195
43.06766 199
43.08777 186
43.10789 179
43.128 187
43.14812 192
43.16823 210
43.18834 197
43.20846 205
43.22857 198
43.24868 191
43.2688 178
43.28891 190
43.30902 201
43.32914 194
43.34925 177
43.36937 198
43.38948 199
43.40959 186
43.42971 196
43.44982 171
43.46993 207
43.49005 210
43.51016 175
43.53028 188
43.55039 195
43.5705 212
43.59062 195
43.61073 177
43.63084 184
43.65096 220
43.67107 190
43.69119 187
43.7113 204
43.73141 203
43.75153 200
43.77164 176
43.79175 188
43.81187 204
43.83198 199
43.85209 181
43.87221 190
43.89232 171
43.91244 203
43.93255 173
43.95266 188
43.97278 171
43.99289 187
44.013 171
44.03312 167
44.05323 181
44.07335 175
44.09346 182
44.11357 208
44.13369 210
44.1538 164
44.17391 167
44.19403 204
44.21414 188
44.23426 164
44.25437 179
44.27448 186
44.2946 192
44.31471 201
44.33482 197
44.35494 179
44.37505 177
44.39516 184
44.41528 190
44.43539 204
44.45551 194
44.47562 206
44.49573 186
44.51585 214
44.53596 192
44.55607 185
44.57619 167
44.5963 213
44.61642 194
44.63653 176
44.65664 181
44.67676 189
44.69687 205
44.71698 199
44.7371 181
44.75721 193
44.77732 186
44.79744 173
44.81755 190
44.83767 161
44.85778 186
44.87789 174
44.89801 207
44.91812 197
44.93823 216
44.95835 198
44.97846 195
44.99858 203
45.01869 211
45.0388 209
45.05892 222
45.07903 195
45.09914 201
45.11926 213
45.13937 200
45.15949 215
45.1796 204
45.19971 206
45.21983 217
45.23994 206
45.26005 217
45.28017 241
45.30028 223
45.32039 243
45.34051 224
45.36062 202
45.38074 233
45.40085 215
45.42096 216
45.44108 260
45.46119 260
45.4813 307
45.50142 275
45.52153 295
45.54165 301
45.56176 362
45.58187 391
45.60199 474
45.6221 493
45.64221 586
45.66233 655
45.68244 757
45.70256 844
45.72267 916
45.74278 982
45.7629 859
45.78301 881
45.80312 797
45.82324 643
45.84335 629
45.86346 586
45.88358 526
45.90369 491
45.92381 439
45.94392 312
45.96403 281
45.98415 232
46.00426 283
46.02437 215
46.04449 219
46.0646 234
46.08472 219
46.10483 200
46.12494 195
46.14506 197
46.16517 201
46.18528 190
46.2054 184
46.22551 173
46.24563 168
46.26574 195
46.28585 213
46.30597 194
46.32608 164
46.34619 177
46.36631 190
46.38642 187
46.40653 185
46.42665 198
46.44676 177
46.46688 187
46.48699 186
46.5071 157
46.52722 187
46.54733 199
46.56744 172
46.58756 183
46.60767 188
46.62779 165
46.6479 158
46.66801 157
46.68813 170
46.70824 211
46.72835 180
46.74847 149
46.76858 200
46.78869 174
46.80881 179
46.82892 168
46.84904 182
46.86915 173
46.88926 158
46.90938 190
46.92949 169
46.9496 184
46.96972 179
46.98983 147
47.00995 205
47.03006 188
47.05017 178
47.07029 192
47.0904 181
47.11051 172
47.13063 167
47.15074 156
47.17086 165
47.19097 181
47.21108 180
47.2312 159
47.25131 190
47.27142 157
47.29154 185
47.31165 172
47.33176 162
47.35188 204
47.37199 171
47.39211 171
47.41222 159
47.43233 162
47.45245 151
47.47256 180
47.49267 161
47.51279 139
47.5329 160
47.55302 174
47.57313 174
47.59324 160
47.61336 152
47.63347 162
47.65358 164
47.6737 167
47.69381 146
47.71393 181
47.73404 170
47.75415 165
47.77427 182
47.79438 170
47.81449 172
47.83461 162
47.85472 180
47.87483 169
47.89495 160
47.91506 166
47.93518 173
47.95529 183
47.9754 170
47.99552 188
48.01563 175
48.03574 177
48.05586 161
48.07597 187
48.09609 152
48.1162 168
48.13631 155
48.15643 162
48.17654 178
48.19665 179
48.21677 167
48.23688 185
48.257 179
48.27711 185
48.29722 168
48.31734 185
48.33745 169
48.35756 186
48.37768 187
48.39779 183
48.4179 186
48.43802 170
48.45813 162
48.47825 190
48.49836 134
48.51847 186
48.53859 146
48.5587 155
48.57881 185
48.59893 174
48.61904 166
48.63916 184
48.65927 175
48.67938 194
48.6995 161
48.71961 196
48.73972 156
48.75984 179
48.77995 154
48.80006 179
48.82018 190
48.84029 179
48.86041 180
48.88052 159
48.90063 168
48.92075 186
48.94086 180
48.96097 168
48.98109 179
49.0012 167
49.02132 173
49.04143 183
49.06154 181
49.08166 187
49.10177 163
49.12188 189
49.142 201
49.16211 208
49.18223 179
49.20234 203
49.22245 174
49.24257 200
49.26268 185
49.28279 205
49.30291 183
49.32302 193
49.34313 189
49.36325 178
49.38336 221
49.40348 201
49.42359 250
49.4437 181
49.46382 206
49.48393 237
49.50404 203
49.52416 228
49.54427 204
49.56439 212
49.5845 250
49.60461 278
49.62473 272
49.64484 262
49.66495 263
49.68507 266
49.70518 306
49.7253 314
49.74541 323
49.76552 364
49.78564 406
49.80575 421
49.82586 452
49.84598 506
49.86609 541
49.8862 662
49.90632 844
49.92643 946
49.94655 1098
49.96666 1398
49.98677 1618
50.00689 1933
50.027 2265
50.04711 2548
50.06723 2868
50.08734 2913
50.10746 2860
50.12757 2590
50.14768 2319
50.1678 1963
50.18791 1857
50.20802 1692
50.22814 1586
50.24825 1315
50.26837 1036
50.28848 832
50.30859 623
50.32871 491
50.34882 403
50.36893 414
50.38905 358
50.40916 315
50.42927 281
50.44939 283
50.4695 297
50.48962 274
50.50973 322
50.52984 267
50.54996 277
50.57007 260
50.59018 279
50.6103 262
50.63041 267
50.65053 239
50.67064 223
50.69075 224
50.71087 220
50.73098 209
50.75109 218
50.77121 190
50.79132 176
50.81143 206
50.83155 186
50.85166 178
50.87178 196
50.89189 187
50.912 198
50.93212 207
50.95223 167
50.97234 190
50.99246 189
51.01257 196
51.03269 188
51.0528 174
51.07291 176
51.09303 178
51.11314 180
51.13325 192
51.15337 197
51.17348 178
51.1936 165
51.21371 195
51.23382 181
51.25394 193
51.27405 198
51.29416 173
51.31428 165
51.33439 167
51.3545 163
51.37462 168
51.39473 183
51.41485 143
51.43496 172
51.45507 158
51.47519 175
51.4953 180
51.51541 179
51.53553 169
51.55564 165
51.57576 153
51.59587 171
51.61598 190
51.6361 166
51.65621 176
51.67632 146
51.69644 177
51.71655 158
51.73667 179
51.75678 155
51.77689 154
51.79701 145
51.81712 156
51.83723 159
51.85735 162
51.87746 150
51.89757 160
51.91769 162
51.9378 174
51.95792 141
51.97803 161
51.99814 184
52.01826 162
52.03837 166
52.05848 157
52.0786 164
52.09871 156
52.11883 164
52.13894 169
52.15905 164
52.17917 162
52.19928 161
52.21939 173
52.23951 161
52.25962 161
52.27974 148
52.29985 142
52.31996 171
52.34008 154
52.36019 181
52.3803 139
52.40042 172
52.42053 162
52.44064 164
52.46076 176
52.48087 158
52.50099 133
52.5211 197
52.54121 160
52.56133 147
52.58144 154
52.60155 167
52.62167 177
52.64178 166
52.6619 166
52.68201 162
52.70212 172
52.72224 158
52.74235 194
52.76246 177
52.78258 141
52.80269 166
52.8228 159
52.84292 165
52.86303 166
52.88315 211
52.90326 161
52.92337 154
52.94349 175
52.9636 178
52.98371 164
53.00383 176
53.02394 178
53.04406 159
53.06417 151
53.08428 187
53.1044 178
53.12451 164
53.14462 158
53.16474 161
53.18485 155
53.20497 179
53.22508 168
53.24519 203
53.26531 171
53.28542 176
53.30553 183
53.32565 195
53.34576 193
53.36587 199
53.38599 202
53.4061 197
53.42622 211
53.44633 194
53.46644 207
53.48656 189
53.50667 173
53.52678 196
53.5469 208
53.56701 190
53.58713 210
53.60724 176
53.62735 213
53.64747 177
53.66758 207
53.68769 196
53.70781 176
53.72792 217
53.74804 188
53.76815 238
53.78826 202
53.80838 190
53.82849 204
53.8486 176
53.86872 213
53.88883 204
53.90894 223
53.92906 196
53.94917 237
53.96929 222
53.9894 199
54.00951 202
54.02963 210
54.04974 220
54.06985 215
54.08997 223
54.11008 190
54.1302 227
54.15031 211
54.17042 204
54.19054 195
54.21065 220
54.23076 207
54.25088 230
54.27099 194
54.29111 201
54.31122 185
54.33133 237
54.35145 208
54.37156 197
54.39167 231
54.41179 237
54.4319 230
54.45201 238
54.47213 259
54.49224 257
54.51236 251
54.53247 256
54.55258 281
54.5727 328
54.59281 315
54.61292 342
54.63304 365
54.65315 434
54.67327 500
54.69338 506
54.71349 628
54.73361 679
54.75372 748
54.77383 846
54.79395 914
54.81406 956
54.83417 921
54.85429 855
54.8744 812
54.89452 721
54.91463 635
54.93474 652
54.95486 614
54.97497 634
54.99508 568
55.0152 470
55.03531 428
55.05543 385
55.07554 363
55.09565 347
55.11577 353
55.13588 348
55.15599 392
55.17611 407
55.19622 436
55.21634 499
55.23645 533
55.25656 557
55.27668 504
55.29679 536
55.3169 439
55.33702 453
55.35713 410
55.37724 379
55.39736 382
55.41747 368
55.43759 377
55.4577 336
55.47781 306
55.49793 250
55.51804 261
55.53815 225
55.55827 224
55.57838 229
55.5985 221
55.61861 222
55.63872 205
55.65884 202
55.67895 232
55.69906 202
55.71918 216
55.73929 208
55.75941 238
55.77952 202
55.79963 216
55.81975 221
55.83986 224
55.85997 215
55.88009 198
55.9002 196
55.92031 178
55.94043 194
55.96054 190
55.98066 198
56.00077 191
56.02088 187
56.041 207
56.06111 217
56.08122 206
56.10134 184
56.12145 165
56.14157 178
56.16168 178
56.18179 180
56.20191 182
56.22202 165
56.24213 169
56.26225 204
56.28236 179
56.30248 177
56.32259 188
56.3427 195
56.36282 176
56.38293 180
56.40304 172
56.42316 178
56.44327 182
56.46338 191
56.4835 181
56.50361 181
56.52373 196
56.54384 185
56.56395 173
56.58407 182
56.60418 187
56.62429 178
56.64441 185
56.66452 165
56.68464 157
56.70475 178
56.72486 180
56.74498 202
56.76509 167
56.7852 166
56.80532 150
56.82543 159
56.84554 159
56.86566 176
56.88577 154
56.90589 190
56.926 174
56.94611 179
56.96623 172
56.98634 175
57.00645 204
57.02657 168
57.04668 202
57.0668 193
57.08691 214
57.10702 210
57.12714 211
57.14725 177
57.16736 217
57.18748 223
57.20759 217
57.22771 216
57.24782 171
57.26793 205
57.28805 203
57.30816 179
57.32827 175
57.34839 206
57.3685 176
57.38861 176
57.40873 179
57.42884 182
57.44896 162
57.46907 152
57.48918 163
57.5093 164
57.52941 141
57.54952 189
57.56964 179
57.58975 155
57.60987 139
57.62998 181
57.65009 187
57.67021 176
57.69032 185
57.71043 178
57.73055 177
57.75066 155
57.77078 170
57.79089 165
57.811 195
57.83112 174
57.85123 168
57.87134 160
57.89146 186
57.91157 172
57.93168 161
57.9518 161
57.97191 160
57.99203 173
58.01214 171
58.03225 164
58.05237 167
58.07248 163
58.09259 178
58.11271 179
58.13282 168
58.15294 148
58.17305 149
58.19316 168
58.21328 181
58.23339 177
58.2535 177
58.27362 149
58.29373 170
58.31385 176
58.33396 171
58.35407 170
58.37419 168
58.3943 167
58.41441 168
58.43453 159
58.45464 155
58.47475 152
58.49487 172
58.51498 187
58.5351 166
58.55521 162
58.57532 162
58.59544 191
58.61555 161
58.63566 160
58.65578 155
58.67589 159
58.69601 156
58.71612 172
58.73623 142
58.75635 155
58.77646 161
58.79657 176
58.81669 158
58.8368 158
58.85691 191
58.87703 189
58.89714 174
58.91726 168
58.93737 191
58.95748 192
58.9776 170
58.99771 173
59.01782 176
59.03794 182
59.05805 172
59.07817 143
59.09828 189
59.11839 171
59.13851 186
59.15862 194
59.17873 191
59.19885 204
59.21896 195
59.23908 176
59.25919 185
59.2793 165
59.29942 214
59.31953 207
59.33964 200
59.35976 195
59.37987 191
59.39998 212
59.4201 229
59.44021 235
59.46033 217
59.48044 251
59.50055 246
59.52067 261
59.54078 289
59.56089 312
59.58101 311
59.60112 311
59.62124 408
59.64135 400
59.66146 460
59.68158 442
59.70169 547
59.7218 646
59.74192 734
59.76203 823
59.78215 1065
59.80226 1157
59.82237 1324
59.84249 1507
59.8626 1675
59.88271 1795
59.90283 1746
59.92294 1634
59.94305 1556
59.96317 1293
59.98328 1205
60.0034 1070
60.02351 1052
60.04362 956
60.06374 978
60.08385 906
60.10396 762
60.12408 638
60.14419 488
60.16431 425
60.18442 337
60.20453 333
60.22465 294
60.24476 231
60.26487 255
60.28499 233
60.3051 214
60.32522 220
60.34533 227
60.36544 213
60.38556 193
60.40567 208
60.42578 185
60.4459 201
60.46601 181
60.48612 174
60.50624 176
60.52635 194
60.54647 195
60.56658 177
60.58669 170
60.60681 175
60.62692 177
60.64703 181
60.66715 197
60.68726 182
60.70738 180
60.72749 180
60.7476 174
60.76772 180
60.78783 171
60.80794 191
60.82806 169
60.84817 192
60.86828 177
60.8884 176
60.90851 172
60.92863 167
60.94874 180
60.96885 176
60.98897 166
61.00908 159
61.02919 170
61.04931 164
61.06942 157
61.08954 164
61.10965 163
61.12976 151
61.14988 173
61.16999 166
61.1901 174
61.21022 178
61.23033 184
61.25045 152
61.27056 179
61.29067 185
61.31079 166
61.3309 167
61.35101 181
61.37113 174
61.39124 172
61.41135 160
61.43147 210
61.45158 209
61.4717 205
61.49181 222
61.51192 229
61.53204 224
61.55215 227
61.57226 236
61.59238 243
61.61249 221
61.63261 226
61.65272 229
61.67283 238
61.69295 231
61.71306 222
61.73317 238
61.75329 244
61.7734 221
61.79352 233
61.81363 221
61.83374 228
61.85386 242
61.87397 208
61.89408 186
61.9142 201
61.93431 213
61.95442 208
61.97454 191
61.99465 228
62.01477 177
62.03488 196
62.05499 192
62.07511 191
62.09522 212
62.11533 187
62.13545 204
62.15556 205
62.17568 182
62.19579 185
62.2159 168
62.23602 180
62.25613 203
62.27624 190
62.29636 190
62.31647 192
62.33659 211
62.3567 192
62.37681 186
62.39693 188
62.41704 192
62.43715 180
62.45727 163
62.47738 176
62.49749 175
62.51761 166
62.53772 183
62.55784 179
62.57795 192
62.59806 171
62.61818 179
62.63829 182
62.6584 173
62.67852 175
62.69863 182
62.71875 179
62.73886 182
62.75897 169
62.77909 167
62.7992 156
62.81931 182
62.83943 168
62.85954 143
62.87965 152
62.89977 169
62.91988 161
62.94 160
62.96011 174
62.98022 153
63.00034 165
63.02045 152
63.04056 165
63.06068 158
63.08079 162
63.10091 159
63.12102 168
63.14113 154
63.16125 158
63.18136 166
63.20147 148
63.22159 154
63.2417 152
63.26182 160
63.28193 193
63.30204 149
63.32216 168
63.34227 167
63.36238 147
63.3825 155
63.40261 166
63.42272 166
63.44284 164
63.46295 165
63.48307 157
63.50318 148
63.52329 186
63.54341 171
63.56352 173
63.58363 180
63.60375 167
63.62386 169
63.64398 193
63.66409 173
63.6842 191
63.70432 209
63.72443 189
63.74454 192
63.76466 223
63.78477 234
63.80489 232
63.825 249
63.84511 323
63.86523 349
63.88534 340
63.90545 401
63.92557 419
63.94568 432
63.96579 429
63.98591 478
64.00602 382
64.02614 371
64.04625 363
64.06636 323
64.08648 276
64.10659 329
64.1267 290
64.14682 307
64.16693 282
64.18705 270
64.20716 245
64.22727 212
64.24739 206
64.2675 177
64.28761 188
64.30773 161
64.32784 184
64.34796 172
64.36807 163
64.38818 179
64.4083 165
64.42841 158
64.44852 147
64.46864 149
64.48875 148
64.50886 162
64.52898 168
64.54909 149
64.56921 172
64.58932 126
64.60943 160
64.62955 152
64.64966 154
64.66977 174
64.68989 155
64.71 150
64.73012 166
64.75023 152
64.77034 158
64.79046 156
64.81057 165
64.83068 149
64.8508 152
64.87091 144
64.89102 159
64.91114 164
64.93125 153
64.95137 137
64.97148 149
64.99159 147
65.01171 161
65.03182 142
65.05193 173
65.07205 140
65.09216 134
65.11228 145
65.13239 148
65.1525 164
65.17262 159
65.19273 152
65.21284 163
65.23296 155
65.25307 166
65.27319 149
65.2933 166
65.31341 141
65.33353 154
65.35364 149
65.37375 149
65.39387 160
65.41398 141
65.43409 182
65.45421 175
65.47432 166
65.49444 168
65.51455 148
65.53466 182
65.55478 187
65.57489 183
65.595 178
65.61512 192
65.63523 187
65.65535 228
65.67546 236
65.69557 219
65.71569 229
65.7358 211
65.75591 220
65.77603 198
65.79614 204
65.81626 201
65.83637 198
65.85648 190
65.8766 197
65.89671 161
65.91682 189
65.93694 170
65.95705 177
65.97716 191
65.99728 161
66.01739 145
66.03751 165
66.05762 155
66.07773 178
66.09785 162
66.11796 145
66.13807 142
66.15819 158
66.1783 148
66.19842 168
66.21853 155
66.23864 166
66.25876 168
66.27887 177
66.29898 172
66.3191 156
66.33921 158
66.35933 140
66.37944 167
66.39955 148
66.41967 149
66.43978 169
66.45989 160
66.48001 154
66.50012 152
66.52023 165
66.54035 168
66.56046 145
66.58058 155
66.60069 162
66.6208 187
66.64092 169
66.66103 169
66.68114 162
66.70126 141
66.72137 172
66.74149 168
66.7616 160
66.78171 186
66.80183 166
66.82194 177
66.84205 162
66.86217 176
66.88228 162
66.90239 151
66.92251 164
66.94262 169
66.96274 163
66.98285 169
67.00296 146
67.02308 165
67.04319 178
67.0633 167
67.08342 179
67.10353 178
67.12365 163
67.14376 192
67.16387 195
67.18399 204
67.2041 193
67.22421 218
67.24433 210
67.26444 204
67.28456 218
67.30467 228
67.32478 233
67.3449 265
67.36501 280
67.38512 261
67.40524 312
67.42535 292
67.44546 377
67.46558 388
67.48569 428
67.50581 485
67.52592 508
67.54603 616
67.56615 671
67.58626 756
67.60637 872
67.62649 955
67.6466 1051
67.66672 1071
67.68683 952
67.70694 988
67.72706 945
67.74717 858
67.76728 781
67.7874 800
67.80751 784
67.82763 769
67.84774 863
67.86785 898
67.88797 907
67.90808 871
67.92819 871
67.94831 956
67.96842 966
67.98853 1012
68.00865 1142
68.02876 1232
68.04888 1361
68.06899 1487
68.0891 1490
68.10922 1474
68.12933 1393
68.14944 1335
68.16956 1248
68.18967 1193
68.20979 1310
68.2299 1277
68.25001 1296
68.27013 1294
68.29024 1219
68.31035 1004
68.33047 971
68.35058 797
68.3707 645
68.39081 657
68.41092 624
68.43104 536
68.45115 473
68.47126 467
68.49138 389
68.51149 359
68.5316 294
68.55172 307
68.57183 262
68.59195 250
68.61206 227
68.63217 223
68.65229 226
68.6724 236
68.69251 188
68.71263 191
68.73274 185
68.75286 167
68.77297 181
68.79308 176
68.8132 187
68.83331 179
68.85342 154
68.87354 174
68.89365 186
68.91376 171
68.93388 160
68.95399 173
68.97411 199
68.99422 147
69.01433 156
69.03445 193
69.05456 159
69.07467 175
69.09479 170
69.1149 170
69.13502 154
69.15513 156
69.17524 170
69.19536 151
69.21547 183
69.23558 170
69.2557 180
69.27581 173
69.29593 172
69.31604 146
69.33615 177
69.35627 163
69.37638 172
69.39649 168
69.41661 184
69.43672 162
69.45683 168
69.47695 161
69.49706 150
69.51718 163
69.53729 142
69.5574 157
69.57752 158
69.59763 152
69.61774 148
69.63786 152
69.65797 162
69.67809 142
69.6982 171
69.71831 148
69.73843 150
69.75854 158
69.77865 155
69.79877 158
69.81888 144
69.839 138
69.85911 157
69.87922 159
69.89934 161
69.91945 150
69.93956 157
69.95968 142
69.97979 168
69.9999 165
70.02002 171
70.04013 183
70.06025 156
70.08036 152
70.10047 153
70.12059 166
70.1407 140
70.16081 153
70.18093 135
70.20104 151
70.22116 139
70.24127 169
70.26138 153
70.2815 138
70.30161 137
70.32172 127
70.34184 150
70.36195 176
70.38207 140
70.40218 152
70.42229 145
70.44241 163
70.46252 142
70.48263 164
70.50275 152
70.52286 146
70.54297 132
70.56309 148
70.5832 146
70.60332 137
70.62343 158
70.64354 148
70.66366 150
70.68377 143
70.70388 148
70.724 139
70.74411 144
70.76423 126
70.78434 150
70.80445 174
70.82457 142
70.84468 155
70.86479 127
70.88491 159
70.90502 141
70.92513 160
70.94525 155
70.96536 122
70.98548 141
71.00559 146
71.0257 140
71.04582 128
71.06593 133
71.08604 132
71.10616 167
71.12627 147
71.14639 147
71.1665 135
71.18661 149
71.20673 139
71.22684 145
71.24695 139
71.26707 143
71.28718 152
71.3073 154
71.32741 130
71.34752 146
71.36764 160
71.38775 122
71.40786 136
71.42798 138
71.44809 137
71.4682 136
71.48832 122
71.50843 152
71.52855 139
71.54866 157
71.56877 161
71.58889 134
71.609 138
71.62911 156
71.64923 151
71.66934 123
71.68946 129
71.70957 139
71.72968 136
71.7498 163
71.76991 133
71.79002 139
71.81014 146
71.83025 124
71.85037 147
71.87048 140
71.89059 154
71.91071 160
71.93082 144
71.95093 136
71.97105 138
71.99116 146
72.01127 153
72.03139 131
72.0515 141
72.07162 145
72.09173 142
72.11184 144
72.13196 143
72.15207 137
72.17218 147
72.1923 163
72.21241 153
72.23253 149
72.25264 143
72.27275 143
72.29287 141
72.31298 137
72.33309 142
72.35321 142
72.37332 158
72.39344 150
72.41355 130
72.43366 168
72.45378 149
72.47389 146
72.494 161
72.51412 146
72.53423 164
72.55434 151
72.57446 153
72.59457 146
72.61469 167
72.6348 159
72.65491 180
72.67503 162
72.69514 168
72.71525 159
72.73537 167
72.75548 173
72.7756 153
72.79571 178
72.81582 138
72.83594 174
72.85605 153
72.87616 165
72.89628 181
72.91639 176
72.9365 170
72.95662 166
72.97673 178
72.99685 172
73.01696 188
73.03707 181
73.05719 206
73.0773 180
73.09741 185
73.11753 181
73.13764 187
73.15776 243
73.17787 258
73.19798 186
73.2181 239
73.23821 259
73.25832 268
73.27844 289
73.29855 320
73.31867 382
73.33878 368
73.35889 410
73.37901 428
73.39912 471
73.41923 454
73.43935 410
73.45946 359
73.47957 355
73.49969 289
73.5198 282
73.53992 311
73.56003 290
73.58014 284
73.60026 256
73.62037 289
73.64048 268
73.6606 272
73.68071 226
73.70083 232
73.72094 225
73.74105 189
73.76117 186
73.78128 150
73.80139 162
73.82151 170
73.84162 165
73.86174 170
73.88185 163
73.90196 155
73.92208 167
73.94219 156
73.9623 147
73.98242 153
74.00253 140
74.02264 137
74.04276 149
74.06287 149
74.08299 161
74.1031 138
74.12321 130
74.14333 148
74.16344 145
74.18355 158
74.20367 145
74.22378 126
74.2439 140
74.26401 157
74.28412 151
74.30424 146
74.32435 146
74.34446 115
74.36458 156
74.38469 155
74.40481 128
74.42492 162
74.44503 148
74.46515 144
74.48526 138
74.50537 146
74.52549 141
74.5456 155
74.56571 143
74.58583 142
74.60594 155
74.62606 142
74.64617 124
74.66628 141
74.6864 122
74.70651 159
74.72662 127
74.74674 123
74.76685 139
74.78697 127
74.80708 146
74.82719 164
74.84731 154
74.86742 118
74.88753 162
74.90765 154
74.92776 152
74.94787 150
74.96799 138
74.9881 153
75.00822 149
