3.00117 19176
3.02128 19421
3.0414 18653
3.06151 18009
3.08162 17719
3.10174 17310
3.12185 16894
3.14197 16171
3.16208 15773
3.18219 15134
3.20231 14660
3.22242 14405
3.24253 14025
3.26265 13810
3.28276 13236
3.30288 12834
3.32299 12512
3.3431 11755
3.36322 11561
3.38333 11268
3.40344 10892
3.42356 10445
3.44367 10033
3.46379 9823
3.4839 9585
3.50401 9066
3.52413 8819
3.54424 8329
3.56435 8241
3.58447 7800
3.60458 7540
3.62469 7285
3.64481 6926
3.66492 6771
3.68504 6533
3.70515 6257
3.72526 6080
3.74538 5755
3.76549 5640
3.7856 5417
3.80572 5071
3.82583 4913
3.84595 4733
3.86606 4278
3.88617 4325
3.90629 4188
3.9264 4072
3.94651 3606
3.96663 3791
3.98674 3588
4.00686 3347
4.02697 3157
4.04708 2923
4.0672 2938
4.08731 2846
4.10742 2670
4.12754 2637
4.14765 2385
4.16776 2378
4.18788 2271
4.20799 2114
4.22811 2013
4.24822 1965
4.26833 1992
4.28845 1984
4.30856 1694
4.32867 1824
4.34879 1565
4.3689 1721
4.38902 1741
4.40913 1502
4.42924 1490
4.44936 1443
4.46947 1526
4.48958 1417
4.5097 1273
4.52981 1316
4.54992 1236
4.57004 1227
4.59015 1207
4.61027 1175
4.63038 1118
4.65049 1137
4.67061 1068
4.69072 1081
4.71083 1014
4.73095 1016
4.75106 963
4.77118 1006
4.79129 1042
4.8114 861
4.83152 953
4.85163 890
4.87174 915
4.89186 865
4.91197 791
4.93209 847
4.9522 834
4.97231 794
4.99243 801
5.01254 759
5.03265 749
5.05277 774
5.07288 720
5.09299 694
5.11311 643
5.13322 601
5.15334 625
5.17345 650
5.19356 616
5.21368 567
5.23379 586
5.2539 521
5.27402 534
5.29413 556
5.31425 541
5.33436 510
5.35447 513
5.37459 478
5.3947 495
5.41481 432
5.43493 464
5.45504 526
5.47516 452
5.49527 486
5.51538 449
5.5355 485
5.55561 433
5.57572 434
5.59584 393
5.61595 403
5.63606 400
5.65618 392
5.67629 349
5.69641 379
5.71652 349
5.73663 369
5.75675 367
5.77686 317
5.79697 338
5.81709 325
5.8372 381
5.85732 338
5.87743 338
5.89754 313
5.91766 361
5.93777 320
5.95788 318
5.978 340
5.99811 331
6.01823 333
6.03834 298
6.05845 313
6.07857 297
6.09868 270
6.11879 300
6.13891 289
6.15902 303
6.17913 266
6.19925 290
6.21936 288
6.23948 306
6.25959 317
6.2797 274
6.29982 328
6.31993 281
6.34004 237
6.36016 267
6.38027 264
6.40039 306
6.4205 264
6.44061 276
6.46073 238
6.48084 262
6.50095 225
6.52107 238
6.54118 262
6.56129 261
6.58141 234
6.60152 292
6.62164 218
6.64175 238
6.66186 245
6.68198 237
6.70209 243
6.7222 217
6.74232 216
6.76243 287
6.78255 232
6.80266 219
6.82277 246
6.84289 225
6.863 242
6.88311 252
6.90323 230
6.92334 217
6.94346 201
6.96357 216
6.98368 212
7.0038 247
7.02391 209
7.04402 246
7.06414 229
7.08425 200
7.10436 192
7.12448 195
7.14459 187
7.16471 203
7.18482 211
7.20493 232
7.22505 203
7.24516 229
7.26527 206
7.28539 202
7.3055 191
7.32562 216
7.34573 215
7.36584 218
7.38596 224
7.40607 207
7.42618 252
7.4463 193
7.46641 222
7.48653 218
7.50664 194
7.52675 185
7.54687 188
7.56698 191
7.58709 188
7.60721 224
7.62732 208
7.64743 226
7.66755 206
7.68766 202
7.70778 192
7.72789 206
7.748 225
7.76812 188
7.78823 201
7.80834 204
7.82846 196
7.84857 201
7.86869 183
7.8888 191
7.90891 192
7.92903 182
7.94914 199
7.96925 212
7.98937 210
8.00948 190
8.0296 188
8.04971 193
8.06982 196
8.08994 202
8.11005 187
8.13016 235
8.15028 180
8.17039 172
8.1905 198
8.21062 193
8.23073 190
8.25085 203
8.27096 208
8.29107 182
8.31119 205
8.3313 178
8.35141 187
8.37153 203
8.39164 219
8.41176 176
8.43187 233
8.45198 228
8.4721 208
8.49221 220
8.51232 201
8.53244 219
8.55255 223
8.57266 183
8.59278 200
8.61289 196
8.63301 196
8.65312 180
8.67323 199
8.69335 201
8.71346 185
8.73357 196
8.75369 224
8.7738 181
8.79392 178
8.81403 208
8.83414 203
8.85426 178
8.87437 208
8.89448 190
8.9146 177
8.93471 188
8.95483 212
8.97494 155
8.99505 187
9.01517 163
9.03528 168
9.05539 190
9.07551 189
9.09562 203
9.11573 183
9.13585 191
9.15596 189
9.17608 173
9.19619 191
9.2163 178
9.23642 177
9.25653 172
9.27664 190
9.29676 145
9.31687 187
9.33699 178
9.3571 187
9.37721 183
9.39733 166
9.41744 201
9.43755 185
9.45767 188
9.47778 163
9.4979 162
9.51801 165
9.53812 180
9.55824 192
9.57835 175
9.59846 203
9.61858 206
9.63869 180
9.6588 199
9.67892 173
9.69903 202
9.71915 165
9.73926 183
9.75937 184
9.77949 199
9.7996 158
9.81971 181
9.83983 169
9.85994 162
9.88006 167
9.90017 162
9.92028 168
9.9404 197
9.96051 220
9.98062 169
10.00074 160
10.02085 171
10.04097 184
10.06108 186
10.08119 201
10.10131 159
10.12142 193
10.14153 173
10.16165 176
10.18176 181
10.20187 176
10.22199 150
10.2421 201
10.26222 147
10.28233 169
10.30244 151
10.32256 171
10.34267 180
10.36278 189
10.3829 166
10.40301 178
10.42313 190
10.44324 185
10.46335 196
10.48347 204
10.50358 204
10.52369 154
10.54381 179
10.56392 189
10.58403 200
10.60415 178
10.62426 169
10.64438 183
10.66449 169
10.6846 179
10.70472 189
10.72483 174
10.74494 178
10.76506 195
10.78517 180
10.80529 181
10.8254 173
10.84551 161
10.86563 180
10.88574 159
10.90585 194
10.92597 178
10.94608 170
10.9662 176
10.98631 167
11.00642 167
11.02654 175
11.04665 179
11.06676 185
11.08688 167
11.10699 157
11.1271 170
11.14722 179
11.16733 161
11.18745 212
11.20756 191
11.22767 180
11.24779 175
11.2679 175
11.28801 163
11.30813 171
11.32824 178
11.34836 186
11.36847 159
11.38858 163
11.4087 174
11.42881 163
11.44892 181
11.46904 169
11.48915 183
11.50927 179
11.52938 176
11.54949 180
11.56961 168
11.58972 164
11.60983 183
11.62995 181
11.65006 181
11.67017 189
11.69029 210
11.7104 186
11.73052 177
11.75063 167
11.77074 177
11.79086 155
11.81097 189
11.83108 183
11.8512 203
11.87131 181
11.89143 169
11.91154 166
11.93165 190
11.95177 174
11.97188 175
11.99199 176
12.01211 190
12.03222 195
12.05234 175
12.07245 181
12.09256 181
12.11268 185
12.13279 212
12.1529 211
12.17302 177
12.19313 220
12.21324 199
12.23336 196
12.25347 212
12.27359 223
12.2937 228
12.31381 223
12.33393 220
12.35404 206
12.37415 213
12.39427 199
12.41438 236
12.4345 199
12.45461 197
12.47472 209
12.49484 200
12.51495 177
12.53506 175
12.55518 187
12.57529 181
12.5954 183
12.61552 167
12.63563 166
12.65575 156
12.67586 195
12.69597 177
12.71609 169
12.7362 160
12.75631 166
12.77643 162
12.79654 161
12.81666 184
12.83677 171
12.85688 172
12.877 187
12.89711 169
12.91722 164
12.93734 176
12.95745 168
12.97757 184
12.99768 180
13.01779 182
13.03791 170
13.05802 164
13.07813 177
13.09825 198
13.11836 187
13.13847 185
13.15859 167
13.1787 151
13.19882 179
13.21893 165
13.23904 151
13.25916 208
13.27927 168
13.29938 179
13.3195 183
13.33961 170
13.35973 189
13.37984 158
13.39995 140
13.42007 170
13.44018 179
13.46029 180
13.48041 148
13.50052 179
13.52064 164
13.54075 174
13.56086 199
13.58098 178
13.60109 173
13.6212 201
13.64132 176
13.66143 182
13.68154 147
13.70166 154
13.72177 188
13.74189 175
13.762 163
13.78211 159
13.80223 171
13.82234 165
13.84245 174
13.86257 167
13.88268 181
13.9028 157
13.92291 178
13.94302 157
13.96314 140
13.98325 166
14.00336 156
14.02348 161
14.04359 160
14.06371 141
14.08382 176
14.10393 157
14.12405 172
14.14416 161
14.16427 155
14.18439 140
14.2045 129
14.22461 141
14.24473 171
14.26484 144
14.28496 183
14.30507 152
14.32518 136
14.3453 172
14.36541 152
14.38552 178
14.40564 135
14.42575 170
14.44587 146
14.46598 162
14.48609 198
14.50621 158
14.52632 169
14.54643 156
14.56655 147
14.58666 159
14.60677 138
14.62689 156
14.647 177
14.66712 170
14.68723 166
14.70734 139
14.72746 160
14.74757 151
14.76768 172
14.7878 181
14.80791 163
14.82803 149
14.84814 197
14.86825 162
14.88837 160
14.90848 152
14.92859 177
14.94871 169
14.96882 172
14.98894 162
15.00905 152
15.02916 166
15.04928 183
15.06939 156
15.0895 143
15.10962 159
15.12973 174
15.14984 168
15.16996 174
15.19007 117
15.21019 171
15.2303 162
15.25041 154
15.27053 190
15.29064 180
15.31075 154
15.33087 148
15.35098 158
15.3711 160
15.39121 157
15.41132 165
15.43144 147
15.45155 171
15.47166 147
15.49178 174
15.51189 155
15.53201 173
15.55212 174
15.57223 159
15.59235 155
15.61246 160
15.63257 183
15.65269 164
15.6728 139
15.69291 157
15.71303 145
15.73314 160
15.75326 171
15.77337 166
15.79348 176
15.8136 173
15.83371 153
15.85382 173
15.87394 169
15.89405 156
15.91417 145
15.93428 154
15.95439 152
15.97451 149
15.99462 145
16.01473 161
16.03485 175
16.05496 150
16.07508 136
16.09519 166
16.1153 148
16.13542 148
16.15553 158
16.17564 136
16.19576 149
16.21587 128
16.23598 134
16.2561 156
16.27621 137
16.29633 149
16.31644 149
16.33655 166
16.35667 168
16.37678 138
16.39689 161
16.41701 172
16.43712 127
16.45724 168
16.47735 147
16.49746 120
16.51758 146
16.53769 152
16.5578 158
16.57792 157
16.59803 153
16.61814 138
16.63826 151
16.65837 165
16.67849 158
16.6986 161
16.71871 152
16.73883 144
16.75894 156
16.77905 169
16.79917 159
16.81928 156
16.8394 147
16.85951 135
16.87962 147
16.89974 162
16.91985 158
16.93996 142
16.96008 140
16.98019 141
17.00031 176
17.02042 143
17.04053 173
17.06065 152
17.08076 149
17.10087 152
17.12099 156
17.1411 148
17.16121 152
17.18133 133
17.20144 155
17.22156 167
17.24167 140
17.26178 173
17.2819 163
17.30201 145
17.32212 127
17.34224 143
17.36235 147
17.38247 156
17.40258 146
17.42269 137
17.44281 161
17.46292 156
17.48303 156
17.50315 169
17.52326 165
17.54338 164
17.56349 167
17.5836 162
17.60372 166
17.62383 168
17.64394 144
17.66406 173
17.68417 158
17.70428 182
17.7244 157
17.74451 164
17.76463 189
17.78474 159
17.80485 162
17.82497 174
17.84508 164
17.86519 154
17.88531 170
17.90542 152
17.92554 187
17.94565 158
17.96576 165
17.98588 137
18.00599 152
18.0261 160
18.04622 141
18.06633 167
18.08645 157
18.10656 175
18.12667 132
18.14679 165
18.1669 170
18.18701 164
18.20713 164
18.22724 173
18.24735 170
18.26747 171
18.28758 146
18.3077 128
18.32781 144
18.34792 136
18.36804 155
18.38815 179
18.40826 158
18.42838 150
18.44849 166
18.46861 183
18.48872 133
18.50883 150
18.52895 135
18.54906 120
18.56917 149
18.58929 160
18.6094 143
18.62951 175
18.64963 185
18.66974 156
18.68986 163
18.70997 152
18.73008 145
18.7502 160
18.77031 164
18.79042 185
18.81054 153
18.83065 154
18.85077 163
18.87088 138
18.89099 145
18.91111 161
18.93122 168
18.95133 159
18.97145 163
18.99156 146
19.01168 174
19.03179 160
19.0519 169
19.07202 149
19.09213 157
19.11224 188
19.13236 171
19.15247 174
19.17258 191
19.1927 167
19.21281 181
19.23293 175
19.25304 193
19.27315 158
19.29327 189
19.31338 190
19.33349 171
19.35361 157
19.37372 180
19.39384 185
19.41395 171
19.43406 190
19.45418 195
19.47429 211
19.4944 194
19.51452 173
19.53463 209
19.55475 175
19.57486 227
19.59497 238
19.61509 246
19.6352 196
19.65531 238
19.67543 268
19.69554 274
19.71565 254
19.73577 250
19.75588 269
19.776 271
19.79611 268
19.81622 257
19.83634 250
19.85645 259
19.87656 233
19.89668 278
19.91679 241
19.93691 259
19.95702 218
19.97713 251
19.99725 228
20.01736 233
20.03747 213
20.05759 231
20.0777 220
20.09782 244
20.11793 223
20.13804 244
20.15816 223
20.17827 220
20.19838 229
20.2185 233
20.23861 203
20.25872 232
20.27884 237
20.29895 247
20.31907 266
20.33918 243
20.35929 235
20.37941 247
20.39952 253
20.41963 231
20.43975 266
20.45986 257
20.47998 216
20.50009 239
20.5202 243
20.54032 264
20.56043 315
20.58054 286
20.60066 290
20.62077 354
20.64088 403
20.661 453
20.68111 668
20.70123 808
20.72134 1088
20.74145 1467
20.76157 1857
20.78168 2167
20.80179 2301
20.82191 2237
20.84202 2066
20.86214 1622
20.88225 1225
20.90236 981
20.92248 705
20.94259 495
20.9627 443
20.98282 353
21.00293 361
21.02305 368
21.04316 295
21.06327 279
21.08339 298
21.1035 287
21.12361 242
21.14373 239
21.16384 243
21.18395 235
21.20407 240
21.22418 230
21.2443 214
21.26441 213
21.28452 244
21.30464 207
21.32475 243
21.34486 199
21.36498 205
21.38509 228
21.40521 230
21.42532 228
21.44543 184
21.46555 175
21.48566 163
21.50577 175
21.52589 216
21.546 215
21.56612 206
21.58623 185
21.60634 178
21.62646 186
21.64657 193
21.66668 203
21.6868 176
21.70691 177
21.72702 188
21.74714 201
21.76725 183
21.78737 175
21.80748 190
21.82759 217
21.84771 163
21.86782 194
21.88793 194
21.90805 177
21.92816 191
21.94828 182
21.96839 190
21.9885 216
22.00862 220
22.02873 192
22.04884 178
22.06896 194
22.08907 204
22.10919 193
22.1293 196
22.14941 210
22.16953 199
22.18964 193
22.20975 208
22.22987 208
22.24998 183
22.27009 190
22.29021 182
22.31032 187
22.33044 240
22.35055 203
22.37066 198
22.39078 166
22.41089 208
22.431 179
22.45112 238
22.47123 211
22.49135 202
22.51146 214
22.53157 195
22.55169 204
22.5718 189
22.59191 194
22.61203 189
22.63214 189
22.65225 203
22.67237 183
22.69248 181
22.7126 202
22.73271 219
22.75282 210
22.77294 226
22.79305 218
22.81316 225
22.83328 281
22.85339 271
22.87351 308
22.89362 336
22.91373 390
22.93385 489
22.95396 558
22.97407 603
22.99419 755
23.0143 797
23.03442 786
23.05453 725
23.07464 690
23.09476 627
23.11487 518
23.13498 501
23.1551 361
23.17521 377
23.19532 317
23.21544 289
23.23555 267
23.25567 262
23.27578 252
23.29589 246
23.31601 243
23.33612 227
23.35623 234
23.37635 240
23.39646 232
23.41658 245
23.43669 217
23.4568 213
23.47692 224
23.49703 192
23.51714 200
23.53726 218
23.55737 215
23.57749 228
23.5976 190
23.61771 184
23.63783 201
23.65794 211
23.67805 235
23.69817 203
23.71828 224
23.73839 227
23.75851 204
23.77862 190
23.79874 197
23.81885 201
23.83896 245
23.85908 214
23.87919 206
23.8993 231
23.91942 225
23.93953 230
23.95965 258
23.97976 250
23.99987 272
24.01999 208
24.0401 215
24.06021 188
24.08033 185
24.10044 194
24.12056 194
24.14067 185
24.16078 200
24.1809 188
24.20101 185
24.22112 179
24.24124 210
24.26135 206
24.28146 189
24.30158 196
24.32169 202
24.34181 200
24.36192 183
24.38203 188
24.40215 192
24.42226 166
24.44237 223
24.46249 223
24.4826 187
24.50272 176
24.52283 196
24.54294 172
24.56306 188
24.58317 192
24.60328 212
24.6234 188
24.64351 230
24.66362 199
24.68374 203
24.70385 218
24.72397 215
24.74408 207
24.76419 201
24.78431 194
24.80442 200
24.82453 241
24.84465 202
24.86476 177
24.88488 231
24.90499 223
24.9251 235
24.94522 209
24.96533 213
24.98544 203
25.00556 200
25.02567 186
25.04579 183
25.0659 184
25.08601 190
25.10613 210
25.12624 197
25.14635 222
25.16647 214
25.18658 198
25.20669 216
25.22681 221
25.24692 220
25.26704 218
25.28715 232
25.30726 228
25.32738 196
25.34749 164
25.3676 193
25.38772 200
25.40783 193
25.42795 213
25.44806 221
25.46817 231
25.48829 236
25.5084 238
25.52851 261
25.54863 234
25.56874 255
25.58886 300
25.60897 285
25.62908 288
25.6492 294
25.66931 273
25.68942 282
25.70954 260
25.72965 272
25.74976 265
25.76988 259
25.78999 257
25.81011 231
25.83022 251
25.85033 241
25.87045 237
25.89056 266
25.91067 255
25.93079 243
25.9509 262
25.97102 268
25.99113 287
26.01124 279
26.03136 270
26.05147 313
26.07158 303
26.0917 337
26.11181 313
26.13193 362
26.15204 350
26.17215 408
26.19227 384
26.21238 440
26.23249 430
26.25261 504
26.27272 466
26.29283 527
26.31295 557
26.33306 634
26.35318 740
26.37329 903
26.3934 1040
26.41352 1290
26.43363 1816
26.45374 2502
26.47386 3354
26.49397 4609
26.51409 6326
26.5342 7846
26.55431 9278
26.57443 10155
26.59454 9786
26.61465 9001
26.63477 7447
26.65488 5787
26.67499 4106
26.69511 2861
26.71522 1966
26.73534 1277
26.75545 925
26.77556 762
26.79568 691
26.81579 634
26.8359 544
26.85602 554
26.87613 478
26.89625 476
26.91636 466
26.93647 430
26.95659 413
26.9767 393
26.99681 395
27.01693 407
27.03704 403
27.05716 349
27.07727 363
27.09738 327
27.1175 303
27.13761 310
27.15772 289
27.17784 355
27.19795 277
27.21806 303
27.23818 278
27.25829 286
27.27841 284
27.29852 365
27.31863 373
27.33875 383
27.35886 412
27.37897 411
27.39909 404
27.4192 411
27.43932 385
27.45943 389
27.47954 396
27.49966 345
27.51977 330
27.53988 330
27.56 282
27.58011 295
27.60023 259
27.62034 261
27.64045 232
27.66057 244
27.68068 237
27.70079 243
27.72091 233
27.74102 233
27.76113 239
27.78125 221
27.80136 251
27.82148 230
27.84159 259
27.8617 233
27.88182 259
27.90193 225
27.92204 230
27.94216 222
27.96227 243
27.98239 217
28.0025 204
28.02261 204
28.04273 198
28.06284 204
28.08295 191
28.10307 208
28.12318 202
28.1433 241
28.16341 239
28.18352 208
28.20364 196
28.22375 219
28.24386 196
28.26398 225
28.28409 251
28.3042 236
28.32432 220
28.34443 203
28.36455 230
28.38466 231
28.40477 225
28.42489 223
28.445 220
28.46511 281
28.48523 260
28.50534 275
28.52546 231
28.54557 255
28.56568 218
28.5858 213
28.60591 242
28.62602 226
28.64614 250
28.66625 257
28.68636 261
28.70648 243
28.72659 231
28.74671 236
28.76682 227
28.78693 281
28.80705 260
28.82716 249
28.84727 285
28.86739 276
28.8875 259
28.90762 312
28.92773 340
28.94784 332
28.96796 331
28.98807 365
29.00818 401
29.0283 463
29.04841 430
29.06853 446
29.08864 500
29.10875 614
29.12887 665
29.14898 721
29.16909 864
29.18921 1042
29.20932 1328
29.22943 1627
29.24955 2104
29.26966 2728
29.28978 3494
29.30989 4330
29.33 5058
29.35012 5790
29.37023 5887
29.39034 5852
29.41046 5390
29.43057 4924
29.45069 4186
29.4708 3454
29.49091 2745
29.51103 2199
29.53114 1760
29.55125 1328
29.57137 1098
29.59148 930
29.6116 817
29.63171 709
29.65182 639
29.67194 555
29.69205 521
29.71216 444
29.73228 464
29.75239 395
29.7725 372
29.79262 396
29.81273 354
29.83285 295
29.85296 314
29.87307 309
29.89319 329
29.9133 296
29.93341 305
29.95353 274
29.97364 261
29.99376 258
30.01387 245
30.03398 250
30.0541 258
30.07421 256
30.09432 248
30.11444 248
30.13455 244
30.15467 226
30.17478 249
30.19489 247
30.21501 274
30.23512 228
30.25523 247
30.27535 227
30.29546 256
30.31557 258
30.33569 218
30.3558 240
30.37592 211
30.39603 235
30.41614 217
30.43626 218
30.45637 205
30.47648 216
30.4966 198
30.51671 208
30.53683 240
30.55694 216
30.57705 211
30.59717 263
30.61728 264
30.63739 294
30.65751 251
30.67762 320
30.69773 311
30.71785 322
30.73796 369
30.75808 365
30.77819 382
30.7983 444
30.81842 468
30.83853 482
30.85864 526
30.87876 492
30.89887 486
30.91899 432
30.9391 396
30.95921 371
30.97933 300
30.99944 270
31.01955 231
31.03967 212
31.05978 228
31.0799 247
31.10001 225
31.12012 240
31.14024 238
31.16035 205
31.18046 229
31.20058 208
31.22069 205
31.2408 227
31.26092 217
31.28103 232
31.30115 245
31.32126 272
31.34137 292
31.36149 301
31.3816 301
31.40171 304
31.42183 295
31.44194 283
31.46206 237
31.48217 267
31.50228 235
31.5224 230
31.54251 186
31.56262 186
31.58274 234
31.60285 190
31.62297 182
31.64308 177
31.66319 201
31.68331 169
31.70342 163
31.72353 180
31.74365 188
31.76376 186
31.78387 156
31.80399 180
31.8241 169
31.84422 144
31.86433 205
31.88444 136
31.90456 151
31.92467 170
31.94478 165
31.9649 181
31.98501 156
32.00513 194
32.02524 157
32.04535 159
32.06547 139
32.08558 160
32.10569 177
32.12581 186
32.14592 161
32.16604 160
32.18615 169
32.20626 201
32.22638 179
32.24649 196
32.2666 177
32.28672 175
32.30683 178
32.32694 189
32.34706 176
32.36717 165
32.38729 162
32.4074 154
32.42751 157
32.44763 164
32.46774 153
32.48785 148
32.50797 159
32.52808 144
32.5482 143
32.56831 187
32.58842 141
32.60854 166
32.62865 167
32.64876 167
32.66888 179
32.68899 158
32.7091 142
32.72922 161
32.74933 137
32.76945 144
32.78956 177
32.80967 163
32.82979 165
32.8499 152
32.87001 150
32.89013 172
32.91024 177
32.93036 158
32.95047 160
32.97058 175
32.9907 171
33.01081 169
33.03092 157
33.05104 163
33.07115 173
33.09127 208
33.11138 171
33.13149 167
33.15161 161
33.17172 151
33.19183 161
33.21195 153
33.23206 163
33.25217 150
33.27229 152
33.2924 153
33.31252 169
33.33263 167
33.35274 191
33.37286 143
33.39297 153
33.41308 183
33.4332 180
33.45331 166
33.47343 142
33.49354 176
33.51365 144
33.53377 162
33.55388 164
33.57399 128
33.59411 176
33.61422 147
33.63434 149
33.65445 147
33.67456 143
33.69468 145
33.71479 157
33.7349 133
33.75502 139
33.77513 157
33.79524 139
33.81536 142
33.83547 160
33.85559 129
33.8757 147
33.89581 150
33.91593 152
33.93604 169
33.95615 140
33.97627 169
33.99638 152
34.0165 158
34.03661 149
34.05672 178
34.07684 159
34.09695 141
34.11706 159
34.13718 183
34.15729 195
34.17741 196
34.19752 151
34.21763 179
34.23775 195
34.25786 169
34.27797 168
34.29809 181
34.3182 187
34.33831 186
34.35843 203
34.37854 198
34.39866 212
34.41877 188
34.43888 188
34.459 182
34.47911 210
34.49922 205
34.51934 198
34.53945 192
34.55957 220
34.57968 198
34.59979 196
34.61991 209
34.64002 194
34.66013 229
34.68025 229
34.70036 249
34.72047 225
34.74059 205
34.7607 244
34.78082 238
34.80093 187
34.82104 204
34.84116 204
34.86127 208
34.88138 234
34.9015 203
34.92161 233
34.94173 229
34.96184 191
34.98195 222
35.00207 235
35.02218 222
35.04229 217
35.06241 215
35.08252 182
35.10264 217
35.12275 198
35.14286 199
35.16298 222
35.18309 195
35.2032 200
35.22332 213
35.24343 212
35.26354 215
35.28366 231
35.30377 202
35.32389 208
35.344 237
35.36411 199
35.38423 227
35.40434 225
35.42445 222
35.44457 205
35.46468 218
35.4848 199
35.50491 222
35.52502 238
35.54514 212
35.56525 209
35.58536 228
35.60548 224
35.62559 227
35.64571 212
35.66582 199
35.68593 242
35.70605 245
35.72616 259
35.74627 287
35.76639 304
35.7865 351
35.80661 351
35.82673 420
35.84684 511
35.86696 576
35.88707 666
35.90718 737
35.9273 773
35.94741 837
35.96752 774
35.98764 784
36.00775 748
36.02787 688
36.04798 576
36.06809 523
36.08821 483
36.10832 362
36.12843 360
36.14855 316
36.16866 284
36.18878 302
36.20889 258
36.229 261
36.24912 263
36.26923 285
36.28934 292
36.30946 276
36.32957 325
36.34968 372
36.3698 391
36.38991 505
36.41003 558
36.43014 670
36.45025 716
36.47037 778
36.49048 774
36.51059 735
36.53071 697
36.55082 575
36.57094 529
36.59105 443
36.61116 403
36.63128 343
36.65139 272
36.6715 241
36.69162 251
36.71173 221
36.73184 212
36.75196 200
36.77207 205
36.79219 205
36.8123 206
36.83241 182
36.85253 185
36.87264 188
36.89275 197
36.91287 202
36.93298 173
36.9531 188
36.97321 170
36.99332 175
37.01344 177
37.03355 181
37.05366 167
37.07378 200
37.09389 174
37.11401 188
37.13412 159
37.15423 183
37.17435 164
37.19446 170
37.21457 175
37.23469 202
37.2548 172
37.27491 215
37.29503 201
37.31514 203
37.33526 197
37.35537 202
37.37548 191
37.3956 186
37.41571 173
37.43582 165
37.45594 169
37.47605 178
37.49617 181
37.51628 152
37.53639 159
37.55651 187
37.57662 168
37.59673 178
37.61685 173
37.63696 166
37.65708 187
37.67719 155
37.6973 160
37.71742 170
37.73753 166
37.75764 169
37.77776 162
37.79787 149
37.81798 156
37.8381 173
37.85821 184
37.87833 151
37.89844 152
37.91855 171
37.93867 161
37.95878 147
37.97889 146
37.99901 142
38.01912 156
38.03924 169
38.05935 150
38.07946 157
38.09958 177
38.11969 147
38.1398 174
38.15992 160
38.18003 156
38.20015 168
38.22026 186
38.24037 161
38.26049 168
38.2806 182
38.30071 188
38.32083 186
38.34094 194
38.36105 182
38.38117 194
38.40128 196
38.4214 179
38.44151 181
38.46162 166
38.48174 171
38.50185 185
38.52196 176
38.54208 181
38.56219 192
38.58231 196
38.60242 187
38.62253 161
38.64265 159
38.66276 165
38.68287 179
38.70299 193
38.7231 163
38.74321 149
38.76333 167
38.78344 180
38.80356 197
38.82367 184
38.84378 174
38.8639 156
38.88401 187
38.90412 169
38.92424 188
38.94435 182
38.96447 204
38.98458 202
39.00469 212
39.02481 246
39.04492 229
39.06503 263
39.08515 250
39.10526 284
39.12538 268
39.14549 290
39.1656 349
39.18572 360
39.20583 402
39.22594 508
39.24606 567
39.26617 617
39.28628 798
39.3064 963
39.32651 1216
39.34663 1296
39.36674 1508
39.38685 1532
39.40697 1597
39.42708 1453
39.44719 1389
39.46731 1282
39.48742 1119
39.50754 963
39.52765 856
39.54776 712
39.56788 569
39.58799 441
39.6081 378
39.62822 315
39.64833 332
39.66845 278
39.68856 252
39.70867 253
39.72879 231
39.7489 230
39.76901 208
39.78913 236
39.80924 207
39.82935 224
39.84947 202
39.86958 210
39.8897 185
39.90981 183
39.92992 192
39.95004 191
39.97015 186
39.99026 188
40.01038 204
40.03049 216
40.05061 231
40.07072 257
40.09083 230
40.11095 272
40.13106 268
40.15117 332
40.17129 372
40.1914 420
40.21152 415
40.23163 407
40.25174 393
40.27186 383
40.29197 342
40.31208 340
40.3322 290
40.35231 245
40.37242 207
40.39254 203
40.41265 203
40.43277 191
40.45288 175
40.47299 178
40.49311 148
40.51322 161
40.53333 162
40.55345 146
40.57356 159
40.59368 168
40.61379 163
40.6339 177
40.65402 158
40.67413 166
40.69424 159
40.71436 177
40.73447 169
40.75458 162
40.7747 163
40.79481 167
40.81493 166
40.83504 166
40.85515 160
40.87527 188
40.89538 174
40.91549 160
40.93561 193
40.95572 198
40.97584 223
40.99595 249
41.01606 225
41.03618 228
41.05629 229
41.0764 246
41.09652 208
41.11663 242
41.13675 212
41.15686 211
41.17697 233
41.19709 179
41.2172 190
41.23731 180
41.25743 179
41.27754 161
41.29765 179
41.31777 141
41.33788 141
41.358 164
41.37811 166
41.39822 147
41.41834 145
41.43845 153
41.45856 155
41.47868 149
41.49879 173
41.51891 157
41.53902 158
41.55913 159
41.57925 171
41.59936 184
41.61947 206
41.63959 191
41.6597 202
41.67982 192
41.69993 208
41.72004 205
41.74016 161
41.76027 167
41.78038 177
41.8005 152
41.82061 173
41.84072 161
41.86084 174
41.88095 176
41.90107 182
41.92118 150
41.94129 184
41.96141 148
41.98152 180
42.00163 196
42.02175 179
42.04186 180
42.06198 178
42.08209 164
42.1022 195
42.12232 167
42.14243 180
42.16254 179
42.18266 200
42.20277 213
42.22289 249
42.243 268
42.26311 291
42.28323 338
42.30334 434
42.32345 412
42.34357 485
42.36368 575
42.38379 525
42.40391 494
42.42402 498
42.44414 461
42.46425 425
42.48436 375
42.50448 326
42.52459 289
42.5447 267
42.56482 253
42.58493 246
42.60505 205
42.62516 208
42.64527 186
42.66539 183
42.6855 204
42.70561 191
42.72573 209
42.74584 201
42.76595 208
42.78607 175
42.80618 208
42.8263 211
42.84641 203
42.86652 195
42.88664 267
42.90675 231
42.92686 268
42.94698 293
42.96709 315
42.98721 372
43.00732 407
43.02743 510
43.04755 587
43.06766 653
43.08777 747
43.10789 785
43.128 871
43.14812 864
43.16823 853
43.18834 789
43.20846 813
43.22857 768
43.24868 702
43.2688 607
43.28891 469
43.30902 453
43.32914 395
43.34925 365
43.36937 304
43.38948 308
43.40959 257
43.42971 243
43.44982 225
43.46993 226
43.49005 217
43.51016 205
43.53028 204
43.55039 175
43.5705 177
43.59062 173
43.61073 188
43.63084 195
43.65096 194
43.67107 184
43.69119 178
43.7113 169
43.73141 166
43.75153 176
43.77164 175
43.79175 154
43.81187 153
43.83198 193
43.85209 166
43.87221 158
43.89232 150
43.91244 170
43.93255 155
43.95266 151
43.97278 164
43.99289 166
44.013 163
44.03312 160
44.05323 156
44.07335 158
44.09346 123
44.11357 132
44.13369 145
44.1538 147
44.17391 165
44.19403 155
44.21414 174
44.23426 153
44.25437 175
44.27448 149
44.2946 155
44.31471 146
44.33482 145
44.35494 145
44.37505 147
44.39516 160
44.41528 159
44.43539 146
44.45551 148
44.47562 134
44.49573 158
44.51585 153
44.53596 178
44.55607 149
44.57619 176
44.5963 160
44.61642 149
44.63653 156
44.65664 169
44.67676 139
44.69687 165
44.71698 181
44.7371 168
44.75721 175
44.77732 176
44.79744 166
44.81755 196
44.83767 196
44.85778 187
44.87789 210
44.89801 178
44.91812 193
44.93823 183
44.95835 154
44.97846 175
44.99858 163
45.01869 164
45.0388 173
45.05892 165
45.07903 152
45.09914 157
45.11926 152
45.13937 162
45.15949 153
45.1796 156
45.19971 152
45.21983 136
45.23994 167
45.26005 173
45.28017 153
45.30028 162
45.32039 188
45.34051 152
45.36062 171
45.38074 163
45.40085 176
45.42096 167
45.44108 183
45.46119 155
45.4813 157
45.50142 203
45.52153 193
45.54165 164
45.56176 221
45.58187 249
45.60199 234
45.6221 293
45.64221 327
45.66233 352
45.68244 351
45.70256 404
45.72267 367
45.74278 432
45.7629 363
45.78301 338
45.80312 341
45.82324 281
45.84335 278
45.86346 261
45.88358 270
45.90369 240
45.92381 183
45.94392 183
45.96403 175
45.98415 165
46.00426 152
46.02437 171
46.04449 163
46.0646 185
46.08472 161
46.10483 158
46.12494 150
46.14506 169
46.16517 150
46.18528 150
46.2054 164
46.22551 129
46.24563 155
46.26574 156
46.28585 158
46.30597 149
46.32608 156
46.34619 141
46.36631 180
46.38642 155
46.40653 149
46.42665 161
46.44676 144
46.46688 154
46.48699 135
46.5071 169
46.52722 170
46.54733 153
46.56744 160
46.58756 148
46.60767 158
46.62779 149
46.6479 171
46.66801 178
46.68813 162
46.70824 143
46.72835 176
46.74847 185
46.76858 171
46.78869 229
46.80881 201
46.82892 215
46.84904 200
46.86915 209
46.88926 184
46.90938 248
46.92949 234
46.9496 251
46.96972 289
46.98983 320
47.00995 367
47.03006 345
47.05017 429
47.07029 415
47.0904 434
47.11051 464
47.13063 480
47.15074 486
47.17086 469
47.19097 451
47.21108 449
47.2312 416
47.25131 445
47.27142 457
47.29154 458
47.31165 470
47.33176 537
47.35188 577
47.37199 650
47.39211 711
47.41222 778
47.43233 857
47.45245 900
47.47256 867
47.49267 889
47.51279 910
47.5329 924
47.55302 852
47.57313 799
47.59324 725
47.61336 651
47.63347 602
47.65358 555
47.6737 481
47.69381 445
47.71393 413
47.73404 339
47.75415 340
47.77427 324
47.79438 283
47.81449 253
47.83461 250
47.85472 249
47.87483 251
47.89495 222
47.91506 242
47.93518 206
47.95529 247
47.9754 222
47.99552 217
48.01563 216
48.03574 206
48.05586 191
48.07597 224
48.09609 228
48.1162 223
48.13631 238
48.15643 241
48.17654 239
48.19665 260
48.21677 300
48.23688 279
48.257 310
48.27711 305
48.29722 341
48.31734 422
48.33745 476
48.35756 530
48.37768 644
48.39779 707
48.4179 781
48.43802 880
48.45813 944
48.47825 1035
48.49836 996
48.51847 950
48.53859 942
48.5587 833
48.57881 816
48.59893 768
48.61904 746
48.63916 662
48.65927 596
48.67938 465
48.6995 440
48.71961 367
48.73972 362
48.75984 335
48.77995 304
48.80006 274
48.82018 262
48.84029 277
48.86041 241
48.88052 226
48.90063 209
48.92075 207
48.94086 221
48.96097 184
48.98109 180
49.0012 178
49.02132 205
49.04143 197
49.06154 176
49.08166 179
49.10177 167
49.12188 170
49.142 148
49.16211 177
49.18223 176
49.20234 157
49.22245 157
49.24257 162
49.26268 143
49.28279 184
49.30291 176
49.32302 145
49.34313 161
49.36325 155
49.38336 173
49.40348 143
49.42359 144
49.4437 157
49.46382 160
49.48393 158
49.50404 161
49.52416 163
49.54427 155
49.56439 150
49.5845 158
49.60461 156
49.62473 154
49.64484 179
49.66495 181
49.68507 197
49.70518 197
49.7253 184
49.74541 208
49.76552 222
49.78564 190
49.80575 227
49.82586 216
49.84598 247
49.86609 267
49.8862 294
49.90632 345
49.92643 391
49.94655 517
49.96666 623
49.98677 735
50.00689 829
50.027 974
50.04711 976
50.06723 1032
50.08734 1034
50.10746 931
50.12757 775
50.14768 679
50.1678 663
50.18791 645
50.20802 599
50.22814 520
50.24825 443
50.26837 325
50.28848 320
50.30859 249
50.32871 222
50.34882 230
50.36893 209
50.38905 242
50.40916 221
50.42927 267
50.44939 215
50.4695 213
50.48962 221
50.50973 242
50.52984 231
50.54996 218
50.57007 204
50.59018 221
50.6103 221
50.63041 216
50.65053 180
50.67064 164
50.69075 187
50.71087 196
50.73098 190
50.75109 157
50.77121 191
50.79132 177
50.81143 167
50.83155 173
50.85166 188
50.87178 177
50.89189 190
50.912 176
50.93212 198
50.95223 209
50.97234 195
50.99246 216
51.01257 166
51.03269 198
51.0528 201
51.07291 159
51.09303 166
51.11314 183
51.13325 169
51.15337 182
51.17348 173
51.1936 138
51.21371 142
51.23382 141
51.25394 153
51.27405 141
51.29416 158
51.31428 147
51.33439 147
51.3545 104
51.37462 128
51.39473 131
51.41485 146
51.43496 124
51.45507 148
51.47519 122
51.4953 128
51.51541 138
51.53553 142
51.55564 148
51.57576 122
51.59587 133
51.61598 154
51.6361 121
51.65621 129
51.67632 119
51.69644 133
51.71655 130
51.73667 101
51.75678 115
51.77689 136
51.79701 125
51.81712 123
51.83723 111
51.85735 123
51.87746 120
51.89757 122
51.91769 118
51.9378 137
51.95792 135
51.97803 123
51.99814 131
52.01826 129
52.03837 134
52.05848 129
52.0786 120
52.09871 114
52.11883 126
52.13894 127
52.15905 137
52.17917 126
52.19928 134
52.21939 102
52.23951 143
52.25962 127
52.27974 131
52.29985 123
52.31996 131
52.34008 107
52.36019 129
52.3803 123
52.40042 118
52.42053 126
52.44064 126
52.46076 123
52.48087 158
52.50099 142
52.5211 120
52.54121 143
52.56133 139
52.58144 117
52.60155 140
52.62167 124
52.64178 114
52.6619 129
52.68201 128
52.70212 144
52.72224 125
52.74235 133
52.76246 124
52.78258 140
52.80269 139
52.8228 144
52.84292 112
52.86303 137
52.88315 125
52.90326 137
52.92337 127
52.94349 142
52.9636 138
52.98371 132
53.00383 133
53.02394 137
53.04406 146
53.06417 145
53.08428 137
53.1044 117
53.12451 150
53.14462 128
53.16474 131
53.18485 137
53.20497 132
53.22508 132
53.24519 130
53.26531 132
53.28542 121
53.30553 129
53.32565 141
53.34576 156
53.36587 135
53.38599 139
53.4061 131
53.42622 138
53.44633 132
53.46644 139
53.48656 134
53.50667 154
53.52678 131
53.5469 129
53.56701 134
53.58713 142
53.60724 141
53.62735 142
53.64747 151
53.66758 149
53.68769 125
53.70781 137
53.72792 130
53.74804 128
53.76815 122
53.78826 137
53.80838 130
53.82849 140
53.8486 154
53.86872 148
53.88883 143
53.90894 151
53.92906 137
53.94917 150
53.96929 141
53.9894 138
54.00951 148
54.02963 138
54.04974 151
54.06985 171
54.08997 141
54.11008 155
54.1302 142
54.15031 131
54.17042 141
54.19054 140
54.21065 140
54.23076 143
54.25088 151
54.27099 130
54.29111 149
54.31122 148
54.33133 135
54.35145 130
54.37156 137
54.39167 153
54.41179 153
54.4319 163
54.45201 152
54.47213 143
54.49224 150
54.51236 153
54.53247 161
54.55258 149
54.5727 172
54.59281 164
54.61292 171
54.63304 209
54.65315 196
54.67327 253
54.69338 275
54.71349 319
54.73361 334
54.75372 373
54.77383 408
54.79395 435
54.81406 407
54.83417 360
54.85429 335
54.8744 288
54.89452 331
54.91463 280
54.93474 294
54.95486 258
54.97497 244
54.99508 223
55.0152 203
55.03531 210
55.05543 208
55.07554 180
55.09565 185
55.11577 203
55.13588 201
55.15599 201
55.17611 209
55.19622 209
55.21634 230
55.23645 287
55.25656 258
55.27668 212
55.29679 234
55.3169 213
55.33702 248
55.35713 193
55.37724 201
55.39736 195
55.41747 203
55.43759 198
55.4577 200
55.47781 183
55.49793 143
55.51804 154
55.53815 167
55.55827 132
55.57838 157
55.5985 158
55.61861 153
55.63872 138
55.65884 146
55.67895 155
55.69906 138
55.71918 145
55.73929 151
55.75941 137
55.77952 118
55.79963 130
55.81975 157
55.83986 119
55.85997 133
55.88009 142
55.9002 153
55.92031 151
55.94043 162
55.96054 132
55.98066 126
56.00077 137
56.02088 144
56.041 149
56.06111 146
56.08122 136
56.10134 127
56.12145 149
56.14157 124
56.16168 151
56.18179 146
56.20191 159
56.22202 128
56.24213 172
56.26225 143
56.28236 134
56.30248 166
56.32259 147
56.3427 166
56.36282 183
56.38293 157
56.40304 203
56.42316 213
56.44327 209
56.46338 198
56.4835 248
56.50361 245
56.52373 243
56.54384 258
56.56395 269
56.58407 256
56.60418 228
56.62429 269
56.64441 244
56.66452 230
56.68464 209
56.70475 233
56.72486 223
56.74498 218
56.76509 209
56.7852 209
56.80532 192
56.82543 179
56.84554 176
56.86566 153
56.88577 153
56.90589 153
56.926 167
56.94611 152
56.96623 170
56.98634 175
57.00645 178
57.02657 170
57.04668 178
57.0668 146
57.08691 174
57.10702 207
57.12714 220
57.14725 176
57.16736 222
57.18748 234
57.20759 263
57.22771 265
57.24782 266
57.26793 324
57.28805 302
57.30816 363
57.32827 412
57.34839 448
57.3685 465
57.38861 472
57.40873 474
57.42884 483
57.44896 447
57.46907 444
57.48918 379
57.5093 394
57.52941 403
57.54952 375
57.56964 362
57.58975 326
57.60987 264
57.62998 252
57.65009 261
57.67021 224
57.69032 216
57.71043 204
57.73055 174
57.75066 179
57.77078 178
57.79089 208
57.811 159
57.83112 151
57.85123 166
57.87134 156
57.89146 155
57.91157 164
57.93168 155
57.9518 162
57.97191 188
57.99203 198
58.01214 174
58.03225 181
58.05237 163
58.07248 160
58.09259 154
58.11271 159
58.13282 193
58.15294 165
58.17305 188
58.19316 128
58.21328 166
58.23339 169
58.2535 171
58.27362 134
58.29373 139
58.31385 149
58.33396 129
58.35407 124
58.37419 124
58.3943 154
58.41441 126
58.43453 129
58.45464 113
58.47475 155
58.49487 136
58.51498 146
58.5351 154
58.55521 134
58.57532 132
58.59544 148
58.61555 141
58.63566 146
58.65578 116
58.67589 127
58.69601 155
58.71612 132
58.73623 144
58.75635 131
58.77646 143
58.79657 138
58.81669 151
58.8368 134
58.85691 140
58.87703 125
58.89714 128
58.91726 150
58.93737 152
58.95748 149
58.9776 138
58.99771 141
59.01782 126
59.03794 148
59.05805 145
59.07817 170
59.09828 136
59.11839 122
59.13851 133
59.15862 156
59.17873 132
59.19885 134
59.21896 133
59.23908 146
59.25919 148
59.2793 149
59.29942 140
59.31953 126
59.33964 127
59.35976 128
59.37987 140
59.39998 133
59.4201 149
59.44021 165
59.46033 140
59.48044 164
59.50055 175
59.52067 161
59.54078 182
59.56089 172
59.58101 181
59.60112 191
59.62124 176
59.64135 211
59.66146 224
59.68158 270
59.70169 282
59.7218 319
59.74192 344
59.76203 409
59.78215 464
59.80226 551
59.82237 581
59.84249 637
59.8626 736
59.88271 773
59.90283 682
59.92294 643
59.94305 538
59.96317 507
59.98328 459
60.0034 457
60.02351 459
60.04362 424
60.06374 401
60.08385 381
60.10396 341
60.12408 250
60.14419 199
60.16431 187
60.18442 168
60.20453 173
60.22465 161
60.24476 154
60.26487 183
60.28499 164
60.3051 172
60.32522 170
60.34533 171
60.36544 151
60.38556 148
60.40567 173
60.42578 165
60.4459 191
60.46601 206
60.48612 201
60.50624 219
60.52635 214
60.54647 220
60.56658 254
60.58669 288
60.60681 315
60.62692 331
60.64703 332
60.66715 359
60.68726 316
60.70738 322
60.72749 313
60.7476 294
60.76772 303
60.78783 318
60.80794 325
60.82806 284
60.84817 316
60.86828 316
60.8884 291
60.90851 280
60.92863 278
60.94874 277
60.96885 282
60.98897 262
61.00908 251
61.02919 265
61.04931 262
61.06942 271
61.08954 254
61.10965 273
61.12976 254
61.14988 239
61.16999 264
61.1901 225
61.21022 233
61.23033 249
61.25045 210
61.27056 223
61.29067 236
61.31079 236
61.3309 243
61.35101 257
61.37113 278
61.39124 251
61.41135 219
61.43147 224
61.45158 245
61.4717 224
61.49181 208
61.51192 226
61.53204 195
61.55215 200
61.57226 192
61.59238 201
61.61249 182
61.63261 209
61.65272 177
61.67283 155
61.69295 169
61.71306 162
61.73317 168
61.75329 185
61.7734 174
61.79352 180
61.81363 160
61.83374 170
61.85386 165
61.87397 162
61.89408 150
61.9142 147
61.93431 148
61.95442 172
61.97454 163
61.99465 147
62.01477 162
62.03488 144
62.05499 156
62.07511 155
62.09522 150
62.11533 149
62.13545 137
62.15556 154
62.17568 150
62.19579 175
62.2159 142
62.23602 136
62.25613 135
62.27624 155
62.29636 144
62.31647 123
62.33659 150
62.3567 135
62.37681 121
62.39693 132
62.41704 136
62.43715 146
62.45727 133
62.47738 139
62.49749 148
62.51761 138
62.53772 131
62.55784 158
62.57795 144
62.59806 126
62.61818 134
62.63829 148
62.6584 129
62.67852 158
62.69863 136
62.71875 160
62.73886 153
62.75897 135
62.77909 143
62.7992 116
62.81931 154
62.83943 136
62.85954 144
62.87965 151
62.89977 165
62.91988 171
62.94 172
62.96011 141
62.98022 183
63.00034 167
63.02045 197
63.04056 203
63.06068 210
63.08079 181
63.10091 169
63.12102 191
63.14113 205
63.16125 195
63.18136 188
63.20147 191
63.22159 178
63.2417 181
63.26182 174
63.28193 154
63.30204 163
63.32216 152
63.34227 152
63.36238 153
63.3825 160
63.40261 157
63.42272 154
63.44284 156
63.46295 136
63.48307 146
63.50318 136
63.52329 154
63.54341 146
63.56352 141
63.58363 136
63.60375 139
63.62386 133
63.64398 150
63.66409 130
63.6842 145
63.70432 132
63.72443 149
63.74454 159
63.76466 160
63.78477 176
63.80489 151
63.825 197
63.84511 200
63.86523 206
63.88534 225
63.90545 222
63.92557 236
63.94568 233
63.96579 277
63.98591 220
64.00602 218
64.02614 225
64.04625 193
64.06636 210
64.08648 214
64.10659 183
64.1267 187
64.14682 197
64.16693 183
64.18705 183
64.20716 186
64.22727 161
64.24739 175
64.2675 141
64.28761 127
64.30773 164
64.32784 154
64.34796 147
64.36807 175
64.38818 163
64.4083 162
64.42841 175
64.44852 183
64.46864 176
64.48875 172
64.50886 209
64.52898 221
64.54909 231
64.56921 270
64.58932 259
64.60943 294
64.62955 337
64.64966 357
64.66977 355
64.68989 324
64.71 343
64.73012 298
64.75023 280
64.77034 314
64.79046 307
64.81057 260
64.83068 285
64.8508 226
64.87091 239
64.89102 202
64.91114 222
64.93125 194
64.95137 201
64.97148 226
64.99159 190
65.01171 176
65.03182 196
65.05193 183
65.07205 155
65.09216 162
65.11228 154
65.13239 188
65.1525 148
65.17262 171
65.19273 158
65.21284 166
65.23296 141
65.25307 146
65.27319 153
65.2933 137
65.31341 149
65.33353 182
65.35364 173
65.37375 189
65.39387 174
65.41398 171
65.43409 179
65.45421 184
65.47432 185
65.49444 202
65.51455 207
65.53466 208
65.55478 220
65.57489 244
65.595 245
65.61512 252
65.63523 238
65.65535 217
65.67546 223
65.69557 240
65.71569 232
65.7358 213
65.75591 230
65.77603 213
65.79614 219
65.81626 188
65.83637 211
65.85648 176
65.8766 186
65.89671 163
65.91682 140
65.93694 139
65.95705 164
65.97716 148
65.99728 145
66.01739 159
66.03751 152
66.05762 137
66.07773 150
66.09785 151
66.11796 140
66.13807 116
66.15819 136
66.1783 158
66.19842 142
66.21853 161
66.23864 125
66.25876 136
66.27887 132
66.29898 131
66.3191 131
66.33921 131
66.35933 122
66.37944 123
66.39955 123
66.41967 127
66.43978 129
66.45989 117
66.48001 131
66.50012 123
66.52023 117
66.54035 139
66.56046 123
66.58058 109
66.60069 122
66.6208 115
66.64092 114
66.66103 111
66.68114 117
66.70126 108
66.72137 125
66.74149 107
66.7616 110
66.78171 120
66.80183 116
66.82194 128
66.84205 123
66.86217 126
66.88228 108
66.90239 136
66.92251 118
66.94262 141
66.96274 135
66.98285 110
67.00296 140
67.02308 141
67.04319 123
67.0633 118
67.08342 139
67.10353 123
67.12365 129
67.14376 133
67.16387 137
67.18399 142
67.2041 134
67.22421 158
67.24433 161
67.26444 159
67.28456 159
67.30467 167
67.32478 160
67.3449 147
67.36501 137
67.38512 162
67.40524 160
67.42535 163
67.44546 189
67.46558 203
67.48569 195
67.50581 224
67.52592 265
67.54603 283
67.56615 307
67.58626 341
67.60637 413
67.62649 429
67.6466 508
67.66672 453
67.68683 437
67.70694 410
67.72706 347
67.74717 327
67.76728 316
67.7874 346
67.80751 332
67.82763 357
67.84774 362
67.86785 393
67.88797 378
67.90808 338
67.92819 366
67.94831 388
67.96842 380
67.98853 447
68.00865 506
68.02876 540
68.04888 623
68.06899 595
68.0891 568
68.10922 529
68.12933 497
68.14944 524
68.16956 501
68.18967 533
68.20979 557
68.2299 606
68.25001 557
68.27013 555
68.29024 460
68.31035 412
68.33047 307
68.35058 330
68.3707 306
68.39081 277
68.41092 276
68.43104 260
68.45115 261
68.47126 264
68.49138 185
68.51149 177
68.5316 160
68.55172 159
68.57183 149
68.59195 166
68.61206 161
68.63217 140
68.65229 132
68.6724 136
68.69251 156
68.71263 136
68.73274 129
68.75286 138
68.77297 135
68.79308 115
68.8132 121
68.83331 134
68.85342 135
68.87354 121
68.89365 134
68.91376 143
68.93388 143
68.95399 129
68.97411 137
68.99422 135
69.01433 145
69.03445 142
69.05456 136
69.07467 147
69.09479 145
69.1149 163
69.13502 163
69.15513 155
69.17524 167
69.19536 172
69.21547 153
69.23558 147
69.2557 150
69.27581 142
69.29593 137
69.31604 154
69.33615 148
69.35627 172
69.37638 158
69.39649 154
69.41661 147
69.43672 143
69.45683 128
69.47695 142
69.49706 141
69.51718 127
69.53729 149
69.5574 140
69.57752 119
69.59763 132
69.61774 120
69.63786 113
69.65797 121
69.67809 128
69.6982 101
69.71831 137
69.73843 163
69.75854 140
69.77865 130
69.79877 117
69.81888 116
69.839 122
69.85911 136
69.87922 142
69.89934 118
69.91945 131
69.93956 127
69.95968 125
69.97979 131
69.9999 146
70.02002 129
70.04013 145
70.06025 127
70.08036 161
70.10047 153
70.12059 161
70.1407 203
70.16081 157
70.18093 172
70.20104 168
70.22116 178
70.24127 192
70.26138 170
70.2815 168
70.30161 196
70.32172 155
70.34184 162
70.36195 168
70.38207 165
70.40218 171
70.42229 140
70.44241 174
70.46252 154
70.48263 134
70.50275 158
70.52286 135
70.54297 124
70.56309 136
70.5832 137
70.60332 137
70.62343 133
70.64354 106
70.66366 107
70.68377 133
70.70388 150
70.724 132
70.74411 128
70.76423 131
70.78434 126
70.80445 126
70.82457 132
70.84468 125
70.86479 122
70.88491 108
70.90502 119
70.92513 105
70.94525 112
70.96536 119
70.98548 108
71.00559 111
71.0257 118
71.04582 110
71.06593 112
71.08604 126
71.10616 117
71.12627 129
71.14639 106
71.1665 129
71.18661 115
71.20673 103
71.22684 97
71.24695 113
71.26707 105
71.28718 120
71.3073 119
71.32741 112
71.34752 119
71.36764 124
71.38775 126
71.40786 108
71.42798 114
71.44809 123
71.4682 109
71.48832 100
71.50843 119
71.52855 129
71.54866 124
71.56877 112
71.58889 135
71.609 125
71.62911 136
71.64923 132
71.66934 137
71.68946 125
71.70957 109
71.72968 138
71.7498 107
71.76991 121
71.79002 116
71.81014 132
71.83025 133
71.85037 118
71.87048 114
71.89059 114
71.91071 125
71.93082 97
71.95093 105
71.97105 134
71.99116 125
72.01127 119
72.03139 134
72.0515 117
72.07162 130
72.09173 132
72.11184 147
72.13196 126
72.15207 137
72.17218 103
72.1923 140
72.21241 126
72.23253 124
72.25264 125
72.27275 116
72.29287 123
72.31298 137
72.33309 120
72.35321 129
72.37332 126
72.39344 125
72.41355 133
72.43366 137
72.45378 113
72.47389 140
72.494 130
72.51412 144
72.53423 119
72.55434 128
72.57446 136
72.59457 106
72.61469 156
72.6348 148
72.65491 166
72.67503 164
72.69514 150
72.71525 159
72.73537 164
72.75548 189
72.7756 183
72.79571 173
72.81582 188
72.83594 185
72.85605 203
72.87616 240
72.89628 203
72.91639 197
72.9365 231
72.95662 206
72.97673 219
72.99685 202
73.01696 202
73.03707 202
73.05719 190
73.0773 192
73.09741 194
73.11753 199
73.13764 185
73.15776 205
73.17787 192
73.19798 189
73.2181 167
73.23821 189
73.25832 205
73.27844 188
73.29855 235
73.31867 243
73.33878 237
73.35889 256
73.37901 249
73.39912 267
73.41923 240
73.43935 217
73.45946 205
73.47957 208
73.49969 183
73.5198 191
73.53992 175
73.56003 191
73.58014 185
73.60026 221
73.62037 208
73.64048 211
73.6606 180
73.68071 174
73.70083 157
73.72094 162
73.74105 168
73.76117 157
73.78128 149
73.80139 149
73.82151 144
73.84162 129
73.86174 144
73.88185 136
73.90196 141
73.92208 136
73.94219 112
73.9623 124
73.98242 145
74.00253 124
74.02264 151
74.04276 154
74.06287 109
74.08299 128
74.1031 127
74.12321 105
74.14333 97
74.16344 134
74.18355 121
74.20367 126
74.22378 129
74.2439 120
74.26401 143
74.28412 115
74.30424 114
74.32435 105
74.34446 121
74.36458 123
74.38469 115
74.40481 98
74.42492 133
74.44503 120
74.46515 116
74.48526 109
74.50537 108
74.52549 107
74.5456 112
74.56571 129
74.58583 115
74.60594 127
74.62606 121
74.64617 125
74.66628 120
74.6864 122
74.70651 134
74.72662 130
74.74674 111
74.76685 124
74.78697 117
74.80708 112
74.82719 114
74.84731 103
74.86742 122
74.88753 132
74.90765 110
74.92776 111
74.94787 119
74.96799 121
74.9881 120
75.00822 96
