3.00117 19725
3.02128 18752
3.0414 18266
3.06151 18067
3.08162 17253
3.10174 17087
3.12185 16344
3.14197 15879
3.16208 15425
3.18219 14996
3.20231 14722
3.22242 14096
3.24253 14020
3.26265 13314
3.28276 12561
3.30288 12591
3.32299 12100
3.3431 11505
3.36322 11467
3.38333 10928
3.40344 10615
3.42356 10130
3.44367 9966
3.46379 9625
3.4839 9021
3.50401 8904
3.52413 8361
3.54424 8185
3.56435 8020
3.58447 7567
3.60458 7558
3.62469 7096
3.64481 6964
3.66492 6523
3.68504 6408
3.70515 6384
3.72526 5749
3.74538 5664
3.76549 5511
3.7856 5095
3.80572 5099
3.82583 4623
3.84595 4635
3.86606 4500
3.88617 4293
3.90629 4162
3.9264 3811
3.94651 3730
3.96663 3515
3.98674 3375
4.00686 3282
4.02697 2973
4.04708 2941
4.0672 2890
4.08731 2679
4.10742 2619
4.12754 2465
4.14765 2355
4.16776 2324
4.18788 2142
4.20799 2054
4.22811 1850
4.24822 1947
4.26833 1889
4.28845 1702
4.30856 1749
4.32867 1516
4.34879 1576
4.3689 1578
4.38902 1500
4.40913 1452
4.42924 1330
4.44936 1401
4.46947 1315
4.48958 1306
4.5097 1375
4.52981 1228
4.54992 1211
4.57004 1262
4.59015 1150
4.61027 1151
4.63038 1113
4.65049 1022
4.67061 1039
4.69072 1060
4.71083 1000
4.73095 924
4.75106 924
4.77118 984
4.79129 935
4.8114 865
4.83152 816
4.85163 824
4.87174 813
4.89186 787
4.91197 800
4.93209 744
4.9522 714
4.97231 694
4.99243 713
5.01254 694
5.03265 659
5.05277 596
5.07288 618
5.09299 672
5.11311 581
5.13322 559
5.15334 578
5.17345 605
5.19356 550
5.21368 495
5.23379 504
5.2539 528
5.27402 544
5.29413 499
5.31425 495
5.33436 480
5.35447 411
5.37459 440
5.3947 471
5.41481 444
5.43493 393
5.45504 433
5.47516 412
5.49527 399
5.51538 372
5.5355 388
5.55561 361
5.57572 381
5.59584 364
5.61595 331
5.63606 342
5.65618 343
5.67629 336
5.69641 355
5.71652 302
5.73663 312
5.75675 308
5.77686 306
5.79697 357
5.81709 292
5.8372 286
5.85732 337
5.87743 283
5.89754 308
5.91766 299
5.93777 274
5.95788 265
5.978 248
5.99811 273
6.01823 269
6.03834 295
6.05845 246
6.07857 238
6.09868 262
6.11879 231
6.13891 241
6.15902 289
6.17913 264
6.19925 228
6.21936 235
6.23948 244
6.25959 247
6.2797 249
6.29982 239
6.31993 256
6.34004 223
6.36016 244
6.38027 205
6.40039 232
6.4205 222
6.44061 212
6.46073 247
6.48084 225
6.50095 214
6.52107 210
6.54118 224
6.56129 197
6.58141 220
6.60152 210
6.62164 221
6.64175 191
6.66186 201
6.68198 189
6.70209 215
6.7222 228
6.74232 232
6.76243 187
6.78255 198
6.80266 188
6.82277 177
6.84289 204
6.863 186
6.88311 204
6.90323 213
6.92334 216
6.94346 193
6.96357 181
6.98368 180
7.0038 180
7.02391 184
7.04402 190
7.06414 205
7.08425 187
7.10436 187
7.12448 189
7.14459 204
7.16471 215
7.18482 197
7.20493 215
7.22505 207
7.24516 200
7.26527 209
7.28539 217
7.3055 192
7.32562 190
7.34573 182
7.36584 195
7.38596 209
7.40607 212
7.42618 230
7.4463 212
7.46641 194
7.48653 196
7.50664 211
7.52675 206
7.54687 198
7.56698 227
7.58709 207
7.60721 215
7.62732 214
7.64743 204
7.66755 203
7.68766 221
7.70778 235
7.72789 201
7.748 219
7.76812 244
7.78823 187
7.80834 244
7.82846 208
7.84857 220
7.86869 206
7.8888 184
7.90891 200
7.92903 208
7.94914 213
7.96925 222
7.98937 229
8.00948 197
8.0296 221
8.04971 192
8.06982 184
8.08994 211
8.11005 219
8.13016 217
8.15028 216
8.17039 236
8.1905 199
8.21062 200
8.23073 222
8.25085 230
8.27096 206
8.29107 234
8.31119 226
8.3313 221
8.35141 237
8.37153 220
8.39164 215
8.41176 239
8.43187 237
8.45198 228
8.4721 212
8.49221 246
8.51232 232
8.53244 247
8.55255 231
8.57266 221
8.59278 225
8.61289 239
8.63301 223
8.65312 241
8.67323 240
8.69335 246
8.71346 223
8.73357 239
8.75369 229
8.7738 251
8.79392 250
8.81403 232
8.83414 229
8.85426 248
8.87437 231
8.89448 232
8.9146 216
8.93471 215
8.95483 220
8.97494 217
8.99505 203
9.01517 201
9.03528 219
9.05539 217
9.07551 238
9.09562 248
9.11573 216
9.13585 271
9.15596 216
9.17608 208
9.19619 235
9.2163 260
9.23642 214
9.25653 246
9.27664 246
9.29676 229
9.31687 225
9.33699 227
9.3571 231
9.37721 231
9.39733 207
9.41744 223
9.43755 184
9.45767 241
9.47778 236
9.4979 204
9.51801 213
9.53812 218
9.55824 234
9.57835 228
9.59846 243
9.61858 210
9.63869 221
9.6588 230
9.67892 211
9.69903 222
9.71915 234
9.73926 244
9.75937 237
9.77949 229
9.7996 223
9.81971 227
9.83983 223
9.85994 268
9.88006 223
9.90017 216
9.92028 217
9.9404 218
9.96051 231
9.98062 202
10.00074 234
10.02085 219
10.04097 223
10.06108 236
10.08119 229
10.10131 229
10.12142 217
10.14153 226
10.16165 242
10.18176 197
10.20187 229
10.22199 249
10.2421 203
10.26222 213
10.28233 232
10.30244 262
10.32256 250
10.34267 212
10.36278 249
10.3829 237
10.40301 225
10.42313 246
10.44324 203
10.46335 218
10.48347 207
10.50358 246
10.52369 229
10.54381 240
10.56392 241
10.58403 236
10.60415 225
10.62426 193
10.64438 217
10.66449 223
10.6846 211
10.70472 242
10.72483 252
10.74494 228
10.76506 219
10.78517 200
10.80529 242
10.8254 232
10.84551 195
10.86563 236
10.88574 222
10.90585 226
10.92597 200
10.94608 229
10.9662 215
10.98631 241
11.00642 206
11.02654 225
11.04665 204
11.06676 199
11.08688 222
11.10699 220
11.1271 242
11.14722 186
11.16733 237
11.18745 213
11.20756 226
11.22767 229
11.24779 223
11.2679 205
11.28801 202
11.30813 222
11.32824 250
11.34836 234
11.36847 231
11.38858 235
11.4087 220
11.42881 220
11.44892 239
11.46904 215
11.48915 199
11.50927 210
11.52938 229
11.54949 213
11.56961 218
11.58972 202
11.60983 211
11.62995 228
11.65006 237
11.67017 232
11.69029 205
11.7104 220
11.73052 225
11.75063 227
11.77074 236
11.79086 218
11.81097 224
11.83108 221
11.8512 207
11.87131 224
11.89143 198
11.91154 238
11.93165 206
11.95177 226
11.97188 221
11.99199 248
12.01211 210
12.03222 207
12.05234 257
12.07245 253
12.09256 215
12.11268 239
12.13279 244
12.1529 218
12.17302 247
12.19313 209
12.21324 249
12.23336 233
12.25347 251
12.27359 264
12.2937 295
12.31381 260
12.33393 269
12.35404 241
12.37415 253
12.39427 252
12.41438 239
12.4345 221
12.45461 226
12.47472 206
12.49484 262
12.51495 222
12.53506 245
12.55518 213
12.57529 208
12.5954 234
12.61552 221
12.63563 238
12.65575 238
12.67586 219
12.69597 206
12.71609 223
12.7362 190
12.75631 206
12.77643 223
12.79654 259
12.81666 196
12.83677 220
12.85688 183
12.877 206
12.89711 226
12.91722 203
12.93734 201
12.95745 208
12.97757 192
12.99768 230
13.01779 208
13.03791 209
13.05802 180
13.07813 173
13.09825 223
13.11836 189
13.13847 209
13.15859 210
13.1787 185
13.19882 189
13.21893 189
13.23904 182
13.25916 178
13.27927 195
13.29938 212
13.3195 228
13.33961 200
13.35973 206
13.37984 205
13.39995 182
13.42007 207
13.44018 212
13.46029 202
13.48041 198
13.50052 192
13.52064 191
13.54075 187
13.56086 216
13.58098 176
13.60109 188
13.6212 183
13.64132 209
13.66143 190
13.68154 185
13.70166 198
13.72177 166
13.74189 195
13.762 205
13.78211 217
13.80223 187
13.82234 212
13.84245 211
13.86257 211
13.88268 217
13.9028 180
13.92291 216
13.94302 202
13.96314 167
13.98325 183
14.00336 163
14.02348 188
14.04359 197
14.06371 169
14.08382 162
14.10393 192
14.12405 194
14.14416 194
14.16427 170
14.18439 184
14.2045 183
14.22461 182
14.24473 193
14.26484 180
14.28496 191
14.30507 197
14.32518 172
14.3453 185
14.36541 192
14.38552 182
14.40564 177
14.42575 153
14.44587 178
14.46598 179
14.48609 208
14.50621 174
14.52632 188
14.54643 175
14.56655 211
14.58666 187
14.60677 208
14.62689 182
14.647 204
14.66712 181
14.68723 179
14.70734 176
14.72746 187
14.74757 197
14.76768 178
14.7878 173
14.80791 177
14.82803 178
14.84814 149
14.86825 186
14.88837 162
14.90848 172
14.92859 171
14.94871 199
14.96882 185
14.98894 176
15.00905 167
15.02916 174
15.04928 178
15.06939 191
15.0895 170
15.10962 210
15.12973 167
15.14984 167
15.16996 183
15.19007 147
15.21019 192
15.2303 169
15.25041 204
15.27053 161
15.29064 176
15.31075 172
15.33087 191
15.35098 165
15.3711 156
15.39121 178
15.41132 168
15.43144 180
15.45155 176
15.47166 176
15.49178 187
15.51189 176
15.53201 183
15.55212 175
15.57223 177
15.59235 159
15.61246 180
15.63257 173
15.65269 175
15.6728 169
15.69291 198
15.71303 167
15.73314 160
15.75326 150
15.77337 168
15.79348 152
15.8136 172
15.83371 181
15.85382 182
15.87394 175
15.89405 182
15.91417 158
15.93428 196
15.95439 159
15.97451 198
15.99462 181
16.01473 170
16.03485 148
16.05496 173
16.07508 167
16.09519 187
16.1153 157
16.13542 188
16.15553 176
16.17564 160
16.19576 170
16.21587 157
16.23598 168
16.2561 166
16.27621 169
16.29633 159
16.31644 180
16.33655 149
16.35667 162
16.37678 166
16.39689 171
16.41701 160
16.43712 184
16.45724 181
16.47735 192
16.49746 172
16.51758 175
16.53769 169
16.5578 181
16.57792 162
16.59803 148
16.61814 184
16.63826 167
16.65837 166
16.67849 178
16.6986 173
16.71871 154
16.73883 147
16.75894 179
16.77905 165
16.79917 182
16.81928 168
16.8394 194
16.85951 162
16.87962 153
16.89974 181
16.91985 163
16.93996 156
16.96008 167
16.98019 200
17.00031 176
17.02042 156
17.04053 166
17.06065 140
17.08076 174
17.10087 173
17.12099 161
17.1411 170
17.16121 189
17.18133 159
17.20144 166
17.22156 175
17.24167 162
17.26178 186
17.2819 175
17.30201 159
17.32212 174
17.34224 168
17.36235 166
17.38247 165
17.40258 178
17.42269 173
17.44281 177
17.46292 186
17.48303 169
17.50315 168
17.52326 166
17.54338 130
17.56349 168
17.5836 154
17.60372 182
17.62383 180
17.64394 171
17.66406 156
17.68417 150
17.70428 164
17.7244 163
17.74451 164
17.76463 150
17.78474 178
17.80485 190
17.82497 160
17.84508 145
17.86519 175
17.88531 166
17.90542 160
17.92554 186
17.94565 153
17.96576 156
17.98588 140
18.00599 171
18.0261 177
18.04622 192
18.06633 144
18.08645 164
18.10656 170
18.12667 161
18.14679 148
18.1669 150
18.18701 175
18.20713 190
18.22724 174
18.24735 174
18.26747 193
18.28758 166
18.3077 162
18.32781 196
18.34792 150
18.36804 177
18.38815 168
18.40826 186
18.42838 153
18.44849 167
18.46861 168
18.48872 164
18.50883 167
18.52895 172
18.54906 152
18.56917 163
18.58929 174
18.6094 176
18.62951 166
18.64963 166
18.66974 176
18.68986 203
18.70997 194
18.73008 178
18.7502 174
18.77031 205
18.79042 172
18.81054 199
18.83065 178
18.85077 188
18.87088 158
18.89099 176
18.91111 183
18.93122 159
18.95133 188
18.97145 167
18.99156 166
19.01168 177
19.03179 170
19.0519 187
19.07202 183
19.09213 183
19.11224 166
19.13236 167
19.15247 147
19.17258 165
19.1927 170
19.21281 168
19.23293 156
19.25304 182
19.27315 177
19.29327 174
19.31338 164
19.33349 173
19.35361 166
19.37372 206
19.39384 156
19.41395 203
19.43406 174
19.45418 173
19.47429 170
19.4944 191
19.51452 188
19.53463 182
19.55475 180
19.57486 196
19.59497 197
19.61509 195
19.6352 230
19.65531 243
19.67543 233
19.69554 234
19.71565 223
19.73577 258
19.75588 253
19.776 239
19.79611 247
19.81622 269
19.83634 290
19.85645 245
19.87656 278
19.89668 251
19.91679 269
19.93691 274
19.95702 256
19.97713 255
19.99725 273
20.01736 274
20.03747 233
20.05759 262
20.0777 245
20.09782 279
20.11793 242
20.13804 272
20.15816 273
20.17827 283
20.19838 317
20.2185 278
20.23861 303
20.25872 301
20.27884 262
20.29895 312
20.31907 335
20.33918 317
20.35929 331
20.37941 316
20.39952 375
20.41963 346
20.43975 376
20.45986 365
20.47998 394
20.50009 386
20.5202 391
20.54032 387
20.56043 401
20.58054 396
20.60066 438
20.62077 506
20.64088 623
20.661 654
20.68111 908
20.70123 1065
20.72134 1498
20.74145 2041
20.76157 3061
20.78168 4329
20.80179 5956
20.82191 7768
20.84202 8983
20.86214 9456
20.88225 8327
20.90236 6252
20.92248 4477
20.94259 2816
20.9627 1589
20.98282 941
21.00293 730
21.02305 595
21.04316 554
21.06327 500
21.08339 443
21.1035 446
21.12361 394
21.14373 387
21.16384 378
21.18395 321
21.20407 348
21.22418 305
21.2443 286
21.26441 316
21.28452 281
21.30464 288
21.32475 279
21.34486 262
21.36498 283
21.38509 283
21.40521 272
21.42532 278
21.44543 251
21.46555 250
21.48566 250
21.50577 252
21.52589 256
21.546 227
21.56612 230
21.58623 240
21.60634 238
21.62646 241
21.64657 210
21.66668 251
21.6868 258
21.70691 264
21.72702 223
21.74714 222
21.76725 232
21.78737 230
21.80748 210
21.82759 226
21.84771 264
21.86782 262
21.88793 211
21.90805 243
21.92816 208
21.94828 222
21.96839 233
21.9885 212
22.00862 207
22.02873 228
22.04884 250
22.06896 227
22.08907 211
22.10919 199
22.1293 245
22.14941 201
22.16953 225
22.18964 197
22.20975 256
22.22987 215
22.24998 212
22.27009 235
22.29021 227
22.31032 218
22.33044 230
22.35055 196
22.37066 239
22.39078 218
22.41089 226
22.431 198
22.45112 194
22.47123 201
22.49135 200
22.51146 207
22.53157 189
22.55169 225
22.5718 193
22.59191 240
22.61203 214
22.63214 196
22.65225 200
22.67237 191
22.69248 208
22.7126 177
22.73271 213
22.75282 225
22.77294 205
22.79305 195
22.81316 209
22.83328 180
22.85339 205
22.87351 232
22.89362 187
22.91373 223
22.93385 191
22.95396 190
22.97407 197
22.99419 210
23.0143 190
23.03442 207
23.05453 188
23.07464 207
23.09476 235
23.11487 183
23.13498 191
23.1551 214
23.17521 238
23.19532 206
23.21544 202
23.23555 209
23.25567 191
23.27578 212
23.29589 217
23.31601 186
23.33612 223
23.35623 204
23.37635 181
23.39646 183
23.41658 232
23.43669 213
23.4568 209
23.47692 188
23.49703 189
23.51714 196
23.53726 191
23.55737 246
23.57749 197
23.5976 201
23.61771 197
23.63783 193
23.65794 224
23.67805 223
23.69817 211
23.71828 211
23.73839 190
23.75851 175
23.77862 226
23.79874 191
23.81885 206
23.83896 215
23.85908 216
23.87919 221
23.8993 242
23.91942 228
23.93953 282
23.95965 288
23.97976 290
23.99987 283
24.01999 303
24.0401 279
24.06021 293
24.08033 261
24.10044 241
24.12056 206
24.14067 225
24.16078 210
24.1809 239
24.20101 238
24.22112 205
24.24124 244
24.26135 227
24.28146 192
24.30158 216
24.32169 212
24.34181 215
24.36192 213
24.38203 200
24.40215 245
24.42226 190
24.44237 208
24.46249 211
24.4826 203
24.50272 215
24.52283 215
24.54294 196
24.56306 190
24.58317 197
24.60328 204
24.6234 192
24.64351 180
24.66362 215
24.68374 201
24.70385 214
24.72397 228
24.74408 222
24.76419 221
24.78431 258
24.80442 245
24.82453 261
24.84465 247
24.86476 236
24.88488 232
24.90499 203
24.9251 207
24.94522 224
24.96533 228
24.98544 234
25.00556 233
25.02567 228
25.04579 209
25.0659 184
25.08601 215
25.10613 213
25.12624 204
25.14635 217
25.16647 224
25.18658 202
25.20669 239
25.22681 225
25.24692 226
25.26704 225
25.28715 196
25.30726 223
25.32738 234
25.34749 236
25.3676 217
25.38772 245
25.40783 224
25.42795 230
25.44806 186
25.46817 233
25.48829 239
25.5084 290
25.52851 251
25.54863 268
25.56874 271
25.58886 299
25.60897 308
25.62908 310
25.6492 356
25.66931 338
25.68942 334
25.70954 403
25.72965 396
25.74976 417
25.76988 408
25.78999 440
25.81011 477
25.83022 446
25.85033 464
25.87045 502
25.89056 481
25.91067 471
25.93079 488
25.9509 454
25.97102 509
25.99113 544
26.01124 517
26.03136 535
26.05147 550
26.07158 539
26.0917 552
26.11181 572
26.13193 680
26.15204 747
26.17215 787
26.19227 855
26.21238 829
26.23249 911
26.25261 982
26.27272 1096
26.29283 1158
26.31295 1264
26.33306 1356
26.35318 1504
26.37329 1665
26.3934 1973
26.41352 2366
26.43363 2897
26.45374 3811
26.47386 5153
26.49397 7113
26.51409 10109
26.5342 14111
26.55431 20150
26.57443 27267
26.59454 35173
26.61465 41628
26.63477 43612
26.65488 38555
26.67499 30665
26.69511 23194
26.71522 17057
26.73534 11039
26.75545 6062
26.77556 3304
26.79568 2456
26.81579 1997
26.8359 1698
26.85602 1541
26.87613 1407
26.89625 1305
26.91636 1220
26.93647 1052
26.95659 887
26.9767 824
26.99681 754
27.01693 749
27.03704 684
27.05716 577
27.07727 518
27.09738 562
27.1175 566
27.13761 509
27.15772 456
27.17784 455
27.19795 457
27.21806 446
27.23818 432
27.25829 439
27.27841 397
27.29852 415
27.31863 454
27.33875 412
27.35886 427
27.37897 408
27.39909 368
27.4192 417
27.43932 399
27.45943 410
27.47954 373
27.49966 396
27.51977 351
27.53988 367
27.56 328
27.58011 329
27.60023 307
27.62034 326
27.64045 338
27.66057 304
27.68068 324
27.70079 333
27.72091 315
27.74102 300
27.76113 286
27.78125 340
27.80136 309
27.82148 282
27.84159 317
27.8617 274
27.88182 294
27.90193 276
27.92204 320
27.94216 300
27.96227 292
27.98239 310
28.0025 315
28.02261 277
28.04273 288
28.06284 247
28.08295 268
28.10307 296
28.12318 277
28.1433 289
28.16341 271
28.18352 269
28.20364 260
28.22375 294
28.24386 262
28.26398 274
28.28409 257
28.3042 261
28.32432 270
28.34443 255
28.36455 267
28.38466 247
28.40477 273
28.42489 256
28.445 272
28.46511 236
28.48523 256
28.50534 267
28.52546 241
28.54557 260
28.56568 258
28.5858 269
28.60591 255
28.62602 249
28.64614 242
28.66625 240
28.68636 237
28.70648 256
28.72659 195
28.74671 238
28.76682 230
28.78693 222
28.80705 261
28.82716 241
28.84727 235
28.86739 237
28.8875 217
28.90762 232
28.92773 236
28.94784 243
28.96796 248
28.98807 241
29.00818 243
29.0283 243
29.04841 253
29.06853 251
29.08864 256
29.10875 255
29.12887 237
29.14898 222
29.16909 232
29.18921 235
29.20932 205
29.22943 222
29.24955 222
29.26966 226
29.28978 225
29.30989 229
29.33 238
29.35012 203
29.37023 226
29.39034 235
29.41046 228
29.43057 204
29.45069 221
29.4708 219
29.49091 224
29.51103 211
29.53114 243
29.55125 213
29.57137 244
29.59148 238
29.6116 215
29.63171 200
29.65182 240
29.67194 215
29.69205 195
29.71216 221
29.73228 203
29.75239 225
29.7725 192
29.79262 216
29.81273 190
29.83285 192
29.85296 233
29.87307 206
29.89319 188
29.9133 195
29.93341 205
29.95353 203
29.97364 216
29.99376 204
30.01387 215
30.03398 207
30.0541 199
30.07421 198
30.09432 238
30.11444 207
30.13455 211
30.15467 184
30.17478 216
30.19489 202
30.21501 212
30.23512 204
30.25523 204
30.27535 205
30.29546 198
30.31557 186
30.33569 211
30.3558 210
30.37592 201
30.39603 188
30.41614 199
30.43626 189
30.45637 198
30.47648 200
30.4966 189
30.51671 171
30.53683 179
30.55694 182
30.57705 193
30.59717 215
30.61728 220
30.63739 188
30.65751 204
30.67762 160
30.69773 192
30.71785 187
30.73796 201
30.75808 192
30.77819 220
30.7983 198
30.81842 206
30.83853 219
30.85864 187
30.87876 199
30.89887 192
30.91899 200
30.9391 209
30.95921 200
30.97933 209
30.99944 210
31.01955 189
31.03967 168
31.05978 202
31.0799 165
31.10001 170
31.12012 187
31.14024 177
31.16035 181
31.18046 177
31.20058 186
31.22069 181
31.2408 201
31.26092 158
31.28103 163
31.30115 194
31.32126 204
31.34137 199
31.36149 203
31.3816 173
31.40171 176
31.42183 207
31.44194 169
31.46206 159
31.48217 180
31.50228 191
31.5224 197
31.54251 195
31.56262 180
31.58274 150
31.60285 179
31.62297 187
31.64308 178
31.66319 179
31.68331 151
31.70342 179
31.72353 155
31.74365 156
31.76376 163
31.78387 165
31.80399 158
31.8241 155
31.84422 164
31.86433 168
31.88444 176
31.90456 154
31.92467 148
31.94478 170
31.9649 172
31.98501 167
32.00513 151
32.02524 173
32.04535 173
32.06547 170
32.08558 159
32.10569 178
32.12581 177
32.14592 157
32.16604 174
32.18615 151
32.20626 164
32.22638 166
32.24649 160
32.2666 168
32.28672 180
32.30683 148
32.32694 157
32.34706 175
32.36717 147
32.38729 149
32.4074 158
32.42751 174
32.44763 188
32.46774 150
32.48785 188
32.50797 154
32.52808 154
32.5482 159
32.56831 149
32.58842 147
32.60854 150
32.62865 189
32.64876 161
32.66888 166
32.68899 164
32.7091 150
32.72922 167
32.74933 177
32.76945 167
32.78956 165
32.80967 144
32.82979 173
32.8499 181
32.87001 190
32.89013 177
32.91024 174
32.93036 153
32.95047 171
32.97058 174
32.9907 159
33.01081 165
33.03092 172
33.05104 174
33.07115 178
33.09127 173
33.11138 163
33.13149 154
33.15161 145
33.17172 178
33.19183 159
33.21195 160
33.23206 183
33.25217 172
33.27229 160
33.2924 149
33.31252 163
33.33263 159
33.35274 171
33.37286 140
33.39297 156
33.41308 178
33.4332 138
33.45331 154
33.47343 169
33.49354 159
33.51365 162
33.53377 157
33.55388 169
33.57399 168
33.59411 146
33.61422 149
33.63434 131
33.65445 132
33.67456 149
33.69468 172
33.71479 155
33.7349 160
33.75502 122
33.77513 155
33.79524 134
33.81536 144
33.83547 139
33.85559 145
33.8757 149
33.89581 142
33.91593 155
33.93604 140
33.95615 147
33.97627 152
33.99638 143
34.0165 161
34.03661 148
34.05672 144
34.07684 161
34.09695 150
34.11706 162
34.13718 148
34.15729 150
34.17741 183
34.19752 138
34.21763 165
34.23775 152
34.25786 148
34.27797 137
34.29809 127
34.3182 155
34.33831 177
34.35843 171
34.37854 170
34.39866 166
34.41877 170
34.43888 166
34.459 169
34.47911 159
34.49922 189
34.51934 176
34.53945 186
34.55957 166
34.57968 164
34.59979 175
34.61991 190
34.64002 193
34.66013 153
34.68025 175
34.70036 199
34.72047 154
34.74059 173
34.7607 165
34.78082 176
34.80093 207
34.82104 186
34.84116 181
34.86127 206
34.88138 230
34.9015 177
34.92161 216
34.94173 177
34.96184 205
34.98195 188
35.00207 184
35.02218 171
35.04229 196
35.06241 184
35.08252 179
35.10264 186
35.12275 174
35.14286 186
35.16298 208
35.18309 171
35.2032 182
35.22332 193
35.24343 182
35.26354 186
35.28366 219
35.30377 192
35.32389 205
35.344 198
35.36411 198
35.38423 203
35.40434 196
35.42445 168
35.44457 213
35.46468 210
35.4848 206
35.50491 217
35.52502 182
35.54514 238
35.56525 175
35.58536 215
35.60548 205
35.62559 216
35.64571 210
35.66582 189
35.68593 203
35.70605 221
35.72616 192
35.74627 196
35.76639 206
35.7865 172
35.80661 186
35.82673 215
35.84684 202
35.86696 222
35.88707 188
35.90718 191
35.9273 204
35.94741 207
35.96752 203
35.98764 212
36.00775 217
36.02787 209
36.04798 224
36.06809 206
36.08821 233
36.10832 216
36.12843 202
36.14855 208
36.16866 244
36.18878 236
36.20889 259
36.229 253
36.24912 244
36.26923 300
36.28934 318
36.30946 369
36.32957 442
36.34968 542
36.3698 604
36.38991 783
36.41003 1015
36.43014 1206
36.45025 1596
36.47037 2019
36.49048 2452
36.51059 2824
36.53071 2839
36.55082 2557
36.57094 2136
36.59105 1720
36.61116 1520
36.63128 1384
36.65139 1084
36.6715 736
36.69162 485
36.71173 387
36.73184 305
36.75196 282
36.77207 240
36.79219 261
36.8123 218
36.83241 241
36.85253 251
36.87264 235
36.89275 198
36.91287 221
36.93298 227
36.9531 199
36.97321 211
36.99332 190
37.01344 201
37.03355 187
37.05366 205
37.07378 195
37.09389 197
37.11401 187
37.13412 166
37.15423 172
37.17435 164
37.19446 195
37.21457 168
37.23469 183
37.2548 182
37.27491 178
37.29503 163
37.31514 167
37.33526 183
37.35537 180
37.37548 168
37.3956 175
37.41571 160
37.43582 168
37.45594 151
37.47605 161
37.49617 179
37.51628 150
37.53639 160
37.55651 160
37.57662 176
37.59673 159
37.61685 179
37.63696 173
37.65708 166
37.67719 180
37.6973 149
37.71742 154
37.73753 160
37.75764 183
37.77776 192
37.79787 133
37.81798 158
37.8381 157
37.85821 185
37.87833 168
37.89844 172
37.91855 175
37.93867 154
37.95878 144
37.97889 165
37.99901 208
38.01912 193
38.03924 159
38.05935 155
38.07946 181
38.09958 166
38.11969 180
38.1398 182
38.15992 183
38.18003 183
38.20015 189
38.22026 169
38.24037 178
38.26049 206
38.2806 156
38.30071 184
38.32083 178
38.34094 178
38.36105 196
38.38117 189
38.40128 171
38.4214 181
38.44151 146
38.46162 171
38.48174 178
38.50185 179
38.52196 164
38.54208 198
38.56219 173
38.58231 189
38.60242 164
38.62253 175
38.64265 156
38.66276 184
38.68287 181
38.70299 179
38.7231 160
38.74321 149
38.76333 210
38.78344 180
38.80356 187
38.82367 167
38.84378 190
38.8639 185
38.88401 186
38.90412 173
38.92424 207
38.94435 185
38.96447 167
38.98458 192
39.00469 191
39.02481 187
39.04492 199
39.06503 202
39.08515 217
39.10526 215
39.12538 244
39.14549 259
39.1656 286
39.18572 295
39.20583 315
39.22594 383
39.24606 395
39.26617 440
39.28628 562
39.3064 697
39.32651 846
39.34663 1116
39.36674 1410
39.38685 1818
39.40697 2117
39.42708 2500
39.44719 2730
39.46731 2534
39.48742 2047
39.50754 1635
39.52765 1357
39.54776 1392
39.56788 1244
39.58799 900
39.6081 590
39.62822 403
39.64833 329
39.66845 309
39.68856 270
39.70867 255
39.72879 247
39.7489 232
39.76901 242
39.78913 225
39.80924 213
39.82935 226
39.84947 220
39.86958 216
39.8897 219
39.90981 219
39.92992 208
39.95004 210
39.97015 203
39.99026 255
40.01038 259
40.03049 252
40.05061 284
40.07072 272
40.09083 314
40.11095 400
40.13106 453
40.15117 526
40.17129 635
40.1914 750
40.21152 958
40.23163 1179
40.25174 1329
40.27186 1383
40.29197 1296
40.31208 1042
40.3322 877
40.35231 792
40.37242 729
40.39254 631
40.41265 481
40.43277 371
40.45288 276
40.47299 235
40.49311 230
40.51322 203
40.53333 207
40.55345 226
40.57356 219
40.59368 181
40.61379 184
40.6339 166
40.65402 179
40.67413 170
40.69424 180
40.71436 198
40.73447 188
40.75458 181
40.7747 199
40.79481 179
40.81493 183
40.83504 164
40.85515 178
40.87527 180
40.89538 173
40.91549 172
40.93561 171
40.95572 171
40.97584 164
40.99595 171
41.01606 171
41.03618 175
41.05629 179
41.0764 163
41.09652 190
41.11663 169
41.13675 157
41.15686 180
41.17697 146
41.19709 134
41.2172 190
41.23731 169
41.25743 150
41.27754 186
41.29765 168
41.31777 168
41.33788 164
41.358 159
41.37811 154
41.39822 159
41.41834 167
41.43845 171
41.45856 162
41.47868 176
41.49879 179
41.51891 145
41.53902 159
41.55913 158
41.57925 197
41.59936 175
41.61947 189
41.63959 163
41.6597 161
41.67982 181
41.69993 164
41.72004 198
41.74016 165
41.76027 154
41.78038 182
41.8005 151
41.82061 174
41.84072 188
41.86084 195
41.88095 177
41.90107 188
41.92118 166
41.94129 178
41.96141 212
41.98152 184
42.00163 209
42.02175 181
42.04186 186
42.06198 198
42.08209 237
42.1022 224
42.12232 243
42.14243 220
42.16254 281
42.18266 277
42.20277 288
42.22289 334
42.243 390
42.26311 449
42.28323 530
42.30334 650
42.32345 857
42.34357 1033
42.36368 1212
42.38379 1452
42.40391 1721
42.42402 1807
42.44414 1815
42.46425 1593
42.48436 1193
42.50448 1064
42.52459 1018
42.5447 962
42.56482 811
42.58493 611
42.60505 408
42.62516 283
42.64527 244
42.66539 242
42.6855 228
42.70561 214
42.72573 203
42.74584 183
42.76595 194
42.78607 179
42.80618 181
42.8263 178
42.84641 188
42.86652 201
42.88664 161
42.90675 166
42.92686 155
42.94698 156
42.96709 148
42.98721 144
43.00732 164
43.02743 156
43.04755 190
43.06766 165
43.08777 155
43.10789 163
43.128 159
43.14812 175
43.16823 144
43.18834 162
43.20846 147
43.22857 162
43.24868 170
43.2688 145
43.28891 154
43.30902 140
43.32914 156
43.34925 150
43.36937 162
43.38948 150
43.40959 143
43.42971 140
43.44982 136
43.46993 171
43.49005 139
43.51016 154
43.53028 143
43.55039 141
43.5705 151
43.59062 168
43.61073 144
43.63084 138
43.65096 149
43.67107 166
43.69119 156
43.7113 141
43.73141 149
43.75153 147
43.77164 151
43.79175 168
43.81187 158
43.83198 139
43.85209 164
43.87221 143
43.89232 139
43.91244 128
43.93255 141
43.95266 156
43.97278 149
43.99289 136
44.013 146
44.03312 146
44.05323 162
44.07335 143
44.09346 156
44.11357 133
44.13369 162
44.1538 157
44.17391 151
44.19403 147
44.21414 121
44.23426 145
44.25437 155
44.27448 127
44.2946 143
44.31471 145
44.33482 146
44.35494 145
44.37505 173
44.39516 155
44.41528 154
44.43539 150
44.45551 168
44.47562 147
44.49573 160
44.51585 154
44.53596 139
44.55607 160
44.57619 150
44.5963 149
44.61642 152
44.63653 141
44.65664 159
44.67676 155
44.69687 162
44.71698 137
44.7371 160
44.75721 138
44.77732 163
44.79744 143
44.81755 153
44.83767 150
44.85778 152
44.87789 147
44.89801 176
44.91812 161
44.93823 179
44.95835 153
44.97846 149
44.99858 158
45.01869 150
45.0388 160
45.05892 158
45.07903 170
45.09914 166
45.11926 160
45.13937 164
45.15949 158
45.1796 164
45.19971 151
45.21983 147
45.23994 155
45.26005 149
45.28017 159
45.30028 152
45.32039 172
45.34051 190
45.36062 178
45.38074 181
45.40085 169
45.42096 173
45.44108 196
45.46119 197
45.4813 216
45.50142 229
45.52153 238
45.54165 272
45.56176 260
45.58187 315
45.60199 376
45.6221 433
45.64221 478
45.66233 583
45.68244 704
45.70256 858
45.72267 997
45.74278 1197
45.7629 1234
45.78301 1242
45.80312 1073
45.82324 857
45.84335 750
45.86346 700
45.88358 655
45.90369 643
45.92381 507
45.94392 383
45.96403 273
45.98415 229
46.00426 217
46.02437 193
46.04449 197
46.0646 203
46.08472 181
46.10483 164
46.12494 172
46.14506 166
46.16517 165
46.18528 170
46.2054 158
46.22551 163
46.24563 151
46.26574 161
46.28585 160
46.30597 148
46.32608 146
46.34619 148
46.36631 143
46.38642 147
46.40653 139
46.42665 137
46.44676 138
46.46688 149
46.48699 154
46.5071 145
46.52722 161
46.54733 153
46.56744 131
46.58756 160
46.60767 141
46.62779 135
46.6479 118
46.66801 144
46.68813 129
46.70824 146
46.72835 140
46.74847 155
46.76858 139
46.78869 146
46.80881 145
46.82892 137
46.84904 155
46.86915 143
46.88926 156
46.90938 128
46.92949 151
46.9496 133
46.96972 129
46.98983 132
47.00995 113
47.03006 145
47.05017 127
47.07029 121
47.0904 152
47.11051 120
47.13063 129
47.15074 134
47.17086 141
47.19097 144
47.21108 129
47.2312 148
47.25131 136
47.27142 133
47.29154 147
47.31165 111
47.33176 150
47.35188 133
47.37199 156
47.39211 136
47.41222 144
47.43233 134
47.45245 135
47.47256 128
47.49267 149
47.51279 130
47.5329 147
47.55302 135
47.57313 149
47.59324 133
47.61336 151
47.63347 137
47.65358 159
47.6737 127
47.69381 135
47.71393 124
47.73404 150
47.75415 154
47.77427 140
47.79438 126
47.81449 133
47.83461 136
47.85472 145
47.87483 114
47.89495 126
47.91506 149
47.93518 141
47.95529 132
47.9754 130
47.99552 144
48.01563 142
48.03574 137
48.05586 127
48.07597 128
48.09609 137
48.1162 138
48.13631 131
48.15643 131
48.17654 145
48.19665 123
48.21677 135
48.23688 130
48.257 130
48.27711 144
48.29722 151
48.31734 148
48.33745 147
48.35756 162
48.37768 140
48.39779 155
48.4179 163
48.43802 158
48.45813 154
48.47825 174
48.49836 130
48.51847 157
48.53859 164
48.5587 145
48.57881 136
48.59893 140
48.61904 135
48.63916 148
48.65927 166
48.67938 150
48.6995 151
48.71961 159
48.73972 141
48.75984 178
48.77995 170
48.80006 158
48.82018 154
48.84029 158
48.86041 152
48.88052 154
48.90063 151
48.92075 148
48.94086 144
48.96097 132
48.98109 161
49.0012 151
49.02132 153
49.04143 166
49.06154 155
49.08166 182
49.10177 161
49.12188 146
49.142 156
49.16211 156
49.18223 151
49.20234 152
49.22245 165
49.24257 147
49.26268 161
49.28279 165
49.30291 182
49.32302 170
49.34313 174
49.36325 163
49.38336 188
49.40348 152
49.42359 162
49.4437 176
49.46382 184
49.48393 198
49.50404 182
49.52416 176
49.54427 157
49.56439 204
49.5845 214
49.60461 194
49.62473 166
49.64484 234
49.66495 228
49.68507 231
49.70518 219
49.7253 270
49.74541 282
49.76552 293
49.78564 323
49.80575 353
49.82586 419
49.84598 453
49.86609 485
49.8862 554
49.90632 640
49.92643 762
49.94655 944
49.96666 1176
49.98677 1453
50.00689 1821
50.027 2324
50.04711 2863
50.06723 3323
50.08734 3810
50.10746 4068
50.12757 4010
50.14768 3387
50.1678 2775
50.18791 2335
50.20802 2172
50.22814 2170
50.24825 2060
50.26837 1878
50.28848 1411
50.30859 877
50.32871 574
50.34882 455
50.36893 394
50.38905 332
50.40916 333
50.42927 287
50.44939 319
50.4695 273
50.48962 260
50.50973 274
50.52984 272
50.54996 294
50.57007 253
50.59018 290
50.6103 262
50.63041 271
50.65053 237
50.67064 200
50.69075 224
50.71087 187
50.73098 188
50.75109 220
50.77121 188
50.79132 170
50.81143 162
50.83155 171
50.85166 157
50.87178 161
50.89189 160
50.912 157
50.93212 190
50.95223 134
50.97234 167
50.99246 126
51.01257 135
51.03269 172
51.0528 149
51.07291 149
51.09303 154
51.11314 153
51.13325 163
51.15337 156
51.17348 165
51.1936 149
51.21371 121
51.23382 155
51.25394 138
51.27405 136
51.29416 127
51.31428 134
51.33439 124
51.3545 143
51.37462 135
51.39473 138
51.41485 157
51.43496 146
51.45507 163
51.47519 157
51.4953 137
51.51541 137
51.53553 149
51.55564 126
51.57576 127
51.59587 131
51.61598 119
51.6361 117
51.65621 129
51.67632 131
51.69644 153
51.71655 146
51.73667 125
51.75678 141
51.77689 113
51.79701 140
51.81712 125
51.83723 143
51.85735 149
51.87746 130
51.89757 155
51.91769 131
51.9378 131
51.95792 148
51.97803 132
51.99814 113
52.01826 121
52.03837 127
52.05848 119
52.0786 140
52.09871 120
52.11883 125
52.13894 134
52.15905 129
52.17917 135
52.19928 133
52.21939 134
52.23951 136
52.25962 120
52.27974 135
52.29985 136
52.31996 148
52.34008 129
52.36019 108
52.3803 126
52.40042 137
52.42053 140
52.44064 114
52.46076 127
52.48087 135
52.50099 130
52.5211 130
52.54121 146
52.56133 121
52.58144 140
52.60155 132
52.62167 135
52.64178 135
52.6619 137
52.68201 138
52.70212 129
52.72224 140
52.74235 122
52.76246 145
52.78258 142
52.80269 130
52.8228 149
52.84292 146
52.86303 134
52.88315 140
52.90326 146
52.92337 123
52.94349 144
52.9636 137
52.98371 144
53.00383 117
53.02394 162
53.04406 151
53.06417 118
53.08428 168
53.1044 124
53.12451 143
53.14462 158
53.16474 141
53.18485 127
53.20497 149
53.22508 149
53.24519 126
53.26531 136
53.28542 145
53.30553 135
53.32565 155
53.34576 127
53.36587 146
53.38599 132
53.4061 163
53.42622 145
53.44633 168
53.46644 135
53.48656 156
53.50667 132
53.52678 139
53.5469 165
53.56701 157
53.58713 139
53.60724 132
53.62735 142
53.64747 134
53.66758 150
53.68769 143
53.70781 142
53.72792 148
53.74804 175
53.76815 172
53.78826 152
53.80838 154
53.82849 158
53.8486 135
53.86872 136
53.88883 155
53.90894 149
53.92906 142
53.94917 146
53.96929 151
53.9894 143
54.00951 149
54.02963 198
54.04974 173
54.06985 159
54.08997 165
54.11008 150
54.1302 162
54.15031 139
54.17042 189
54.19054 144
54.21065 167
54.23076 168
54.25088 172
54.27099 186
54.29111 163
54.31122 175
54.33133 176
54.35145 167
54.37156 177
54.39167 178
54.41179 179
54.4319 190
54.45201 197
54.47213 175
54.49224 197
54.51236 199
54.53247 212
54.55258 235
54.5727 242
54.59281 260
54.61292 270
54.63304 330
54.65315 325
54.67327 370
54.69338 434
54.71349 511
54.73361 611
54.75372 718
54.77383 901
54.79395 1079
54.81406 1134
54.83417 1209
54.85429 1242
54.8744 1145
54.89452 915
54.91463 729
54.93474 721
54.95486 710
54.97497 712
54.99508 747
55.0152 660
55.03531 541
55.05543 427
55.07554 336
55.09565 296
55.11577 307
55.13588 280
55.15599 328
55.17611 369
55.19622 394
55.21634 469
55.23645 493
55.25656 578
55.27668 610
55.29679 649
55.3169 600
55.33702 523
55.35713 449
55.37724 390
55.39736 377
55.41747 334
55.43759 408
55.4577 386
55.47781 354
55.49793 309
55.51804 217
55.53815 212
55.55827 171
55.57838 169
55.5985 163
55.61861 164
55.63872 154
55.65884 166
55.67895 149
55.69906 159
55.71918 165
55.73929 148
55.75941 157
55.77952 160
55.79963 147
55.81975 149
55.83986 134
55.85997 146
55.88009 146
55.9002 166
55.92031 147
55.94043 150
55.96054 151
55.98066 158
56.00077 144
56.02088 152
56.041 131
56.06111 152
56.08122 126
56.10134 125
56.12145 151
56.14157 148
56.16168 138
56.18179 136
56.20191 151
56.22202 128
56.24213 134
56.26225 131
56.28236 114
56.30248 146
56.32259 144
56.3427 139
56.36282 136
56.38293 135
56.40304 146
56.42316 150
56.44327 136
56.46338 145
56.4835 139
56.50361 118
56.52373 140
56.54384 127
56.56395 138
56.58407 141
56.60418 134
56.62429 152
56.64441 159
56.66452 145
56.68464 130
56.70475 133
56.72486 125
56.74498 126
56.76509 148
56.7852 142
56.80532 133
56.82543 143
56.84554 146
56.86566 139
56.88577 120
56.90589 149
56.926 140
56.94611 123
56.96623 133
56.98634 127
57.00645 144
57.02657 159
57.04668 141
57.0668 172
57.08691 148
57.10702 167
57.12714 173
57.14725 189
57.16736 168
57.18748 186
57.20759 216
57.22771 195
57.24782 177
57.26793 173
57.28805 163
57.30816 153
57.32827 156
57.34839 175
57.3685 162
57.38861 147
57.40873 132
57.42884 137
57.44896 154
57.46907 124
57.48918 124
57.5093 129
57.52941 129
57.54952 116
57.56964 120
57.58975 128
57.60987 140
57.62998 148
57.65009 125
57.67021 143
57.69032 115
57.71043 125
57.73055 154
57.75066 152
57.77078 154
57.79089 150
57.811 136
57.83112 129
57.85123 125
57.87134 146
57.89146 117
57.91157 143
57.93168 115
57.9518 141
57.97191 123
57.99203 142
58.01214 139
58.03225 124
58.05237 139
58.07248 145
58.09259 151
58.11271 131
58.13282 133
58.15294 138
58.17305 129
58.19316 142
58.21328 138
58.23339 128
58.2535 157
58.27362 137
58.29373 135
58.31385 141
58.33396 117
58.35407 124
58.37419 137
58.3943 134
58.41441 128
58.43453 134
58.45464 129
58.47475 147
58.49487 137
58.51498 127
58.5351 142
58.55521 152
58.57532 145
58.59544 123
58.61555 140
58.63566 137
58.65578 133
58.67589 147
58.69601 138
58.71612 135
58.73623 127
58.75635 151
58.77646 143
58.79657 124
58.81669 143
58.8368 147
58.85691 139
58.87703 151
58.89714 142
58.91726 159
58.93737 162
58.95748 139
58.9776 156
58.99771 137
59.01782 152
59.03794 139
59.05805 141
59.07817 146
59.09828 158
59.11839 119
59.13851 154
59.15862 152
59.17873 139
59.19885 142
59.21896 163
59.23908 168
59.25919 157
59.2793 159
59.29942 186
59.31953 167
59.33964 141
59.35976 145
59.37987 174
59.39998 177
59.4201 174
59.44021 205
59.46033 163
59.48044 197
59.50055 202
59.52067 214
59.54078 231
59.56089 266
59.58101 266
59.60112 279
59.62124 308
59.64135 361
59.66146 398
59.68158 393
59.70169 479
59.7218 560
59.74192 664
59.76203 806
59.78215 944
59.80226 1122
59.82237 1403
59.84249 1622
59.8626 2016
59.88271 2261
59.90283 2534
59.92294 2524
59.94305 2583
59.96317 2111
59.98328 1728
60.0034 1420
60.02351 1298
60.04362 1307
60.06374 1399
60.08385 1319
60.10396 1276
60.12408 1073
60.14419 763
60.16431 540
60.18442 407
60.20453 347
60.22465 287
60.24476 257
60.26487 223
60.28499 200
60.3051 209
60.32522 193
60.34533 202
60.36544 169
60.38556 171
60.40567 176
60.42578 148
60.4459 176
60.46601 155
60.48612 173
60.50624 163
60.52635 168
60.54647 161
60.56658 180
60.58669 155
60.60681 137
60.62692 178
60.64703 152
60.66715 149
60.68726 151
60.70738 148
60.72749 158
60.7476 152
60.76772 149
60.78783 160
60.80794 153
60.82806 157
60.84817 167
60.86828 144
60.8884 140
60.90851 151
60.92863 128
60.94874 136
60.96885 134
60.98897 145
61.00908 155
61.02919 151
61.04931 136
61.06942 169
61.08954 148
61.10965 126
61.12976 137
61.14988 134
61.16999 163
61.1901 122
61.21022 138
61.23033 124
61.25045 142
61.27056 146
61.29067 127
61.31079 132
61.3309 142
61.35101 145
61.37113 125
61.39124 146
61.41135 126
61.43147 118
61.45158 130
61.4717 138
61.49181 131
61.51192 151
61.53204 173
61.55215 130
61.57226 165
61.59238 122
61.61249 145
61.63261 155
61.65272 167
61.67283 147
61.69295 114
61.71306 156
61.73317 134
61.75329 137
61.7734 163
61.79352 152
61.81363 141
61.83374 135
61.85386 137
61.87397 131
61.89408 152
61.9142 142
61.93431 132
61.95442 150
61.97454 147
61.99465 128
62.01477 147
62.03488 158
62.05499 129
62.07511 143
62.09522 126
62.11533 140
62.13545 137
62.15556 151
62.17568 144
62.19579 146
62.2159 155
62.23602 139
62.25613 159
62.27624 141
62.29636 161
62.31647 139
62.33659 143
62.3567 158
62.37681 146
62.39693 130
62.41704 138
62.43715 153
62.45727 135
62.47738 133
62.49749 149
62.51761 148
62.53772 149
62.55784 133
62.57795 133
62.59806 137
62.61818 136
62.63829 126
62.6584 141
62.67852 129
62.69863 113
62.71875 131
62.73886 125
62.75897 129
62.77909 122
62.7992 144
62.81931 117
62.83943 142
62.85954 112
62.87965 137
62.89977 115
62.91988 135
62.94 119
62.96011 133
62.98022 129
63.00034 128
63.02045 152
63.04056 117
63.06068 125
63.08079 157
63.10091 128
63.12102 146
63.14113 127
63.16125 134
63.18136 145
63.20147 136
63.22159 111
63.2417 133
63.26182 139
63.28193 138
63.30204 139
63.32216 126
63.34227 123
63.36238 118
63.3825 142
63.40261 133
63.42272 130
63.44284 141
63.46295 123
63.48307 113
63.50318 163
63.52329 152
63.54341 132
63.56352 140
63.58363 164
63.60375 143
63.62386 120
63.64398 168
63.66409 149
63.6842 163
63.70432 162
63.72443 163
63.74454 171
63.76466 187
63.78477 194
63.80489 192
63.825 223
63.84511 257
63.86523 286
63.88534 358
63.90545 353
63.92557 411
63.94568 492
63.96579 489
63.98591 512
64.00602 556
64.02614 552
64.04625 472
64.06636 347
64.08648 334
64.10659 343
64.1267 302
64.14682 342
64.16693 350
64.18705 328
64.20716 318
64.22727 286
64.24739 231
64.2675 180
64.28761 153
64.30773 158
64.32784 134
64.34796 148
64.36807 161
64.38818 139
64.4083 146
64.42841 159
64.44852 99
64.46864 120
64.48875 119
64.50886 155
64.52898 147
64.54909 118
64.56921 113
64.58932 142
64.60943 104
64.62955 140
64.64966 120
64.66977 142
64.68989 132
64.71 118
64.73012 127
64.75023 119
64.77034 102
64.79046 125
64.81057 108
64.83068 130
64.8508 128
64.87091 127
64.89102 105
64.91114 121
64.93125 124
64.95137 108
64.97148 124
64.99159 126
65.01171 134
65.03182 119
65.05193 115
65.07205 140
65.09216 117
65.11228 132
65.13239 122
65.1525 138
65.17262 116
65.19273 126
65.21284 147
65.23296 149
65.25307 131
65.27319 135
65.2933 129
65.31341 150
65.33353 134
65.35364 146
65.37375 145
65.39387 145
65.41398 136
65.43409 131
65.45421 154
65.47432 164
65.49444 163
65.51455 143
65.53466 161
65.55478 172
65.57489 139
65.595 145
65.61512 174
65.63523 182
65.65535 196
65.67546 205
65.69557 219
65.71569 249
65.7358 239
65.75591 254
65.77603 235
65.79614 217
65.81626 201
65.83637 216
65.85648 192
65.8766 181
65.89671 193
65.91682 198
65.93694 201
65.95705 176
65.97716 180
65.99728 178
66.01739 161
66.03751 148
66.05762 148
66.07773 146
66.09785 132
66.11796 158
66.13807 134
66.15819 154
66.1783 157
66.19842 145
66.21853 141
66.23864 146
66.25876 154
66.27887 156
66.29898 153
66.3191 124
66.33921 145
66.35933 114
66.37944 142
66.39955 152
66.41967 149
66.43978 131
66.45989 143
66.48001 142
66.50012 142
66.52023 144
66.54035 135
66.56046 143
66.58058 155
66.60069 129
66.6208 150
66.64092 132
66.66103 131
66.68114 141
66.70126 159
66.72137 147
66.74149 154
66.7616 132
66.78171 150
66.80183 131
66.82194 156
66.84205 141
66.86217 174
66.88228 156
66.90239 139
66.92251 161
66.94262 131
66.96274 127
66.98285 152
67.00296 145
67.02308 145
67.04319 142
67.0633 153
67.08342 149
67.10353 176
67.12365 177
67.14376 179
67.16387 151
67.18399 189
67.2041 175
67.22421 191
67.24433 205
67.26444 186
67.28456 190
67.30467 197
67.32478 236
67.3449 209
67.36501 251
67.38512 294
67.40524 278
67.42535 263
67.44546 334
67.46558 369
67.48569 375
67.50581 425
67.52592 500
67.54603 566
67.56615 656
67.58626 822
67.60637 926
67.62649 1045
67.6466 1260
67.66672 1375
67.68683 1539
67.70694 1546
67.72706 1519
67.74717 1407
67.76728 1099
67.7874 910
67.80751 911
67.82763 857
67.84774 1000
67.86785 1013
67.88797 1160
67.90808 1173
67.92819 1180
67.94831 1126
67.96842 1055
67.98853 1157
68.00865 1289
68.02876 1409
68.04888 1623
68.06899 1854
68.0891 2042
68.10922 2153
68.12933 2047
68.14944 1801
68.16956 1745
68.18967 1571
68.20979 1607
68.2299 1767
68.25001 1882
68.27013 1993
68.29024 2004
68.31035 1821
68.33047 1611
68.35058 1239
68.3707 970
68.39081 802
68.41092 773
68.43104 750
68.45115 770
68.47126 696
68.49138 684
68.51149 564
68.5316 441
68.55172 349
68.57183 316
68.59195 232
68.61206 254
68.63217 223
68.65229 200
68.6724 210
68.69251 209
68.71263 192
68.73274 178
68.75286 186
68.77297 159
68.79308 177
68.8132 191
68.83331 182
68.85342 147
68.87354 159
68.89365 162
68.91376 173
68.93388 149
68.95399 147
68.97411 149
68.99422 146
69.01433 138
69.03445 145
69.05456 131
69.07467 145
69.09479 162
69.1149 131
69.13502 146
69.15513 138
69.17524 147
69.19536 145
69.21547 126
69.23558 129
69.2557 130
69.27581 142
69.29593 148
69.31604 132
69.33615 139
69.35627 135
69.37638 150
69.39649 148
69.41661 133
69.43672 136
69.45683 124
69.47695 141
69.49706 133
69.51718 144
69.53729 126
69.5574 141
69.57752 139
69.59763 141
69.61774 127
69.63786 130
69.65797 130
69.67809 161
69.6982 130
69.71831 125
69.73843 143
69.75854 138
69.77865 131
69.79877 140
69.81888 142
69.839 138
69.85911 119
69.87922 138
69.89934 151
69.91945 121
69.93956 123
69.95968 128
69.97979 127
69.9999 139
70.02002 110
70.04013 123
70.06025 139
70.08036 128
70.10047 124
70.12059 136
70.1407 126
70.16081 127
70.18093 125
70.20104 127
70.22116 122
70.24127 129
70.26138 125
70.2815 106
70.30161 135
70.32172 136
70.34184 137
70.36195 119
70.38207 107
70.40218 131
70.42229 131
70.44241 123
70.46252 120
70.48263 86
70.50275 130
70.52286 116
70.54297 144
70.56309 109
70.5832 121
70.60332 135
70.62343 127
70.64354 98
70.66366 119
70.68377 132
70.70388 135
70.724 123
70.74411 122
70.76423 114
70.78434 129
70.80445 102
70.82457 135
70.84468 120
70.86479 108
70.88491 130
70.90502 147
70.92513 128
70.94525 129
70.96536 126
70.98548 137
71.00559 119
71.0257 110
71.04582 122
71.06593 111
71.08604 127
71.10616 107
71.12627 137
71.14639 130
71.1665 136
71.18661 134
71.20673 115
71.22684 123
71.24695 120
71.26707 131
71.28718 128
71.3073 129
71.32741 114
71.34752 115
71.36764 121
71.38775 128
71.40786 132
71.42798 141
71.44809 130
71.4682 146
71.48832 134
71.50843 116
71.52855 144
71.54866 126
71.56877 119
71.58889 121
71.609 134
71.62911 126
71.64923 129
71.66934 139
71.68946 112
71.70957 127
71.72968 114
71.7498 116
71.76991 110
71.79002 133
71.81014 112
71.83025 116
71.85037 130
71.87048 127
71.89059 142
71.91071 112
71.93082 118
71.95093 107
71.97105 118
71.99116 133
72.01127 119
72.03139 120
72.0515 138
72.07162 134
72.09173 120
72.11184 99
72.13196 134
72.15207 126
72.17218 138
72.1923 103
72.21241 127
72.23253 110
72.25264 117
72.27275 135
72.29287 125
72.31298 120
72.33309 113
72.35321 138
72.37332 111
72.39344 123
72.41355 117
72.43366 137
72.45378 130
72.47389 142
72.494 128
72.51412 115
72.53423 135
72.55434 126
72.57446 140
72.59457 134
72.61469 105
72.6348 133
72.65491 129
72.67503 130
72.69514 147
72.71525 137
72.73537 147
72.75548 144
72.7756 138
72.79571 146
72.81582 139
72.83594 121
72.85605 125
72.87616 137
72.89628 139
72.91639 135
72.9365 150
72.95662 126
72.97673 124
72.99685 131
73.01696 147
73.03707 145
73.05719 163
73.0773 145
73.09741 144
73.11753 170
73.13764 184
73.15776 171
73.17787 172
73.19798 179
73.2181 228
73.23821 231
73.25832 266
73.27844 278
73.29855 305
73.31867 381
73.33878 389
73.35889 436
73.37901 518
73.39912 567
73.41923 604
73.43935 565
73.45946 591
73.47957 496
73.49969 421
73.5198 313
73.53992 320
73.56003 282
73.58014 306
73.60026 342
73.62037 386
73.64048 356
73.6606 344
73.68071 308
73.70083 289
73.72094 205
73.74105 187
73.76117 172
73.78128 166
73.80139 156
73.82151 153
73.84162 144
73.86174 126
73.88185 146
73.90196 133
73.92208 127
73.94219 134
73.9623 154
73.98242 137
74.00253 125
74.02264 126
74.04276 125
74.06287 119
74.08299 137
74.1031 115
74.12321 144
74.14333 112
74.16344 133
74.18355 122
74.20367 127
74.22378 109
74.2439 109
74.26401 118
74.28412 113
74.30424 139
74.32435 135
74.34446 116
74.36458 126
74.38469 118
74.40481 117
74.42492 137
74.44503 121
74.46515 115
74.48526 130
74.50537 141
74.52549 142
74.5456 144
74.56571 131
74.58583 117
74.60594 136
74.62606 126
74.64617 112
74.66628 128
74.6864 128
74.70651 129
74.72662 128
74.74674 122
74.76685 130
74.78697 116
74.80708 114
74.82719 134
74.84731 117
74.86742 137
74.88753 137
74.90765 124
74.92776 122
74.94787 145
74.96799 133
74.9881 121
75.00822 109
