3.00117 15745
3.02128 15642
3.0414 15054
3.06151 14534
3.08162 14104
3.10174 13502
3.12185 13349
3.14197 13199
3.16208 12542
3.18219 12024
3.20231 11670
3.22242 11211
3.24253 10988
3.26265 10483
3.28276 10373
3.30288 9972
3.32299 9528
3.3431 9427
3.36322 8894
3.38333 8683
3.40344 8133
3.42356 8039
3.44367 7677
3.46379 7181
3.4839 7067
3.50401 6744
3.52413 6572
3.54424 6326
3.56435 5737
3.58447 5707
3.60458 5616
3.62469 5302
3.64481 5057
3.66492 4831
3.68504 4663
3.70515 4465
3.72526 4233
3.74538 4070
3.76549 3978
3.7856 3630
3.80572 3660
3.82583 3230
3.84595 3264
3.86606 3142
3.88617 3034
3.90629 2939
3.9264 2630
3.94651 2529
3.96663 2333
3.98674 2291
4.00686 2432
4.02697 2157
4.04708 2071
4.0672 1942
4.08731 1965
4.10742 1935
4.12754 1699
4.14765 1667
4.16776 1663
4.18788 1548
4.20799 1590
4.22811 1471
4.24822 1542
4.26833 1474
4.28845 1400
4.30856 1373
4.32867 1285
4.34879 1358
4.3689 1220
4.38902 1196
4.40913 1222
4.42924 1028
4.44936 1209
4.46947 1058
4.48958 1088
4.5097 1102
4.52981 1021
4.54992 965
4.57004 940
4.59015 943
4.61027 965
4.63038 895
4.65049 885
4.67061 822
4.69072 837
4.71083 822
4.73095 745
4.75106 750
4.77118 769
4.79129 754
4.8114 726
4.83152 714
4.85163 665
4.87174 683
4.89186 650
4.91197 668
4.93209 548
4.9522 594
4.97231 609
4.99243 612
5.01254 569
5.03265 526
5.05277 522
5.07288 554
5.09299 500
5.11311 487
5.13322 485
5.15334 482
5.17345 449
5.19356 465
5.21368 468
5.23379 395
5.2539 428
5.27402 416
5.29413 419
5.31425 418
5.33436 399
5.35447 362
5.37459 343
5.3947 345
5.41481 333
5.43493 310
5.45504 338
5.47516 350
5.49527 341
5.51538 350
5.5355 332
5.55561 314
5.57572 294
5.59584 278
5.61595 277
5.63606 284
5.65618 276
5.67629 294
5.69641 267
5.71652 259
5.73663 252
5.75675 235
5.77686 266
5.79697 278
5.81709 250
5.8372 236
5.85732 283
5.87743 251
5.89754 239
5.91766 233
5.93777 226
5.95788 226
5.978 217
5.99811 243
6.01823 202
6.03834 197
6.05845 244
6.07857 236
6.09868 185
6.11879 205
6.13891 205
6.15902 203
6.17913 197
6.19925 202
6.21936 191
6.23948 204
6.25959 208
6.2797 196
6.29982 215
6.31993 185
6.34004 184
6.36016 241
6.38027 188
6.40039 181
6.4205 203
6.44061 186
6.46073 219
6.48084 217
6.50095 189
6.52107 202
6.54118 188
6.56129 216
6.58141 185
6.60152 187
6.62164 202
6.64175 180
6.66186 175
6.68198 213
6.70209 178
6.7222 159
6.74232 194
6.76243 180
6.78255 187
6.80266 168
6.82277 178
6.84289 192
6.863 212
6.88311 214
6.90323 233
6.92334 179
6.94346 178
6.96357 181
6.98368 210
7.0038 181
7.02391 182
7.04402 212
7.06414 197
7.08425 194
7.10436 208
7.12448 180
7.14459 174
7.16471 192
7.18482 179
7.20493 184
7.22505 177
7.24516 201
7.26527 193
7.28539 204
7.3055 179
7.32562 173
7.34573 198
7.36584 158
7.38596 179
7.40607 199
7.42618 195
7.4463 202
7.46641 188
7.48653 179
7.50664 193
7.52675 210
7.54687 190
7.56698 213
7.58709 205
7.60721 194
7.62732 198
7.64743 191
7.66755 174
7.68766 205
7.70778 206
7.72789 214
7.748 179
7.76812 209
7.78823 194
7.80834 200
7.82846 200
7.84857 204
7.86869 193
7.8888 200
7.90891 201
7.92903 202
7.94914 201
7.96925 219
7.98937 166
8.00948 216
8.0296 213
8.04971 196
8.06982 204
8.08994 226
8.11005 213
8.13016 222
8.15028 213
8.17039 195
8.1905 210
8.21062 207
8.23073 248
8.25085 220
8.27096 233
8.29107 248
8.31119 222
8.3313 203
8.35141 227
8.37153 208
8.39164 239
8.41176 218
8.43187 192
8.45198 207
8.4721 229
8.49221 212
8.51232 221
8.53244 236
8.55255 217
8.57266 222
8.59278 237
8.61289 240
8.63301 229
8.65312 241
8.67323 235
8.69335 228
8.71346 245
8.73357 220
8.75369 238
8.7738 255
8.79392 216
8.81403 206
8.83414 236
8.85426 210
8.87437 248
8.89448 215
8.9146 223
8.93471 212
8.95483 217
8.97494 215
8.99505 214
9.01517 238
9.03528 220
9.05539 208
9.07551 233
9.09562 231
9.11573 222
9.13585 215
9.15596 239
9.17608 199
9.19619 224
9.2163 220
9.23642 245
9.25653 223
9.27664 219
9.29676 222
9.31687 208
9.33699 216
9.3571 237
9.37721 230
9.39733 251
9.41744 253
9.43755 230
9.45767 240
9.47778 236
9.4979 209
9.51801 229
9.53812 203
9.55824 219
9.57835 233
9.59846 221
9.61858 240
9.63869 235
9.6588 234
9.67892 256
9.69903 200
9.71915 242
9.73926 222
9.75937 226
9.77949 225
9.7996 229
9.81971 217
9.83983 207
9.85994 228
9.88006 221
9.90017 224
9.92028 208
9.9404 230
9.96051 232
9.98062 220
10.00074 233
10.02085 216
10.04097 240
10.06108 208
10.08119 225
10.10131 236
10.12142 266
10.14153 207
10.16165 212
10.18176 210
10.20187 223
10.22199 264
10.2421 246
10.26222 224
10.28233 225
10.30244 204
10.32256 255
10.34267 218
10.36278 233
10.3829 225
10.40301 234
10.42313 209
10.44324 249
10.46335 201
10.48347 216
10.50358 262
10.52369 224
10.54381 240
10.56392 229
10.58403 231
10.60415 238
10.62426 203
10.64438 245
10.66449 236
10.6846 274
10.70472 224
10.72483 254
10.74494 194
10.76506 251
10.78517 230
10.80529 243
10.8254 237
10.84551 245
10.86563 228
10.88574 225
10.90585 212
10.92597 246
10.94608 197
10.9662 250
10.98631 257
11.00642 244
11.02654 237
11.04665 228
11.06676 221
11.08688 243
11.10699 237
11.1271 223
11.14722 229
11.16733 246
11.18745 215
11.20756 244
11.22767 250
11.24779 237
11.2679 232
11.28801 224
11.30813 235
11.32824 224
11.34836 219
11.36847 195
11.38858 255
11.4087 245
11.42881 219
11.44892 256
11.46904 261
11.48915 247
11.50927 250
11.52938 274
11.54949 215
11.56961 290
11.58972 213
11.60983 246
11.62995 258
11.65006 244
11.67017 252
11.69029 240
11.7104 255
11.73052 255
11.75063 246
11.77074 232
11.79086 255
11.81097 267
11.83108 257
11.8512 273
11.87131 257
11.89143 273
11.91154 281
11.93165 246
11.95177 263
11.97188 249
11.99199 280
12.01211 240
12.03222 266
12.05234 280
12.07245 264
12.09256 249
12.11268 259
12.13279 253
12.1529 291
12.17302 282
12.19313 283
12.21324 245
12.23336 271
12.25347 275
12.27359 270
12.2937 265
12.31381 272
12.33393 260
12.35404 268
12.37415 266
12.39427 239
12.41438 231
12.4345 243
12.45461 216
12.47472 193
12.49484 252
12.51495 246
12.53506 242
12.55518 202
12.57529 246
12.5954 213
12.61552 245
12.63563 255
12.65575 203
12.67586 253
12.69597 250
12.71609 239
12.7362 191
12.75631 204
12.77643 206
12.79654 209
12.81666 180
12.83677 193
12.85688 199
12.877 242
12.89711 250
12.91722 215
12.93734 238
12.95745 219
12.97757 199
12.99768 199
13.01779 225
13.03791 218
13.05802 202
13.07813 215
13.09825 197
13.11836 220
13.13847 209
13.15859 216
13.1787 212
13.19882 216
13.21893 212
13.23904 216
13.25916 183
13.27927 199
13.29938 240
13.3195 213
13.33961 207
13.35973 200
13.37984 233
13.39995 200
13.42007 206
13.44018 217
13.46029 198
13.48041 208
13.50052 228
13.52064 218
13.54075 211
13.56086 212
13.58098 189
13.60109 223
13.6212 213
13.64132 235
13.66143 231
13.68154 228
13.70166 207
13.72177 212
13.74189 183
13.762 234
13.78211 168
13.80223 221
13.82234 195
13.84245 191
13.86257 231
13.88268 218
13.9028 199
13.92291 209
13.94302 192
13.96314 170
13.98325 182
14.00336 189
14.02348 176
14.04359 174
14.06371 175
14.08382 178
14.10393 166
14.12405 194
14.14416 197
14.16427 195
14.18439 169
14.2045 161
14.22461 159
14.24473 184
14.26484 167
14.28496 195
14.30507 190
14.32518 194
14.3453 193
14.36541 161
14.38552 188
14.40564 173
14.42575 174
14.44587 183
14.46598 194
14.48609 177
14.50621 171
14.52632 192
14.54643 191
14.56655 180
14.58666 184
14.60677 196
14.62689 171
14.647 154
14.66712 202
14.68723 156
14.70734 173
14.72746 172
14.74757 174
14.76768 148
14.7878 191
14.80791 186
14.82803 181
14.84814 185
14.86825 184
14.88837 210
14.90848 172
14.92859 190
14.94871 204
14.96882 183
14.98894 197
15.00905 177
15.02916 186
15.04928 179
15.06939 177
15.0895 169
15.10962 169
15.12973 171
15.14984 167
15.16996 198
15.19007 204
15.21019 142
15.2303 178
15.25041 186
15.27053 176
15.29064 183
15.31075 175
15.33087 163
15.35098 188
15.3711 163
15.39121 156
15.41132 157
15.43144 166
15.45155 178
15.47166 177
15.49178 167
15.51189 173
15.53201 167
15.55212 180
15.57223 170
15.59235 160
15.61246 146
15.63257 156
15.65269 170
15.6728 182
15.69291 161
15.71303 159
15.73314 171
15.75326 182
15.77337 138
15.79348 173
15.8136 183
15.83371 168
15.85382 156
15.87394 157
15.89405 166
15.91417 178
15.93428 198
15.95439 155
15.97451 153
15.99462 166
16.01473 165
16.03485 177
16.05496 145
16.07508 157
16.09519 180
16.1153 169
16.13542 149
16.15553 152
16.17564 164
16.19576 155
16.21587 160
16.23598 175
16.2561 142
16.27621 167
16.29633 150
16.31644 166
16.33655 173
16.35667 154
16.37678 180
16.39689 163
16.41701 170
16.43712 178
16.45724 167
16.47735 145
16.49746 124
16.51758 157
16.53769 155
16.5578 165
16.57792 182
16.59803 169
16.61814 170
16.63826 172
16.65837 182
16.67849 156
16.6986 178
16.71871 143
16.73883 157
16.75894 152
16.77905 147
16.79917 163
16.81928 140
16.8394 160
16.85951 165
16.87962 138
16.89974 147
16.91985 167
16.93996 174
16.96008 158
16.98019 160
17.00031 148
17.02042 149
17.04053 173
17.06065 151
17.08076 158
17.10087 174
17.12099 137
17.1411 144
17.16121 161
17.18133 150
17.20144 148
17.22156 150
17.24167 146
17.26178 140
17.2819 182
17.30201 153
17.32212 166
17.34224 154
17.36235 161
17.38247 154
17.40258 179
17.42269 171
17.44281 155
17.46292 147
17.48303 149
17.50315 151
17.52326 152
17.54338 165
17.56349 200
17.5836 149
17.60372 156
17.62383 188
17.64394 169
17.66406 145
17.68417 148
17.70428 157
17.7244 146
17.74451 172
17.76463 185
17.78474 179
17.80485 172
17.82497 143
17.84508 161
17.86519 136
17.88531 179
17.90542 164
17.92554 155
17.94565 169
17.96576 161
17.98588 164
18.00599 142
18.0261 167
18.04622 147
18.06633 161
18.08645 151
18.10656 143
18.12667 142
18.14679 162
18.1669 153
18.18701 170
18.20713 167
18.22724 169
18.24735 146
18.26747 169
18.28758 176
18.3077 135
18.32781 157
18.34792 163
18.36804 150
18.38815 156
18.40826 157
18.42838 170
18.44849 151
18.46861 155
18.48872 143
18.50883 161
18.52895 172
18.54906 131
18.56917 151
18.58929 149
18.6094 158
18.62951 165
18.64963 161
18.66974 192
18.68986 171
18.70997 151
18.73008 196
18.7502 172
18.77031 160
18.79042 160
18.81054 203
18.83065 168
18.85077 181
18.87088 169
18.89099 153
18.91111 155
18.93122 165
18.95133 181
18.97145 175
18.99156 172
19.01168 176
19.03179 187
19.0519 145
19.07202 160
19.09213 154
19.11224 175
19.13236 192
19.15247 152
19.17258 164
19.1927 180
19.21281 204
19.23293 156
19.25304 167
19.27315 194
19.29327 175
19.31338 208
19.33349 195
19.35361 154
19.37372 189
19.39384 176
19.41395 184
19.43406 215
19.45418 188
19.47429 170
19.4944 185
19.51452 188
19.53463 199
19.55475 215
19.57486 219
19.59497 223
19.61509 193
19.6352 217
19.65531 227
19.67543 224
19.69554 256
19.71565 259
19.73577 291
19.75588 245
19.776 293
19.79611 311
19.81622 292
19.83634 326
19.85645 357
19.87656 320
19.89668 328
19.91679 333
19.93691 327
19.95702 302
19.97713 327
19.99725 291
20.01736 284
20.03747 296
20.05759 309
20.0777 353
20.09782 333
20.11793 319
20.13804 332
20.15816 323
20.17827 334
20.19838 306
20.2185 310
20.23861 307
20.25872 301
20.27884 310
20.29895 330
20.31907 315
20.33918 346
20.35929 327
20.37941 344
20.39952 343
20.41963 333
20.43975 365
20.45986 374
20.47998 377
20.50009 409
20.5202 391
20.54032 420
20.56043 443
20.58054 426
20.60066 555
20.62077 620
20.64088 730
20.661 897
20.68111 1114
20.70123 1508
20.72134 2132
20.74145 2868
20.76157 4064
20.78168 5154
20.80179 6136
20.82191 6740
20.84202 6676
20.86214 5763
20.88225 4642
20.90236 3150
20.92248 2151
20.94259 1444
20.9627 1007
20.98282 803
21.00293 711
21.02305 709
21.04316 633
21.06327 603
21.08339 514
21.1035 475
21.12361 409
21.14373 354
21.16384 342
21.18395 337
21.20407 324
21.22418 309
21.2443 309
21.26441 344
21.28452 292
21.30464 295
21.32475 296
21.34486 268
21.36498 263
21.38509 312
21.40521 297
21.42532 267
21.44543 261
21.46555 264
21.48566 250
21.50577 275
21.52589 266
21.546 249
21.56612 241
21.58623 242
21.60634 248
21.62646 274
21.64657 260
21.66668 251
21.6868 246
21.70691 242
21.72702 252
21.74714 252
21.76725 227
21.78737 248
21.80748 250
21.82759 222
21.84771 278
21.86782 264
21.88793 263
21.90805 262
21.92816 277
21.94828 268
21.96839 253
21.9885 296
22.00862 265
22.02873 265
22.04884 256
22.06896 256
22.08907 288
22.10919 253
22.1293 243
22.14941 233
22.16953 238
22.18964 240
22.20975 284
22.22987 268
22.24998 242
22.27009 239
22.29021 269
22.31032 254
22.33044 255
22.35055 251
22.37066 241
22.39078 219
22.41089 240
22.431 235
22.45112 243
22.47123 243
22.49135 233
22.51146 233
22.53157 238
22.55169 225
22.5718 241
22.59191 220
22.61203 212
22.63214 241
22.65225 242
22.67237 224
22.69248 186
22.7126 224
22.73271 203
22.75282 207
22.77294 189
22.79305 198
22.81316 198
22.83328 228
22.85339 210
22.87351 230
22.89362 224
22.91373 252
22.93385 209
22.95396 217
22.97407 251
22.99419 222
23.0143 273
23.03442 262
23.05453 253
23.07464 269
23.09476 275
23.11487 296
23.13498 265
23.1551 257
23.17521 307
23.19532 285
23.21544 290
23.23555 271
23.25567 286
23.27578 298
23.29589 246
23.31601 264
23.33612 244
23.35623 286
23.37635 249
23.39646 252
23.41658 260
23.43669 290
23.4568 233
23.47692 261
23.49703 251
23.51714 293
23.53726 249
23.55737 252
23.57749 277
23.5976 276
23.61771 247
23.63783 278
23.65794 238
23.67805 243
23.69817 263
23.71828 236
23.73839 231
23.75851 246
23.77862 246
23.79874 236
23.81885 277
23.83896 288
23.85908 273
23.87919 281
23.8993 341
23.91942 321
23.93953 332
23.95965 395
23.97976 354
23.99987 363
24.01999 334
24.0401 292
24.06021 288
24.08033 210
24.10044 261
24.12056 243
24.14067 264
24.16078 257
24.1809 280
24.20101 260
24.22112 267
24.24124 255
24.26135 269
24.28146 265
24.30158 251
24.32169 240
24.34181 254
24.36192 243
24.38203 235
24.40215 234
24.42226 230
24.44237 228
24.46249 277
24.4826 222
24.50272 272
24.52283 266
24.54294 259
24.56306 253
24.58317 286
24.60328 262
24.6234 264
24.64351 282
24.66362 267
24.68374 275
24.70385 274
24.72397 271
24.74408 282
24.76419 288
24.78431 269
24.80442 262
24.82453 296
24.84465 286
24.86476 322
24.88488 264
24.90499 291
24.9251 289
24.94522 251
24.96533 261
24.98544 261
25.00556 272
25.02567 256
25.04579 283
25.0659 244
25.08601 280
25.10613 241
25.12624 258
25.14635 246
25.16647 289
25.18658 271
25.20669 288
25.22681 286
25.24692 263
25.26704 270
25.28715 272
25.30726 247
25.32738 293
25.34749 309
25.3676 263
25.38772 277
25.40783 322
25.42795 366
25.44806 385
25.46817 352
25.48829 392
25.5084 404
25.52851 434
25.54863 442
25.56874 462
25.58886 453
25.60897 441
25.62908 452
25.6492 446
25.66931 432
25.68942 446
25.70954 440
25.72965 464
25.74976 412
25.76988 382
25.78999 437
25.81011 403
25.83022 462
25.85033 415
25.87045 466
25.89056 442
25.91067 443
25.93079 431
25.9509 426
25.97102 440
25.99113 438
26.01124 442
26.03136 438
26.05147 480
26.07158 512
26.0917 546
26.11181 595
26.13193 614
26.15204 655
26.17215 714
26.19227 769
26.21238 808
26.23249 860
26.25261 937
26.27272 1073
26.29283 1122
26.31295 1175
26.33306 1456
26.35318 1695
26.37329 1973
26.3934 2362
26.41352 3023
26.43363 3834
26.45374 5231
26.47386 7267
26.49397 9996
26.51409 13472
26.5342 18211
26.55431 23024
26.57443 27516
26.59454 30197
26.61465 30427
26.63477 27504
26.65488 22200
26.67499 16834
26.69511 12105
26.71522 8064
26.73534 4848
26.75545 2827
26.77556 1987
26.79568 1579
26.81579 1426
26.8359 1332
26.85602 1158
26.87613 1096
26.89625 969
26.91636 932
26.93647 901
26.95659 830
26.9767 832
26.99681 777
27.01693 796
27.03704 787
27.05716 737
27.07727 648
27.09738 687
27.1175 598
27.13761 553
27.15772 458
27.17784 513
27.19795 473
27.21806 489
27.23818 484
27.25829 485
27.27841 559
27.29852 522
27.31863 631
27.33875 632
27.35886 694
27.37897 718
27.39909 784
27.4192 765
27.43932 791
27.45943 729
27.47954 760
27.49966 659
27.51977 578
27.53988 502
27.56 456
27.58011 423
27.60023 428
27.62034 376
27.64045 371
27.66057 383
27.68068 309
27.70079 343
27.72091 374
27.74102 348
27.76113 367
27.78125 352
27.80136 362
27.82148 354
27.84159 364
27.8617 359
27.88182 368
27.90193 353
27.92204 367
27.94216 307
27.96227 346
27.98239 330
28.0025 292
28.02261 280
28.04273 288
28.06284 295
28.08295 294
28.10307 262
28.12318 265
28.1433 254
28.16341 234
28.18352 250
28.20364 270
28.22375 274
28.24386 259
28.26398 284
28.28409 237
28.3042 272
28.32432 243
28.34443 254
28.36455 225
28.38466 240
28.40477 243
28.42489 235
28.445 226
28.46511 238
28.48523 262
28.50534 255
28.52546 259
28.54557 248
28.56568 251
28.5858 213
28.60591 209
28.62602 223
28.64614 216
28.66625 222
28.68636 223
28.70648 211
28.72659 238
28.74671 214
28.76682 222
28.78693 206
28.80705 234
28.82716 214
28.84727 227
28.86739 232
28.8875 209
28.90762 206
28.92773 223
28.94784 193
28.96796 229
28.98807 232
29.00818 219
29.0283 217
29.04841 220
29.06853 213
29.08864 216
29.10875 202
29.12887 215
29.14898 211
29.16909 220
29.18921 203
29.20932 201
29.22943 201
29.24955 209
29.26966 226
29.28978 212
29.30989 219
29.33 257
29.35012 215
29.37023 259
29.39034 267
29.41046 274
29.43057 285
29.45069 260
29.4708 261
29.49091 241
29.51103 269
29.53114 214
29.55125 250
29.57137 258
29.59148 246
29.6116 234
29.63171 227
29.65182 224
29.67194 238
29.69205 213
29.71216 230
29.73228 245
29.75239 215
29.7725 246
29.79262 220
29.81273 246
29.83285 222
29.85296 241
29.87307 249
29.89319 237
29.9133 251
29.93341 224
29.95353 241
29.97364 239
29.99376 227
30.01387 241
30.03398 257
30.0541 243
30.07421 239
30.09432 242
30.11444 256
30.13455 275
30.15467 280
30.17478 286
30.19489 293
30.21501 238
30.23512 278
30.25523 226
30.27535 252
30.29546 211
30.31557 222
30.33569 215
30.3558 233
30.37592 246
30.39603 236
30.41614 205
30.43626 242
30.45637 215
30.47648 211
30.4966 208
30.51671 251
30.53683 217
30.55694 233
30.57705 250
30.59717 227
30.61728 232
30.63739 266
30.65751 289
30.67762 247
30.69773 293
30.71785 292
30.73796 299
30.75808 300
30.77819 304
30.7983 317
30.81842 284
30.83853 247
30.85864 283
30.87876 260
30.89887 240
30.91899 216
30.9391 244
30.95921 205
30.97933 187
30.99944 177
31.01955 200
31.03967 195
31.05978 184
31.0799 196
31.10001 196
31.12012 189
31.14024 163
31.16035 176
31.18046 177
31.20058 189
31.22069 177
31.2408 181
31.26092 200
31.28103 166
31.30115 175
31.32126 186
31.34137 180
31.36149 176
31.3816 179
31.40171 184
31.42183 174
31.44194 163
31.46206 186
31.48217 181
31.50228 184
31.5224 189
31.54251 178
31.56262 179
31.58274 162
31.60285 176
31.62297 160
31.64308 170
31.66319 173
31.68331 187
31.70342 169
31.72353 154
31.74365 171
31.76376 158
31.78387 168
31.80399 151
31.8241 183
31.84422 167
31.86433 160
31.88444 172
31.90456 171
31.92467 164
31.94478 189
31.9649 182
31.98501 171
32.00513 164
32.02524 183
32.04535 189
32.06547 186
32.08558 204
32.10569 186
32.12581 192
32.14592 191
32.16604 194
32.18615 188
32.20626 187
32.22638 202
32.24649 200
32.2666 190
32.28672 171
32.30683 198
32.32694 184
32.34706 235
32.36717 198
32.38729 216
32.4074 155
32.42751 196
32.44763 210
32.46774 159
32.48785 210
32.50797 180
32.52808 189
32.5482 155
32.56831 181
32.58842 155
32.60854 145
32.62865 162
32.64876 159
32.66888 193
32.68899 159
32.7091 161
32.72922 151
32.74933 154
32.76945 148
32.78956 162
32.80967 170
32.82979 194
32.8499 168
32.87001 164
32.89013 182
32.91024 163
32.93036 157
32.95047 183
32.97058 159
32.9907 172
33.01081 172
33.03092 149
33.05104 176
33.07115 143
33.09127 185
33.11138 182
33.13149 160
33.15161 150
33.17172 159
33.19183 165
33.21195 140
33.23206 134
33.25217 153
33.27229 157
33.2924 174
33.31252 152
33.33263 171
33.35274 159
33.37286 175
33.39297 165
33.41308 149
33.4332 150
33.45331 158
33.47343 148
33.49354 148
33.51365 166
33.53377 147
33.55388 174
33.57399 159
33.59411 148
33.61422 160
33.63434 148
33.65445 163
33.67456 157
33.69468 150
33.71479 154
33.7349 139
33.75502 148
33.77513 139
33.79524 174
33.81536 169
33.83547 155
33.85559 170
33.8757 169
33.89581 149
33.91593 175
33.93604 166
33.95615 176
33.97627 181
33.99638 173
34.0165 163
34.03661 161
34.05672 201
34.07684 182
34.09695 188
34.11706 160
34.13718 186
34.15729 205
34.17741 178
34.19752 197
34.21763 199
34.23775 209
34.25786 197
34.27797 190
34.29809 198
34.3182 214
34.33831 192
34.35843 190
34.37854 218
34.39866 196
34.41877 199
34.43888 186
34.459 205
34.47911 196
34.49922 192
34.51934 222
34.53945 212
34.55957 210
34.57968 199
34.59979 228
34.61991 234
34.64002 264
34.66013 222
34.68025 236
34.70036 224
34.72047 209
34.74059 204
34.7607 229
34.78082 212
34.80093 220
34.82104 247
34.84116 210
34.86127 224
34.88138 222
34.9015 235
34.92161 246
34.94173 267
34.96184 218
34.98195 237
35.00207 258
35.02218 232
35.04229 224
35.06241 238
35.08252 245
35.10264 220
35.12275 212
35.14286 270
35.16298 225
35.18309 236
35.2032 221
35.22332 226
35.24343 205
35.26354 221
35.28366 229
35.30377 246
35.32389 237
35.344 211
35.36411 232
35.38423 236
35.40434 235
35.42445 259
35.44457 275
35.46468 268
35.4848 248
35.50491 252
35.52502 241
35.54514 254
35.56525 223
35.58536 254
35.60548 234
35.62559 229
35.64571 234
35.66582 238
35.68593 212
35.70605 205
35.72616 208
35.74627 220
35.76639 215
35.7865 249
35.80661 215
35.82673 225
35.84684 224
35.86696 230
35.88707 249
35.90718 229
35.9273 232
35.94741 209
35.96752 205
35.98764 244
36.00775 213
36.02787 251
36.04798 221
36.06809 240
36.08821 260
36.10832 242
36.12843 243
36.14855 247
36.16866 249
36.18878 230
36.20889 265
36.229 296
36.24912 319
36.26923 342
36.28934 354
36.30946 435
36.32957 544
36.34968 574
36.3698 771
36.38991 905
36.41003 1180
36.43014 1432
36.45025 1719
36.47037 1937
36.49048 2074
36.51059 2068
36.53071 1935
36.55082 1722
36.57094 1391
36.59105 1211
36.61116 1011
36.63128 756
36.65139 591
36.6715 416
36.69162 351
36.71173 311
36.73184 304
36.75196 260
36.77207 274
36.79219 271
36.8123 268
36.83241 277
36.85253 243
36.87264 249
36.89275 272
36.91287 239
36.93298 264
36.9531 236
36.97321 257
36.99332 244
37.01344 236
37.03355 239
37.05366 220
37.07378 240
37.09389 225
37.11401 199
37.13412 212
37.15423 221
37.17435 218
37.19446 213
37.21457 171
37.23469 206
37.2548 223
37.27491 185
37.29503 201
37.31514 212
37.33526 204
37.35537 195
37.37548 203
37.3956 197
37.41571 199
37.43582 184
37.45594 210
37.47605 185
37.49617 207
37.51628 196
37.53639 215
37.55651 217
37.57662 214
37.59673 207
37.61685 199
37.63696 222
37.65708 196
37.67719 196
37.6973 216
37.71742 211
37.73753 200
37.75764 199
37.77776 213
37.79787 179
37.81798 201
37.8381 179
37.85821 181
37.87833 185
37.89844 188
37.91855 194
37.93867 211
37.95878 178
37.97889 190
37.99901 201
38.01912 210
38.03924 173
38.05935 198
38.07946 228
38.09958 207
38.11969 193
38.1398 203
38.15992 189
38.18003 195
38.20015 187
38.22026 189
38.24037 176
38.26049 204
38.2806 172
38.30071 206
38.32083 184
38.34094 212
38.36105 227
38.38117 205
38.40128 192
38.4214 209
38.44151 253
38.46162 221
38.48174 228
38.50185 229
38.52196 226
38.54208 210
38.56219 236
38.58231 225
38.60242 201
38.62253 184
38.64265 209
38.66276 182
38.68287 248
38.70299 222
38.7231 205
38.74321 212
38.76333 203
38.78344 225
38.80356 198
38.82367 225
38.84378 229
38.8639 209
38.88401 191
38.90412 207
38.92424 212
38.94435 206
38.96447 225
38.98458 197
39.00469 227
39.02481 207
39.04492 209
39.06503 219
39.08515 239
39.10526 250
39.12538 237
39.14549 280
39.1656 266
39.18572 297
39.20583 339
39.22594 405
39.24606 448
39.26617 534
39.28628 716
39.3064 825
39.32651 999
39.34663 1185
39.36674 1507
39.38685 1735
39.40697 1979
39.42708 1905
39.44719 1760
39.46731 1603
39.48742 1349
39.50754 1184
39.52765 1019
39.54776 912
39.56788 677
39.58799 487
39.6081 351
39.62822 299
39.64833 275
39.66845 259
39.68856 225
39.70867 237
39.72879 266
39.7489 218
39.76901 184
39.78913 206
39.80924 192
39.82935 201
39.84947 243
39.86958 224
39.8897 204
39.90981 201
39.92992 189
39.95004 235
39.97015 220
39.99026 243
40.01038 249
40.03049 271
40.05061 291
40.07072 311
40.09083 350
40.11095 418
40.13106 514
40.15117 590
40.17129 717
40.1914 829
40.21152 985
40.23163 955
40.25174 1086
40.27186 959
40.29197 895
40.31208 742
40.3322 667
40.35231 584
40.37242 537
40.39254 428
40.41265 340
40.43277 264
40.45288 236
40.47299 223
40.49311 196
40.51322 186
40.53333 210
40.55345 193
40.57356 156
40.59368 174
40.61379 161
40.6339 147
40.65402 186
40.67413 195
40.69424 177
40.71436 181
40.73447 180
40.75458 177
40.7747 189
40.79481 169
40.81493 179
40.83504 184
40.85515 177
40.87527 167
40.89538 162
40.91549 180
40.93561 156
40.95572 191
40.97584 163
40.99595 188
41.01606 153
41.03618 184
41.05629 169
41.0764 178
41.09652 179
41.11663 157
41.13675 167
41.15686 184
41.17697 178
41.19709 182
41.2172 170
41.23731 181
41.25743 168
41.27754 163
41.29765 185
41.31777 165
41.33788 192
41.358 188
41.37811 189
41.39822 194
41.41834 184
41.43845 166
41.45856 200
41.47868 185
41.49879 189
41.51891 191
41.53902 207
41.55913 208
41.57925 200
41.59936 211
41.61947 225
41.63959 225
41.6597 232
41.67982 223
41.69993 245
41.72004 268
41.74016 254
41.76027 246
41.78038 273
41.8005 236
41.82061 246
41.84072 245
41.86084 204
41.88095 228
41.90107 231
41.92118 208
41.94129 199
41.96141 191
41.98152 195
42.00163 208
42.02175 199
42.04186 214
42.06198 192
42.08209 245
42.1022 227
42.12232 242
42.14243 278
42.16254 281
42.18266 287
42.20277 312
42.22289 376
42.243 460
42.26311 538
42.28323 618
42.30334 744
42.32345 934
42.34357 1091
42.36368 1221
42.38379 1363
42.40391 1443
42.42402 1342
42.44414 1182
42.46425 1029
42.48436 885
42.50448 794
42.52459 669
42.5447 630
42.56482 557
42.58493 395
42.60505 287
42.62516 243
42.64527 216
42.66539 249
42.6855 244
42.70561 212
42.72573 213
42.74584 220
42.76595 220
42.78607 180
42.80618 219
42.8263 193
42.84641 180
42.86652 194
42.88664 160
42.90675 189
42.92686 169
42.94698 192
42.96709 158
42.98721 157
43.00732 173
43.02743 165
43.04755 163
43.06766 189
43.08777 160
43.10789 174
43.128 177
43.14812 157
43.16823 148
43.18834 161
43.20846 170
43.22857 163
43.24868 167
43.2688 154
43.28891 140
43.30902 165
43.32914 157
43.34925 149
43.36937 156
43.38948 156
43.40959 153
43.42971 140
43.44982 149
43.46993 185
43.49005 168
43.51016 193
43.53028 148
43.55039 172
43.5705 175
43.59062 175
43.61073 155
43.63084 141
43.65096 156
43.67107 168
43.69119 155
43.7113 161
43.73141 138
43.75153 159
43.77164 155
43.79175 155
43.81187 168
43.83198 181
43.85209 132
43.87221 172
43.89232 161
43.91244 170
43.93255 161
43.95266 165
43.97278 140
43.99289 163
44.013 152
44.03312 158
44.05323 148
44.07335 162
44.09346 140
44.11357 181
44.13369 167
44.1538 187
44.17391 159
44.19403 162
44.21414 177
44.23426 148
44.25437 182
44.27448 166
44.2946 156
44.31471 149
44.33482 163
44.35494 154
44.37505 166
44.39516 140
44.41528 137
44.43539 164
44.45551 151
44.47562 150
44.49573 174
44.51585 158
44.53596 156
44.55607 166
44.57619 141
44.5963 170
44.61642 163
44.63653 157
44.65664 174
44.67676 150
44.69687 159
44.71698 175
44.7371 149
44.75721 168
44.77732 159
44.79744 163
44.81755 126
44.83767 161
44.85778 169
44.87789 154
44.89801 157
44.91812 163
44.93823 170
44.95835 184
44.97846 177
44.99858 165
45.01869 166
45.0388 159
45.05892 172
45.07903 144
45.09914 176
45.11926 183
45.13937 153
45.15949 147
45.1796 153
45.19971 150
45.21983 180
45.23994 147
45.26005 170
45.28017 167
45.30028 165
45.32039 174
45.34051 200
45.36062 192
45.38074 190
45.40085 195
45.42096 184
45.44108 211
45.46119 216
45.4813 240
45.50142 233
45.52153 258
45.54165 288
45.56176 297
45.58187 348
45.60199 384
45.6221 487
45.64221 564
45.66233 703
45.68244 734
45.70256 813
45.72267 943
45.74278 975
45.7629 902
45.78301 796
45.80312 718
45.82324 601
45.84335 563
45.86346 513
45.88358 498
45.90369 440
45.92381 338
45.94392 279
45.96403 244
45.98415 235
46.00426 195
46.02437 209
46.04449 163
46.0646 175
46.08472 186
46.10483 173
46.12494 196
46.14506 186
46.16517 162
46.18528 192
46.2054 165
46.22551 168
46.24563 144
46.26574 166
46.28585 169
46.30597 185
46.32608 176
46.34619 147
46.36631 150
46.38642 157
46.40653 142
46.42665 122
46.44676 140
46.46688 154
46.48699 156
46.5071 156
46.52722 142
46.54733 158
46.56744 162
46.58756 150
46.60767 149
46.62779 142
46.6479 138
46.66801 129
46.68813 171
46.70824 162
46.72835 143
46.74847 132
46.76858 162
46.78869 162
46.80881 152
46.82892 144
46.84904 144
46.86915 170
46.88926 178
46.90938 175
46.92949 166
46.9496 145
46.96972 143
46.98983 170
47.00995 169
47.03006 173
47.05017 150
47.07029 156
47.0904 181
47.11051 175
47.13063 167
47.15074 190
47.17086 156
47.19097 157
47.21108 171
47.2312 151
47.25131 181
47.27142 173
47.29154 153
47.31165 158
47.33176 143
47.35188 156
47.37199 156
47.39211 175
47.41222 152
47.43233 155
47.45245 177
47.47256 163
47.49267 187
47.51279 160
47.5329 165
47.55302 122
47.57313 161
47.59324 160
47.61336 136
47.63347 174
47.65358 146
47.6737 149
47.69381 142
47.71393 152
47.73404 146
47.75415 133
47.77427 134
47.79438 139
47.81449 140
47.83461 144
47.85472 171
47.87483 171
47.89495 141
47.91506 143
47.93518 159
47.95529 128
47.9754 152
47.99552 146
48.01563 170
48.03574 151
48.05586 144
48.07597 134
48.09609 159
48.1162 146
48.13631 137
48.15643 134
48.17654 144
48.19665 137
48.21677 136
48.23688 155
48.257 156
48.27711 149
48.29722 123
48.31734 143
48.33745 131
48.35756 144
48.37768 171
48.39779 169
48.4179 187
48.43802 161
48.45813 139
48.47825 148
48.49836 162
48.51847 153
48.53859 144
48.5587 144
48.57881 146
48.59893 166
48.61904 165
48.63916 160
48.65927 152
48.67938 147
48.6995 149
48.71961 156
48.73972 151
48.75984 157
48.77995 166
48.80006 183
48.82018 158
48.84029 188
48.86041 167
48.88052 166
48.90063 185
48.92075 176
48.94086 165
48.96097 166
48.98109 180
49.0012 193
49.02132 204
49.04143 183
49.06154 180
49.08166 189
49.10177 181
49.12188 148
49.142 168
49.16211 179
49.18223 156
49.20234 174
49.22245 152
49.24257 171
49.26268 174
49.28279 152
49.30291 169
49.32302 189
49.34313 151
49.36325 177
49.38336 152
49.40348 182
49.42359 158
49.4437 184
49.46382 199
49.48393 175
49.50404 180
49.52416 169
49.54427 186
49.56439 177
49.5845 204
49.60461 200
49.62473 245
49.64484 228
49.66495 211
49.68507 227
49.70518 234
49.7253 270
49.74541 298
49.76552 307
49.78564 343
49.80575 356
49.82586 441
49.84598 461
49.86609 580
49.8862 643
49.90632 766
49.92643 847
49.94655 1118
49.96666 1299
49.98677 1633
50.00689 1999
50.027 2434
50.04711 2706
50.06723 2969
50.08734 2986
50.10746 2828
50.12757 2620
50.14768 2138
50.1678 1923
50.18791 1726
50.20802 1660
50.22814 1572
50.24825 1305
50.26837 1033
50.28848 774
50.30859 525
50.32871 379
50.34882 343
50.36893 327
50.38905 326
50.40916 320
50.42927 312
50.44939 283
50.4695 286
50.48962 308
50.50973 325
50.52984 317
50.54996 336
50.57007 364
50.59018 308
50.6103 296
50.63041 307
50.65053 273
50.67064 256
50.69075 255
50.71087 247
50.73098 270
50.75109 231
50.77121 217
50.79132 205
50.81143 181
50.83155 198
50.85166 222
50.87178 196
50.89189 177
50.912 169
50.93212 197
50.95223 155
50.97234 181
50.99246 198
51.01257 167
51.03269 150
51.0528 160
51.07291 158
51.09303 159
51.11314 163
51.13325 145
51.15337 159
51.17348 164
51.1936 160
51.21371 148
51.23382 148
51.25394 164
51.27405 167
51.29416 135
51.31428 146
51.33439 140
51.3545 168
51.37462 165
51.39473 154
51.41485 133
51.43496 130
51.45507 122
51.47519 135
51.4953 152
51.51541 156
51.53553 167
51.55564 150
51.57576 139
51.59587 144
51.61598 153
51.6361 151
51.65621 139
51.67632 135
51.69644 142
51.71655 137
51.73667 131
51.75678 167
51.77689 123
51.79701 138
51.81712 138
51.83723 143
51.85735 137
51.87746 139
51.89757 131
51.91769 146
51.9378 148
51.95792 132
51.97803 125
51.99814 155
52.01826 137
52.03837 148
52.05848 127
52.0786 144
52.09871 119
52.11883 142
52.13894 129
52.15905 133
52.17917 124
52.19928 163
52.21939 134
52.23951 133
52.25962 137
52.27974 125
52.29985 130
52.31996 126
52.34008 158
52.36019 151
52.3803 152
52.40042 147
52.42053 151
52.44064 139
52.46076 152
52.48087 139
52.50099 116
52.5211 132
52.54121 149
52.56133 136
52.58144 141
52.60155 143
52.62167 153
52.64178 127
52.6619 150
52.68201 131
52.70212 147
52.72224 156
52.74235 142
52.76246 151
52.78258 121
52.80269 127
52.8228 160
52.84292 157
52.86303 149
52.88315 145
52.90326 141
52.92337 143
52.94349 146
52.9636 133
52.98371 121
53.00383 146
53.02394 124
53.04406 145
53.06417 130
53.08428 141
53.1044 139
53.12451 178
53.14462 138
53.16474 141
53.18485 136
53.20497 148
53.22508 149
53.24519 148
53.26531 129
53.28542 154
53.30553 134
53.32565 134
53.34576 146
53.36587 157
53.38599 148
53.4061 158
53.42622 153
53.44633 136
53.46644 151
53.48656 163
53.50667 149
53.52678 168
53.5469 144
53.56701 153
53.58713 168
53.60724 138
53.62735 170
53.64747 178
53.66758 172
53.68769 169
53.70781 144
53.72792 131
53.74804 154
53.76815 164
53.78826 150
53.80838 143
53.82849 170
53.8486 142
53.86872 158
53.88883 182
53.90894 160
53.92906 158
53.94917 152
53.96929 173
53.9894 167
54.00951 157
54.02963 170
54.04974 163
54.06985 162
54.08997 162
54.11008 160
54.1302 154
54.15031 141
54.17042 173
54.19054 163
54.21065 147
54.23076 177
54.25088 174
54.27099 155
54.29111 177
54.31122 156
54.33133 160
54.35145 173
54.37156 207
54.39167 173
54.41179 177
54.4319 206
54.45201 171
54.47213 182
54.49224 201
54.51236 211
54.53247 222
54.55258 265
54.5727 277
54.59281 270
54.61292 312
54.63304 356
54.65315 384
54.67327 421
54.69338 487
54.71349 553
54.73361 667
54.75372 723
54.77383 864
54.79395 854
54.81406 958
54.83417 905
54.85429 896
54.8744 778
54.89452 630
54.91463 607
54.93474 564
54.95486 596
54.97497 557
54.99508 501
55.0152 410
55.03531 361
55.05543 316
55.07554 270
55.09565 307
55.11577 298
55.13588 294
55.15599 342
55.17611 350
55.19622 403
55.21634 465
55.23645 491
55.25656 528
55.27668 477
55.29679 495
55.3169 464
55.33702 411
55.35713 348
55.37724 320
55.39736 333
55.41747 333
55.43759 324
55.4577 279
55.47781 223
55.49793 210
55.51804 203
55.53815 193
55.55827 186
55.57838 176
55.5985 166
55.61861 143
55.63872 172
55.65884 177
55.67895 153
55.69906 158
55.71918 164
55.73929 148
55.75941 156
55.77952 146
55.79963 140
55.81975 158
55.83986 158
55.85997 156
55.88009 152
55.9002 167
55.92031 153
55.94043 127
55.96054 158
55.98066 182
56.00077 137
56.02088 149
56.041 154
56.06111 153
56.08122 157
56.10134 136
56.12145 168
56.14157 149
56.16168 159
56.18179 140
56.20191 128
56.22202 151
56.24213 148
56.26225 146
56.28236 152
56.30248 139
56.32259 153
56.3427 143
56.36282 146
56.38293 133
56.40304 154
56.42316 151
56.44327 131
56.46338 158
56.4835 149
56.50361 142
56.52373 148
56.54384 148
56.56395 144
56.58407 129
56.60418 143
56.62429 129
56.64441 140
56.66452 161
56.68464 129
56.70475 149
56.72486 150
56.74498 150
56.76509 150
56.7852 133
56.80532 148
56.82543 140
56.84554 147
56.86566 182
56.88577 154
56.90589 156
56.926 142
56.94611 164
56.96623 150
56.98634 180
57.00645 156
57.02657 132
57.04668 156
57.0668 170
57.08691 168
57.10702 199
57.12714 171
57.14725 174
57.16736 188
57.18748 171
57.20759 186
57.22771 165
57.24782 174
57.26793 170
57.28805 179
57.30816 174
57.32827 165
57.34839 176
57.3685 148
57.38861 158
57.40873 153
57.42884 141
57.44896 148
57.46907 131
57.48918 127
57.5093 140
57.52941 156
57.54952 133
57.56964 132
57.58975 146
57.60987 145
57.62998 138
57.65009 145
57.67021 125
57.69032 148
57.71043 140
57.73055 136
57.75066 159
57.77078 125
57.79089 121
57.811 156
57.83112 132
57.85123 162
57.87134 119
57.89146 136
57.91157 151
57.93168 136
57.9518 137
57.97191 166
57.99203 129
58.01214 168
58.03225 150
58.05237 142
58.07248 137
58.09259 140
58.11271 130
58.13282 147
58.15294 148
58.17305 129
58.19316 150
58.21328 144
58.23339 128
58.2535 141
58.27362 134
58.29373 132
58.31385 153
58.33396 140
58.35407 167
58.37419 145
58.3943 165
58.41441 166
58.43453 151
58.45464 170
58.47475 138
58.49487 143
58.51498 136
58.5351 184
58.55521 133
58.57532 154
58.59544 146
58.61555 176
58.63566 139
58.65578 124
58.67589 159
58.69601 139
58.71612 126
58.73623 138
58.75635 150
58.77646 150
58.79657 143
58.81669 144
58.8368 157
58.85691 123
58.87703 127
58.89714 141
58.91726 130
58.93737 142
58.95748 148
58.9776 131
58.99771 143
59.01782 155
59.03794 151
59.05805 152
59.07817 136
59.09828 159
59.11839 151
59.13851 151
59.15862 148
59.17873 136
59.19885 138
59.21896 154
59.23908 155
59.25919 160
59.2793 156
59.29942 161
59.31953 164
59.33964 153
59.35976 167
59.37987 145
59.39998 186
59.4201 177
59.44021 200
59.46033 201
59.48044 185
59.50055 216
59.52067 207
59.54078 239
59.56089 271
59.58101 279
59.60112 298
59.62124 328
59.64135 351
59.66146 415
59.68158 493
59.70169 491
59.7218 598
59.74192 666
59.76203 790
59.78215 983
59.80226 1144
59.82237 1389
59.84249 1571
59.8626 1744
59.88271 1936
59.90283 1846
59.92294 1810
59.94305 1552
59.96317 1329
59.98328 1111
60.0034 1049
60.02351 1000
60.04362 1059
60.06374 998
60.08385 841
60.10396 807
60.12408 623
60.14419 448
60.16431 332
60.18442 285
60.20453 242
60.22465 216
60.24476 207
60.26487 224
60.28499 210
60.3051 199
60.32522 186
60.34533 189
60.36544 173
60.38556 188
60.40567 171
60.42578 161
60.4459 148
60.46601 169
60.48612 157
60.50624 162
60.52635 159
60.54647 170
60.56658 149
60.58669 180
60.60681 170
60.62692 168
60.64703 146
60.66715 134
60.68726 153
60.70738 140
60.72749 149
60.7476 174
60.76772 158
60.78783 134
60.80794 156
60.82806 158
60.84817 145
60.86828 144
60.8884 139
60.90851 137
60.92863 144
60.94874 134
60.96885 157
60.98897 152
61.00908 152
61.02919 149
61.04931 163
61.06942 164
61.08954 153
61.10965 154
61.12976 143
61.14988 141
61.16999 153
61.1901 138
61.21022 157
61.23033 142
61.25045 153
61.27056 156
61.29067 174
61.31079 149
61.3309 150
61.35101 160
61.37113 144
61.39124 144
61.41135 169
61.43147 154
61.45158 191
61.4717 156
61.49181 183
61.51192 144
61.53204 146
61.55215 137
61.57226 143
61.59238 170
61.61249 157
61.63261 154
61.65272 168
61.67283 170
61.69295 161
61.71306 154
61.73317 149
61.75329 158
61.7734 175
61.79352 161
61.81363 173
61.83374 171
61.85386 156
61.87397 147
61.89408 140
61.9142 156
61.93431 171
61.95442 178
61.97454 172
61.99465 176
62.01477 182
62.03488 162
62.05499 173
62.07511 176
62.09522 179
62.11533 164
62.13545 181
62.15556 163
62.17568 186
62.19579 170
62.2159 169
62.23602 173
62.25613 164
62.27624 159
62.29636 187
62.31647 173
62.33659 164
62.3567 162
62.37681 173
62.39693 173
62.41704 146
62.43715 161
62.45727 160
62.47738 147
62.49749 165
62.51761 154
62.53772 145
62.55784 136
62.57795 123
62.59806 155
62.61818 149
62.63829 167
62.6584 153
62.67852 135
62.69863 175
62.71875 153
62.73886 162
62.75897 127
62.77909 143
62.7992 156
62.81931 165
62.83943 152
62.85954 140
62.87965 145
62.89977 156
62.91988 148
62.94 171
62.96011 161
62.98022 132
63.00034 137
63.02045 156
63.04056 152
63.06068 157
63.08079 145
63.10091 153
63.12102 176
63.14113 147
63.16125 140
63.18136 141
63.20147 140
63.22159 159
63.2417 149
63.26182 167
63.28193 120
63.30204 154
63.32216 153
63.34227 156
63.36238 137
63.3825 139
63.40261 144
63.42272 158
63.44284 151
63.46295 156
63.48307 183
63.50318 159
63.52329 162
63.54341 144
63.56352 164
63.58363 150
63.60375 145
63.62386 151
63.64398 176
63.66409 170
63.6842 137
63.70432 179
63.72443 184
63.74454 184
63.76466 191
63.78477 263
63.80489 237
63.825 267
63.84511 272
63.86523 315
63.88534 354
63.90545 378
63.92557 412
63.94568 433
63.96579 473
63.98591 469
64.00602 452
64.02614 381
64.04625 328
64.06636 314
64.08648 285
64.10659 293
64.1267 277
64.14682 310
64.16693 281
64.18705 262
64.20716 224
64.22727 183
64.24739 184
64.2675 167
64.28761 142
64.30773 140
64.32784 148
64.34796 142
64.36807 155
64.38818 134
64.4083 142
64.42841 139
64.44852 136
64.46864 137
64.48875 138
64.50886 115
64.52898 137
64.54909 135
64.56921 128
64.58932 135
64.60943 139
64.62955 141
64.64966 124
64.66977 141
64.68989 133
64.71 122
64.73012 142
64.75023 126
64.77034 135
64.79046 143
64.81057 147
64.83068 143
64.8508 133
64.87091 155
64.89102 114
64.91114 130
64.93125 128
64.95137 129
64.97148 138
64.99159 146
65.01171 143
65.03182 159
65.05193 148
65.07205 137
65.09216 148
65.11228 115
65.13239 141
65.1525 144
65.17262 161
65.19273 138
65.21284 158
65.23296 138
65.25307 152
65.27319 143
65.2933 162
65.31341 157
65.33353 146
65.35364 149
65.37375 147
65.39387 173
65.41398 146
65.43409 135
65.45421 155
65.47432 175
65.49444 169
65.51455 166
65.53466 191
65.55478 153
65.57489 174
65.595 155
65.61512 175
65.63523 183
65.65535 206
65.67546 226
65.69557 224
65.71569 211
65.7358 212
65.75591 207
65.77603 215
65.79614 199
65.81626 184
65.83637 171
65.85648 188
65.8766 179
65.89671 192
65.91682 149
65.93694 185
65.95705 166
65.97716 151
65.99728 167
66.01739 145
66.03751 124
66.05762 160
66.07773 171
66.09785 132
66.11796 134
66.13807 132
66.15819 149
66.1783 130
66.19842 153
66.21853 157
66.23864 137
66.25876 143
66.27887 139
66.29898 150
66.3191 154
66.33921 146
66.35933 139
66.37944 144
66.39955 148
66.41967 134
66.43978 155
66.45989 149
66.48001 154
66.50012 132
66.52023 151
66.54035 140
66.56046 135
66.58058 156
66.60069 141
66.6208 118
66.64092 149
66.66103 139
66.68114 128
66.70126 145
66.72137 157
66.74149 131
66.7616 153
66.78171 150
66.80183 149
66.82194 117
66.84205 167
66.86217 148
66.88228 152
66.90239 148
66.92251 139
66.94262 144
66.96274 160
66.98285 152
67.00296 148
67.02308 158
67.04319 178
67.0633 150
67.08342 150
67.10353 149
67.12365 163
67.14376 162
67.16387 172
67.18399 173
67.2041 182
67.22421 174
67.24433 189
67.26444 183
67.28456 204
67.30467 230
67.32478 222
67.3449 191
67.36501 225
67.38512 258
67.40524 290
67.42535 309
67.44546 308
67.46558 343
67.48569 344
67.50581 448
67.52592 513
67.54603 561
67.56615 653
67.58626 789
67.60637 858
67.62649 1009
67.6466 1125
67.66672 1156
67.68683 1161
67.70694 1137
67.72706 976
67.74717 833
67.76728 736
67.7874 735
67.80751 741
67.82763 773
67.84774 819
67.86785 881
67.88797 890
67.90808 911
67.92819 875
67.94831 880
67.96842 904
67.98853 1079
68.00865 1168
68.02876 1325
68.04888 1385
68.06899 1582
68.0891 1499
68.10922 1535
68.12933 1432
68.14944 1325
68.16956 1242
68.18967 1256
68.20979 1346
68.2299 1452
68.25001 1435
68.27013 1317
68.29024 1257
68.31035 1102
68.33047 948
68.35058 724
68.3707 663
68.39081 599
68.41092 581
68.43104 580
68.45115 535
68.47126 438
68.49138 444
68.51149 333
68.5316 279
68.55172 262
68.57183 242
68.59195 216
68.61206 171
68.63217 201
68.65229 195
68.6724 194
68.69251 190
68.71263 174
68.73274 178
68.75286 165
68.77297 148
68.79308 151
68.8132 150
68.83331 152
68.85342 136
68.87354 144
68.89365 170
68.91376 141
68.93388 149
68.95399 147
68.97411 161
68.99422 124
69.01433 136
69.03445 156
69.05456 168
69.07467 125
69.09479 125
69.1149 132
69.13502 123
69.15513 130
69.17524 132
69.19536 128
69.21547 152
69.23558 142
69.2557 129
69.27581 130
69.29593 129
69.31604 120
69.33615 160
69.35627 137
69.37638 144
69.39649 141
69.41661 112
69.43672 107
69.45683 128
69.47695 167
69.49706 128
69.51718 134
69.53729 145
69.5574 128
69.57752 134
69.59763 132
69.61774 133
69.63786 127
69.65797 136
69.67809 141
69.6982 105
69.71831 123
69.73843 124
69.75854 111
69.77865 119
69.79877 139
69.81888 124
69.839 146
69.85911 109
69.87922 113
69.89934 125
69.91945 132
69.93956 130
69.95968 112
69.97979 160
69.9999 130
70.02002 131
70.04013 139
70.06025 129
70.08036 126
70.10047 144
70.12059 141
70.1407 123
70.16081 124
70.18093 116
70.20104 121
70.22116 122
70.24127 132
70.26138 120
70.2815 137
70.30161 125
70.32172 125
70.34184 143
70.36195 120
70.38207 115
70.40218 128
70.42229 128
70.44241 122
70.46252 126
70.48263 132
70.50275 114
70.52286 120
70.54297 133
70.56309 134
70.5832 122
70.60332 115
70.62343 127
70.64354 129
70.66366 122
70.68377 125
70.70388 119
70.724 115
70.74411 138
70.76423 152
70.78434 140
70.80445 159
70.82457 125
70.84468 125
70.86479 129
70.88491 127
70.90502 138
70.92513 127
70.94525 121
70.96536 116
70.98548 130
71.00559 119
71.0257 136
71.04582 138
71.06593 117
71.08604 145
71.10616 126
71.12627 142
71.14639 121
71.1665 131
71.18661 139
71.20673 123
71.22684 106
71.24695 130
71.26707 122
71.28718 119
71.3073 139
71.32741 119
71.34752 153
71.36764 143
71.38775 130
71.40786 147
71.42798 127
71.44809 142
71.4682 144
71.48832 139
71.50843 129
71.52855 139
71.54866 123
71.56877 111
71.58889 125
71.609 140
71.62911 142
71.64923 142
71.66934 123
71.68946 146
71.70957 146
71.72968 115
71.7498 130
71.76991 125
71.79002 140
71.81014 98
71.83025 106
71.85037 139
71.87048 110
71.89059 126
71.91071 152
71.93082 132
71.95093 130
71.97105 124
71.99116 134
72.01127 131
72.03139 125
72.0515 127
72.07162 118
72.09173 116
72.11184 131
72.13196 121
72.15207 148
72.17218 132
72.1923 133
72.21241 130
72.23253 156
72.25264 139
72.27275 160
72.29287 146
72.31298 140
72.33309 117
72.35321 108
72.37332 119
72.39344 132
72.41355 138
72.43366 128
72.45378 117
72.47389 118
72.494 129
72.51412 106
72.53423 128
72.55434 132
72.57446 124
72.59457 124
72.61469 115
72.6348 124
72.65491 124
72.67503 133
72.69514 150
72.71525 130
72.73537 112
72.75548 137
72.7756 149
72.79571 136
72.81582 138
72.83594 143
72.85605 140
72.87616 136
72.89628 139
72.91639 135
72.9365 146
72.95662 138
72.97673 149
72.99685 143
73.01696 161
73.03707 163
73.05719 172
73.0773 169
73.09741 178
73.11753 174
73.13764 159
73.15776 187
73.17787 198
73.19798 196
73.2181 223
73.23821 262
73.25832 243
73.27844 283
73.29855 335
73.31867 351
73.33878 371
73.35889 440
73.37901 455
73.39912 483
73.41923 491
73.43935 436
73.45946 394
73.47957 326
73.49969 303
73.5198 305
73.53992 269
73.56003 283
73.58014 308
73.60026 293
73.62037 294
73.64048 310
73.6606 284
73.68071 259
73.70083 206
73.72094 186
73.74105 161
73.76117 149
73.78128 143
73.80139 153
73.82151 138
73.84162 145
73.86174 160
73.88185 153
73.90196 126
73.92208 133
73.94219 152
73.9623 132
73.98242 137
74.00253 130
74.02264 135
74.04276 139
74.06287 139
74.08299 151
74.1031 126
74.12321 136
74.14333 130
74.16344 137
74.18355 143
74.20367 139
74.22378 120
74.2439 130
74.26401 120
74.28412 118
74.30424 131
74.32435 126
74.34446 126
74.36458 130
74.38469 135
74.40481 120
74.42492 124
74.44503 156
74.46515 132
74.48526 135
74.50537 134
74.52549 146
74.5456 119
74.56571 133
74.58583 144
74.60594 126
74.62606 128
74.64617 132
74.66628 124
74.6864 133
74.70651 131
74.72662 139
74.74674 137
74.76685 145
74.78697 123
74.80708 136
74.82719 123
74.84731 120
74.86742 141
74.88753 131
74.90765 127
74.92776 140
74.94787 125
74.96799 151
74.9881 147
75.00822 113
