3.00117 20337
3.02128 19445
3.0414 19601
3.06151 18483
3.08162 18307
3.10174 17665
3.12185 17075
3.14197 16541
3.16208 15617
3.18219 15726
3.20231 15262
3.22242 14755
3.24253 14414
3.26265 14054
3.28276 13763
3.30288 13198
3.32299 12815
3.3431 12538
3.36322 11858
3.38333 11776
3.40344 11110
3.42356 10636
3.44367 10508
3.46379 9809
3.4839 9888
3.50401 9568
3.52413 9149
3.54424 9001
3.56435 8316
3.58447 8021
3.60458 7782
3.62469 7638
3.64481 7297
3.66492 7002
3.68504 6940
3.70515 6463
3.72526 6253
3.74538 6094
3.76549 5584
3.7856 5645
3.80572 5436
3.82583 5086
3.84595 5017
3.86606 4611
3.88617 4518
3.90629 4392
3.9264 4198
3.94651 4194
3.96663 3822
3.98674 3772
4.00686 3387
4.02697 3388
4.04708 3520
4.0672 2980
4.08731 3085
4.10742 2955
4.12754 2836
4.14765 2856
4.16776 2428
4.18788 2480
4.20799 2542
4.22811 2334
4.24822 2380
4.26833 2039
4.28845 2134
4.30856 2133
4.32867 2015
4.34879 2046
4.3689 1953
4.38902 1933
4.40913 1898
4.42924 1819
4.44936 1845
4.46947 1667
4.48958 1643
4.5097 1717
4.52981 1632
4.54992 1663
4.57004 1569
4.59015 1626
4.61027 1527
4.63038 1495
4.65049 1475
4.67061 1437
4.69072 1455
4.71083 1374
4.73095 1326
4.75106 1416
4.77118 1258
4.79129 1285
4.8114 1411
4.83152 1327
4.85163 1276
4.87174 1199
4.89186 1183
4.91197 1212
4.93209 1142
4.9522 1201
4.97231 1095
4.99243 1118
5.01254 1107
5.03265 1136
5.05277 1027
5.07288 1084
5.09299 1066
5.11311 1076
5.13322 994
5.15334 1045
5.17345 930
5.19356 947
5.21368 934
5.23379 962
5.2539 930
5.27402 896
5.29413 891
5.31425 887
5.33436 890
5.35447 868
5.37459 849
5.3947 831
5.41481 875
5.43493 891
5.45504 801
5.47516 772
5.49527 787
5.51538 857
5.5355 759
5.55561 787
5.57572 786
5.59584 760
5.61595 738
5.63606 730
5.65618 696
5.67629 735
5.69641 716
5.71652 729
5.73663 730
5.75675 694
5.77686 720
5.79697 722
5.81709 801
5.8372 751
5.85732 776
5.87743 735
5.89754 698
5.91766 734
5.93777 693
5.95788 673
5.978 727
5.99811 726
6.01823 723
6.03834 626
6.05845 670
6.07857 633
6.09868 717
6.11879 771
6.13891 674
6.15902 644
6.17913 697
6.19925 651
6.21936 677
6.23948 590
6.25959 648
6.2797 644
6.29982 602
6.31993 589
6.34004 580
6.36016 607
6.38027 628
6.40039 591
6.4205 604
6.44061 555
6.46073 608
6.48084 588
6.50095 510
6.52107 607
6.54118 566
6.56129 557
6.58141 547
6.60152 550
6.62164 554
6.64175 554
6.66186 532
6.68198 551
6.70209 538
6.7222 585
6.74232 560
6.76243 533
6.78255 570
6.80266 517
6.82277 535
6.84289 543
6.863 552
6.88311 547
6.90323 546
6.92334 530
6.94346 529
6.96357 542
6.98368 552
7.0038 516
7.02391 478
7.04402 524
7.06414 554
7.08425 518
7.10436 511
7.12448 526
7.14459 457
7.16471 495
7.18482 515
7.20493 561
7.22505 533
7.24516 515
7.26527 541
7.28539 526
7.3055 507
7.32562 527
7.34573 546
7.36584 511
7.38596 491
7.40607 551
7.42618 501
7.4463 523
7.46641 485
7.48653 503
7.50664 489
7.52675 504
7.54687 510
7.56698 468
7.58709 545
7.60721 508
7.62732 451
7.64743 472
7.66755 454
7.68766 512
7.70778 511
7.72789 473
7.748 435
7.76812 462
7.78823 485
7.80834 469
7.82846 469
7.84857 431
7.86869 468
7.8888 508
7.90891 482
7.92903 511
7.94914 499
7.96925 502
7.98937 475
8.00948 482
8.0296 441
8.04971 469
8.06982 473
8.08994 472
8.11005 483
8.13016 490
8.15028 499
8.17039 466
8.1905 483
8.21062 483
8.23073 524
8.25085 524
8.27096 522
8.29107 479
8.31119 486
8.3313 507
8.35141 448
8.37153 494
8.39164 454
8.41176 477
8.43187 498
8.45198 448
8.4721 494
8.49221 500
8.51232 473
8.53244 498
8.55255 494
8.57266 530
8.59278 494
8.61289 469
8.63301 545
8.65312 475
8.67323 526
8.69335 498
8.71346 477
8.73357 551
8.75369 546
8.7738 503
8.79392 574
8.81403 589
8.83414 574
8.85426 536
8.87437 573
8.89448 568
8.9146 566
8.93471 512
8.95483 517
8.97494 489
8.99505 526
9.01517 492
9.03528 488
9.05539 457
9.07551 479
9.09562 494
9.11573 471
9.13585 465
9.15596 473
9.17608 448
9.19619 492
9.2163 504
9.23642 460
9.25653 419
9.27664 434
9.29676 390
9.31687 463
9.33699 454
9.3571 462
9.37721 452
9.39733 437
9.41744 484
9.43755 487
9.45767 414
9.47778 402
9.4979 446
9.51801 484
9.53812 459
9.55824 466
9.57835 429
9.59846 463
9.61858 449
9.63869 427
9.6588 426
9.67892 442
9.69903 414
9.71915 462
9.73926 470
9.75937 453
9.77949 438
9.7996 465
9.81971 439
9.83983 435
9.85994 434
9.88006 469
9.90017 474
9.92028 431
9.9404 460
9.96051 454
9.98062 454
10.00074 489
10.02085 435
10.04097 441
10.06108 455
10.08119 467
10.10131 447
10.12142 430
10.14153 489
10.16165 421
10.18176 461
10.20187 457
10.22199 481
10.2421 467
10.26222 448
10.28233 490
10.30244 463
10.32256 451
10.34267 456
10.36278 443
10.3829 446
10.40301 478
10.42313 438
10.44324 462
10.46335 482
10.48347 496
10.50358 484
10.52369 407
10.54381 490
10.56392 466
10.58403 477
10.60415 413
10.62426 437
10.64438 460
10.66449 480
10.6846 479
10.70472 447
10.72483 465
10.74494 463
10.76506 424
10.78517 468
10.80529 440
10.8254 491
10.84551 413
10.86563 467
10.88574 472
10.90585 424
10.92597 446
10.94608 460
10.9662 485
10.98631 423
11.00642 463
11.02654 472
11.04665 473
11.06676 417
11.08688 458
11.10699 511
11.1271 411
11.14722 463
11.16733 530
11.18745 483
11.20756 481
11.22767 477
11.24779 397
11.2679 462
11.28801 447
11.30813 422
11.32824 506
11.34836 455
11.36847 449
11.38858 488
11.4087 479
11.42881 399
11.44892 469
11.46904 473
11.48915 475
11.50927 470
11.52938 490
11.54949 489
11.56961 530
11.58972 478
11.60983 485
11.62995 511
11.65006 489
11.67017 506
11.69029 470
11.7104 492
11.73052 514
11.75063 530
11.77074 560
11.79086 515
11.81097 523
11.83108 535
11.8512 569
11.87131 582
11.89143 575
11.91154 563
11.93165 548
11.95177 600
11.97188 559
11.99199 548
12.01211 578
12.03222 587
12.05234 591
12.07245 620
12.09256 607
12.11268 656
12.13279 609
12.1529 642
12.17302 584
12.19313 602
12.21324 603
12.23336 574
12.25347 593
12.27359 543
12.2937 617
12.31381 557
12.33393 561
12.35404 545
12.37415 584
12.39427 535
12.41438 567
12.4345 523
12.45461 503
12.47472 547
12.49484 515
12.51495 526
12.53506 514
12.55518 460
12.57529 471
12.5954 468
12.61552 502
12.63563 460
12.65575 491
12.67586 415
12.69597 495
12.71609 421
12.7362 471
12.75631 416
12.77643 449
12.79654 437
12.81666 466
12.83677 442
12.85688 417
12.877 419
12.89711 425
12.91722 425
12.93734 423
12.95745 443
12.97757 445
12.99768 413
13.01779 430
13.03791 435
13.05802 424
13.07813 426
13.09825 409
13.11836 391
13.13847 430
13.15859 422
13.1787 394
13.19882 366
13.21893 333
13.23904 376
13.25916 392
13.27927 383
13.29938 416
13.3195 401
13.33961 395
13.35973 434
13.37984 375
13.39995 381
13.42007 355
13.44018 386
13.46029 386
13.48041 403
13.50052 382
13.52064 389
13.54075 397
13.56086 430
13.58098 388
13.60109 387
13.6212 411
13.64132 407
13.66143 406
13.68154 423
13.70166 400
13.72177 447
13.74189 409
13.762 382
13.78211 398
13.80223 390
13.82234 423
13.84245 398
13.86257 418
13.88268 395
13.9028 401
13.92291 404
13.94302 430
13.96314 399
13.98325 379
14.00336 384
14.02348 383
14.04359 361
14.06371 370
14.08382 378
14.10393 373
14.12405 404
14.14416 384
14.16427 375
14.18439 375
14.2045 373
14.22461 367
14.24473 339
14.26484 375
14.28496 364
14.30507 356
14.32518 388
14.3453 369
14.36541 354
14.38552 338
14.40564 357
14.42575 372
14.44587 378
14.46598 329
14.48609 363
14.50621 401
14.52632 364
14.54643 363
14.56655 390
14.58666 381
14.60677 347
14.62689 393
14.647 386
14.66712 362
14.68723 383
14.70734 349
14.72746 395
14.74757 378
14.76768 388
14.7878 392
14.80791 340
14.82803 365
14.84814 379
14.86825 369
14.88837 355
14.90848 390
14.92859 362
14.94871 378
14.96882 397
14.98894 421
15.00905 416
15.02916 411
15.04928 394
15.06939 392
15.0895 392
15.10962 356
15.12973 351
15.14984 394
15.16996 375
15.19007 383
15.21019 371
15.2303 412
15.25041 426
15.27053 360
15.29064 374
15.31075 383
15.33087 370
15.35098 402
15.3711 366
15.39121 360
15.41132 360
15.43144 348
15.45155 384
15.47166 390
15.49178 334
15.51189 345
15.53201 358
15.55212 388
15.57223 375
15.59235 359
15.61246 369
15.63257 391
15.65269 377
15.6728 361
15.69291 418
15.71303 356
15.73314 340
15.75326 359
15.77337 329
15.79348 402
15.8136 367
15.83371 357
15.85382 372
15.87394 390
15.89405 345
15.91417 378
15.93428 344
15.95439 380
15.97451 364
15.99462 386
16.01473 369
16.03485 390
16.05496 373
16.07508 369
16.09519 358
16.1153 387
16.13542 381
16.15553 386
16.17564 368
16.19576 358
16.21587 381
16.23598 343
16.2561 390
16.27621 386
16.29633 352
16.31644 349
16.33655 344
16.35667 362
16.37678 383
16.39689 341
16.41701 361
16.43712 387
16.45724 399
16.47735 352
16.49746 390
16.51758 378
16.53769 341
16.5578 358
16.57792 358
16.59803 362
16.61814 407
16.63826 352
16.65837 340
16.67849 346
16.6986 363
16.71871 364
16.73883 354
16.75894 372
16.77905 414
16.79917 356
16.81928 390
16.8394 373
16.85951 369
16.87962 380
16.89974 374
16.91985 366
16.93996 388
16.96008 346
16.98019 342
17.00031 397
17.02042 356
17.04053 393
17.06065 379
17.08076 352
17.10087 414
17.12099 396
17.1411 386
17.16121 367
17.18133 372
17.20144 411
17.22156 356
17.24167 398
17.26178 378
17.2819 340
17.30201 385
17.32212 390
17.34224 380
17.36235 379
17.38247 435
17.40258 379
17.42269 420
17.44281 400
17.46292 354
17.48303 383
17.50315 395
17.52326 443
17.54338 380
17.56349 424
17.5836 451
17.60372 406
17.62383 406
17.64394 424
17.66406 385
17.68417 402
17.70428 467
17.7244 433
17.74451 422
17.76463 402
17.78474 420
17.80485 479
17.82497 401
17.84508 425
17.86519 409
17.88531 451
17.90542 389
17.92554 439
17.94565 370
17.96576 394
17.98588 402
18.00599 373
18.0261 390
18.04622 388
18.06633 381
18.08645 397
18.10656 380
18.12667 395
18.14679 406
18.1669 380
18.18701 395
18.20713 363
18.22724 396
18.24735 353
18.26747 337
18.28758 366
18.3077 410
18.32781 391
18.34792 374
18.36804 358
18.38815 398
18.40826 379
18.42838 379
18.44849 362
18.46861 352
18.48872 408
18.50883 387
18.52895 409
18.54906 378
18.56917 332
18.58929 372
18.6094 373
18.62951 362
18.64963 404
18.66974 400
18.68986 403
18.70997 378
18.73008 376
18.7502 385
18.77031 370
18.79042 409
18.81054 410
18.83065 345
18.85077 351
18.87088 380
18.89099 422
18.91111 406
18.93122 395
18.95133 393
18.97145 369
18.99156 402
19.01168 396
19.03179 359
19.0519 424
19.07202 380
19.09213 356
19.11224 411
19.13236 421
19.15247 430
19.17258 429
19.1927 413
19.21281 422
19.23293 478
19.25304 461
19.27315 458
19.29327 470
19.31338 451
19.33349 492
19.35361 500
19.37372 506
19.39384 543
19.41395 555
19.43406 486
19.45418 496
19.47429 540
19.4944 568
19.51452 528
19.53463 568
19.55475 558
19.57486 619
19.59497 652
19.61509 682
19.6352 735
19.65531 707
19.67543 791
19.69554 880
19.71565 917
19.73577 896
19.75588 928
19.776 1029
19.79611 994
19.81622 1053
19.83634 1044
19.85645 1020
19.87656 1013
19.89668 928
19.91679 937
19.93691 924
19.95702 890
19.97713 918
19.99725 841
20.01736 868
20.03747 784
20.05759 830
20.0777 814
20.09782 815
20.11793 832
20.13804 839
20.15816 832
20.17827 771
20.19838 819
20.2185 721
20.23861 752
20.25872 756
20.27884 766
20.29895 805
20.31907 816
20.33918 799
20.35929 781
20.37941 774
20.39952 761
20.41963 847
20.43975 862
20.45986 819
20.47998 755
20.50009 778
20.5202 787
20.54032 801
20.56043 776
20.58054 803
20.60066 828
20.62077 881
20.64088 903
20.661 969
20.68111 1100
20.70123 1375
20.72134 1614
20.74145 1943
20.76157 2294
20.78168 2590
20.80179 2849
20.82191 2869
20.84202 2742
20.86214 2363
20.88225 1931
20.90236 1518
20.92248 1274
20.94259 1088
20.9627 937
20.98282 865
21.00293 881
21.02305 817
21.04316 765
21.06327 762
21.08339 783
21.1035 756
21.12361 811
21.14373 800
21.16384 773
21.18395 725
21.20407 715
21.22418 753
21.2443 750
21.26441 746
21.28452 802
21.30464 732
21.32475 780
21.34486 753
21.36498 742
21.38509 726
21.40521 706
21.42532 704
21.44543 692
21.46555 691
21.48566 740
21.50577 686
21.52589 688
21.546 673
21.56612 646
21.58623 710
21.60634 695
21.62646 674
21.64657 622
21.66668 627
21.6868 699
21.70691 594
21.72702 606
21.74714 590
21.76725 645
21.78737 621
21.80748 644
21.82759 632
21.84771 592
21.86782 604
21.88793 648
21.90805 624
21.92816 655
21.94828 690
21.96839 675
21.9885 718
22.00862 668
22.02873 679
22.04884 660
22.06896 692
22.08907 629
22.10919 622
22.1293 556
22.14941 600
22.16953 587
22.18964 573
22.20975 573
22.22987 601
22.24998 601
22.27009 565
22.29021 600
22.31032 576
22.33044 580
22.35055 544
22.37066 542
22.39078 583
22.41089 572
22.431 579
22.45112 539
22.47123 568
22.49135 550
22.51146 571
22.53157 544
22.55169 541
22.5718 485
22.59191 552
22.61203 504
22.63214 581
22.65225 557
22.67237 512
22.69248 547
22.7126 521
22.73271 543
22.75282 539
22.77294 581
22.79305 535
22.81316 579
22.83328 542
22.85339 558
22.87351 614
22.89362 569
22.91373 596
22.93385 596
22.95396 533
22.97407 553
22.99419 558
23.0143 526
23.03442 528
23.05453 597
23.07464 536
23.09476 520
23.11487 556
23.13498 553
23.1551 485
23.17521 516
23.19532 501
23.21544 549
23.23555 564
23.25567 549
23.27578 494
23.29589 532
23.31601 523
23.33612 561
23.35623 537
23.37635 533
23.39646 524
23.41658 588
23.43669 505
23.4568 581
23.47692 570
23.49703 581
23.51714 576
23.53726 580
23.55737 587
23.57749 587
23.5976 601
23.61771 543
23.63783 580
23.65794 559
23.67805 604
23.69817 548
23.71828 570
23.73839 540
23.75851 530
23.77862 596
23.79874 576
23.81885 544
23.83896 567
23.85908 562
23.87919 601
23.8993 544
23.91942 549
23.93953 538
23.95965 556
23.97976 627
23.99987 555
24.01999 588
24.0401 606
24.06021 568
24.08033 584
24.10044 582
24.12056 634
24.14067 636
24.16078 622
24.1809 613
24.20101 615
24.22112 662
24.24124 645
24.26135 602
24.28146 680
24.30158 633
24.32169 641
24.34181 595
24.36192 591
24.38203 621
24.40215 586
24.42226 616
24.44237 642
24.46249 595
24.4826 614
24.50272 651
24.52283 592
24.54294 618
24.56306 605
24.58317 621
24.60328 594
24.6234 605
24.64351 607
24.66362 649
24.68374 599
24.70385 625
24.72397 609
24.74408 639
24.76419 673
24.78431 674
24.80442 659
24.82453 622
24.84465 670
24.86476 652
24.88488 687
24.90499 626
24.9251 675
24.94522 651
24.96533 668
24.98544 678
25.00556 763
25.02567 671
25.04579 669
25.0659 669
25.08601 674
25.10613 717
25.12624 718
25.14635 697
25.16647 738
25.18658 703
25.20669 703
25.22681 691
25.24692 737
25.26704 720
25.28715 659
25.30726 689
25.32738 701
25.34749 680
25.3676 672
25.38772 711
25.40783 682
25.42795 686
25.44806 701
25.46817 700
25.48829 686
25.5084 696
25.52851 653
25.54863 638
25.56874 599
25.58886 640
25.60897 590
25.62908 612
25.6492 600
25.66931 598
25.68942 608
25.70954 583
25.72965 613
25.74976 630
25.76988 575
25.78999 628
25.81011 600
25.83022 630
25.85033 637
25.87045 632
25.89056 592
25.91067 621
25.93079 638
25.9509 623
25.97102 617
25.99113 633
26.01124 696
26.03136 667
26.05147 638
26.07158 672
26.0917 667
26.11181 640
26.13193 706
26.15204 686
26.17215 802
26.19227 797
26.21238 769
26.23249 791
26.25261 827
26.27272 910
26.29283 895
26.31295 957
26.33306 1012
26.35318 1173
26.37329 1238
26.3934 1493
26.41352 1778
26.43363 2299
26.45374 2903
26.47386 3849
26.49397 5121
26.51409 6699
26.5342 8220
26.55431 9669
26.57443 10913
26.59454 11043
26.61465 10272
26.63477 8868
26.65488 7384
26.67499 5657
26.69511 4234
26.71522 2969
26.73534 2124
26.75545 1638
26.77556 1242
26.79568 1123
26.81579 1015
26.8359 905
26.85602 835
26.87613 803
26.89625 780
26.91636 693
26.93647 733
26.95659 752
26.9767 722
26.99681 621
27.01693 691
27.03704 627
27.05716 626
27.07727 595
27.09738 595
27.1175 503
27.13761 541
27.15772 545
27.17784 590
27.19795 585
27.21806 574
27.23818 524
27.25829 531
27.27841 538
27.29852 589
27.31863 561
27.33875 590
27.35886 557
27.37897 596
27.39909 579
27.4192 585
27.43932 572
27.45943 556
27.47954 590
27.49966 576
27.51977 563
27.53988 570
27.56 572
27.58011 570
27.60023 642
27.62034 591
27.64045 624
27.66057 583
27.68068 629
27.70079 636
27.72091 628
27.74102 683
27.76113 701
27.78125 675
27.80136 681
27.82148 728
27.84159 703
27.8617 732
27.88182 766
27.90193 782
27.92204 736
27.94216 688
27.96227 641
27.98239 619
28.0025 606
28.02261 609
28.04273 581
28.06284 592
28.08295 578
28.10307 528
28.12318 559
28.1433 541
28.16341 511
28.18352 513
28.20364 523
28.22375 508
28.24386 520
28.26398 431
28.28409 444
28.3042 407
28.32432 433
28.34443 449
28.36455 437
28.38466 443
28.40477 453
28.42489 461
28.445 425
28.46511 474
28.48523 468
28.50534 440
28.52546 413
28.54557 461
28.56568 476
28.5858 429
28.60591 481
28.62602 464
28.64614 440
28.66625 430
28.68636 445
28.70648 438
28.72659 469
28.74671 434
28.76682 419
28.78693 423
28.80705 448
28.82716 411
28.84727 452
28.86739 423
28.8875 437
28.90762 468
28.92773 471
28.94784 411
28.96796 416
28.98807 410
29.00818 430
29.0283 431
29.04841 431
29.06853 417
29.08864 465
29.10875 471
29.12887 426
29.14898 410
29.16909 441
29.18921 399
29.20932 425
29.22943 426
29.24955 390
29.26966 411
29.28978 415
29.30989 393
29.33 403
29.35012 403
29.37023 471
29.39034 430
29.41046 455
29.43057 426
29.45069 447
29.4708 420
29.49091 419
29.51103 438
29.53114 414
29.55125 422
29.57137 418
29.59148 403
29.6116 445
29.63171 397
29.65182 468
29.67194 435
29.69205 453
29.71216 452
29.73228 474
29.75239 464
29.7725 459
29.79262 478
29.81273 483
29.83285 465
29.85296 475
29.87307 464
29.89319 467
29.9133 476
29.93341 447
29.95353 455
29.97364 443
29.99376 437
30.01387 453
30.03398 441
30.0541 432
30.07421 461
30.09432 463
30.11444 412
30.13455 432
30.15467 438
30.17478 453
30.19489 477
30.21501 423
30.23512 414
30.25523 412
30.27535 456
30.29546 431
30.31557 474
30.33569 440
30.3558 427
30.37592 451
30.39603 445
30.41614 440
30.43626 468
30.45637 446
30.47648 465
30.4966 459
30.51671 448
30.53683 432
30.55694 473
30.57705 432
30.59717 423
30.61728 403
30.63739 403
30.65751 422
30.67762 451
30.69773 432
30.71785 431
30.73796 451
30.75808 447
30.77819 447
30.7983 389
30.81842 414
30.83853 374
30.85864 411
30.87876 406
30.89887 396
30.91899 408
30.9391 402
30.95921 443
30.97933 384
30.99944 426
31.01955 369
31.03967 414
31.05978 414
31.0799 434
31.10001 444
31.12012 422
31.14024 462
31.16035 440
31.18046 408
31.20058 403
31.22069 420
31.2408 431
31.26092 453
31.28103 439
31.30115 427
31.32126 412
31.34137 429
31.36149 415
31.3816 397
31.40171 365
31.42183 417
31.44194 405
31.46206 385
31.48217 376
31.50228 378
31.5224 404
31.54251 388
31.56262 399
31.58274 358
31.60285 371
31.62297 400
31.64308 350
31.66319 358
31.68331 383
31.70342 387
31.72353 375
31.74365 386
31.76376 412
31.78387 399
31.80399 376
31.8241 410
31.84422 396
31.86433 405
31.88444 428
31.90456 405
31.92467 406
31.94478 401
31.9649 414
31.98501 418
32.00513 414
32.02524 398
32.04535 423
32.06547 378
32.08558 442
32.10569 386
32.12581 395
32.14592 424
32.16604 426
32.18615 399
32.20626 383
32.22638 408
32.24649 372
32.2666 424
32.28672 371
32.30683 397
32.32694 388
32.34706 399
32.36717 393
32.38729 389
32.4074 409
32.42751 403
32.44763 369
32.46774 396
32.48785 381
32.50797 431
32.52808 395
32.5482 388
32.56831 397
32.58842 389
32.60854 382
32.62865 430
32.64876 438
32.66888 395
32.68899 382
32.7091 417
32.72922 336
32.74933 359
32.76945 359
32.78956 403
32.80967 408
32.82979 368
32.8499 413
32.87001 397
32.89013 378
32.91024 405
32.93036 397
32.95047 395
32.97058 391
32.9907 408
33.01081 455
33.03092 404
33.05104 423
33.07115 408
33.09127 460
33.11138 398
33.13149 426
33.15161 419
33.17172 455
33.19183 418
33.21195 466
33.23206 401
33.25217 441
33.27229 419
33.2924 463
33.31252 445
33.33263 441
33.35274 441
33.37286 421
33.39297 474
33.41308 451
33.4332 428
33.45331 362
33.47343 390
33.49354 402
33.51365 370
33.53377 417
33.55388 413
33.57399 406
33.59411 418
33.61422 441
33.63434 432
33.65445 437
33.67456 415
33.69468 402
33.71479 444
33.7349 423
33.75502 440
33.77513 394
33.79524 416
33.81536 414
33.83547 434
33.85559 471
33.8757 404
33.89581 404
33.91593 446
33.93604 456
33.95615 423
33.97627 462
33.99638 410
34.0165 421
34.03661 439
34.05672 447
34.07684 402
34.09695 389
34.11706 408
34.13718 408
34.15729 420
34.17741 419
34.19752 450
34.21763 422
34.23775 421
34.25786 422
34.27797 446
34.29809 480
34.3182 464
34.33831 496
34.35843 491
34.37854 536
34.39866 491
34.41877 521
34.43888 545
34.459 537
34.47911 587
34.49922 550
34.51934 564
34.53945 588
34.55957 588
34.57968 521
34.59979 602
34.61991 538
34.64002 615
34.66013 589
34.68025 640
34.70036 665
34.72047 607
34.74059 622
34.7607 679
34.78082 710
34.80093 699
34.82104 803
34.84116 708
34.86127 772
34.88138 785
34.9015 745
34.92161 815
34.94173 800
34.96184 744
34.98195 733
35.00207 725
35.02218 707
35.04229 655
35.06241 671
35.08252 643
35.10264 648
35.12275 593
35.14286 621
35.16298 568
35.18309 578
35.2032 509
35.22332 523
35.24343 531
35.26354 583
35.28366 561
35.30377 559
35.32389 549
35.344 584
35.36411 528
35.38423 579
35.40434 556
35.42445 577
35.44457 613
35.46468 533
35.4848 584
35.50491 574
35.52502 599
35.54514 540
35.56525 566
35.58536 565
35.60548 572
35.62559 586
35.64571 583
35.66582 592
35.68593 571
35.70605 586
35.72616 553
35.74627 575
35.76639 596
35.7865 561
35.80661 552
35.82673 570
35.84684 562
35.86696 579
35.88707 539
35.90718 585
35.9273 567
35.94741 582
35.96752 526
35.98764 519
36.00775 558
36.02787 529
36.04798 542
36.06809 548
36.08821 519
36.10832 543
36.12843 541
36.14855 572
36.16866 558
36.18878 491
36.20889 579
36.229 526
36.24912 595
36.26923 567
36.28934 598
36.30946 624
36.32957 682
36.34968 672
36.3698 782
36.38991 854
36.41003 948
36.43014 1010
36.45025 1054
36.47037 1137
36.49048 1164
36.51059 1111
36.53071 1097
36.55082 989
36.57094 895
36.59105 822
36.61116 733
36.63128 676
36.65139 687
36.6715 643
36.69162 573
36.71173 613
36.73184 600
36.75196 538
36.77207 561
36.79219 590
36.8123 556
36.83241 614
36.85253 538
36.87264 587
36.89275 592
36.91287 584
36.93298 536
36.9531 517
36.97321 555
36.99332 528
37.01344 520
37.03355 536
37.05366 557
37.07378 516
37.09389 516
37.11401 523
37.13412 551
37.15423 509
37.17435 495
37.19446 516
37.21457 508
37.23469 533
37.2548 510
37.27491 493
37.29503 533
37.31514 528
37.33526 520
37.35537 544
37.37548 538
37.3956 514
37.41571 531
37.43582 548
37.45594 538
37.47605 531
37.49617 537
37.51628 535
37.53639 501
37.55651 515
37.57662 526
37.59673 505
37.61685 531
37.63696 558
37.65708 559
37.67719 537
37.6973 532
37.71742 532
37.73753 575
37.75764 545
37.77776 527
37.79787 541
37.81798 522
37.8381 537
37.85821 535
37.87833 542
37.89844 482
37.91855 507
37.93867 513
37.95878 500
37.97889 553
37.99901 496
38.01912 519
38.03924 513
38.05935 478
38.07946 527
38.09958 533
38.11969 529
38.1398 490
38.15992 525
38.18003 524
38.20015 498
38.22026 489
38.24037 549
38.26049 513
38.2806 518
38.30071 544
38.32083 517
38.34094 530
38.36105 540
38.38117 548
38.40128 514
38.4214 513
38.44151 519
38.46162 547
38.48174 498
38.50185 511
38.52196 536
38.54208 515
38.56219 566
38.58231 501
38.60242 474
38.62253 493
38.64265 458
38.66276 494
38.68287 464
38.70299 526
38.7231 495
38.74321 518
38.76333 500
38.78344 471
38.80356 471
38.82367 477
38.84378 502
38.8639 488
38.88401 511
38.90412 504
38.92424 461
38.94435 474
38.96447 516
38.98458 452
39.00469 482
39.02481 453
39.04492 451
39.06503 469
39.08515 463
39.10526 478
39.12538 506
39.14549 478
39.1656 463
39.18572 491
39.20583 520
39.22594 535
39.24606 552
39.26617 606
39.28628 608
39.3064 686
39.32651 773
39.34663 913
39.36674 912
39.38685 994
39.40697 1015
39.42708 1001
39.44719 974
39.46731 833
39.48742 800
39.50754 792
39.52765 658
39.54776 661
39.56788 614
39.58799 520
39.6081 490
39.62822 470
39.64833 420
39.66845 445
39.68856 452
39.70867 455
39.72879 471
39.7489 468
39.76901 467
39.78913 465
39.80924 440
39.82935 452
39.84947 430
39.86958 444
39.8897 427
39.90981 434
39.92992 426
39.95004 488
39.97015 482
39.99026 474
40.01038 509
40.03049 436
40.05061 536
40.07072 501
40.09083 531
40.11095 513
40.13106 589
40.15117 650
40.17129 638
40.1914 717
40.21152 756
40.23163 739
40.25174 690
40.27186 695
40.29197 664
40.31208 610
40.3322 616
40.35231 572
40.37242 554
40.39254 485
40.41265 462
40.43277 463
40.45288 442
40.47299 442
40.49311 476
40.51322 419
40.53333 405
40.55345 433
40.57356 434
40.59368 402
40.61379 412
40.6339 417
40.65402 425
40.67413 403
40.69424 454
40.71436 436
40.73447 433
40.75458 442
40.7747 446
40.79481 410
40.81493 456
40.83504 423
40.85515 448
40.87527 427
40.89538 459
40.91549 435
40.93561 474
40.95572 458
40.97584 420
40.99595 439
41.01606 421
41.03618 436
41.05629 433
41.0764 447
41.09652 456
41.11663 414
41.13675 436
41.15686 452
41.17697 427
41.19709 445
41.2172 459
41.23731 411
41.25743 432
41.27754 459
41.29765 447
41.31777 421
41.33788 402
41.358 408
41.37811 427
41.39822 426
41.41834 406
41.43845 396
41.45856 421
41.47868 413
41.49879 418
41.51891 397
41.53902 392
41.55913 428
41.57925 396
41.59936 424
41.61947 414
41.63959 436
41.6597 452
41.67982 413
41.69993 408
41.72004 394
41.74016 403
41.76027 422
41.78038 438
41.8005 404
41.82061 385
41.84072 409
41.86084 453
41.88095 417
41.90107 402
41.92118 417
41.94129 412
41.96141 422
41.98152 442
42.00163 395
42.02175 421
42.04186 452
42.06198 399
42.08209 424
42.1022 437
42.12232 413
42.14243 426
42.16254 428
42.18266 459
42.20277 456
42.22289 503
42.243 492
42.26311 564
42.28323 585
42.30334 664
42.32345 674
42.34357 729
42.36368 817
42.38379 800
42.40391 762
42.42402 758
42.44414 739
42.46425 700
42.48436 629
42.50448 628
42.52459 597
42.5447 542
42.56482 473
42.58493 470
42.60505 453
42.62516 405
42.64527 425
42.66539 389
42.6855 409
42.70561 447
42.72573 422
42.74584 350
42.76595 382
42.78607 410
42.80618 364
42.8263 373
42.84641 392
42.86652 382
42.88664 354
42.90675 357
42.92686 353
42.94698 415
42.96709 399
42.98721 383
43.00732 368
43.02743 345
43.04755 397
43.06766 374
43.08777 394
43.10789 433
43.128 381
43.14812 365
43.16823 351
43.18834 367
43.20846 387
43.22857 349
43.24868 391
43.2688 350
43.28891 363
43.30902 387
43.32914 362
43.34925 380
43.36937 376
43.38948 388
43.40959 383
43.42971 386
43.44982 369
43.46993 332
43.49005 355
43.51016 361
43.53028 321
43.55039 359
43.5705 367
43.59062 352
43.61073 358
43.63084 365
43.65096 385
43.67107 379
43.69119 384
43.7113 357
43.73141 345
43.75153 358
43.77164 371
43.79175 355
43.81187 367
43.83198 384
43.85209 355
43.87221 364
43.89232 384
43.91244 407
43.93255 397
43.95266 357
43.97278 394
43.99289 368
44.013 380
44.03312 392
44.05323 359
44.07335 358
44.09346 398
44.11357 365
44.13369 377
44.1538 372
44.17391 374
44.19403 356
44.21414 370
44.23426 376
44.25437 376
44.27448 379
44.2946 382
44.31471 363
44.33482 337
44.35494 366
44.37505 312
44.39516 364
44.41528 350
44.43539 326
44.45551 343
44.47562 368
44.49573 341
44.51585 378
44.53596 364
44.55607 371
44.57619 334
44.5963 348
44.61642 350
44.63653 358
44.65664 387
44.67676 361
44.69687 403
44.71698 389
44.7371 382
44.75721 377
44.77732 348
44.79744 401
44.81755 371
44.83767 364
44.85778 379
44.87789 390
44.89801 370
44.91812 381
44.93823 389
44.95835 380
44.97846 378
44.99858 411
45.01869 403
45.0388 362
45.05892 428
45.07903 402
45.09914 400
45.11926 410
45.13937 394
45.15949 406
45.1796 396
45.19971 370
45.21983 407
45.23994 398
45.26005 414
45.28017 389
45.30028 396
45.32039 381
45.34051 425
45.36062 384
45.38074 450
45.40085 412
45.42096 420
45.44108 413
45.46119 416
45.4813 448
45.50142 449
45.52153 439
45.54165 473
45.56176 454
45.58187 514
45.60199 506
45.6221 503
45.64221 575
45.66233 557
45.68244 688
45.70256 676
45.72267 648
45.74278 687
45.7629 628
45.78301 617
45.80312 595
45.82324 572
45.84335 531
45.86346 519
45.88358 484
45.90369 481
45.92381 448
45.94392 433
45.96403 436
45.98415 423
46.00426 410
46.02437 425
46.04449 372
46.0646 378
46.08472 405
46.10483 431
46.12494 419
46.14506 408
46.16517 376
46.18528 379
46.2054 364
46.22551 375
46.24563 393
46.26574 365
46.28585 362
46.30597 393
46.32608 372
46.34619 351
46.36631 393
46.38642 407
46.40653 371
46.42665 407
46.44676 420
46.46688 385
46.48699 399
46.5071 401
46.52722 376
46.54733 347
46.56744 410
46.58756 383
46.60767 371
46.62779 376
46.6479 360
46.66801 423
46.68813 350
46.70824 361
46.72835 360
46.74847 358
46.76858 346
46.78869 404
46.80881 358
46.82892 336
46.84904 355
46.86915 403
46.88926 381
46.90938 372
46.92949 376
46.9496 358
46.96972 415
46.98983 393
47.00995 383
47.03006 381
47.05017 392
47.07029 362
47.0904 361
47.11051 346
47.13063 386
47.15074 368
47.17086 318
47.19097 353
47.21108 371
47.2312 351
47.25131 395
47.27142 424
47.29154 356
47.31165 383
47.33176 373
47.35188 399
47.37199 321
47.39211 369
47.41222 354
47.43233 402
47.45245 377
47.47256 370
47.49267 371
47.51279 392
47.5329 362
47.55302 373
47.57313 390
47.59324 391
47.61336 356
47.63347 392
47.65358 380
47.6737 401
47.69381 393
47.71393 373
47.73404 390
47.75415 397
47.77427 355
47.79438 377
47.81449 392
47.83461 404
47.85472 385
47.87483 376
47.89495 423
47.91506 355
47.93518 349
47.95529 410
47.9754 383
47.99552 360
48.01563 358
48.03574 379
48.05586 381
48.07597 382
48.09609 370
48.1162 375
48.13631 342
48.15643 385
48.17654 362
48.19665 367
48.21677 372
48.23688 344
48.257 369
48.27711 359
48.29722 359
48.31734 340
48.33745 387
48.35756 358
48.37768 371
48.39779 397
48.4179 345
48.43802 346
48.45813 394
48.47825 367
48.49836 375
48.51847 374
48.53859 377
48.5587 360
48.57881 372
48.59893 362
48.61904 384
48.63916 306
48.65927 347
48.67938 373
48.6995 340
48.71961 347
48.73972 366
48.75984 353
48.77995 359
48.80006 362
48.82018 351
48.84029 338
48.86041 323
48.88052 374
48.90063 358
48.92075 345
48.94086 397
48.96097 335
48.98109 361
49.0012 323
49.02132 342
49.04143 364
49.06154 358
49.08166 370
49.10177 377
49.12188 349
49.142 395
49.16211 353
49.18223 328
49.20234 382
49.22245 369
49.24257 365
49.26268 389
49.28279 367
49.30291 343
49.32302 373
49.34313 356
49.36325 385
49.38336 377
49.40348 359
49.42359 367
49.4437 395
49.46382 380
49.48393 384
49.50404 413
49.52416 374
49.54427 388
49.56439 382
49.5845 398
49.60461 384
49.62473 385
49.64484 423
49.66495 412
49.68507 391
49.70518 381
49.7253 401
49.74541 415
49.76552 438
49.78564 427
49.80575 454
49.82586 488
49.84598 471
49.86609 486
49.8862 533
49.90632 589
49.92643 655
49.94655 732
49.96666 827
49.98677 961
50.00689 1085
50.027 1233
50.04711 1396
50.06723 1342
50.08734 1363
50.10746 1202
50.12757 1084
50.14768 1023
50.1678 955
50.18791 911
50.20802 876
50.22814 726
50.24825 688
50.26837 564
50.28848 482
50.30859 478
50.32871 435
50.34882 429
50.36893 379
50.38905 393
50.40916 385
50.42927 390
50.44939 419
50.4695 402
50.48962 400
50.50973 385
50.52984 399
50.54996 383
50.57007 413
50.59018 389
50.6103 357
50.63041 377
50.65053 396
50.67064 378
50.69075 383
50.71087 399
50.73098 384
50.75109 355
50.77121 355
50.79132 360
50.81143 359
50.83155 372
50.85166 390
50.87178 338
50.89189 349
50.912 389
50.93212 385
50.95223 368
50.97234 360
50.99246 391
51.01257 393
51.03269 363
51.0528 361
51.07291 355
51.09303 385
51.11314 362
51.13325 377
51.15337 364
51.17348 351
51.1936 379
51.21371 364
51.23382 354
51.25394 344
51.27405 382
51.29416 334
51.31428 341
51.33439 317
51.3545 345
51.37462 359
51.39473 355
51.41485 356
51.43496 351
51.45507 377
51.47519 336
51.4953 367
51.51541 309
51.53553 364
51.55564 355
51.57576 360
51.59587 364
51.61598 339
51.6361 339
51.65621 357
51.67632 311
51.69644 310
51.71655 338
51.73667 354
51.75678 356
51.77689 346
51.79701 359
51.81712 369
51.83723 304
51.85735 331
51.87746 339
51.89757 316
51.91769 362
51.9378 332
51.95792 353
51.97803 371
51.99814 317
52.01826 347
52.03837 375
52.05848 346
52.0786 343
52.09871 345
52.11883 332
52.13894 336
52.15905 355
52.17917 346
52.19928 327
52.21939 382
52.23951 366
52.25962 344
52.27974 353
52.29985 342
52.31996 366
52.34008 331
52.36019 358
52.3803 367
52.40042 377
52.42053 342
52.44064 335
52.46076 343
52.48087 341
52.50099 331
52.5211 327
52.54121 337
52.56133 351
52.58144 374
52.60155 374
52.62167 343
52.64178 334
52.6619 360
52.68201 337
52.70212 343
52.72224 376
52.74235 361
52.76246 376
52.78258 358
52.80269 369
52.8228 383
52.84292 368
52.86303 387
52.88315 370
52.90326 365
52.92337 344
52.94349 387
52.9636 386
52.98371 391
53.00383 378
53.02394 356
53.04406 376
53.06417 374
53.08428 395
53.1044 373
53.12451 346
53.14462 379
53.16474 359
53.18485 386
53.20497 404
53.22508 384
53.24519 404
53.26531 379
53.28542 402
53.30553 385
53.32565 372
53.34576 393
53.36587 390
53.38599 391
53.4061 384
53.42622 396
53.44633 446
53.46644 419
53.48656 430
53.50667 448
53.52678 406
53.5469 394
53.56701 398
53.58713 397
53.60724 441
53.62735 425
53.64747 404
53.66758 439
53.68769 437
53.70781 418
53.72792 427
53.74804 448
53.76815 435
53.78826 457
53.80838 459
53.82849 416
53.8486 415
53.86872 454
53.88883 440
53.90894 438
53.92906 443
53.94917 409
53.96929 412
53.9894 444
54.00951 494
54.02963 441
54.04974 437
54.06985 449
54.08997 461
54.11008 430
54.1302 418
54.15031 454
54.17042 392
54.19054 462
54.21065 450
54.23076 444
54.25088 468
54.27099 418
54.29111 419
54.31122 450
54.33133 446
54.35145 457
54.37156 458
54.39167 473
54.41179 467
54.4319 427
54.45201 442
54.47213 482
54.49224 477
54.51236 457
54.53247 480
54.55258 448
54.5727 502
54.59281 473
54.61292 481
54.63304 491
54.65315 524
54.67327 529
54.69338 585
54.71349 567
54.73361 641
54.75372 651
54.77383 705
54.79395 680
54.81406 703
54.83417 677
54.85429 678
54.8744 647
54.89452 603
54.91463 639
54.93474 586
54.95486 530
54.97497 591
54.99508 557
55.0152 550
55.03531 469
55.05543 460
55.07554 495
55.09565 464
55.11577 519
55.13588 491
55.15599 494
55.17611 488
55.19622 534
55.21634 509
55.23645 533
55.25656 607
55.27668 552
55.29679 521
55.3169 508
55.33702 516
55.35713 489
55.37724 489
55.39736 515
55.41747 494
55.43759 485
55.4577 471
55.47781 437
55.49793 493
55.51804 443
55.53815 434
55.55827 408
55.57838 450
55.5985 469
55.61861 412
55.63872 410
55.65884 438
55.67895 438
55.69906 399
55.71918 415
55.73929 416
55.75941 470
55.77952 389
55.79963 431
55.81975 398
55.83986 396
55.85997 423
55.88009 425
55.9002 440
55.92031 393
55.94043 414
55.96054 415
55.98066 403
56.00077 427
56.02088 440
56.041 419
56.06111 410
56.08122 389
56.10134 419
56.12145 408
56.14157 413
56.16168 373
56.18179 396
56.20191 386
56.22202 403
56.24213 375
56.26225 377
56.28236 403
56.30248 450
56.32259 370
56.3427 401
56.36282 368
56.38293 379
56.40304 398
56.42316 378
56.44327 370
56.46338 397
56.4835 395
56.50361 390
56.52373 403
56.54384 402
56.56395 420
56.58407 389
56.60418 372
56.62429 367
56.64441 370
56.66452 378
56.68464 397
56.70475 386
56.72486 403
56.74498 383
56.76509 386
56.7852 391
56.80532 340
56.82543 389
56.84554 378
56.86566 384
56.88577 379
56.90589 359
56.926 370
56.94611 364
56.96623 413
56.98634 386
57.00645 370
57.02657 373
57.04668 408
57.0668 376
57.08691 371
57.10702 387
57.12714 407
57.14725 357
57.16736 401
57.18748 407
57.20759 387
57.22771 393
57.24782 373
57.26793 374
57.28805 407
57.30816 377
57.32827 378
57.34839 407
57.3685 412
57.38861 359
57.40873 396
57.42884 408
57.44896 388
57.46907 379
57.48918 381
57.5093 402
57.52941 380
57.54952 356
57.56964 366
57.58975 390
57.60987 370
57.62998 390
57.65009 368
57.67021 366
57.69032 385
57.71043 404
57.73055 360
57.75066 367
57.77078 376
57.79089 365
57.811 361
57.83112 381
57.85123 378
57.87134 378
57.89146 352
57.91157 364
57.93168 346
57.9518 358
57.97191 323
57.99203 336
58.01214 350
58.03225 362
58.05237 348
58.07248 395
58.09259 374
58.11271 366
58.13282 351
58.15294 369
58.17305 358
58.19316 380
58.21328 404
58.23339 355
58.2535 383
58.27362 355
58.29373 336
58.31385 349
58.33396 402
58.35407 351
58.37419 386
58.3943 334
58.41441 355
58.43453 349
58.45464 326
58.47475 386
58.49487 397
58.51498 337
58.5351 376
58.55521 368
58.57532 360
58.59544 394
58.61555 376
58.63566 355
58.65578 386
58.67589 400
58.69601 406
58.71612 398
58.73623 350
58.75635 375
58.77646 341
58.79657 357
58.81669 389
58.8368 352
58.85691 355
58.87703 379
58.89714 367
58.91726 347
58.93737 362
58.95748 378
58.9776 382
58.99771 375
59.01782 377
59.03794 357
59.05805 364
59.07817 382
59.09828 360
59.11839 396
59.13851 374
59.15862 379
59.17873 350
59.19885 353
59.21896 408
59.23908 352
59.25919 365
59.2793 391
59.29942 398
59.31953 380
59.33964 378
59.35976 397
59.37987 387
59.39998 386
59.4201 389
59.44021 372
59.46033 422
59.48044 389
59.50055 415
59.52067 438
59.54078 431
59.56089 438
59.58101 441
59.60112 453
59.62124 404
59.64135 466
59.66146 455
59.68158 451
59.70169 484
59.7218 527
59.74192 620
59.76203 640
59.78215 727
59.80226 795
59.82237 884
59.84249 945
59.8626 1026
59.88271 960
59.90283 992
59.92294 904
59.94305 835
59.96317 817
59.98328 702
60.0034 707
60.02351 751
60.04362 684
60.06374 657
60.08385 642
60.10396 571
60.12408 527
60.14419 485
60.16431 476
60.18442 422
60.20453 397
60.22465 403
60.24476 372
60.26487 399
60.28499 397
60.3051 404
60.32522 405
60.34533 393
60.36544 415
60.38556 369
60.40567 378
60.42578 367
60.4459 352
60.46601 343
60.48612 381
60.50624 388
60.52635 359
60.54647 374
60.56658 387
60.58669 384
60.60681 380
60.62692 362
60.64703 390
60.66715 361
60.68726 418
60.70738 394
60.72749 379
60.7476 378
60.76772 398
60.78783 400
60.80794 387
60.82806 379
60.84817 381
60.86828 373
60.8884 349
60.90851 379
60.92863 362
60.94874 362
60.96885 374
60.98897 392
61.00908 369
61.02919 366
61.04931 372
61.06942 361
61.08954 374
61.10965 378
61.12976 379
61.14988 398
61.16999 369
61.1901 378
61.21022 394
61.23033 384
61.25045 386
61.27056 397
61.29067 387
61.31079 410
61.3309 385
61.35101 416
61.37113 451
61.39124 435
61.41135 430
61.43147 442
61.45158 439
61.4717 453
61.49181 444
61.51192 465
61.53204 430
61.55215 449
61.57226 479
61.59238 490
61.61249 524
61.63261 469
61.65272 511
61.67283 517
61.69295 504
61.71306 473
61.73317 451
61.75329 508
61.7734 493
61.79352 522
61.81363 497
61.83374 458
61.85386 510
61.87397 508
61.89408 507
61.9142 455
61.93431 488
61.95442 469
61.97454 478
61.99465 516
62.01477 509
62.03488 486
62.05499 513
62.07511 538
62.09522 515
62.11533 488
62.13545 513
62.15556 493
62.17568 499
62.19579 510
62.2159 502
62.23602 463
62.25613 495
62.27624 488
62.29636 476
62.31647 426
62.33659 463
62.3567 470
62.37681 427
62.39693 501
62.41704 408
62.43715 451
62.45727 431
62.47738 409
62.49749 404
62.51761 395
62.53772 445
62.55784 428
62.57795 394
62.59806 416
62.61818 437
62.63829 393
62.6584 426
62.67852 395
62.69863 396
62.71875 357
62.73886 367
62.75897 401
62.77909 396
62.7992 370
62.81931 408
62.83943 361
62.85954 393
62.87965 376
62.89977 371
62.91988 362
62.94 356
62.96011 334
62.98022 373
63.00034 378
63.02045 397
63.04056 357
63.06068 410
63.08079 395
63.10091 371
63.12102 364
63.14113 383
63.16125 405
63.18136 369
63.20147 358
63.22159 355
63.2417 357
63.26182 412
63.28193 398
63.30204 417
63.32216 385
63.34227 388
63.36238 356
63.3825 368
63.40261 383
63.42272 373
63.44284 406
63.46295 396
63.48307 374
63.50318 391
63.52329 337
63.54341 388
63.56352 385
63.58363 399
63.60375 393
63.62386 421
63.64398 368
63.66409 380
63.6842 408
63.70432 400
63.72443 398
63.74454 377
63.76466 412
63.78477 401
63.80489 425
63.825 398
63.84511 407
63.86523 411
63.88534 428
63.90545 435
63.92557 496
63.94568 480
63.96579 478
63.98591 496
64.00602 468
64.02614 437
64.04625 434
64.06636 432
64.08648 447
64.10659 393
64.1267 477
64.14682 419
64.16693 431
64.18705 416
64.20716 430
64.22727 404
64.24739 398
64.2675 363
64.28761 361
64.30773 403
64.32784 399
64.34796 334
64.36807 361
64.38818 357
64.4083 375
64.42841 327
64.44852 359
64.46864 388
64.48875 352
64.50886 359
64.52898 330
64.54909 349
64.56921 384
64.58932 365
64.60943 381
64.62955 371
64.64966 328
64.66977 365
64.68989 344
64.71 322
64.73012 363
64.75023 379
64.77034 356
64.79046 364
64.81057 375
64.83068 378
64.8508 382
64.87091 349
64.89102 345
64.91114 355
64.93125 358
64.95137 347
64.97148 400
64.99159 366
65.01171 362
65.03182 342
65.05193 363
65.07205 363
65.09216 365
65.11228 344
65.13239 356
65.1525 347
65.17262 374
65.19273 391
65.21284 354
65.23296 360
65.25307 370
65.27319 351
65.2933 353
65.31341 344
65.33353 337
65.35364 367
65.37375 373
65.39387 344
65.41398 364
65.43409 349
65.45421 356
65.47432 340
65.49444 347
65.51455 379
65.53466 326
65.55478 330
65.57489 347
65.595 363
65.61512 349
65.63523 350
65.65535 367
65.67546 352
65.69557 361
65.71569 390
65.7358 385
65.75591 369
65.77603 374
65.79614 380
65.81626 395
65.83637 372
65.85648 342
65.8766 371
65.89671 357
65.91682 375
65.93694 344
65.95705 365
65.97716 344
65.99728 343
66.01739 355
66.03751 331
66.05762 342
66.07773 344
66.09785 338
66.11796 351
66.13807 363
66.15819 325
66.1783 360
66.19842 378
66.21853 363
66.23864 323
66.25876 365
66.27887 363
66.29898 344
66.3191 346
66.33921 366
66.35933 342
66.37944 314
66.39955 354
66.41967 363
66.43978 355
66.45989 349
66.48001 372
66.50012 368
66.52023 352
66.54035 357
66.56046 329
66.58058 330
66.60069 346
66.6208 351
66.64092 347
66.66103 327
66.68114 344
66.70126 345
66.72137 330
66.74149 324
66.7616 336
66.78171 330
66.80183 319
66.82194 341
66.84205 345
66.86217 393
66.88228 366
66.90239 381
66.92251 354
66.94262 343
66.96274 312
66.98285 336
67.00296 327
67.02308 350
67.04319 338
67.0633 352
67.08342 344
67.10353 320
67.12365 372
67.14376 336
67.16387 363
67.18399 362
67.2041 358
67.22421 347
67.24433 370
67.26444 370
67.28456 339
67.30467 401
67.32478 378
67.3449 409
67.36501 392
67.38512 403
67.40524 382
67.42535 420
67.44546 426
67.46558 432
67.48569 388
67.50581 470
67.52592 462
67.54603 534
67.56615 587
67.58626 612
67.60637 664
67.62649 714
67.6466 702
67.66672 722
67.68683 672
67.70694 628
67.72706 612
67.74717 607
67.76728 591
67.7874 568
67.80751 575
67.82763 597
67.84774 605
67.86785 630
67.88797 599
67.90808 645
67.92819 632
67.94831 690
67.96842 675
67.98853 702
68.00865 770
68.02876 787
68.04888 848
68.06899 860
68.0891 876
68.10922 850
68.12933 850
68.14944 798
68.16956 799
68.18967 802
68.20979 838
68.2299 873
68.25001 846
68.27013 770
68.29024 733
68.31035 708
68.33047 609
68.35058 604
68.3707 519
68.39081 519
68.41092 510
68.43104 527
68.45115 510
68.47126 510
68.49138 442
68.51149 434
68.5316 416
68.55172 415
68.57183 401
68.59195 392
68.61206 343
68.63217 343
68.65229 354
68.6724 364
68.69251 381
68.71263 376
68.73274 379
68.75286 383
68.77297 376
68.79308 366
68.8132 365
68.83331 361
68.85342 366
68.87354 328
68.89365 395
68.91376 326
68.93388 367
68.95399 309
68.97411 332
68.99422 378
69.01433 342
69.03445 355
69.05456 396
69.07467 366
69.09479 352
69.1149 331
69.13502 366
69.15513 346
69.17524 327
69.19536 335
69.21547 392
69.23558 343
69.2557 380
69.27581 381
69.29593 376
69.31604 338
69.33615 368
69.35627 364
69.37638 344
69.39649 359
69.41661 366
69.43672 355
69.45683 361
69.47695 407
69.49706 363
69.51718 377
69.53729 359
69.5574 359
69.57752 320
69.59763 377
69.61774 359
69.63786 336
69.65797 349
69.67809 365
69.6982 343
69.71831 381
69.73843 374
69.75854 355
69.77865 358
69.79877 357
69.81888 364
69.839 362
69.85911 319
69.87922 367
69.89934 347
69.91945 337
69.93956 371
69.95968 353
69.97979 341
69.9999 367
70.02002 405
70.04013 345
70.06025 347
70.08036 345
70.10047 321
70.12059 346
70.1407 344
70.16081 326
70.18093 380
70.20104 360
70.22116 372
70.24127 334
70.26138 349
70.2815 360
70.30161 329
70.32172 353
70.34184 348
70.36195 351
70.38207 340
70.40218 363
70.42229 357
70.44241 343
70.46252 338
70.48263 358
70.50275 321
70.52286 332
70.54297 369
70.56309 366
70.5832 353
70.60332 349
70.62343 322
70.64354 361
70.66366 310
70.68377 361
70.70388 341
70.724 323
70.74411 358
70.76423 328
70.78434 342
70.80445 344
70.82457 322
70.84468 374
70.86479 333
70.88491 345
70.90502 319
70.92513 329
70.94525 307
70.96536 321
70.98548 365
71.00559 317
71.0257 350
71.04582 371
71.06593 351
71.08604 340
71.10616 341
71.12627 371
71.14639 297
71.1665 332
71.18661 358
71.20673 364
71.22684 344
71.24695 325
71.26707 362
71.28718 347
71.3073 318
71.32741 305
71.34752 338
71.36764 339
71.38775 335
71.40786 329
71.42798 349
71.44809 348
71.4682 342
71.48832 347
71.50843 373
71.52855 343
71.54866 326
71.56877 366
71.58889 341
71.609 357
71.62911 330
71.64923 365
71.66934 319
71.68946 360
71.70957 356
71.72968 354
71.7498 354
71.76991 319
71.79002 336
71.81014 344
71.83025 353
71.85037 357
71.87048 374
71.89059 355
71.91071 356
71.93082 337
71.95093 347
71.97105 341
71.99116 341
72.01127 321
72.03139 361
72.0515 361
72.07162 360
72.09173 342
72.11184 344
72.13196 348
72.15207 350
72.17218 384
72.1923 347
72.21241 360
72.23253 350
72.25264 333
72.27275 351
72.29287 383
72.31298 349
72.33309 349
72.35321 353
72.37332 376
72.39344 340
72.41355 336
72.43366 363
72.45378 327
72.47389 343
72.494 377
72.51412 337
72.53423 348
72.55434 352
72.57446 380
72.59457 365
72.61469 381
72.6348 350
72.65491 358
72.67503 359
72.69514 350
72.71525 383
72.73537 341
72.75548 414
72.7756 397
72.79571 382
72.81582 371
72.83594 338
72.85605 364
72.87616 384
72.89628 389
72.91639 345
72.9365 367
72.95662 404
72.97673 372
72.99685 381
73.01696 374
73.03707 363
73.05719 385
73.0773 390
73.09741 386
73.11753 373
73.13764 365
73.15776 393
73.17787 378
73.19798 402
73.2181 406
73.23821 399
73.25832 418
73.27844 403
73.29855 419
73.31867 476
73.33878 529
73.35889 469
73.37901 492
73.39912 485
73.41923 464
73.43935 509
73.45946 448
73.47957 422
73.49969 450
73.5198 408
73.53992 423
73.56003 444
73.58014 453
73.60026 436
73.62037 417
73.64048 430
73.6606 450
73.68071 372
73.70083 366
73.72094 373
73.74105 371
73.76117 365
73.78128 374
73.80139 345
73.82151 375
73.84162 353
73.86174 340
73.88185 332
73.90196 357
73.92208 358
73.94219 361
73.9623 340
73.98242 349
74.00253 369
74.02264 368
74.04276 336
74.06287 396
74.08299 350
74.1031 341
74.12321 369
74.14333 363
74.16344 343
74.18355 372
74.20367 380
74.22378 351
74.2439 357
74.26401 359
74.28412 380
74.30424 342
74.32435 314
74.34446 335
74.36458 339
74.38469 357
74.40481 336
74.42492 361
74.44503 354
74.46515 311
74.48526 352
74.50537 328
74.52549 349
74.5456 345
74.56571 352
74.58583 344
74.60594 372
74.62606 352
74.64617 371
74.66628 357
74.6864 343
74.70651 365
74.72662 339
74.74674 337
74.76685 334
74.78697 366
74.80708 366
74.82719 356
74.84731 364
74.86742 352
74.88753 350
74.90765 352
74.92776 354
74.94787 338
74.96799 341
74.9881 324
75.00822 383
