3.00117 20736
3.02128 19875
3.0414 19647
3.06151 19005
3.08162 18576
3.10174 17969
3.12185 17534
3.14197 17062
3.16208 16230
3.18219 16329
3.20231 15598
3.22242 15303
3.24253 14714
3.26265 14151
3.28276 13876
3.30288 13291
3.32299 12782
3.3431 12544
3.36322 12212
3.38333 11839
3.40344 11451
3.42356 10686
3.44367 10941
3.46379 10202
3.4839 9917
3.50401 9875
3.52413 9232
3.54424 9130
3.56435 8301
3.58447 8352
3.60458 8062
3.62469 7550
3.64481 7515
3.66492 6972
3.68504 6896
3.70515 6633
3.72526 6184
3.74538 6066
3.76549 5663
3.7856 5689
3.80572 5386
3.82583 5037
3.84595 4920
3.86606 4816
3.88617 4804
3.90629 4320
3.9264 4081
3.94651 4101
3.96663 3996
3.98674 3697
4.00686 3579
4.02697 3236
4.04708 3247
4.0672 2880
4.08731 2846
4.10742 2990
4.12754 2615
4.14765 2443
4.16776 2370
4.18788 2414
4.20799 2409
4.22811 2124
4.24822 2137
4.26833 2087
4.28845 1894
4.30856 2039
4.32867 1816
4.34879 1852
4.3689 1762
4.38902 1757
4.40913 1816
4.42924 1599
4.44936 1616
4.46947 1589
4.48958 1556
4.5097 1550
4.52981 1427
4.54992 1393
4.57004 1341
4.59015 1408
4.61027 1466
4.63038 1167
4.65049 1209
4.67061 1222
4.69072 1178
4.71083 1184
4.73095 1167
4.75106 1161
4.77118 1076
4.79129 1120
4.8114 1102
4.83152 1018
4.85163 988
4.87174 1002
4.89186 1001
4.91197 982
4.93209 916
4.9522 937
4.97231 873
4.99243 836
5.01254 852
5.03265 783
5.05277 805
5.07288 760
5.09299 812
5.11311 772
5.13322 710
5.15334 705
5.17345 645
5.19356 654
5.21368 726
5.23379 718
5.2539 636
5.27402 714
5.29413 694
5.31425 655
5.33436 596
5.35447 648
5.37459 609
5.3947 588
5.41481 556
5.43493 525
5.45504 530
5.47516 508
5.49527 559
5.51538 523
5.5355 519
5.55561 514
5.57572 518
5.59584 496
5.61595 522
5.63606 484
5.65618 473
5.67629 482
5.69641 516
5.71652 491
5.73663 468
5.75675 465
5.77686 418
5.79697 437
5.81709 436
5.8372 403
5.85732 421
5.87743 446
5.89754 425
5.91766 434
5.93777 443
5.95788 418
5.978 410
5.99811 407
6.01823 435
6.03834 409
6.05845 407
6.07857 417
6.09868 447
6.11879 399
6.13891 409
6.15902 429
6.17913 403
6.19925 418
6.21936 488
6.23948 403
6.25959 411
6.2797 417
6.29982 404
6.31993 359
6.34004 429
6.36016 403
6.38027 405
6.40039 392
6.4205 377
6.44061 375
6.46073 442
6.48084 363
6.50095 339
6.52107 372
6.54118 367
6.56129 387
6.58141 339
6.60152 368
6.62164 407
6.64175 399
6.66186 360
6.68198 394
6.70209 376
6.7222 342
6.74232 375
6.76243 371
6.78255 371
6.80266 374
6.82277 409
6.84289 399
6.863 343
6.88311 403
6.90323 377
6.92334 354
6.94346 373
6.96357 355
6.98368 370
7.0038 377
7.02391 374
7.04402 362
7.06414 368
7.08425 391
7.10436 362
7.12448 388
7.14459 362
7.16471 365
7.18482 386
7.20493 396
7.22505 401
7.24516 437
7.26527 373
7.28539 427
7.3055 388
7.32562 389
7.34573 416
7.36584 441
7.38596 406
7.40607 385
7.42618 382
7.4463 367
7.46641 361
7.48653 352
7.50664 352
7.52675 412
7.54687 390
7.56698 369
7.58709 426
7.60721 385
7.62732 367
7.64743 418
7.66755 376
7.68766 349
7.70778 446
7.72789 409
7.748 421
7.76812 380
7.78823 438
7.80834 424
7.82846 412
7.84857 439
7.86869 410
7.8888 423
7.90891 383
7.92903 390
7.94914 411
7.96925 422
7.98937 428
8.00948 430
8.0296 391
8.04971 431
8.06982 460
8.08994 452
8.11005 462
8.13016 496
8.15028 493
8.17039 462
8.1905 504
8.21062 447
8.23073 465
8.25085 486
8.27096 453
8.29107 549
8.31119 473
8.3313 510
8.35141 540
8.37153 497
8.39164 547
8.41176 509
8.43187 557
8.45198 578
8.4721 567
8.49221 560
8.51232 588
8.53244 595
8.55255 600
8.57266 638
8.59278 621
8.61289 653
8.63301 643
8.65312 635
8.67323 634
8.69335 668
8.71346 708
8.73357 773
8.75369 810
8.7738 837
8.79392 837
8.81403 932
8.83414 939
8.85426 1009
8.87437 957
8.89448 914
8.9146 818
8.93471 701
8.95483 608
8.97494 531
8.99505 499
9.01517 487
9.03528 397
9.05539 476
9.07551 458
9.09562 444
9.11573 446
9.13585 424
9.15596 448
9.17608 404
9.19619 422
9.2163 409
9.23642 415
9.25653 401
9.27664 400
9.29676 370
9.31687 438
9.33699 365
9.3571 377
9.37721 387
9.39733 362
9.41744 357
9.43755 377
9.45767 360
9.47778 376
9.4979 358
9.51801 364
9.53812 377
9.55824 339
9.57835 345
9.59846 338
9.61858 344
9.63869 362
9.6588 382
9.67892 305
9.69903 346
9.71915 364
9.73926 373
9.75937 358
9.77949 352
9.7996 373
9.81971 369
9.83983 369
9.85994 323
9.88006 328
9.90017 348
9.92028 362
9.9404 334
9.96051 341
9.98062 311
10.00074 360
10.02085 326
10.04097 354
10.06108 316
10.08119 346
10.10131 350
10.12142 322
10.14153 337
10.16165 338
10.18176 346
10.20187 319
10.22199 323
10.2421 293
10.26222 341
10.28233 321
10.30244 314
10.32256 347
10.34267 327
10.36278 321
10.3829 332
10.40301 379
10.42313 369
10.44324 344
10.46335 330
10.48347 346
10.50358 344
10.52369 397
10.54381 408
10.56392 335
10.58403 349
10.60415 322
10.62426 334
10.64438 354
10.66449 339
10.6846 326
10.70472 324
10.72483 384
10.74494 351
10.76506 348
10.78517 337
10.80529 328
10.8254 336
10.84551 316
10.86563 328
10.88574 350
10.90585 314
10.92597 339
10.94608 345
10.9662 332
10.98631 356
11.00642 363
11.02654 368
11.04665 312
11.06676 304
11.08688 304
11.10699 365
11.1271 324
11.14722 326
11.16733 347
11.18745 316
11.20756 344
11.22767 324
11.24779 375
11.2679 352
11.28801 390
11.30813 360
11.32824 326
11.34836 363
11.36847 362
11.38858 340
11.4087 316
11.42881 329
11.44892 346
11.46904 340
11.48915 356
11.50927 334
11.52938 316
11.54949 385
11.56961 334
11.58972 334
11.60983 360
11.62995 358
11.65006 333
11.67017 386
11.69029 342
11.7104 348
11.73052 397
11.75063 362
11.77074 358
11.79086 374
11.81097 381
11.83108 388
11.8512 331
11.87131 386
11.89143 372
11.91154 410
11.93165 373
11.95177 364
11.97188 375
11.99199 391
12.01211 415
12.03222 420
12.05234 412
12.07245 427
12.09256 435
12.11268 438
12.13279 459
12.1529 454
12.17302 456
12.19313 465
12.21324 446
12.23336 473
12.25347 457
12.27359 448
12.2937 445
12.31381 427
12.33393 436
12.35404 446
12.37415 454
12.39427 432
12.41438 430
12.4345 424
12.45461 427
12.47472 468
12.49484 466
12.51495 394
12.53506 446
12.55518 386
12.57529 411
12.5954 389
12.61552 351
12.63563 319
12.65575 358
12.67586 348
12.69597 344
12.71609 312
12.7362 376
12.75631 362
12.77643 343
12.79654 298
12.81666 322
12.83677 355
12.85688 318
12.877 314
12.89711 340
12.91722 328
12.93734 321
12.95745 313
12.97757 313
12.99768 322
13.01779 277
13.03791 343
13.05802 329
13.07813 329
13.09825 303
13.11836 319
13.13847 293
13.15859 287
13.1787 303
13.19882 268
13.21893 302
13.23904 324
13.25916 328
13.27927 314
13.29938 325
13.3195 309
13.33961 329
13.35973 290
13.37984 307
13.39995 290
13.42007 338
13.44018 311
13.46029 309
13.48041 321
13.50052 320
13.52064 264
13.54075 297
13.56086 288
13.58098 321
13.60109 287
13.6212 310
13.64132 295
13.66143 302
13.68154 302
13.70166 324
13.72177 307
13.74189 331
13.762 319
13.78211 360
13.80223 342
13.82234 351
13.84245 361
13.86257 375
13.88268 361
13.9028 336
13.92291 354
13.94302 297
13.96314 304
13.98325 348
14.00336 329
14.02348 317
14.04359 325
14.06371 297
14.08382 286
14.10393 297
14.12405 327
14.14416 325
14.16427 316
14.18439 311
14.2045 320
14.22461 285
14.24473 301
14.26484 268
14.28496 304
14.30507 285
14.32518 311
14.3453 282
14.36541 286
14.38552 301
14.40564 299
14.42575 302
14.44587 276
14.46598 282
14.48609 324
14.50621 319
14.52632 309
14.54643 268
14.56655 309
14.58666 304
14.60677 290
14.62689 293
14.647 288
14.66712 248
14.68723 292
14.70734 299
14.72746 303
14.74757 297
14.76768 277
14.7878 296
14.80791 275
14.82803 298
14.84814 306
14.86825 281
14.88837 293
14.90848 302
14.92859 307
14.94871 296
14.96882 271
14.98894 319
15.00905 320
15.02916 294
15.04928 314
15.06939 314
15.0895 255
15.10962 300
15.12973 297
15.14984 285
15.16996 301
15.19007 298
15.21019 311
15.2303 279
15.25041 268
15.27053 312
15.29064 291
15.31075 283
15.33087 304
15.35098 275
15.3711 262
15.39121 274
15.41132 277
15.43144 260
15.45155 291
15.47166 293
15.49178 235
15.51189 278
15.53201 248
15.55212 311
15.57223 287
15.59235 312
15.61246 276
15.63257 291
15.65269 313
15.6728 317
15.69291 305
15.71303 258
15.73314 261
15.75326 286
15.77337 265
15.79348 306
15.8136 308
15.83371 278
15.85382 292
15.87394 287
15.89405 273
15.91417 285
15.93428 284
15.95439 296
15.97451 308
15.99462 281
16.01473 311
16.03485 283
16.05496 277
16.07508 307
16.09519 284
16.1153 279
16.13542 306
16.15553 307
16.17564 319
16.19576 334
16.21587 295
16.23598 286
16.2561 257
16.27621 276
16.29633 297
16.31644 281
16.33655 260
16.35667 277
16.37678 287
16.39689 253
16.41701 296
16.43712 288
16.45724 320
16.47735 300
16.49746 259
16.51758 279
16.53769 284
16.5578 277
16.57792 288
16.59803 264
16.61814 278
16.63826 266
16.65837 291
16.67849 285
16.6986 268
16.71871 278
16.73883 288
16.75894 292
16.77905 285
16.79917 298
16.81928 278
16.8394 311
16.85951 294
16.87962 295
16.89974 306
16.91985 273
16.93996 300
16.96008 306
16.98019 270
17.00031 260
17.02042 277
17.04053 261
17.06065 315
17.08076 284
17.10087 307
17.12099 272
17.1411 264
17.16121 253
17.18133 269
17.20144 259
17.22156 307
17.24167 269
17.26178 293
17.2819 290
17.30201 302
17.32212 291
17.34224 259
17.36235 313
17.38247 270
17.40258 275
17.42269 241
17.44281 289
17.46292 289
17.48303 269
17.50315 302
17.52326 301
17.54338 293
17.56349 322
17.5836 306
17.60372 282
17.62383 300
17.64394 318
17.66406 361
17.68417 372
17.70428 375
17.7244 396
17.74451 389
17.76463 418
17.78474 449
17.80485 382
17.82497 367
17.84508 330
17.86519 310
17.88531 330
17.90542 308
17.92554 313
17.94565 309
17.96576 269
17.98588 302
18.00599 295
18.0261 294
18.04622 315
18.06633 302
18.08645 344
18.10656 297
18.12667 332
18.14679 278
18.1669 306
18.18701 295
18.20713 270
18.22724 305
18.24735 302
18.26747 270
18.28758 307
18.3077 294
18.32781 283
18.34792 288
18.36804 332
18.38815 295
18.40826 281
18.42838 302
18.44849 281
18.46861 285
18.48872 274
18.50883 295
18.52895 264
18.54906 296
18.56917 292
18.58929 284
18.6094 292
18.62951 293
18.64963 303
18.66974 302
18.68986 292
18.70997 336
18.73008 287
18.7502 307
18.77031 313
18.79042 343
18.81054 310
18.83065 294
18.85077 288
18.87088 261
18.89099 299
18.91111 317
18.93122 299
18.95133 339
18.97145 286
18.99156 282
19.01168 287
19.03179 312
19.0519 314
19.07202 317
19.09213 301
19.11224 315
19.13236 333
19.15247 343
19.17258 331
19.1927 369
19.21281 372
19.23293 391
19.25304 407
19.27315 455
19.29327 464
19.31338 424
19.33349 423
19.35361 394
19.37372 393
19.39384 448
19.41395 385
19.43406 425
19.45418 439
19.47429 427
19.4944 376
19.51452 423
19.53463 446
19.55475 414
19.57486 425
19.59497 376
19.61509 407
19.6352 438
19.65531 453
19.67543 447
19.69554 502
19.71565 492
19.73577 518
19.75588 563
19.776 593
19.79611 621
19.81622 574
19.83634 680
19.85645 665
19.87656 628
19.89668 629
19.91679 670
19.93691 602
19.95702 505
19.97713 554
19.99725 499
20.01736 515
20.03747 558
20.05759 497
20.0777 496
20.09782 483
20.11793 429
20.13804 505
20.15816 517
20.17827 449
20.19838 496
20.2185 488
20.23861 540
20.25872 427
20.27884 477
20.29895 451
20.31907 458
20.33918 449
20.35929 434
20.37941 490
20.39952 505
20.41963 501
20.43975 488
20.45986 503
20.47998 504
20.50009 519
20.5202 557
20.54032 544
20.56043 537
20.58054 523
20.60066 643
20.62077 657
20.64088 685
20.661 763
20.68111 979
20.70123 1104
20.72134 1373
20.74145 1691
20.76157 2114
20.78168 2609
20.80179 3176
20.82191 3576
20.84202 3662
20.86214 3504
20.88225 2887
20.90236 2243
20.92248 1619
20.94259 1151
20.9627 836
20.98282 666
21.00293 631
21.02305 558
21.04316 517
21.06327 535
21.08339 546
21.1035 467
21.12361 526
21.14373 473
21.16384 480
21.18395 494
21.20407 443
21.22418 466
21.2443 463
21.26441 488
21.28452 444
21.30464 454
21.32475 495
21.34486 413
21.36498 440
21.38509 464
21.40521 413
21.42532 404
21.44543 444
21.46555 437
21.48566 470
21.50577 446
21.52589 438
21.546 477
21.56612 451
21.58623 427
21.60634 484
21.62646 456
21.64657 427
21.66668 412
21.6868 418
21.70691 438
21.72702 442
21.74714 426
21.76725 455
21.78737 433
21.80748 415
21.82759 471
21.84771 448
21.86782 484
21.88793 515
21.90805 584
21.92816 576
21.94828 639
21.96839 681
21.9885 670
22.00862 738
22.02873 665
22.04884 602
22.06896 513
22.08907 539
22.10919 438
22.1293 415
22.14941 427
22.16953 376
22.18964 374
22.20975 397
22.22987 381
22.24998 372
22.27009 429
22.29021 398
22.31032 375
22.33044 426
22.35055 399
22.37066 353
22.39078 406
22.41089 403
22.431 380
22.45112 405
22.47123 385
22.49135 385
22.51146 373
22.53157 382
22.55169 434
22.5718 386
22.59191 375
22.61203 373
22.63214 343
22.65225 389
22.67237 395
22.69248 404
22.7126 413
22.73271 413
22.75282 449
22.77294 464
22.79305 419
22.81316 429
22.83328 483
22.85339 504
22.87351 535
22.89362 510
22.91373 484
22.93385 507
22.95396 478
22.97407 483
22.99419 451
23.0143 474
23.03442 443
23.05453 415
23.07464 372
23.09476 399
23.11487 350
23.13498 374
23.1551 363
23.17521 365
23.19532 378
23.21544 376
23.23555 412
23.25567 376
23.27578 385
23.29589 391
23.31601 373
23.33612 388
23.35623 400
23.37635 394
23.39646 392
23.41658 389
23.43669 394
23.4568 439
23.47692 446
23.49703 448
23.51714 495
23.53726 446
23.55737 461
23.57749 540
23.5976 524
23.61771 532
23.63783 529
23.65794 505
23.67805 462
23.69817 503
23.71828 482
23.73839 488
23.75851 526
23.77862 478
23.79874 518
23.81885 497
23.83896 536
23.85908 601
23.87919 558
23.8993 508
23.91942 576
23.93953 535
23.95965 554
23.97976 510
23.99987 544
24.01999 550
24.0401 483
24.06021 502
24.08033 490
24.10044 531
24.12056 500
24.14067 461
24.16078 525
24.1809 545
24.20101 591
24.22112 564
24.24124 560
24.26135 585
24.28146 598
24.30158 564
24.32169 550
24.34181 556
24.36192 496
24.38203 533
24.40215 522
24.42226 470
24.44237 442
24.46249 430
24.4826 443
24.50272 436
24.52283 391
24.54294 422
24.56306 394
24.58317 427
24.60328 450
24.6234 460
24.64351 428
24.66362 440
24.68374 450
24.70385 476
24.72397 445
24.74408 468
24.76419 446
24.78431 444
24.80442 475
24.82453 475
24.84465 466
24.86476 463
24.88488 438
24.90499 481
24.9251 469
24.94522 446
24.96533 489
24.98544 450
25.00556 456
25.02567 450
25.04579 496
25.0659 474
25.08601 435
25.10613 416
25.12624 481
25.14635 447
25.16647 455
25.18658 448
25.20669 480
25.22681 473
25.24692 459
25.26704 483
25.28715 448
25.30726 482
25.32738 496
25.34749 536
25.3676 531
25.38772 574
25.40783 588
25.42795 595
25.44806 617
25.46817 622
25.48829 630
25.5084 643
25.52851 628
25.54863 602
25.56874 565
25.58886 525
25.60897 537
25.62908 553
25.6492 529
25.66931 498
25.68942 604
25.70954 513
25.72965 524
25.74976 529
25.76988 522
25.78999 556
25.81011 540
25.83022 529
25.85033 528
25.87045 534
25.89056 579
25.91067 534
25.93079 535
25.9509 584
25.97102 602
25.99113 612
26.01124 583
26.03136 590
26.05147 592
26.07158 625
26.0917 603
26.11181 726
26.13193 725
26.15204 754
26.17215 816
26.19227 863
26.21238 912
26.23249 915
26.25261 932
26.27272 1028
26.29283 1137
26.31295 1165
26.33306 1253
26.35318 1401
26.37329 1584
26.3934 1864
26.41352 2204
26.43363 2646
26.45374 3340
26.47386 4289
26.49397 5436
26.51409 7098
26.5342 9159
26.55431 11189
26.57443 13476
26.59454 15077
26.61465 15750
26.63477 15092
26.65488 12864
26.67499 9876
26.69511 7634
26.71522 5804
26.73534 3786
26.75545 2426
26.77556 1878
26.79568 1505
26.81579 1296
26.8359 1123
26.85602 1062
26.87613 978
26.89625 897
26.91636 810
26.93647 817
26.95659 739
26.9767 718
26.99681 654
27.01693 581
27.03704 576
27.05716 557
27.07727 574
27.09738 512
27.1175 544
27.13761 535
27.15772 499
27.17784 514
27.19795 524
27.21806 497
27.23818 509
27.25829 477
27.27841 487
27.29852 463
27.31863 510
27.33875 496
27.35886 508
27.37897 515
27.39909 543
27.4192 545
27.43932 511
27.45943 485
27.47954 493
27.49966 522
27.51977 506
27.53988 509
27.56 514
27.58011 529
27.60023 609
27.62034 600
27.64045 610
27.66057 736
27.68068 790
27.70079 901
27.72091 943
27.74102 1014
27.76113 1082
27.78125 1097
27.80136 1064
27.82148 1061
27.84159 1143
27.8617 1126
27.88182 1077
27.90193 1124
27.92204 1106
27.94216 1019
27.96227 1056
27.98239 915
28.0025 899
28.02261 797
28.04273 730
28.06284 655
28.08295 640
28.10307 555
28.12318 596
28.1433 595
28.16341 548
28.18352 585
28.20364 584
28.22375 559
28.24386 570
28.26398 575
28.28409 608
28.3042 554
28.32432 535
28.34443 574
28.36455 539
28.38466 517
28.40477 471
28.42489 460
28.445 489
28.46511 448
28.48523 500
28.50534 412
28.52546 449
28.54557 403
28.56568 434
28.5858 440
28.60591 424
28.62602 388
28.64614 426
28.66625 364
28.68636 416
28.70648 337
28.72659 397
28.74671 382
28.76682 376
28.78693 436
28.80705 389
28.82716 390
28.84727 400
28.86739 345
28.8875 380
28.90762 372
28.92773 339
28.94784 397
28.96796 359
28.98807 383
29.00818 348
29.0283 347
29.04841 364
29.06853 353
29.08864 363
29.10875 359
29.12887 344
29.14898 390
29.16909 354
29.18921 381
29.20932 336
29.22943 349
29.24955 339
29.26966 348
29.28978 362
29.30989 397
29.33 345
29.35012 361
29.37023 392
29.39034 314
29.41046 342
29.43057 373
29.45069 359
29.4708 363
29.49091 356
29.51103 354
29.53114 359
29.55125 356
29.57137 343
29.59148 422
29.6116 390
29.63171 378
29.65182 434
29.67194 396
29.69205 469
29.71216 481
29.73228 480
29.75239 499
29.7725 510
29.79262 541
29.81273 526
29.83285 531
29.85296 537
29.87307 537
29.89319 480
29.9133 507
29.93341 502
29.95353 483
29.97364 468
29.99376 438
30.01387 435
30.03398 476
30.0541 413
30.07421 422
30.09432 394
30.11444 416
30.13455 414
30.15467 384
30.17478 367
30.19489 398
30.21501 431
30.23512 420
30.25523 439
30.27535 480
30.29546 458
30.31557 415
30.33569 472
30.3558 454
30.37592 481
30.39603 511
30.41614 482
30.43626 509
30.45637 528
30.47648 478
30.4966 476
30.51671 429
30.53683 425
30.55694 438
30.57705 418
30.59717 374
30.61728 406
30.63739 408
30.65751 407
30.67762 379
30.69773 362
30.71785 346
30.73796 385
30.75808 333
30.77819 338
30.7983 321
30.81842 348
30.83853 348
30.85864 323
30.87876 343
30.89887 352
30.91899 348
30.9391 382
30.95921 365
30.97933 351
30.99944 340
31.01955 397
31.03967 356
31.05978 361
31.0799 414
31.10001 401
31.12012 396
31.14024 425
31.16035 428
31.18046 434
31.20058 450
31.22069 467
31.2408 475
31.26092 436
31.28103 445
31.30115 456
31.32126 405
31.34137 426
31.36149 433
31.3816 402
31.40171 389
31.42183 377
31.44194 369
31.46206 351
31.48217 390
31.50228 306
31.5224 310
31.54251 329
31.56262 355
31.58274 359
31.60285 350
31.62297 346
31.64308 318
31.66319 351
31.68331 288
31.70342 338
31.72353 322
31.74365 349
31.76376 301
31.78387 342
31.80399 332
31.8241 285
31.84422 337
31.86433 329
31.88444 338
31.90456 369
31.92467 374
31.94478 346
31.9649 396
31.98501 373
32.00513 392
32.02524 382
32.04535 351
32.06547 397
32.08558 382
32.10569 372
32.12581 384
32.14592 338
32.16604 337
32.18615 328
32.20626 351
32.22638 356
32.24649 312
32.2666 301
32.28672 329
32.30683 330
32.32694 359
32.34706 309
32.36717 374
32.38729 335
32.4074 321
32.42751 333
32.44763 343
32.46774 343
32.48785 364
32.50797 334
32.52808 342
32.5482 357
32.56831 341
32.58842 361
32.60854 358
32.62865 356
32.64876 357
32.66888 332
32.68899 312
32.7091 362
32.72922 322
32.74933 320
32.76945 378
32.78956 319
32.80967 346
32.82979 332
32.8499 353
32.87001 303
32.89013 357
32.91024 311
32.93036 394
32.95047 356
32.97058 336
32.9907 359
33.01081 380
33.03092 370
33.05104 340
33.07115 343
33.09127 371
33.11138 372
33.13149 324
33.15161 341
33.17172 365
33.19183 361
33.21195 340
33.23206 386
33.25217 330
33.27229 334
33.2924 332
33.31252 348
33.33263 287
33.35274 338
33.37286 343
33.39297 304
33.41308 338
33.4332 331
33.45331 326
33.47343 343
33.49354 332
33.51365 338
33.53377 339
33.55388 323
33.57399 327
33.59411 323
33.61422 363
33.63434 345
33.65445 318
33.67456 307
33.69468 322
33.71479 323
33.7349 405
33.75502 424
33.77513 369
33.79524 398
33.81536 461
33.83547 437
33.85559 459
33.8757 439
33.89581 447
33.91593 397
33.93604 400
33.95615 404
33.97627 462
33.99638 420
34.0165 464
34.03661 493
34.05672 439
34.07684 511
34.09695 547
34.11706 591
34.13718 627
34.15729 631
34.17741 643
34.19752 666
34.21763 620
34.23775 671
34.25786 641
34.27797 623
34.29809 600
34.3182 567
34.33831 543
34.35843 532
34.37854 558
34.39866 526
34.41877 538
34.43888 495
34.459 510
34.47911 502
34.49922 484
34.51934 477
34.53945 502
34.55957 482
34.57968 486
34.59979 522
34.61991 475
34.64002 511
34.66013 477
34.68025 459
34.70036 492
34.72047 483
34.74059 498
34.7607 452
34.78082 480
34.80093 540
34.82104 534
34.84116 615
34.86127 603
34.88138 619
34.9015 671
34.92161 686
34.94173 610
34.96184 604
34.98195 642
35.00207 622
35.02218 629
35.04229 602
35.06241 624
35.08252 614
35.10264 572
35.12275 539
35.14286 542
35.16298 548
35.18309 504
35.2032 532
35.22332 507
35.24343 502
35.26354 516
35.28366 485
35.30377 497
35.32389 472
35.344 458
35.36411 444
35.38423 430
35.40434 484
35.42445 446
35.44457 403
35.46468 435
35.4848 478
35.50491 433
35.52502 460
35.54514 432
35.56525 411
35.58536 428
35.60548 424
35.62559 444
35.64571 432
35.66582 414
35.68593 412
35.70605 361
35.72616 452
35.74627 448
35.76639 403
35.7865 422
35.80661 424
35.82673 443
35.84684 432
35.86696 451
35.88707 446
35.90718 458
35.9273 448
35.94741 447
35.96752 459
35.98764 425
36.00775 455
36.02787 442
36.04798 431
36.06809 432
36.08821 420
36.10832 435
36.12843 429
36.14855 411
36.16866 445
36.18878 429
36.20889 411
36.229 419
36.24912 462
36.26923 477
36.28934 457
36.30946 550
36.32957 565
36.34968 618
36.3698 698
36.38991 772
36.41003 822
36.43014 987
36.45025 1115
36.47037 1279
36.49048 1329
36.51059 1402
36.53071 1369
36.55082 1239
36.57094 1069
36.59105 930
36.61116 963
36.63128 835
36.65139 705
36.6715 602
36.69162 502
36.71173 525
36.73184 501
36.75196 494
36.77207 517
36.79219 514
36.8123 489
36.83241 478
36.85253 526
36.87264 521
36.89275 487
36.91287 501
36.93298 552
36.9531 532
36.97321 490
36.99332 552
37.01344 488
37.03355 476
37.05366 469
37.07378 446
37.09389 447
37.11401 435
37.13412 437
37.15423 438
37.17435 430
37.19446 404
37.21457 416
37.23469 404
37.2548 379
37.27491 378
37.29503 410
37.31514 406
37.33526 417
37.35537 430
37.37548 404
37.3956 407
37.41571 392
37.43582 406
37.45594 408
37.47605 372
37.49617 407
37.51628 408
37.53639 393
37.55651 401
37.57662 441
37.59673 424
37.61685 421
37.63696 387
37.65708 435
37.67719 437
37.6973 402
37.71742 421
37.73753 431
37.75764 413
37.77776 362
37.79787 407
37.81798 413
37.8381 355
37.85821 381
37.87833 412
37.89844 387
37.91855 364
37.93867 347
37.95878 341
37.97889 384
37.99901 316
38.01912 332
38.03924 375
38.05935 324
38.07946 358
38.09958 342
38.11969 359
38.1398 365
38.15992 333
38.18003 321
38.20015 394
38.22026 365
38.24037 371
38.26049 351
38.2806 388
38.30071 345
38.32083 333
38.34094 365
38.36105 390
38.38117 372
38.40128 357
38.4214 367
38.44151 357
38.46162 389
38.48174 355
38.50185 398
38.52196 355
38.54208 364
38.56219 362
38.58231 354
38.60242 361
38.62253 319
38.64265 361
38.66276 384
38.68287 354
38.70299 348
38.7231 379
38.74321 375
38.76333 376
38.78344 350
38.80356 320
38.82367 368
38.84378 340
38.8639 320
38.88401 358
38.90412 316
38.92424 341
38.94435 347
38.96447 344
38.98458 373
39.00469 421
39.02481 346
39.04492 370
39.06503 390
39.08515 417
39.10526 424
39.12538 428
39.14549 421
39.1656 463
39.18572 464
39.20583 474
39.22594 488
39.24606 537
39.26617 556
39.28628 598
39.3064 701
39.32651 756
39.34663 885
39.36674 937
39.38685 1096
39.40697 1200
39.42708 1318
39.44719 1156
39.46731 1152
39.48742 998
39.50754 864
39.52765 780
39.54776 746
39.56788 689
39.58799 544
39.6081 455
39.62822 450
39.64833 420
39.66845 405
39.68856 376
39.70867 378
39.72879 361
39.7489 412
39.76901 397
39.78913 338
39.80924 379
39.82935 391
39.84947 369
39.86958 412
39.8897 403
39.90981 391
39.92992 424
39.95004 381
39.97015 388
39.99026 408
40.01038 386
40.03049 455
40.05061 416
40.07072 490
40.09083 506
40.11095 468
40.13106 535
40.15117 577
40.17129 624
40.1914 707
40.21152 755
40.23163 740
40.25174 731
40.27186 767
40.29197 706
40.31208 642
40.3322 576
40.35231 557
40.37242 496
40.39254 514
40.41265 474
40.43277 411
40.45288 392
40.47299 381
40.49311 339
40.51322 352
40.53333 315
40.55345 377
40.57356 394
40.59368 323
40.61379 358
40.6339 369
40.65402 337
40.67413 323
40.69424 330
40.71436 344
40.73447 366
40.75458 377
40.7747 365
40.79481 373
40.81493 334
40.83504 381
40.85515 320
40.87527 362
40.89538 344
40.91549 376
40.93561 361
40.95572 373
40.97584 351
40.99595 353
41.01606 385
41.03618 372
41.05629 364
41.0764 360
41.09652 403
41.11663 358
41.13675 360
41.15686 387
41.17697 379
41.19709 411
41.2172 405
41.23731 360
41.25743 390
41.27754 395
41.29765 389
41.31777 400
41.33788 425
41.358 425
41.37811 428
41.39822 417
41.41834 391
41.43845 385
41.45856 396
41.47868 394
41.49879 386
41.51891 411
41.53902 388
41.55913 436
41.57925 426
41.59936 375
41.61947 389
41.63959 383
41.6597 403
41.67982 359
41.69993 387
41.72004 378
41.74016 366
41.76027 376
41.78038 390
41.8005 363
41.82061 366
41.84072 346
41.86084 351
41.88095 371
41.90107 350
41.92118 392
41.94129 371
41.96141 366
41.98152 340
42.00163 366
42.02175 391
42.04186 381
42.06198 371
42.08209 375
42.1022 428
42.12232 363
42.14243 406
42.16254 407
42.18266 439
42.20277 440
42.22289 485
42.243 520
42.26311 550
42.28323 609
42.30334 657
42.32345 714
42.34357 756
42.36368 886
42.38379 936
42.40391 1001
42.42402 962
42.44414 958
42.46425 847
42.48436 717
42.50448 694
42.52459 647
42.5447 583
42.56482 498
42.58493 444
42.60505 386
42.62516 397
42.64527 359
42.66539 336
42.6855 333
42.70561 351
42.72573 325
42.74584 360
42.76595 291
42.78607 325
42.80618 346
42.8263 332
42.84641 328
42.86652 353
42.88664 321
42.90675 323
42.92686 321
42.94698 301
42.96709 323
42.98721 294
43.00732 293
43.02743 305
43.04755 304
43.06766 323
43.08777 311
43.10789 295
43.128 293
43.14812 312
43.16823 298
43.18834 279
43.20846 309
43.22857 279
43.24868 294
43.2688 293
43.28891 273
43.30902 314
43.32914 296
43.34925 287
43.36937 275
43.38948 292
43.40959 293
43.42971 280
43.44982 270
43.46993 256
43.49005 261
43.51016 272
43.53028 305
43.55039 301
43.5705 316
43.59062 276
43.61073 270
43.63084 290
43.65096 292
43.67107 283
43.69119 269
43.7113 290
43.73141 297
43.75153 289
43.77164 257
43.79175 281
43.81187 278
43.83198 283
43.85209 271
43.87221 264
43.89232 292
43.91244 289
43.93255 286
43.95266 288
43.97278 286
43.99289 296
44.013 279
44.03312 338
44.05323 282
44.07335 276
44.09346 306
44.11357 278
44.13369 279
44.1538 296
44.17391 302
44.19403 290
44.21414 285
44.23426 317
44.25437 296
44.27448 286
44.2946 298
44.31471 298
44.33482 284
44.35494 309
44.37505 314
44.39516 282
44.41528 316
44.43539 305
44.45551 272
44.47562 276
44.49573 288
44.51585 294
44.53596 297
44.55607 298
44.57619 290
44.5963 309
44.61642 318
44.63653 303
44.65664 298
44.67676 317
44.69687 331
44.71698 309
44.7371 334
44.75721 357
44.77732 310
44.79744 325
44.81755 324
44.83767 359
44.85778 303
44.87789 355
44.89801 351
44.91812 351
44.93823 357
44.95835 335
44.97846 323
44.99858 338
45.01869 372
45.0388 428
45.05892 334
45.07903 390
45.09914 347
45.11926 382
45.13937 357
45.15949 386
45.1796 405
45.19971 394
45.21983 376
45.23994 391
45.26005 425
45.28017 376
45.30028 424
45.32039 401
45.34051 436
45.36062 447
45.38074 434
45.40085 433
45.42096 428
45.44108 483
45.46119 421
45.4813 429
45.50142 430
45.52153 439
45.54165 413
45.56176 454
45.58187 472
45.60199 476
45.6221 502
45.64221 526
45.66233 558
45.68244 635
45.70256 689
45.72267 721
45.74278 722
45.7629 741
45.78301 688
45.80312 655
45.82324 559
45.84335 527
45.86346 534
45.88358 517
45.90369 508
45.92381 440
45.94392 420
45.96403 384
45.98415 350
46.00426 368
46.02437 348
46.04449 313
46.0646 323
46.08472 310
46.10483 312
46.12494 330
46.14506 326
46.16517 330
46.18528 290
46.2054 294
46.22551 276
46.24563 324
46.26574 306
46.28585 285
46.30597 290
46.32608 291
46.34619 296
46.36631 307
46.38642 280
46.40653 300
46.42665 297
46.44676 317
46.46688 287
46.48699 308
46.5071 302
46.52722 305
46.54733 305
46.56744 337
46.58756 301
46.60767 315
46.62779 290
46.6479 309
46.66801 314
46.68813 268
46.70824 282
46.72835 306
46.74847 303
46.76858 301
46.78869 278
46.80881 250
46.82892 293
46.84904 275
46.86915 290
46.88926 294
46.90938 280
46.92949 262
46.9496 301
46.96972 303
46.98983 294
47.00995 321
47.03006 310
47.05017 287
47.07029 300
47.0904 285
47.11051 307
47.13063 292
47.15074 290
47.17086 333
47.19097 285
47.21108 270
47.2312 295
47.25131 283
47.27142 297
47.29154 274
47.31165 273
47.33176 273
47.35188 316
47.37199 267
47.39211 289
47.41222 276
47.43233 280
47.45245 282
47.47256 285
47.49267 290
47.51279 301
47.5329 344
47.55302 284
47.57313 284
47.59324 300
47.61336 301
47.63347 289
47.65358 293
47.6737 314
47.69381 291
47.71393 279
47.73404 261
47.75415 289
47.77427 262
47.79438 286
47.81449 250
47.83461 281
47.85472 287
47.87483 282
47.89495 276
47.91506 266
47.93518 296
47.95529 283
47.9754 252
47.99552 294
48.01563 289
48.03574 306
48.05586 295
48.07597 315
48.09609 305
48.1162 285
48.13631 310
48.15643 296
48.17654 311
48.19665 312
48.21677 291
48.23688 269
48.257 279
48.27711 317
48.29722 306
48.31734 310
48.33745 313
48.35756 281
48.37768 291
48.39779 293
48.4179 276
48.43802 319
48.45813 302
48.47825 309
48.49836 267
48.51847 291
48.53859 301
48.5587 294
48.57881 264
48.59893 278
48.61904 317
48.63916 288
48.65927 265
48.67938 289
48.6995 311
48.71961 292
48.73972 313
48.75984 344
48.77995 273
48.80006 297
48.82018 283
48.84029 290
48.86041 306
48.88052 269
48.90063 298
48.92075 290
48.94086 304
48.96097 289
48.98109 300
49.0012 266
49.02132 274
49.04143 278
49.06154 300
49.08166 309
49.10177 279
49.12188 324
49.142 283
49.16211 276
49.18223 296
49.20234 304
49.22245 315
49.24257 295
49.26268 304
49.28279 296
49.30291 311
49.32302 316
49.34313 327
49.36325 292
49.38336 303
49.40348 301
49.42359 286
49.4437 308
49.46382 334
49.48393 290
49.50404 305
49.52416 300
49.54427 299
49.56439 293
49.5845 291
49.60461 318
49.62473 333
49.64484 352
49.66495 312
49.68507 327
49.70518 362
49.7253 366
49.74541 375
49.76552 463
49.78564 443
49.80575 474
49.82586 522
49.84598 530
49.86609 531
49.8862 626
49.90632 676
49.92643 701
49.94655 802
49.96666 960
49.98677 982
50.00689 1193
50.027 1364
50.04711 1508
50.06723 1616
50.08734 1726
50.10746 1729
50.12757 1587
50.14768 1371
50.1678 1147
50.18791 1024
50.20802 1005
50.22814 1009
50.24825 885
50.26837 778
50.28848 581
50.30859 447
50.32871 415
50.34882 368
50.36893 348
50.38905 348
50.40916 311
50.42927 330
50.44939 316
50.4695 298
50.48962 323
50.50973 311
50.52984 325
50.54996 348
50.57007 339
50.59018 348
50.6103 351
50.63041 346
50.65053 297
50.67064 323
50.69075 360
50.71087 297
50.73098 307
50.75109 288
50.77121 291
50.79132 289
50.81143 295
50.83155 287
50.85166 282
50.87178 306
50.89189 255
50.912 282
50.93212 307
50.95223 292
50.97234 264
50.99246 292
51.01257 277
51.03269 275
51.0528 295
51.07291 316
51.09303 284
51.11314 287
51.13325 295
51.15337 280
51.17348 314
51.1936 279
51.21371 306
51.23382 309
51.25394 326
51.27405 322
51.29416 300
51.31428 296
51.33439 333
51.3545 295
51.37462 288
51.39473 313
51.41485 262
51.43496 282
51.45507 285
51.47519 279
51.4953 264
51.51541 266
51.53553 279
51.55564 241
51.57576 256
51.59587 252
51.61598 267
51.6361 267
51.65621 248
51.67632 265
51.69644 256
51.71655 264
51.73667 264
51.75678 255
51.77689 251
51.79701 263
51.81712 252
51.83723 246
51.85735 264
51.87746 249
51.89757 261
51.91769 266
51.9378 244
51.95792 245
51.97803 281
51.99814 272
52.01826 264
52.03837 263
52.05848 267
52.0786 283
52.09871 282
52.11883 279
52.13894 272
52.15905 277
52.17917 280
52.19928 289
52.21939 292
52.23951 279
52.25962 255
52.27974 267
52.29985 277
52.31996 290
52.34008 297
52.36019 290
52.3803 260
52.40042 282
52.42053 302
52.44064 289
52.46076 294
52.48087 289
52.50099 253
52.5211 273
52.54121 287
52.56133 321
52.58144 285
52.60155 309
52.62167 294
52.64178 302
52.6619 291
52.68201 305
52.70212 282
52.72224 312
52.74235 303
52.76246 312
52.78258 317
52.80269 310
52.8228 321
52.84292 314
52.86303 334
52.88315 289
52.90326 303
52.92337 289
52.94349 328
52.9636 321
52.98371 332
53.00383 317
53.02394 314
53.04406 314
53.06417 335
53.08428 313
53.1044 285
53.12451 325
53.14462 302
53.16474 314
53.18485 308
53.20497 303
53.22508 317
53.24519 300
53.26531 323
53.28542 302
53.30553 298
53.32565 292
53.34576 319
53.36587 308
53.38599 319
53.4061 296
53.42622 278
53.44633 304
53.46644 287
53.48656 284
53.50667 294
53.52678 288
53.5469 290
53.56701 328
53.58713 324
53.60724 301
53.62735 324
53.64747 332
53.66758 287
53.68769 289
53.70781 300
53.72792 333
53.74804 279
53.76815 318
53.78826 279
53.80838 322
53.82849 330
53.8486 291
53.86872 319
53.88883 341
53.90894 291
53.92906 307
53.94917 326
53.96929 289
53.9894 313
54.00951 335
54.02963 349
54.04974 325
54.06985 325
54.08997 317
54.11008 327
54.1302 305
54.15031 307
54.17042 337
54.19054 336
54.21065 340
54.23076 320
54.25088 366
54.27099 332
54.29111 349
54.31122 348
54.33133 364
54.35145 323
54.37156 344
54.39167 365
54.41179 345
54.4319 324
54.45201 375
54.47213 361
54.49224 398
54.51236 330
54.53247 346
54.55258 380
54.5727 388
54.59281 458
54.61292 446
54.63304 485
54.65315 467
54.67327 462
54.69338 508
54.71349 566
54.73361 607
54.75372 678
54.77383 717
54.79395 758
54.81406 722
54.83417 768
54.85429 747
54.8744 697
54.89452 622
54.91463 618
54.93474 569
54.95486 570
54.97497 567
54.99508 576
55.0152 519
55.03531 502
55.05543 435
55.07554 462
55.09565 446
55.11577 404
55.13588 443
55.15599 484
55.17611 493
55.19622 457
55.21634 498
55.23645 526
55.25656 507
55.27668 534
55.29679 513
55.3169 470
55.33702 439
55.35713 435
55.37724 431
55.39736 420
55.41747 416
55.43759 459
55.4577 415
55.47781 376
55.49793 348
55.51804 325
55.53815 350
55.55827 316
55.57838 322
55.5985 306
55.61861 343
55.63872 333
55.65884 327
55.67895 333
55.69906 321
55.71918 325
55.73929 316
55.75941 366
55.77952 354
55.79963 344
55.81975 349
55.83986 353
55.85997 345
55.88009 297
55.9002 326
55.92031 319
55.94043 330
55.96054 283
55.98066 325
56.00077 344
56.02088 319
56.041 324
56.06111 293
56.08122 333
56.10134 308
56.12145 313
56.14157 304
56.16168 309
56.18179 311
56.20191 269
56.22202 288
56.24213 288
56.26225 318
56.28236 301
56.30248 284
56.32259 296
56.3427 282
56.36282 280
56.38293 302
56.40304 304
56.42316 282
56.44327 265
56.46338 289
56.4835 311
56.50361 258
56.52373 268
56.54384 285
56.56395 275
56.58407 295
56.60418 305
56.62429 275
56.64441 287
56.66452 272
56.68464 279
56.70475 265
56.72486 267
56.74498 296
56.76509 284
56.7852 292
56.80532 267
56.82543 286
56.84554 294
56.86566 273
56.88577 299
56.90589 293
56.926 272
56.94611 282
56.96623 351
56.98634 279
57.00645 268
57.02657 303
57.04668 279
57.0668 285
57.08691 287
57.10702 303
57.12714 272
57.14725 315
57.16736 305
57.18748 306
57.20759 317
57.22771 266
57.24782 331
57.26793 297
57.28805 311
57.30816 273
57.32827 301
57.34839 300
57.3685 290
57.38861 312
57.40873 294
57.42884 295
57.44896 287
57.46907 288
57.48918 290
57.5093 267
57.52941 303
57.54952 295
57.56964 287
57.58975 294
57.60987 291
57.62998 260
57.65009 295
57.67021 283
57.69032 265
57.71043 278
57.73055 303
57.75066 280
57.77078 286
57.79089 271
57.811 265
57.83112 275
57.85123 249
57.87134 263
57.89146 274
57.91157 267
57.93168 246
57.9518 271
57.97191 248
57.99203 264
58.01214 235
58.03225 277
58.05237 270
58.07248 275
58.09259 272
58.11271 269
58.13282 268
58.15294 267
58.17305 240
58.19316 261
58.21328 270
58.23339 260
58.2535 272
58.27362 279
58.29373 279
58.31385 273
58.33396 276
58.35407 252
58.37419 269
58.3943 267
58.41441 255
58.43453 288
58.45464 309
58.47475 256
58.49487 259
58.51498 263
58.5351 266
58.55521 294
58.57532 240
58.59544 276
58.61555 319
58.63566 240
58.65578 289
58.67589 251
58.69601 279
58.71612 277
58.73623 271
58.75635 281
58.77646 293
58.79657 287
58.81669 271
58.8368 247
58.85691 269
58.87703 294
58.89714 277
58.91726 263
58.93737 272
58.95748 287
58.9776 282
58.99771 263
59.01782 278
59.03794 278
59.05805 276
59.07817 275
59.09828 283
59.11839 252
59.13851 236
59.15862 311
59.17873 289
59.19885 280
59.21896 273
59.23908 283
59.25919 272
59.2793 299
59.29942 320
59.31953 284
59.33964 310
59.35976 288
59.37987 316
59.39998 310
59.4201 321
59.44021 333
59.46033 297
59.48044 343
59.50055 369
59.52067 372
59.54078 366
59.56089 342
59.58101 344
59.60112 401
59.62124 383
59.64135 420
59.66146 418
59.68158 495
59.70169 488
59.7218 525
59.74192 618
59.76203 678
59.78215 754
59.80226 773
59.82237 944
59.84249 994
59.8626 1089
59.88271 1098
59.90283 1166
59.92294 1150
59.94305 1142
59.96317 951
59.98328 829
60.0034 816
60.02351 815
60.04362 777
60.06374 798
60.08385 736
60.10396 694
60.12408 634
60.14419 572
60.16431 495
60.18442 488
60.20453 459
60.22465 446
60.24476 477
60.26487 483
60.28499 455
60.3051 469
60.32522 427
60.34533 418
60.36544 462
60.38556 406
60.40567 403
60.42578 403
60.4459 393
60.46601 393
60.48612 360
60.50624 353
60.52635 366
60.54647 342
60.56658 344
60.58669 360
60.60681 339
60.62692 333
60.64703 312
60.66715 305
60.68726 290
60.70738 289
60.72749 312
60.7476 310
60.76772 314
60.78783 330
60.80794 329
60.82806 325
60.84817 308
60.86828 293
60.8884 301
60.90851 320
60.92863 323
60.94874 308
60.96885 301
60.98897 300
61.00908 314
61.02919 300
61.04931 298
61.06942 303
61.08954 279
61.10965 308
61.12976 304
61.14988 268
61.16999 279
61.1901 295
61.21022 280
61.23033 277
61.25045 309
61.27056 283
61.29067 332
61.31079 307
61.3309 305
61.35101 301
61.37113 335
61.39124 300
61.41135 290
61.43147 314
61.45158 314
61.4717 324
61.49181 351
61.51192 324
61.53204 323
61.55215 302
61.57226 385
61.59238 332
61.61249 358
61.63261 312
61.65272 329
61.67283 322
61.69295 361
61.71306 349
61.73317 315
61.75329 343
61.7734 324
61.79352 327
61.81363 333
61.83374 341
61.85386 345
61.87397 333
61.89408 335
61.9142 340
61.93431 325
61.95442 326
61.97454 324
61.99465 331
62.01477 338
62.03488 307
62.05499 331
62.07511 315
62.09522 337
62.11533 314
62.13545 305
62.15556 331
62.17568 308
62.19579 292
62.2159 303
62.23602 295
62.25613 331
62.27624 307
62.29636 278
62.31647 287
62.33659 333
62.3567 286
62.37681 318
62.39693 310
62.41704 322
62.43715 281
62.45727 298
62.47738 282
62.49749 264
62.51761 262
62.53772 287
62.55784 285
62.57795 275
62.59806 289
62.61818 282
62.63829 293
62.6584 278
62.67852 289
62.69863 272
62.71875 297
62.73886 274
62.75897 293
62.77909 271
62.7992 250
62.81931 267
62.83943 287
62.85954 282
62.87965 274
62.89977 270
62.91988 294
62.94 265
62.96011 279
62.98022 246
63.00034 275
63.02045 240
63.04056 260
63.06068 267
63.08079 273
63.10091 261
63.12102 278
63.14113 270
63.16125 264
63.18136 272
63.20147 263
63.22159 256
63.2417 273
63.26182 244
63.28193 266
63.30204 288
63.32216 266
63.34227 273
63.36238 301
63.3825 251
63.40261 266
63.42272 275
63.44284 261
63.46295 276
63.48307 256
63.50318 279
63.52329 256
63.54341 291
63.56352 257
63.58363 289
63.60375 290
63.62386 272
63.64398 292
63.66409 284
63.6842 292
63.70432 276
63.72443 311
63.74454 292
63.76466 332
63.78477 306
63.80489 310
63.825 337
63.84511 349
63.86523 337
63.88534 369
63.90545 368
63.92557 422
63.94568 431
63.96579 399
63.98591 416
64.00602 377
64.02614 382
64.04625 386
64.06636 365
64.08648 299
64.10659 325
64.1267 364
64.14682 317
64.16693 365
64.18705 340
64.20716 286
64.22727 315
64.24739 271
64.2675 240
64.28761 279
64.30773 268
64.32784 257
64.34796 257
64.36807 250
64.38818 237
64.4083 271
64.42841 226
64.44852 244
64.46864 258
64.48875 264
64.50886 271
64.52898 232
64.54909 257
64.56921 253
64.58932 239
64.60943 231
64.62955 222
64.64966 260
64.66977 232
64.68989 263
64.71 262
64.73012 236
64.75023 242
64.77034 258
64.79046 240
64.81057 234
64.83068 255
64.8508 270
64.87091 229
64.89102 227
64.91114 261
64.93125 254
64.95137 251
64.97148 224
64.99159 269
65.01171 247
65.03182 229
65.05193 264
65.07205 271
65.09216 265
65.11228 277
65.13239 262
65.1525 310
65.17262 247
65.19273 259
65.21284 274
65.23296 249
65.25307 259
65.27319 251
65.2933 250
65.31341 243
65.33353 255
65.35364 271
65.37375 285
65.39387 250
65.41398 245
65.43409 262
65.45421 259
65.47432 265
65.49444 260
65.51455 275
65.53466 228
65.55478 242
65.57489 244
65.595 281
65.61512 260
65.63523 274
65.65535 267
65.67546 302
65.69557 302
65.71569 238
65.7358 290
65.75591 267
65.77603 231
65.79614 265
65.81626 267
65.83637 261
65.85648 243
65.8766 239
65.89671 246
65.91682 279
65.93694 271
65.95705 253
65.97716 252
65.99728 256
66.01739 248
66.03751 260
66.05762 244
66.07773 267
66.09785 237
66.11796 247
66.13807 236
66.15819 242
66.1783 245
66.19842 239
66.21853 243
66.23864 226
66.25876 241
66.27887 234
66.29898 248
66.3191 245
66.33921 226
66.35933 227
66.37944 240
66.39955 255
66.41967 232
66.43978 226
66.45989 262
66.48001 256
66.50012 226
66.52023 239
66.54035 226
66.56046 241
66.58058 226
66.60069 250
66.6208 246
66.64092 248
66.66103 255
66.68114 232
66.70126 233
66.72137 233
66.74149 244
66.7616 254
66.78171 265
66.80183 252
66.82194 267
66.84205 219
66.86217 272
66.88228 258
66.90239 264
66.92251 256
66.94262 245
66.96274 248
66.98285 268
67.00296 279
67.02308 250
67.04319 260
67.0633 259
67.08342 268
67.10353 271
67.12365 236
67.14376 263
67.16387 271
67.18399 261
67.2041 264
67.22421 266
67.24433 252
67.26444 289
67.28456 271
67.30467 291
67.32478 298
67.3449 318
67.36501 299
67.38512 304
67.40524 306
67.42535 320
67.44546 347
67.46558 306
67.48569 398
67.50581 413
67.52592 460
67.54603 504
67.56615 551
67.58626 555
67.60637 615
67.62649 628
67.6466 650
67.66672 745
67.68683 764
67.70694 709
67.72706 671
67.74717 664
67.76728 574
67.7874 573
67.80751 535
67.82763 572
67.84774 576
67.86785 604
67.88797 617
67.90808 640
67.92819 640
67.94831 660
67.96842 682
67.98853 700
68.00865 723
68.02876 782
68.04888 818
68.06899 911
68.0891 927
68.10922 935
68.12933 849
68.14944 918
68.16956 795
68.18967 822
68.20979 807
68.2299 817
68.25001 877
68.27013 935
68.29024 840
68.31035 747
68.33047 647
68.35058 573
68.3707 488
68.39081 464
68.41092 491
68.43104 450
68.45115 461
68.47126 427
68.49138 432
68.51149 405
68.5316 345
68.55172 332
68.57183 328
68.59195 297
68.61206 283
68.63217 307
68.65229 334
68.6724 252
68.69251 285
68.71263 282
68.73274 265
68.75286 258
68.77297 281
68.79308 288
68.8132 296
68.83331 268
68.85342 313
68.87354 286
68.89365 267
68.91376 263
68.93388 275
68.95399 270
68.97411 279
68.99422 271
69.01433 280
69.03445 281
69.05456 311
69.07467 303
69.09479 261
69.1149 275
69.13502 293
69.15513 290
69.17524 304
69.19536 277
69.21547 269
69.23558 298
69.2557 291
69.27581 298
69.29593 309
69.31604 263
69.33615 285
69.35627 257
69.37638 291
69.39649 294
69.41661 270
69.43672 289
69.45683 294
69.47695 294
69.49706 271
69.51718 267
69.53729 276
69.5574 274
69.57752 271
69.59763 267
69.61774 275
69.63786 252
69.65797 273
69.67809 270
69.6982 275
69.71831 271
69.73843 266
69.75854 252
69.77865 253
69.79877 266
69.81888 263
69.839 268
69.85911 257
69.87922 233
69.89934 252
69.91945 248
69.93956 260
69.95968 236
69.97979 260
69.9999 263
70.02002 274
70.04013 240
70.06025 266
70.08036 245
70.10047 245
70.12059 247
70.1407 232
70.16081 235
70.18093 247
70.20104 250
70.22116 243
70.24127 262
70.26138 248
70.2815 266
70.30161 241
70.32172 260
70.34184 265
70.36195 242
70.38207 258
70.40218 225
70.42229 237
70.44241 256
70.46252 217
70.48263 229
70.50275 255
70.52286 233
70.54297 217
70.56309 216
70.5832 242
70.60332 239
70.62343 240
70.64354 235
70.66366 238
70.68377 226
70.70388 252
70.724 264
70.74411 266
70.76423 209
70.78434 248
70.80445 224
70.82457 246
70.84468 240
70.86479 236
70.88491 257
70.90502 260
70.92513 232
70.94525 267
70.96536 283
70.98548 247
71.00559 276
71.0257 249
71.04582 246
71.06593 248
71.08604 241
71.10616 243
71.12627 283
71.14639 265
71.1665 256
71.18661 265
71.20673 285
71.22684 268
71.24695 272
71.26707 287
71.28718 271
71.3073 261
71.32741 261
71.34752 293
71.36764 252
71.38775 276
71.40786 263
71.42798 246
71.44809 235
71.4682 213
71.48832 266
71.50843 229
71.52855 269
71.54866 277
71.56877 244
71.58889 242
71.609 230
71.62911 241
71.64923 252
71.66934 258
71.68946 216
71.70957 223
71.72968 242
71.7498 232
71.76991 239
71.79002 250
71.81014 219
71.83025 243
71.85037 223
71.87048 247
71.89059 227
71.91071 242
71.93082 222
71.95093 268
71.97105 236
71.99116 232
72.01127 238
72.03139 237
72.0515 234
72.07162 238
72.09173 236
72.11184 245
72.13196 228
72.15207 245
72.17218 235
72.1923 231
72.21241 231
72.23253 287
72.25264 242
72.27275 255
72.29287 237
72.31298 222
72.33309 262
72.35321 252
72.37332 235
72.39344 232
72.41355 228
72.43366 207
72.45378 237
72.47389 229
72.494 246
72.51412 261
72.53423 253
72.55434 245
72.57446 276
72.59457 230
72.61469 262
72.6348 222
72.65491 262
72.67503 269
72.69514 270
72.71525 257
72.73537 250
72.75548 259
72.7756 238
72.79571 258
72.81582 238
72.83594 251
72.85605 251
72.87616 245
72.89628 266
72.91639 273
72.9365 270
72.95662 244
72.97673 272
72.99685 268
73.01696 264
73.03707 269
73.05719 251
73.0773 254
73.09741 250
73.11753 260
73.13764 301
73.15776 285
73.17787 289
73.19798 294
73.2181 302
73.23821 297
73.25832 347
73.27844 306
73.29855 336
73.31867 334
73.33878 368
73.35889 386
73.37901 361
73.39912 409
73.41923 398
73.43935 389
73.45946 344
73.47957 358
73.49969 317
73.5198 291
73.53992 309
73.56003 303
73.58014 293
73.60026 289
73.62037 319
73.64048 312
73.6606 305
73.68071 287
73.70083 263
73.72094 251
73.74105 241
73.76117 229
73.78128 240
73.80139 261
73.82151 253
73.84162 250
73.86174 233
73.88185 222
73.90196 241
73.92208 268
73.94219 229
73.9623 224
73.98242 241
74.00253 227
74.02264 217
74.04276 225
74.06287 253
74.08299 243
74.1031 234
74.12321 202
74.14333 219
74.16344 211
74.18355 251
74.20367 222
74.22378 213
74.2439 255
74.26401 244
74.28412 243
74.30424 234
74.32435 218
74.34446 236
74.36458 240
74.38469 219
74.40481 244
74.42492 200
74.44503 227
74.46515 234
74.48526 248
74.50537 247
74.52549 237
74.5456 265
74.56571 238
74.58583 211
74.60594 234
74.62606 247
74.64617 231
74.66628 213
74.6864 239
74.70651 238
74.72662 221
74.74674 241
74.76685 214
74.78697 227
74.80708 263
74.82719 259
74.84731 219
74.86742 247
74.88753 210
74.90765 221
74.92776 208
74.94787 216
74.96799 234
74.9881 235
75.00822 224
