3.00117 19778
3.02128 18967
3.0414 18974
3.06151 18088
3.08162 18067
3.10174 17058
3.12185 16651
3.14197 16005
3.16208 15847
3.18219 15372
3.20231 14838
3.22242 14410
3.24253 14327
3.26265 13706
3.28276 13313
3.30288 12759
3.32299 12388
3.3431 12080
3.36322 11474
3.38333 11156
3.40344 10638
3.42356 10291
3.44367 10282
3.46379 9603
3.4839 9544
3.50401 9016
3.52413 8720
3.54424 8497
3.56435 7953
3.58447 7882
3.60458 7422
3.62469 7111
3.64481 7099
3.66492 6736
3.68504 6578
3.70515 6123
3.72526 5900
3.74538 5691
3.76549 5387
3.7856 5443
3.80572 4905
3.82583 4620
3.84595 4702
3.86606 4299
3.88617 4232
3.90629 3854
3.9264 3727
3.94651 3644
3.96663 3450
3.98674 3422
4.00686 3109
4.02697 2984
4.04708 2886
4.0672 2781
4.08731 2704
4.10742 2544
4.12754 2479
4.14765 2343
4.16776 2194
4.18788 2125
4.20799 2044
4.22811 1985
4.24822 1938
4.26833 1848
4.28845 1780
4.30856 1661
4.32867 1539
4.34879 1579
4.3689 1526
4.38902 1517
4.40913 1429
4.42924 1367
4.44936 1411
4.46947 1354
4.48958 1308
4.5097 1168
4.52981 1196
4.54992 1225
4.57004 1155
4.59015 1212
4.61027 973
4.63038 1072
4.65049 1102
4.67061 1097
4.69072 1000
4.71083 919
4.73095 941
4.75106 968
4.77118 955
4.79129 918
4.8114 899
4.83152 861
4.85163 824
4.87174 847
4.89186 794
4.91197 781
4.93209 739
4.9522 722
4.97231 724
4.99243 650
5.01254 726
5.03265 563
5.05277 642
5.07288 675
5.09299 570
5.11311 610
5.13322 532
5.15334 561
5.17345 571
5.19356 538
5.21368 511
5.23379 486
5.2539 537
5.27402 508
5.29413 421
5.31425 511
5.33436 503
5.35447 436
5.37459 421
5.3947 404
5.41481 428
5.43493 410
5.45504 398
5.47516 441
5.49527 352
5.51538 352
5.5355 356
5.55561 337
5.57572 364
5.59584 323
5.61595 355
5.63606 343
5.65618 264
5.67629 320
5.69641 297
5.71652 280
5.73663 307
5.75675 305
5.77686 261
5.79697 276
5.81709 303
5.8372 241
5.85732 318
5.87743 243
5.89754 266
5.91766 255
5.93777 254
5.95788 230
5.978 278
5.99811 211
6.01823 243
6.03834 245
6.05845 235
6.07857 273
6.09868 223
6.11879 247
6.13891 201
6.15902 209
6.17913 195
6.19925 224
6.21936 205
6.23948 245
6.25959 224
6.2797 217
6.29982 212
6.31993 174
6.34004 227
6.36016 190
6.38027 227
6.40039 200
6.4205 201
6.44061 185
6.46073 200
6.48084 224
6.50095 197
6.52107 190
6.54118 209
6.56129 193
6.58141 210
6.60152 187
6.62164 200
6.64175 212
6.66186 216
6.68198 186
6.70209 179
6.7222 198
6.74232 197
6.76243 208
6.78255 210
6.80266 181
6.82277 196
6.84289 171
6.863 187
6.88311 183
6.90323 201
6.92334 199
6.94346 202
6.96357 187
6.98368 184
7.0038 223
7.02391 165
7.04402 174
7.06414 208
7.08425 188
7.10436 175
7.12448 203
7.14459 187
7.16471 206
7.18482 205
7.20493 204
7.22505 222
7.24516 182
7.26527 168
7.28539 192
7.3055 192
7.32562 217
7.34573 200
7.36584 195
7.38596 217
7.40607 202
7.42618 209
7.4463 202
7.46641 187
7.48653 212
7.50664 193
7.52675 197
7.54687 222
7.56698 199
7.58709 203
7.60721 216
7.62732 209
7.64743 184
7.66755 208
7.68766 180
7.70778 194
7.72789 209
7.748 190
7.76812 209
7.78823 198
7.80834 177
7.82846 224
7.84857 212
7.86869 195
7.8888 196
7.90891 193
7.92903 192
7.94914 207
7.96925 203
7.98937 205
8.00948 210
8.0296 232
8.04971 221
8.06982 216
8.08994 203
8.11005 203
8.13016 176
8.15028 223
8.17039 187
8.1905 237
8.21062 214
8.23073 249
8.25085 192
8.27096 232
8.29107 240
8.31119 208
8.3313 208
8.35141 225
8.37153 225
8.39164 212
8.41176 228
8.43187 190
8.45198 240
8.4721 242
8.49221 223
8.51232 247
8.53244 214
8.55255 251
8.57266 224
8.59278 264
8.61289 247
8.63301 233
8.65312 232
8.67323 233
8.69335 239
8.71346 264
8.73357 251
8.75369 255
8.7738 245
8.79392 250
8.81403 292
8.83414 270
8.85426 287
8.87437 274
8.89448 275
8.9146 249
8.93471 249
8.95483 239
8.97494 238
8.99505 246
9.01517 241
9.03528 203
9.05539 240
9.07551 253
9.09562 240
9.11573 232
9.13585 231
9.15596 222
9.17608 215
9.19619 227
9.2163 221
9.23642 228
9.25653 223
9.27664 231
9.29676 225
9.31687 216
9.33699 211
9.3571 234
9.37721 214
9.39733 210
9.41744 242
9.43755 205
9.45767 216
9.47778 225
9.4979 217
9.51801 209
9.53812 204
9.55824 215
9.57835 203
9.59846 236
9.61858 230
9.63869 178
9.6588 200
9.67892 247
9.69903 224
9.71915 194
9.73926 203
9.75937 191
9.77949 245
9.7996 230
9.81971 220
9.83983 203
9.85994 232
9.88006 208
9.90017 217
9.92028 199
9.9404 219
9.96051 203
9.98062 227
10.00074 217
10.02085 204
10.04097 211
10.06108 208
10.08119 225
10.10131 218
10.12142 213
10.14153 210
10.16165 205
10.18176 229
10.20187 209
10.22199 223
10.2421 212
10.26222 231
10.28233 208
10.30244 193
10.32256 238
10.34267 198
10.36278 199
10.3829 232
10.40301 242
10.42313 206
10.44324 231
10.46335 242
10.48347 227
10.50358 236
10.52369 231
10.54381 221
10.56392 209
10.58403 241
10.60415 213
10.62426 230
10.64438 204
10.66449 222
10.6846 191
10.70472 216
10.72483 219
10.74494 192
10.76506 248
10.78517 219
10.80529 220
10.8254 214
10.84551 198
10.86563 206
10.88574 204
10.90585 206
10.92597 233
10.94608 238
10.9662 211
10.98631 223
11.00642 196
11.02654 221
11.04665 238
11.06676 228
11.08688 210
11.10699 204
11.1271 224
11.14722 200
11.16733 213
11.18745 216
11.20756 200
11.22767 226
11.24779 234
11.2679 207
11.28801 209
11.30813 228
11.32824 212
11.34836 224
11.36847 230
11.38858 214
11.4087 196
11.42881 192
11.44892 191
11.46904 220
11.48915 225
11.50927 223
11.52938 239
11.54949 255
11.56961 213
11.58972 221
11.60983 210
11.62995 231
11.65006 244
11.67017 262
11.69029 253
11.7104 229
11.73052 249
11.75063 218
11.77074 205
11.79086 234
11.81097 249
11.83108 224
11.8512 213
11.87131 201
11.89143 220
11.91154 271
11.93165 248
11.95177 244
11.97188 242
11.99199 224
12.01211 244
12.03222 244
12.05234 255
12.07245 256
12.09256 271
12.11268 262
12.13279 247
12.1529 293
12.17302 247
12.19313 268
12.21324 255
12.23336 256
12.25347 276
12.27359 257
12.2937 268
12.31381 239
12.33393 283
12.35404 294
12.37415 242
12.39427 294
12.41438 255
12.4345 269
12.45461 277
12.47472 243
12.49484 225
12.51495 257
12.53506 208
12.55518 243
12.57529 201
12.5954 218
12.61552 221
12.63563 216
12.65575 230
12.67586 225
12.69597 216
12.71609 210
12.7362 212
12.75631 210
12.77643 212
12.79654 224
12.81666 209
12.83677 209
12.85688 203
12.877 182
12.89711 218
12.91722 206
12.93734 192
12.95745 220
12.97757 212
12.99768 219
13.01779 216
13.03791 224
13.05802 236
13.07813 262
13.09825 248
13.11836 279
13.13847 289
13.15859 254
13.1787 240
13.19882 247
13.21893 242
13.23904 245
13.25916 240
13.27927 263
13.29938 223
13.3195 189
13.33961 200
13.35973 229
13.37984 199
13.39995 190
13.42007 230
13.44018 207
13.46029 210
13.48041 211
13.50052 229
13.52064 242
13.54075 267
13.56086 282
13.58098 301
13.60109 342
13.6212 388
13.64132 464
13.66143 379
13.68154 360
13.70166 287
13.72177 290
13.74189 235
13.762 210
13.78211 230
13.80223 281
13.82234 228
13.84245 281
13.86257 287
13.88268 284
13.9028 270
13.92291 289
13.94302 219
13.96314 238
13.98325 201
14.00336 194
14.02348 204
14.04359 201
14.06371 202
14.08382 205
14.10393 185
14.12405 204
14.14416 167
14.16427 176
14.18439 199
14.2045 181
14.22461 182
14.24473 164
14.26484 180
14.28496 205
14.30507 146
14.32518 186
14.3453 185
14.36541 181
14.38552 205
14.40564 184
14.42575 175
14.44587 166
14.46598 187
14.48609 160
14.50621 179
14.52632 204
14.54643 187
14.56655 182
14.58666 187
14.60677 182
14.62689 184
14.647 190
14.66712 180
14.68723 190
14.70734 199
14.72746 170
14.74757 182
14.76768 156
14.7878 190
14.80791 202
14.82803 219
14.84814 230
14.86825 243
14.88837 229
14.90848 281
14.92859 312
14.94871 256
14.96882 309
14.98894 262
15.00905 282
15.02916 307
15.04928 308
15.06939 249
15.0895 247
15.10962 203
15.12973 260
15.14984 233
15.16996 253
15.19007 228
15.21019 225
15.2303 223
15.25041 211
15.27053 181
15.29064 191
15.31075 195
15.33087 170
15.35098 193
15.3711 193
15.39121 188
15.41132 212
15.43144 185
15.45155 183
15.47166 184
15.49178 199
15.51189 163
15.53201 170
15.55212 164
15.57223 153
15.59235 163
15.61246 153
15.63257 202
15.65269 146
15.6728 174
15.69291 182
15.71303 161
15.73314 179
15.75326 196
15.77337 161
15.79348 172
15.8136 192
15.83371 179
15.85382 170
15.87394 188
15.89405 173
15.91417 160
15.93428 156
15.95439 177
15.97451 166
15.99462 162
16.01473 188
16.03485 160
16.05496 169
16.07508 164
16.09519 165
16.1153 159
16.13542 174
16.15553 177
16.17564 157
16.19576 164
16.21587 164
16.23598 158
16.2561 153
16.27621 175
16.29633 161
16.31644 148
16.33655 152
16.35667 155
16.37678 147
16.39689 198
16.41701 147
16.43712 143
16.45724 143
16.47735 157
16.49746 165
16.51758 161
16.53769 152
16.5578 175
16.57792 172
16.59803 172
16.61814 176
16.63826 175
16.65837 154
16.67849 190
16.6986 170
16.71871 165
16.73883 181
16.75894 160
16.77905 163
16.79917 148
16.81928 174
16.8394 183
16.85951 161
16.87962 178
16.89974 165
16.91985 164
16.93996 144
16.96008 167
16.98019 153
17.00031 176
17.02042 168
17.04053 160
17.06065 161
17.08076 164
17.10087 148
17.12099 176
17.1411 140
17.16121 154
17.18133 162
17.20144 178
17.22156 154
17.24167 144
17.26178 169
17.2819 172
17.30201 156
17.32212 162
17.34224 165
17.36235 163
17.38247 154
17.40258 154
17.42269 207
17.44281 168
17.46292 173
17.48303 145
17.50315 194
17.52326 138
17.54338 167
17.56349 177
17.5836 179
17.60372 201
17.62383 176
17.64394 168
17.66406 169
17.68417 169
17.70428 174
17.7244 209
17.74451 198
17.76463 175
17.78474 183
17.80485 187
17.82497 186
17.84508 162
17.86519 154
17.88531 167
17.90542 184
17.92554 154
17.94565 156
17.96576 176
17.98588 166
18.00599 140
18.0261 191
18.04622 177
18.06633 163
18.08645 168
18.10656 141
18.12667 170
18.14679 148
18.1669 153
18.18701 176
18.20713 177
18.22724 144
18.24735 186
18.26747 160
18.28758 147
18.3077 205
18.32781 159
18.34792 170
18.36804 159
18.38815 186
18.40826 155
18.42838 149
18.44849 146
18.46861 174
18.48872 157
18.50883 184
18.52895 150
18.54906 169
18.56917 164
18.58929 162
18.6094 184
18.62951 191
18.64963 150
18.66974 182
18.68986 161
18.70997 194
18.73008 161
18.7502 196
18.77031 205
18.79042 203
18.81054 189
18.83065 187
18.85077 171
18.87088 184
18.89099 201
18.91111 165
18.93122 169
18.95133 205
18.97145 183
18.99156 161
19.01168 158
19.03179 159
19.0519 155
19.07202 190
19.09213 163
19.11224 165
19.13236 173
19.15247 206
19.17258 183
19.1927 197
19.21281 213
19.23293 234
19.25304 207
19.27315 228
19.29327 241
19.31338 251
19.33349 230
19.35361 248
19.37372 203
19.39384 202
19.41395 229
19.43406 192
19.45418 163
19.47429 183
19.4944 198
19.51452 176
19.53463 180
19.55475 210
19.57486 206
19.59497 175
19.61509 198
19.6352 218
19.65531 200
19.67543 222
19.69554 208
19.71565 248
19.73577 251
19.75588 260
19.776 298
19.79611 257
19.81622 270
19.83634 281
19.85645 265
19.87656 307
19.89668 315
19.91679 300
19.93691 304
19.95702 290
19.97713 270
19.99725 277
20.01736 288
20.03747 260
20.05759 285
20.0777 300
20.09782 278
20.11793 305
20.13804 279
20.15816 292
20.17827 272
20.19838 299
20.2185 281
20.23861 288
20.25872 302
20.27884 287
20.29895 292
20.31907 283
20.33918 310
20.35929 287
20.37941 344
20.39952 328
20.41963 304
20.43975 314
20.45986 302
20.47998 350
20.50009 307
20.5202 336
20.54032 319
20.56043 349
20.58054 357
20.60066 338
20.62077 389
20.64088 452
20.661 473
20.68111 597
20.70123 743
20.72134 926
20.74145 1255
20.76157 1696
20.78168 2425
20.80179 3174
20.82191 4055
20.84202 4598
20.86214 4454
20.88225 3827
20.90236 3150
20.92248 2432
20.94259 1810
20.9627 1585
20.98282 1653
21.00293 1632
21.02305 1565
21.04316 1316
21.06327 1136
21.08339 855
21.1035 609
21.12361 538
21.14373 442
21.16384 382
21.18395 365
21.20407 321
21.22418 325
21.2443 331
21.26441 327
21.28452 319
21.30464 341
21.32475 268
21.34486 285
21.36498 275
21.38509 292
21.40521 239
21.42532 273
21.44543 271
21.46555 254
21.48566 256
21.50577 276
21.52589 246
21.546 252
21.56612 280
21.58623 231
21.60634 249
21.62646 247
21.64657 278
21.66668 262
21.6868 246
21.70691 248
21.72702 269
21.74714 257
21.76725 250
21.78737 276
21.80748 275
21.82759 269
21.84771 289
21.86782 310
21.88793 318
21.90805 369
21.92816 420
21.94828 484
21.96839 527
21.9885 628
22.00862 641
22.02873 662
22.04884 548
22.06896 422
22.08907 382
22.10919 304
22.1293 289
22.14941 238
22.16953 298
22.18964 297
22.20975 315
22.22987 362
22.24998 357
22.27009 388
22.29021 395
22.31032 435
22.33044 418
22.35055 439
22.37066 436
22.39078 374
22.41089 418
22.431 345
22.45112 401
22.47123 374
22.49135 361
22.51146 386
22.53157 347
22.55169 354
22.5718 393
22.59191 367
22.61203 351
22.63214 360
22.65225 351
22.67237 301
22.69248 289
22.7126 268
22.73271 266
22.75282 263
22.77294 282
22.79305 252
22.81316 273
22.83328 280
22.85339 259
22.87351 283
22.89362 297
22.91373 315
22.93385 315
22.95396 343
22.97407 381
22.99419 410
23.0143 455
23.03442 459
23.05453 440
23.07464 455
23.09476 467
23.11487 461
23.13498 540
23.1551 507
23.17521 597
23.19532 584
23.21544 606
23.23555 675
23.25567 568
23.27578 542
23.29589 562
23.31601 559
23.33612 538
23.35623 551
23.37635 523
23.39646 477
23.41658 489
23.43669 537
23.4568 520
23.47692 473
23.49703 555
23.51714 556
23.53726 579
23.55737 642
23.57749 622
23.5976 610
23.61771 588
23.63783 538
23.65794 515
23.67805 479
23.69817 485
23.71828 469
23.73839 448
23.75851 461
23.77862 460
23.79874 547
23.81885 545
23.83896 502
23.85908 532
23.87919 560
23.8993 570
23.91942 578
23.93953 651
23.95965 611
23.97976 641
23.99987 698
24.01999 637
24.0401 605
24.06021 564
24.08033 503
24.10044 421
24.12056 395
24.14067 409
24.16078 415
24.1809 456
24.20101 451
24.22112 486
24.24124 471
24.26135 463
24.28146 515
24.30158 537
24.32169 512
24.34181 462
24.36192 466
24.38203 458
24.40215 408
24.42226 389
24.44237 364
24.46249 340
24.4826 321
24.50272 363
24.52283 385
24.54294 341
24.56306 338
24.58317 340
24.60328 331
24.6234 373
24.64351 392
24.66362 430
24.68374 415
24.70385 416
24.72397 419
24.74408 396
24.76419 386
24.78431 387
24.80442 365
24.82453 414
24.84465 435
24.86476 373
24.88488 386
24.90499 373
24.9251 382
24.94522 358
24.96533 353
24.98544 339
25.00556 333
25.02567 351
25.04579 286
25.0659 316
25.08601 274
25.10613 303
25.12624 304
25.14635 285
25.16647 281
25.18658 264
25.20669 286
25.22681 332
25.24692 319
25.26704 312
25.28715 336
25.30726 331
25.32738 333
25.34749 341
25.3676 377
25.38772 393
25.40783 487
25.42795 499
25.44806 553
25.46817 698
25.48829 804
25.5084 860
25.52851 1048
25.54863 1052
25.56874 1127
25.58886 1079
25.60897 1194
25.62908 1004
25.6492 1028
25.66931 916
25.68942 846
25.70954 703
25.72965 631
25.74976 537
25.76988 435
25.78999 419
25.81011 366
25.83022 410
25.85033 406
25.87045 368
25.89056 354
25.91067 350
25.93079 381
25.9509 367
25.97102 402
25.99113 413
26.01124 409
26.03136 408
26.05147 423
26.07158 448
26.0917 386
26.11181 444
26.13193 469
26.15204 511
26.17215 514
26.19227 589
26.21238 627
26.23249 660
26.25261 685
26.27272 734
26.29283 842
26.31295 983
26.33306 1081
26.35318 1240
26.37329 1381
26.3934 1684
26.41352 1878
26.43363 2185
26.45374 2605
26.47386 3339
26.49397 4328
26.51409 5676
26.5342 7836
26.55431 10587
26.57443 14036
26.59454 17593
26.61465 19974
26.63477 19854
26.65488 16874
26.67499 13171
26.69511 10051
26.71522 7428
26.73534 4542
26.75545 2438
26.77556 1806
26.79568 1456
26.81579 1305
26.8359 1238
26.85602 1176
26.87613 1099
26.89625 1142
26.91636 1184
26.93647 1110
26.95659 1299
26.9767 1341
26.99681 1531
27.01693 1695
27.03704 1821
27.05716 1840
27.07727 1663
27.09738 1491
27.1175 1360
27.13761 1154
27.15772 1052
27.17784 890
27.19795 866
27.21806 817
27.23818 797
27.25829 928
27.27841 1001
27.29852 1003
27.31863 1140
27.33875 1270
27.35886 1498
27.37897 1742
27.39909 2058
27.4192 2301
27.43932 2571
27.45943 2646
27.47954 2593
27.49966 2435
27.51977 2013
27.53988 1633
27.56 1300
27.58011 1051
27.60023 851
27.62034 643
27.64045 623
27.66057 655
27.68068 680
27.70079 669
27.72091 767
27.74102 853
27.76113 761
27.78125 789
27.80136 764
27.82148 821
27.84159 879
27.8617 987
27.88182 1053
27.90193 1039
27.92204 1140
27.94216 1200
27.96227 1091
27.98239 950
28.0025 870
28.02261 742
28.04273 610
28.06284 524
28.08295 450
28.10307 433
28.12318 441
28.1433 428
28.16341 469
28.18352 481
28.20364 447
28.22375 436
28.24386 416
28.26398 403
28.28409 376
28.3042 351
28.32432 341
28.34443 313
28.36455 294
28.38466 285
28.40477 312
28.42489 286
28.445 301
28.46511 260
28.48523 238
28.50534 253
28.52546 239
28.54557 245
28.56568 285
28.5858 223
28.60591 237
28.62602 233
28.64614 255
28.66625 233
28.68636 260
28.70648 233
28.72659 240
28.74671 216
28.76682 250
28.78693 263
28.80705 243
28.82716 221
28.84727 242
28.86739 247
28.8875 238
28.90762 221
28.92773 210
28.94784 224
28.96796 244
28.98807 243
29.00818 268
29.0283 245
29.04841 229
29.06853 244
29.08864 239
29.10875 237
29.12887 241
29.14898 223
29.16909 252
29.18921 241
29.20932 256
29.22943 270
29.24955 269
29.26966 223
29.28978 277
29.30989 308
29.33 320
29.35012 338
29.37023 396
29.39034 447
29.41046 471
29.43057 454
29.45069 512
29.4708 447
29.49091 480
29.51103 482
29.53114 530
29.55125 497
29.57137 460
29.59148 447
29.6116 450
29.63171 463
29.65182 412
29.67194 406
29.69205 434
29.71216 454
29.73228 395
29.75239 410
29.7725 409
29.79262 429
29.81273 432
29.83285 434
29.85296 502
29.87307 464
29.89319 486
29.9133 475
29.93341 479
29.95353 507
29.97364 456
29.99376 564
30.01387 513
30.03398 511
30.0541 556
30.07421 557
30.09432 537
30.11444 559
30.13455 588
30.15467 627
30.17478 558
30.19489 542
30.21501 588
30.23512 521
30.25523 492
30.27535 502
30.29546 468
30.31557 413
30.33569 406
30.3558 398
30.37592 448
30.39603 448
30.41614 433
30.43626 432
30.45637 396
30.47648 381
30.4966 348
30.51671 343
30.53683 325
30.55694 352
30.57705 336
30.59717 325
30.61728 382
30.63739 448
30.65751 487
30.67762 518
30.69773 530
30.71785 618
30.73796 670
30.75808 709
30.77819 728
30.7983 701
30.81842 681
30.83853 614
30.85864 583
30.87876 553
30.89887 471
30.91899 413
30.9391 392
30.95921 294
30.97933 301
30.99944 289
31.01955 237
31.03967 269
31.05978 229
31.0799 226
31.10001 212
31.12012 233
31.14024 219
31.16035 216
31.18046 240
31.20058 227
31.22069 263
31.2408 250
31.26092 273
31.28103 257
31.30115 275
31.32126 274
31.34137 269
31.36149 244
31.3816 253
31.40171 230
31.42183 210
31.44194 209
31.46206 197
31.48217 226
31.50228 223
31.5224 211
31.54251 206
31.56262 221
31.58274 199
31.60285 198
31.62297 203
31.64308 215
31.66319 196
31.68331 206
31.70342 189
31.72353 207
31.74365 200
31.76376 209
31.78387 187
31.80399 194
31.8241 198
31.84422 216
31.86433 177
31.88444 214
31.90456 213
31.92467 205
31.94478 216
31.9649 222
31.98501 203
32.00513 234
32.02524 229
32.04535 229
32.06547 281
32.08558 291
32.10569 269
32.12581 294
32.14592 328
32.16604 308
32.18615 323
32.20626 342
32.22638 332
32.24649 363
32.2666 339
32.28672 333
32.30683 339
32.32694 353
32.34706 372
32.36717 370
32.38729 366
32.4074 360
32.42751 369
32.44763 375
32.46774 337
32.48785 303
32.50797 264
32.52808 268
32.5482 242
32.56831 227
32.58842 206
32.60854 179
32.62865 197
32.64876 190
32.66888 164
32.68899 176
32.7091 159
32.72922 194
32.74933 182
32.76945 177
32.78956 185
32.80967 176
32.82979 176
32.8499 173
32.87001 183
32.89013 194
32.91024 207
32.93036 170
32.95047 219
32.97058 180
32.9907 176
33.01081 178
33.03092 183
33.05104 162
33.07115 165
33.09127 173
33.11138 176
33.13149 180
33.15161 157
33.17172 199
33.19183 158
33.21195 144
33.23206 168
33.25217 167
33.27229 158
33.2924 173
33.31252 201
33.33263 153
33.35274 203
33.37286 152
33.39297 185
33.41308 174
33.4332 194
33.45331 171
33.47343 153
33.49354 195
33.51365 147
33.53377 158
33.55388 136
33.57399 174
33.59411 172
33.61422 182
33.63434 196
33.65445 185
33.67456 189
33.69468 194
33.71479 190
33.7349 193
33.75502 207
33.77513 192
33.79524 200
33.81536 207
33.83547 194
33.85559 191
33.8757 261
33.89581 214
33.91593 202
33.93604 229
33.95615 239
33.97627 229
33.99638 202
34.0165 241
34.03661 225
34.05672 265
34.07684 273
34.09695 310
34.11706 338
34.13718 376
34.15729 388
34.17741 396
34.19752 412
34.21763 408
34.23775 446
34.25786 422
34.27797 429
34.29809 390
34.3182 414
34.33831 401
34.35843 385
34.37854 388
34.39866 384
34.41877 360
34.43888 374
34.459 382
34.47911 402
34.49922 349
34.51934 378
34.53945 403
34.55957 362
34.57968 374
34.59979 371
34.61991 370
34.64002 367
34.66013 384
34.68025 338
34.70036 335
34.72047 346
34.74059 336
34.7607 343
34.78082 317
34.80093 379
34.82104 360
34.84116 362
34.86127 371
34.88138 409
34.9015 384
34.92161 416
34.94173 360
34.96184 418
34.98195 423
35.00207 399
35.02218 427
35.04229 463
35.06241 426
35.08252 423
35.10264 455
35.12275 438
35.14286 448
35.16298 409
35.18309 450
35.2032 399
35.22332 411
35.24343 371
35.26354 409
35.28366 388
35.30377 395
35.32389 398
35.344 362
35.36411 410
35.38423 395
35.40434 383
35.42445 391
35.44457 392
35.46468 383
35.4848 404
35.50491 418
35.52502 382
35.54514 370
35.56525 388
35.58536 379
35.60548 331
35.62559 355
35.64571 365
35.66582 325
35.68593 314
35.70605 288
35.72616 315
35.74627 300
35.76639 321
35.7865 284
35.80661 259
35.82673 277
35.84684 263
35.86696 264
35.88707 284
35.90718 283
35.9273 267
35.94741 240
35.96752 249
35.98764 222
36.00775 212
36.02787 200
36.04798 232
36.06809 235
36.08821 244
36.10832 228
36.12843 240
36.14855 233
36.16866 219
36.18878 225
36.20889 240
36.229 290
36.24912 263
36.26923 242
36.28934 323
36.30946 330
36.32957 330
36.34968 387
36.3698 442
36.38991 578
36.41003 591
36.43014 731
36.45025 923
36.47037 1175
36.49048 1382
36.51059 1514
36.53071 1483
36.55082 1281
36.57094 1107
36.59105 913
36.61116 830
36.63128 781
36.65139 577
36.6715 444
36.69162 335
36.71173 329
36.73184 279
36.75196 268
36.77207 304
36.79219 270
36.8123 293
36.83241 263
36.85253 276
36.87264 308
36.89275 334
36.91287 334
36.93298 366
36.9531 353
36.97321 368
36.99332 363
37.01344 338
37.03355 344
37.05366 317
37.07378 302
37.09389 319
37.11401 309
37.13412 293
37.15423 263
37.17435 258
37.19446 260
37.21457 263
37.23469 275
37.2548 248
37.27491 240
37.29503 270
37.31514 273
37.33526 245
37.35537 245
37.37548 293
37.3956 241
37.41571 230
37.43582 265
37.45594 247
37.47605 259
37.49617 256
37.51628 262
37.53639 268
37.55651 278
37.57662 263
37.59673 258
37.61685 232
37.63696 258
37.65708 243
37.67719 258
37.6973 231
37.71742 228
37.73753 226
37.75764 232
37.77776 187
37.79787 208
37.81798 191
37.8381 181
37.85821 207
37.87833 225
37.89844 195
37.91855 176
37.93867 204
37.95878 187
37.97889 200
37.99901 226
38.01912 196
38.03924 195
38.05935 198
38.07946 217
38.09958 212
38.11969 196
38.1398 238
38.15992 188
38.18003 232
38.20015 242
38.22026 217
38.24037 219
38.26049 220
38.2806 218
38.30071 248
38.32083 228
38.34094 235
38.36105 222
38.38117 227
38.40128 266
38.4214 241
38.44151 251
38.46162 268
38.48174 261
38.50185 276
38.52196 314
38.54208 338
38.56219 327
38.58231 331
38.60242 352
38.62253 329
38.64265 305
38.66276 304
38.68287 242
38.70299 254
38.7231 245
38.74321 231
38.76333 224
38.78344 217
38.80356 218
38.82367 209
38.84378 198
38.8639 219
38.88401 218
38.90412 208
38.92424 207
38.94435 240
38.96447 212
38.98458 225
39.00469 222
39.02481 234
39.04492 234
39.06503 257
39.08515 219
39.10526 233
39.12538 245
39.14549 210
39.1656 225
39.18572 273
39.20583 301
39.22594 313
39.24606 352
39.26617 326
39.28628 386
39.3064 450
39.32651 522
39.34663 613
39.36674 837
39.38685 951
39.40697 1092
39.42708 1296
39.44719 1343
39.46731 1189
39.48742 980
39.50754 785
39.52765 770
39.54776 730
39.56788 660
39.58799 515
39.6081 328
39.62822 286
39.64833 257
39.66845 242
39.68856 249
39.70867 233
39.72879 239
39.7489 186
39.76901 206
39.78913 194
39.80924 193
39.82935 215
39.84947 188
39.86958 211
39.8897 188
39.90981 222
39.92992 208
39.95004 189
39.97015 213
39.99026 214
40.01038 204
40.03049 204
40.05061 240
40.07072 263
40.09083 274
40.11095 292
40.13106 330
40.15117 371
40.17129 403
40.1914 541
40.21152 605
40.23163 685
40.25174 747
40.27186 744
40.29197 674
40.31208 582
40.3322 540
40.35231 498
40.37242 462
40.39254 422
40.41265 333
40.43277 286
40.45288 250
40.47299 219
40.49311 206
40.51322 214
40.53333 201
40.55345 219
40.57356 214
40.59368 181
40.61379 206
40.6339 196
40.65402 201
40.67413 163
40.69424 190
40.71436 159
40.73447 146
40.75458 206
40.7747 184
40.79481 212
40.81493 204
40.83504 184
40.85515 218
40.87527 193
40.89538 198
40.91549 169
40.93561 191
40.95572 180
40.97584 199
40.99595 187
41.01606 209
41.03618 198
41.05629 202
41.0764 200
41.09652 187
41.11663 204
41.13675 219
41.15686 226
41.17697 215
41.19709 214
41.2172 206
41.23731 208
41.25743 206
41.27754 210
41.29765 182
41.31777 222
41.33788 188
41.358 221
41.37811 191
41.39822 237
41.41834 222
41.43845 192
41.45856 196
41.47868 211
41.49879 231
41.51891 226
41.53902 238
41.55913 242
41.57925 259
41.59936 304
41.61947 330
41.63959 338
41.6597 372
41.67982 419
41.69993 491
41.72004 590
41.74016 599
41.76027 567
41.78038 579
41.8005 549
41.82061 523
41.84072 488
41.86084 443
41.88095 415
41.90107 352
41.92118 387
41.94129 264
41.96141 279
41.98152 238
42.00163 241
42.02175 244
42.04186 237
42.06198 255
42.08209 234
42.1022 219
42.12232 253
42.14243 240
42.16254 244
42.18266 269
42.20277 294
42.22289 316
42.243 313
42.26311 353
42.28323 401
42.30334 440
42.32345 591
42.34357 665
42.36368 762
42.38379 880
42.40391 1010
42.42402 1019
42.44414 942
42.46425 809
42.48436 654
42.50448 632
42.52459 639
42.5447 589
42.56482 477
42.58493 404
42.60505 379
42.62516 306
42.64527 294
42.66539 289
42.6855 295
42.70561 325
42.72573 282
42.74584 265
42.76595 312
42.78607 259
42.80618 295
42.8263 259
42.84641 297
42.86652 244
42.88664 237
42.90675 227
42.92686 235
42.94698 207
42.96709 198
42.98721 221
43.00732 196
43.02743 207
43.04755 184
43.06766 174
43.08777 206
43.10789 196
43.128 207
43.14812 205
43.16823 200
43.18834 232
43.20846 202
43.22857 188
43.24868 175
43.2688 193
43.28891 166
43.30902 209
43.32914 195
43.34925 211
43.36937 165
43.38948 176
43.40959 163
43.42971 210
43.44982 178
43.46993 209
43.49005 220
43.51016 199
43.53028 220
43.55039 236
43.5705 212
43.59062 197
43.61073 209
43.63084 203
43.65096 197
43.67107 211
43.69119 205
43.7113 215
43.73141 156
43.75153 170
43.77164 180
43.79175 174
43.81187 170
43.83198 178
43.85209 166
43.87221 163
43.89232 194
43.91244 199
43.93255 186
43.95266 181
43.97278 201
43.99289 195
44.013 188
44.03312 202
44.05323 225
44.07335 213
44.09346 213
44.11357 214
44.13369 222
44.1538 206
44.17391 227
44.19403 218
44.21414 215
44.23426 225
44.25437 189
44.27448 209
44.2946 213
44.31471 185
44.33482 176
44.35494 179
44.37505 167
44.39516 174
44.41528 178
44.43539 160
44.45551 181
44.47562 161
44.49573 201
44.51585 190
44.53596 198
44.55607 212
44.57619 211
44.5963 193
44.61642 186
44.63653 185
44.65664 217
44.67676 202
44.69687 207
44.71698 191
44.7371 193
44.75721 194
44.77732 181
44.79744 206
44.81755 203
44.83767 196
44.85778 210
44.87789 212
44.89801 198
44.91812 189
44.93823 226
44.95835 189
44.97846 200
44.99858 202
45.01869 237
45.0388 191
45.05892 204
45.07903 184
45.09914 188
45.11926 191
45.13937 228
45.15949 198
45.1796 209
45.19971 193
45.21983 168
45.23994 195
45.26005 227
45.28017 190
45.30028 206
45.32039 244
45.34051 210
45.36062 228
45.38074 244
45.40085 242
45.42096 259
45.44108 274
45.46119 285
45.4813 299
45.50142 288
45.52153 325
45.54165 317
45.56176 354
45.58187 368
45.60199 371
45.6221 406
45.64221 471
45.66233 514
45.68244 562
45.70256 636
45.72267 715
45.74278 783
45.7629 799
45.78301 779
45.80312 675
45.82324 577
45.84335 512
45.86346 489
45.88358 502
45.90369 460
45.92381 402
45.94392 299
45.96403 255
45.98415 262
46.00426 219
46.02437 264
46.04449 246
46.0646 242
46.08472 244
46.10483 223
46.12494 236
46.14506 271
46.16517 247
46.18528 205
46.2054 227
46.22551 234
46.24563 209
46.26574 226
46.28585 186
46.30597 187
46.32608 210
46.34619 226
46.36631 192
46.38642 191
46.40653 200
46.42665 167
46.44676 197
46.46688 193
46.48699 181
46.5071 190
46.52722 191
46.54733 174
46.56744 175
46.58756 163
46.60767 198
46.62779 161
46.6479 171
46.66801 197
46.68813 207
46.70824 173
46.72835 152
46.74847 171
46.76858 155
46.78869 181
46.80881 178
46.82892 185
46.84904 176
46.86915 201
46.88926 205
46.90938 208
46.92949 201
46.9496 208
46.96972 235
46.98983 233
47.00995 257
47.03006 299
47.05017 279
47.07029 284
47.0904 297
47.11051 335
47.13063 267
47.15074 257
47.17086 254
47.19097 268
47.21108 237
47.2312 228
47.25131 237
47.27142 239
47.29154 251
47.31165 206
47.33176 224
47.35188 229
47.37199 234
47.39211 238
47.41222 268
47.43233 281
47.45245 263
47.47256 281
47.49267 219
47.51279 288
47.5329 229
47.55302 211
47.57313 232
47.59324 216
47.61336 217
47.63347 189
47.65358 196
47.6737 198
47.69381 175
47.71393 181
47.73404 203
47.75415 158
47.77427 161
47.79438 202
47.81449 189
47.83461 176
47.85472 177
47.87483 169
47.89495 176
47.91506 161
47.93518 168
47.95529 171
47.9754 173
47.99552 186
48.01563 161
48.03574 156
48.05586 205
48.07597 197
48.09609 198
48.1162 169
48.13631 215
48.15643 192
48.17654 195
48.19665 178
48.21677 191
48.23688 183
48.257 161
48.27711 202
48.29722 203
48.31734 177
48.33745 185
48.35756 192
48.37768 189
48.39779 184
48.4179 173
48.43802 211
48.45813 167
48.47825 158
48.49836 181
48.51847 173
48.53859 176
48.5587 164
48.57881 170
48.59893 177
48.61904 207
48.63916 204
48.65927 205
48.67938 202
48.6995 212
48.71961 213
48.73972 224
48.75984 227
48.77995 226
48.80006 225
48.82018 248
48.84029 218
48.86041 251
48.88052 262
48.90063 224
48.92075 246
48.94086 268
48.96097 300
48.98109 285
49.0012 275
49.02132 305
49.04143 282
49.06154 277
49.08166 264
49.10177 276
49.12188 258
49.142 268
49.16211 265
49.18223 255
49.20234 247
49.22245 217
49.24257 217
49.26268 221
49.28279 243
49.30291 214
49.32302 209
49.34313 222
49.36325 200
49.38336 194
49.40348 182
49.42359 205
49.4437 209
49.46382 196
49.48393 189
49.50404 210
49.52416 204
49.54427 220
49.56439 236
49.5845 236
49.60461 255
49.62473 227
49.64484 256
49.66495 233
49.68507 254
49.70518 267
49.7253 265
49.74541 262
49.76552 289
49.78564 314
49.80575 287
49.82586 350
49.84598 412
49.86609 399
49.8862 443
49.90632 472
49.92643 532
49.94655 592
49.96666 739
49.98677 830
50.00689 1029
50.027 1165
50.04711 1545
50.06723 1802
50.08734 2049
50.10746 2112
50.12757 1994
50.14768 1712
50.1678 1311
50.18791 1179
50.20802 1132
50.22814 1167
50.24825 1147
50.26837 1014
50.28848 707
50.30859 526
50.32871 452
50.34882 387
50.36893 347
50.38905 426
50.40916 433
50.42927 444
50.44939 482
50.4695 568
50.48962 618
50.50973 614
50.52984 668
50.54996 690
50.57007 662
50.59018 631
50.6103 649
50.63041 616
50.65053 581
50.67064 547
50.69075 512
50.71087 468
50.73098 423
50.75109 409
50.77121 399
50.79132 392
50.81143 364
50.83155 368
50.85166 325
50.87178 331
50.89189 302
50.912 288
50.93212 294
50.95223 260
50.97234 272
50.99246 265
51.01257 228
51.03269 244
51.0528 241
51.07291 238
51.09303 237
51.11314 246
51.13325 253
51.15337 204
51.17348 247
51.1936 234
51.21371 256
51.23382 241
51.25394 255
51.27405 233
51.29416 207
51.31428 227
51.33439 182
51.3545 212
51.37462 181
51.39473 191
51.41485 168
51.43496 189
51.45507 174
51.47519 176
51.4953 195
51.51541 194
51.53553 179
51.55564 174
51.57576 181
51.59587 165
51.61598 174
51.6361 167
51.65621 164
51.67632 166
51.69644 172
51.71655 173
51.73667 165
51.75678 157
51.77689 152
51.79701 137
51.81712 163
51.83723 160
51.85735 150
51.87746 149
51.89757 176
51.91769 144
51.9378 141
51.95792 177
51.97803 157
51.99814 166
52.01826 178
52.03837 167
52.05848 158
52.0786 189
52.09871 167
52.11883 195
52.13894 177
52.15905 159
52.17917 185
52.19928 191
52.21939 168
52.23951 163
52.25962 177
52.27974 181
52.29985 173
52.31996 173
52.34008 183
52.36019 177
52.3803 156
52.40042 153
52.42053 157
52.44064 169
52.46076 176
52.48087 193
52.50099 158
52.5211 186
52.54121 171
52.56133 163
52.58144 196
52.60155 206
52.62167 193
52.64178 202
52.6619 183
52.68201 196
52.70212 175
52.72224 229
52.74235 193
52.76246 201
52.78258 193
52.80269 189
52.8228 200
52.84292 209
52.86303 208
52.88315 198
52.90326 177
52.92337 191
52.94349 202
52.9636 188
52.98371 203
53.00383 182
53.02394 178
53.04406 193
53.06417 194
53.08428 185
53.1044 176
53.12451 196
53.14462 170
53.16474 175
53.18485 198
53.20497 174
53.22508 188
53.24519 187
53.26531 192
53.28542 203
53.30553 186
53.32565 178
53.34576 169
53.36587 175
53.38599 190
53.4061 177
53.42622 184
53.44633 166
53.46644 147
53.48656 175
53.50667 179
53.52678 174
53.5469 161
53.56701 178
53.58713 186
53.60724 185
53.62735 175
53.64747 188
53.66758 185
53.68769 177
53.70781 147
53.72792 175
53.74804 152
53.76815 154
53.78826 150
53.80838 171
53.82849 193
53.8486 180
53.86872 185
53.88883 188
53.90894 184
53.92906 174
53.94917 192
53.96929 161
53.9894 171
54.00951 184
54.02963 216
54.04974 213
54.06985 209
54.08997 191
54.11008 209
54.1302 197
54.15031 172
54.17042 197
54.19054 199
54.21065 203
54.23076 185
54.25088 204
54.27099 205
54.29111 209
54.31122 214
54.33133 203
54.35145 193
54.37156 197
54.39167 201
54.41179 207
54.4319 217
54.45201 196
54.47213 220
54.49224 209
54.51236 230
54.53247 211
54.55258 214
54.5727 207
54.59281 224
54.61292 245
54.63304 246
54.65315 284
54.67327 319
54.69338 326
54.71349 381
54.73361 416
54.75372 467
54.77383 543
54.79395 592
54.81406 668
54.83417 712
54.85429 726
54.8744 634
54.89452 500
54.91463 457
54.93474 447
54.95486 461
54.97497 474
54.99508 449
55.0152 412
55.03531 382
55.05543 356
55.07554 258
55.09565 244
55.11577 265
55.13588 257
55.15599 256
55.17611 285
55.19622 324
55.21634 373
55.23645 368
55.25656 377
55.27668 409
55.29679 437
55.3169 433
55.33702 393
55.35713 340
55.37724 330
55.39736 288
55.41747 297
55.43759 350
55.4577 320
55.47781 319
55.49793 251
55.51804 263
55.53815 264
55.55827 224
55.57838 245
55.5985 218
55.61861 203
55.63872 224
55.65884 191
55.67895 214
55.69906 217
55.71918 242
55.73929 194
55.75941 200
55.77952 211
55.79963 207
55.81975 194
55.83986 181
55.85997 214
55.88009 189
55.9002 174
55.92031 166
55.94043 173
55.96054 192
55.98066 183
56.00077 167
56.02088 195
56.041 185
56.06111 175
56.08122 163
56.10134 180
56.12145 193
56.14157 166
56.16168 172
56.18179 174
56.20191 167
56.22202 182
56.24213 158
56.26225 156
56.28236 179
56.30248 176
56.32259 187
56.3427 167
56.36282 191
56.38293 174
56.40304 162
56.42316 181
56.44327 166
56.46338 170
56.4835 193
56.50361 173
56.52373 202
56.54384 189
56.56395 182
56.58407 192
56.60418 186
56.62429 181
56.64441 179
56.66452 216
56.68464 215
56.70475 217
56.72486 178
56.74498 211
56.76509 193
56.7852 199
56.80532 184
56.82543 196
56.84554 189
56.86566 176
56.88577 162
56.90589 161
56.926 181
56.94611 179
56.96623 182
56.98634 177
57.00645 178
57.02657 199
57.04668 148
57.0668 179
57.08691 187
57.10702 166
57.12714 172
57.14725 186
57.16736 203
57.18748 193
57.20759 228
57.22771 189
57.24782 196
57.26793 170
57.28805 199
57.30816 205
57.32827 232
57.34839 201
57.3685 188
57.38861 199
57.40873 177
57.42884 198
57.44896 217
57.46907 185
57.48918 185
57.5093 195
57.52941 170
57.54952 180
57.56964 208
57.58975 170
57.60987 169
57.62998 176
57.65009 172
57.67021 188
57.69032 175
57.71043 163
57.73055 191
57.75066 175
57.77078 202
57.79089 186
57.811 181
57.83112 170
57.85123 166
57.87134 189
57.89146 190
57.91157 182
57.93168 164
57.9518 196
57.97191 156
57.99203 180
58.01214 161
58.03225 170
58.05237 179
58.07248 182
58.09259 169
58.11271 161
58.13282 177
58.15294 167
58.17305 169
58.19316 155
58.21328 154
58.23339 187
58.2535 154
58.27362 152
58.29373 141
58.31385 168
58.33396 167
58.35407 169
58.37419 175
58.3943 199
58.41441 187
58.43453 197
58.45464 202
58.47475 204
58.49487 199
58.51498 210
58.5351 224
58.55521 230
58.57532 226
58.59544 220
58.61555 255
58.63566 248
58.65578 256
58.67589 252
58.69601 220
58.71612 220
58.73623 204
58.75635 188
58.77646 221
58.79657 215
58.81669 203
58.8368 198
58.85691 200
58.87703 173
58.89714 160
58.91726 197
58.93737 175
58.95748 148
58.9776 172
58.99771 183
59.01782 163
59.03794 170
59.05805 156
59.07817 170
59.09828 154
59.11839 159
59.13851 166
59.15862 176
59.17873 186
59.19885 154
59.21896 163
59.23908 169
59.25919 180
59.2793 186
59.29942 160
59.31953 157
59.33964 205
59.35976 191
59.37987 206
59.39998 181
59.4201 215
59.44021 206
59.46033 209
59.48044 213
59.50055 195
59.52067 204
59.54078 212
59.56089 233
59.58101 225
59.60112 246
59.62124 254
59.64135 251
59.66146 296
59.68158 305
59.70169 340
59.7218 394
59.74192 409
59.76203 481
59.78215 552
59.80226 650
59.82237 798
59.84249 939
59.8626 1027
59.88271 1253
59.90283 1367
59.92294 1426
59.94305 1369
59.96317 1120
59.98328 817
60.0034 662
60.02351 691
60.04362 720
60.06374 773
60.08385 764
60.10396 719
60.12408 616
60.14419 472
60.16431 365
60.18442 267
60.20453 249
60.22465 249
60.24476 233
60.26487 242
60.28499 232
60.3051 241
60.32522 217
60.34533 235
60.36544 220
60.38556 211
60.40567 213
60.42578 189
60.4459 201
60.46601 197
60.48612 184
60.50624 199
60.52635 225
60.54647 217
60.56658 209
60.58669 205
60.60681 210
60.62692 210
60.64703 206
60.66715 197
60.68726 202
60.70738 216
60.72749 199
60.7476 200
60.76772 193
60.78783 198
60.80794 196
60.82806 190
60.84817 204
60.86828 200
60.8884 185
60.90851 192
60.92863 209
60.94874 186
60.96885 198
60.98897 185
61.00908 199
61.02919 233
61.04931 210
61.06942 207
61.08954 222
61.10965 243
61.12976 282
61.14988 227
61.16999 201
61.1901 235
61.21022 221
61.23033 222
61.25045 237
61.27056 219
61.29067 229
61.31079 225
61.3309 229
61.35101 223
61.37113 212
61.39124 213
61.41135 207
61.43147 201
61.45158 196
61.4717 232
61.49181 191
61.51192 201
61.53204 203
61.55215 207
61.57226 183
61.59238 206
61.61249 218
61.63261 196
61.65272 210
61.67283 194
61.69295 194
61.71306 195
61.73317 210
61.75329 214
61.7734 190
61.79352 178
61.81363 198
61.83374 227
61.85386 209
61.87397 205
61.89408 203
61.9142 227
61.93431 205
61.95442 207
61.97454 218
61.99465 206
62.01477 203
62.03488 198
62.05499 192
62.07511 211
62.09522 244
62.11533 210
62.13545 232
62.15556 250
62.17568 232
62.19579 227
62.2159 221
62.23602 221
62.25613 230
62.27624 214
62.29636 204
62.31647 240
62.33659 196
62.3567 206
62.37681 200
62.39693 206
62.41704 225
62.43715 203
62.45727 221
62.47738 220
62.49749 198
62.51761 194
62.53772 201
62.55784 212
62.57795 209
62.59806 239
62.61818 206
62.63829 222
62.6584 232
62.67852 218
62.69863 216
62.71875 184
62.73886 217
62.75897 216
62.77909 196
62.7992 195
62.81931 216
62.83943 209
62.85954 208
62.87965 201
62.89977 191
62.91988 226
62.94 212
62.96011 210
62.98022 191
63.00034 225
63.02045 200
63.04056 185
63.06068 233
63.08079 196
63.10091 237
63.12102 214
63.14113 203
63.16125 194
63.18136 190
63.20147 199
63.22159 175
63.2417 207
63.26182 203
63.28193 191
63.30204 175
63.32216 193
63.34227 181
63.36238 181
63.3825 187
63.40261 222
63.42272 187
63.44284 186
63.46295 183
63.48307 182
63.50318 226
63.52329 231
63.54341 224
63.56352 206
63.58363 200
63.60375 214
63.62386 202
63.64398 243
63.66409 236
63.6842 236
63.70432 269
63.72443 262
63.74454 250
63.76466 282
63.78477 280
63.80489 278
63.825 304
63.84511 292
63.86523 352
63.88534 316
63.90545 351
63.92557 411
63.94568 408
63.96579 464
63.98591 462
64.00602 434
64.02614 447
64.04625 411
64.06636 343
64.08648 349
64.10659 329
64.1267 314
64.14682 323
64.16693 332
64.18705 330
64.20716 278
64.22727 254
64.24739 247
64.2675 231
64.28761 201
64.30773 225
64.32784 205
64.34796 198
64.36807 185
64.38818 180
64.4083 196
64.42841 194
64.44852 175
64.46864 170
64.48875 190
64.50886 174
64.52898 183
64.54909 165
64.56921 190
64.58932 175
64.60943 160
64.62955 170
64.64966 166
64.66977 171
64.68989 199
64.71 214
64.73012 177
64.75023 204
64.77034 197
64.79046 165
64.81057 187
64.83068 182
64.8508 188
64.87091 197
64.89102 191
64.91114 193
64.93125 207
64.95137 181
64.97148 224
64.99159 195
65.01171 198
65.03182 207
65.05193 227
65.07205 223
65.09216 248
65.11228 216
65.13239 228
65.1525 234
65.17262 234
65.19273 272
65.21284 248
65.23296 228
65.25307 231
65.27319 243
65.2933 240
65.31341 245
65.33353 241
65.35364 260
65.37375 236
65.39387 209
65.41398 217
65.43409 220
65.45421 195
65.47432 186
65.49444 195
65.51455 183
65.53466 171
65.55478 204
65.57489 180
65.595 187
65.61512 187
65.63523 176
65.65535 183
65.67546 208
65.69557 225
65.71569 200
65.7358 228
65.75591 210
65.77603 189
65.79614 181
65.81626 201
65.83637 191
65.85648 200
65.8766 170
65.89671 195
65.91682 174
65.93694 189
65.95705 205
65.97716 176
65.99728 178
66.01739 178
66.03751 151
66.05762 184
66.07773 190
66.09785 185
66.11796 208
66.13807 195
66.15819 228
66.1783 202
66.19842 228
66.21853 211
66.23864 235
66.25876 224
66.27887 261
66.29898 227
66.3191 254
66.33921 196
66.35933 206
66.37944 196
66.39955 205
66.41967 188
66.43978 210
66.45989 189
66.48001 205
66.50012 215
66.52023 178
66.54035 171
66.56046 197
66.58058 191
66.60069 167
66.6208 159
66.64092 184
66.66103 145
66.68114 189
66.70126 161
66.72137 152
66.74149 162
66.7616 181
66.78171 154
66.80183 168
66.82194 186
66.84205 162
66.86217 183
66.88228 194
66.90239 191
66.92251 208
66.94262 190
66.96274 189
66.98285 218
67.00296 200
67.02308 197
67.04319 219
67.0633 176
67.08342 180
67.10353 184
67.12365 185
67.14376 196
67.16387 189
67.18399 188
67.2041 192
67.22421 223
67.24433 187
67.26444 230
67.28456 184
67.30467 225
67.32478 212
67.3449 224
67.36501 221
67.38512 205
67.40524 226
67.42535 227
67.44546 243
67.46558 277
67.48569 262
67.50581 321
67.52592 341
67.54603 408
67.56615 400
67.58626 491
67.60637 547
67.62649 617
67.6466 702
67.66672 831
67.68683 860
67.70694 869
67.72706 814
67.74717 708
67.76728 562
67.7874 517
67.80751 509
67.82763 539
67.84774 572
67.86785 600
67.88797 687
67.90808 668
67.92819 648
67.94831 614
67.96842 586
67.98853 677
68.00865 671
68.02876 811
68.04888 904
68.06899 961
68.0891 1115
68.10922 1129
68.12933 1105
68.14944 990
68.16956 877
68.18967 808
68.20979 917
68.2299 906
68.25001 999
68.27013 1070
68.29024 1046
68.31035 942
68.33047 784
68.35058 623
68.3707 513
68.39081 477
68.41092 462
68.43104 484
68.45115 470
68.47126 415
68.49138 412
68.51149 341
68.5316 286
68.55172 239
68.57183 235
68.59195 210
68.61206 227
68.63217 184
68.65229 203
68.6724 174
68.69251 171
68.71263 200
68.73274 180
68.75286 181
68.77297 218
68.79308 178
68.8132 203
68.83331 158
68.85342 194
68.87354 175
68.89365 168
68.91376 172
68.93388 157
68.95399 162
68.97411 176
68.99422 174
69.01433 173
69.03445 185
69.05456 161
69.07467 188
69.09479 183
69.1149 174
69.13502 145
69.15513 176
69.17524 186
69.19536 144
69.21547 180
69.23558 182
69.2557 151
69.27581 179
69.29593 179
69.31604 178
69.33615 166
69.35627 174
69.37638 195
69.39649 182
69.41661 161
69.43672 142
69.45683 173
69.47695 158
69.49706 175
69.51718 154
69.53729 158
69.5574 142
69.57752 180
69.59763 157
69.61774 154
69.63786 153
69.65797 172
69.67809 161
69.6982 169
69.71831 166
69.73843 178
69.75854 172
69.77865 191
69.79877 175
69.81888 167
69.839 172
69.85911 169
69.87922 163
69.89934 157
69.91945 166
69.93956 179
69.95968 174
69.97979 176
69.9999 167
70.02002 140
70.04013 170
70.06025 165
70.08036 176
70.10047 164
70.12059 158
70.1407 152
70.16081 155
70.18093 151
70.20104 163
70.22116 167
70.24127 170
70.26138 173
70.2815 175
70.30161 146
70.32172 164
70.34184 170
70.36195 177
70.38207 156
70.40218 166
70.42229 168
70.44241 139
70.46252 155
70.48263 169
70.50275 166
70.52286 165
70.54297 157
70.56309 192
70.5832 179
70.60332 167
70.62343 167
70.64354 182
70.66366 179
70.68377 150
70.70388 192
70.724 165
70.74411 167
70.76423 179
70.78434 174
70.80445 168
70.82457 177
70.84468 176
70.86479 176
70.88491 160
70.90502 185
70.92513 149
70.94525 162
70.96536 159
70.98548 174
71.00559 160
71.0257 150
71.04582 142
71.06593 176
71.08604 141
71.10616 152
71.12627 143
71.14639 164
71.1665 156
71.18661 144
71.20673 144
71.22684 159
71.24695 163
71.26707 154
71.28718 162
71.3073 140
71.32741 178
71.34752 166
71.36764 161
71.38775 179
71.40786 170
71.42798 173
71.44809 213
71.4682 180
71.48832 177
71.50843 186
71.52855 199
71.54866 217
71.56877 213
71.58889 184
71.609 192
71.62911 209
71.64923 197
71.66934 193
71.68946 197
71.70957 200
71.72968 181
71.7498 184
71.76991 164
71.79002 190
71.81014 187
71.83025 183
71.85037 179
71.87048 167
71.89059 154
71.91071 169
71.93082 160
71.95093 213
71.97105 179
71.99116 194
72.01127 175
72.03139 184
72.0515 170
72.07162 167
72.09173 180
72.11184 178
72.13196 194
72.15207 168
72.17218 192
72.1923 173
72.21241 176
72.23253 185
72.25264 194
72.27275 178
72.29287 185
72.31298 202
72.33309 196
72.35321 214
72.37332 190
72.39344 185
72.41355 186
72.43366 193
72.45378 167
72.47389 175
72.494 179
72.51412 193
72.53423 201
72.55434 165
72.57446 203
72.59457 201
72.61469 175
72.6348 185
72.65491 171
72.67503 163
72.69514 186
72.71525 160
72.73537 171
72.75548 165
72.7756 170
72.79571 166
72.81582 210
72.83594 188
72.85605 200
72.87616 184
72.89628 203
72.91639 198
72.9365 200
72.95662 210
72.97673 188
72.99685 191
73.01696 200
73.03707 181
73.05719 192
73.0773 235
73.09741 187
73.11753 229
73.13764 203
73.15776 226
73.17787 222
73.19798 226
73.2181 214
73.23821 237
73.25832 265
73.27844 263
73.29855 276
73.31867 276
73.33878 326
73.35889 331
73.37901 367
73.39912 385
73.41923 407
73.43935 450
73.45946 407
73.47957 326
73.49969 305
73.5198 305
73.53992 274
73.56003 273
73.58014 279
73.60026 305
73.62037 297
73.64048 314
73.6606 307
73.68071 260
73.70083 252
73.72094 239
73.74105 198
73.76117 225
73.78128 213
73.80139 186
73.82151 199
73.84162 191
73.86174 199
73.88185 187
73.90196 187
73.92208 188
73.94219 189
73.9623 199
73.98242 197
74.00253 204
74.02264 190
74.04276 164
74.06287 182
74.08299 187
74.1031 191
74.12321 185
74.14333 186
74.16344 187
74.18355 190
74.20367 183
74.22378 174
74.2439 164
74.26401 151
74.28412 201
74.30424 193
74.32435 213
74.34446 220
74.36458 187
74.38469 163
74.40481 171
74.42492 186
74.44503 190
74.46515 182
74.48526 177
74.50537 176
74.52549 196
74.5456 199
74.56571 202
74.58583 186
74.60594 192
74.62606 214
74.64617 207
74.66628 215
74.6864 178
74.70651 188
74.72662 189
74.74674 205
74.76685 186
74.78697 207
74.80708 204
74.82719 196
74.84731 201
74.86742 184
74.88753 192
74.90765 226
74.92776 172
74.94787 188
74.96799 186
74.9881 191
75.00822 190
