3.00117 17726
3.02128 17298
3.0414 16945
3.06151 16162
3.08162 16165
3.10174 15289
3.12185 15117
3.14197 14732
3.16208 14086
3.18219 13902
3.20231 13276
3.22242 12912
3.24253 12666
3.26265 11834
3.28276 11677
3.30288 11037
3.32299 11129
3.3431 10780
3.36322 10079
3.38333 10184
3.40344 9205
3.42356 9380
3.44367 8968
3.46379 8634
3.4839 8407
3.50401 7913
3.52413 7678
3.54424 7406
3.56435 7079
3.58447 6967
3.60458 6452
3.62469 6341
3.64481 6171
3.66492 5754
3.68504 5592
3.70515 5356
3.72526 5137
3.74538 5071
3.76549 4654
3.7856 4729
3.80572 4233
3.82583 4214
3.84595 4066
3.86606 3851
3.88617 3775
3.90629 3372
3.9264 3318
3.94651 3292
3.96663 3057
3.98674 2906
4.00686 2817
4.02697 2693
4.04708 2660
4.0672 2453
4.08731 2417
4.10742 2308
4.12754 2198
4.14765 2293
4.16776 2029
4.18788 1991
4.20799 1988
4.22811 1901
4.24822 1909
4.26833 1739
4.28845 1664
4.30856 1684
4.32867 1612
4.34879 1647
4.3689 1595
4.38902 1461
4.40913 1500
4.42924 1514
4.44936 1462
4.46947 1346
4.48958 1416
4.5097 1363
4.52981 1258
4.54992 1301
4.57004 1202
4.59015 1099
4.61027 1201
4.63038 1136
4.65049 1168
4.67061 1099
4.69072 1139
4.71083 1056
4.73095 1046
4.75106 1069
4.77118 932
4.79129 971
4.8114 971
4.83152 897
4.85163 917
4.87174 870
4.89186 829
4.91197 869
4.93209 827
4.9522 785
4.97231 791
4.99243 835
5.01254 765
5.03265 714
5.05277 736
5.07288 705
5.09299 712
5.11311 704
5.13322 707
5.15334 619
5.17345 689
5.19356 660
5.21368 627
5.23379 641
5.2539 629
5.27402 663
5.29413 543
5.31425 598
5.33436 595
5.35447 501
5.37459 553
5.3947 497
5.41481 554
5.43493 544
5.45504 491
5.47516 474
5.49527 497
5.51538 519
5.5355 456
5.55561 498
5.57572 473
5.59584 480
5.61595 462
5.63606 461
5.65618 466
5.67629 483
5.69641 438
5.71652 397
5.73663 440
5.75675 434
5.77686 399
5.79697 401
5.81709 426
5.8372 372
5.85732 389
5.87743 455
5.89754 398
5.91766 401
5.93777 432
5.95788 390
5.978 386
5.99811 400
6.01823 369
6.03834 398
6.05845 362
6.07857 376
6.09868 360
6.11879 376
6.13891 396
6.15902 351
6.17913 366
6.19925 340
6.21936 390
6.23948 319
6.25959 312
6.2797 318
6.29982 333
6.31993 383
6.34004 349
6.36016 379
6.38027 343
6.40039 341
6.4205 350
6.44061 350
6.46073 344
6.48084 350
6.50095 313
6.52107 331
6.54118 367
6.56129 324
6.58141 382
6.60152 339
6.62164 367
6.64175 337
6.66186 356
6.68198 353
6.70209 327
6.7222 323
6.74232 312
6.76243 303
6.78255 334
6.80266 357
6.82277 344
6.84289 340
6.863 308
6.88311 337
6.90323 330
6.92334 361
6.94346 324
6.96357 313
6.98368 357
7.0038 367
7.02391 324
7.04402 329
7.06414 297
7.08425 317
7.10436 317
7.12448 347
7.14459 317
7.16471 311
7.18482 311
7.20493 303
7.22505 327
7.24516 325
7.26527 296
7.28539 325
7.3055 383
7.32562 363
7.34573 325
7.36584 302
7.38596 317
7.40607 321
7.42618 318
7.4463 329
7.46641 293
7.48653 314
7.50664 318
7.52675 297
7.54687 323
7.56698 348
7.58709 304
7.60721 335
7.62732 319
7.64743 323
7.66755 316
7.68766 328
7.70778 314
7.72789 352
7.748 314
7.76812 329
7.78823 333
7.80834 331
7.82846 311
7.84857 316
7.86869 285
7.8888 309
7.90891 340
7.92903 325
7.94914 292
7.96925 324
7.98937 306
8.00948 319
8.0296 365
8.04971 351
8.06982 319
8.08994 364
8.11005 349
8.13016 354
8.15028 317
8.17039 343
8.1905 349
8.21062 313
8.23073 309
8.25085 318
8.27096 332
8.29107 336
8.31119 364
8.3313 309
8.35141 328
8.37153 340
8.39164 345
8.41176 337
8.43187 341
8.45198 310
8.4721 337
8.49221 352
8.51232 315
8.53244 326
8.55255 362
8.57266 325
8.59278 334
8.61289 343
8.63301 403
8.65312 369
8.67323 363
8.69335 332
8.71346 328
8.73357 344
8.75369 360
8.7738 363
8.79392 338
8.81403 335
8.83414 337
8.85426 368
8.87437 343
8.89448 331
8.9146 358
8.93471 316
8.95483 368
8.97494 344
8.99505 348
9.01517 341
9.03528 314
9.05539 284
9.07551 327
9.09562 298
9.11573 347
9.13585 337
9.15596 342
9.17608 315
9.19619 311
9.2163 328
9.23642 319
9.25653 325
9.27664 327
9.29676 300
9.31687 363
9.33699 353
9.3571 353
9.37721 326
9.39733 313
9.41744 379
9.43755 297
9.45767 289
9.47778 333
9.4979 319
9.51801 336
9.53812 353
9.55824 322
9.57835 336
9.59846 294
9.61858 337
9.63869 294
9.6588 296
9.67892 335
9.69903 324
9.71915 370
9.73926 334
9.75937 329
9.77949 322
9.7996 298
9.81971 309
9.83983 320
9.85994 306
9.88006 371
9.90017 292
9.92028 312
9.9404 331
9.96051 323
9.98062 346
10.00074 311
10.02085 296
10.04097 356
10.06108 322
10.08119 311
10.10131 339
10.12142 343
10.14153 361
10.16165 318
10.18176 321
10.20187 309
10.22199 343
10.2421 307
10.26222 300
10.28233 315
10.30244 342
10.32256 351
10.34267 304
10.36278 341
10.3829 334
10.40301 302
10.42313 344
10.44324 341
10.46335 367
10.48347 347
10.50358 341
10.52369 324
10.54381 292
10.56392 315
10.58403 324
10.60415 319
10.62426 302
10.64438 328
10.66449 342
10.6846 320
10.70472 305
10.72483 330
10.74494 323
10.76506 348
10.78517 356
10.80529 328
10.8254 398
10.84551 297
10.86563 351
10.88574 321
10.90585 344
10.92597 336
10.94608 353
10.9662 359
10.98631 346
11.00642 359
11.02654 351
11.04665 344
11.06676 331
11.08688 347
11.10699 373
11.1271 341
11.14722 364
11.16733 365
11.18745 387
11.20756 358
11.22767 378
11.24779 387
11.2679 353
11.28801 336
11.30813 344
11.32824 368
11.34836 377
11.36847 354
11.38858 363
11.4087 390
11.42881 368
11.44892 422
11.46904 366
11.48915 372
11.50927 396
11.52938 426
11.54949 439
11.56961 409
11.58972 387
11.60983 382
11.62995 419
11.65006 404
11.67017 425
11.69029 393
11.7104 396
11.73052 414
11.75063 436
11.77074 445
11.79086 412
11.81097 401
11.83108 439
11.8512 443
11.87131 447
11.89143 434
11.91154 416
11.93165 434
11.95177 408
11.97188 443
11.99199 383
12.01211 465
12.03222 418
12.05234 417
12.07245 432
12.09256 438
12.11268 431
12.13279 448
12.1529 399
12.17302 453
12.19313 430
12.21324 392
12.23336 409
12.25347 374
12.27359 441
12.2937 421
12.31381 424
12.33393 428
12.35404 442
12.37415 392
12.39427 377
12.41438 384
12.4345 370
12.45461 404
12.47472 360
12.49484 389
12.51495 363
12.53506 377
12.55518 347
12.57529 357
12.5954 351
12.61552 309
12.63563 326
12.65575 325
12.67586 355
12.69597 348
12.71609 304
12.7362 338
12.75631 324
12.77643 291
12.79654 343
12.81666 315
12.83677 322
12.85688 334
12.877 311
12.89711 341
12.91722 335
12.93734 334
12.95745 331
12.97757 268
12.99768 312
13.01779 326
13.03791 272
13.05802 281
13.07813 308
13.09825 300
13.11836 308
13.13847 279
13.15859 294
13.1787 276
13.19882 316
13.21893 273
13.23904 286
13.25916 267
13.27927 310
13.29938 297
13.3195 275
13.33961 289
13.35973 289
13.37984 281
13.39995 301
13.42007 312
13.44018 290
13.46029 282
13.48041 299
13.50052 291
13.52064 275
13.54075 308
13.56086 304
13.58098 299
13.60109 310
13.6212 305
13.64132 307
13.66143 300
13.68154 286
13.70166 280
13.72177 233
13.74189 295
13.762 290
13.78211 279
13.80223 250
13.82234 247
13.84245 289
13.86257 259
13.88268 293
13.9028 269
13.92291 266
13.94302 224
13.96314 269
13.98325 256
14.00336 284
14.02348 260
14.04359 259
14.06371 253
14.08382 267
14.10393 293
14.12405 289
14.14416 276
14.16427 265
14.18439 252
14.2045 280
14.22461 276
14.24473 225
14.26484 282
14.28496 281
14.30507 230
14.32518 262
14.3453 269
14.36541 208
14.38552 279
14.40564 273
14.42575 224
14.44587 291
14.46598 273
14.48609 248
14.50621 263
14.52632 232
14.54643 264
14.56655 273
14.58666 261
14.60677 250
14.62689 209
14.647 267
14.66712 243
14.68723 275
14.70734 280
14.72746 264
14.74757 226
14.76768 287
14.7878 217
14.80791 251
14.82803 284
14.84814 284
14.86825 268
14.88837 275
14.90848 275
14.92859 274
14.94871 248
14.96882 278
14.98894 273
15.00905 286
15.02916 254
15.04928 281
15.06939 263
15.0895 269
15.10962 266
15.12973 252
15.14984 278
15.16996 254
15.19007 277
15.21019 260
15.2303 236
15.25041 244
15.27053 274
15.29064 255
15.31075 250
15.33087 265
15.35098 205
15.3711 253
15.39121 253
15.41132 254
15.43144 249
15.45155 261
15.47166 252
15.49178 251
15.51189 258
15.53201 220
15.55212 231
15.57223 246
15.59235 238
15.61246 244
15.63257 231
15.65269 248
15.6728 242
15.69291 231
15.71303 243
15.73314 262
15.75326 262
15.77337 255
15.79348 229
15.8136 258
15.83371 254
15.85382 246
15.87394 215
15.89405 206
15.91417 264
15.93428 238
15.95439 256
15.97451 278
15.99462 227
16.01473 277
16.03485 242
16.05496 233
16.07508 242
16.09519 270
16.1153 256
16.13542 266
16.15553 244
16.17564 236
16.19576 249
16.21587 228
16.23598 264
16.2561 225
16.27621 237
16.29633 242
16.31644 229
16.33655 242
16.35667 270
16.37678 267
16.39689 256
16.41701 240
16.43712 235
16.45724 242
16.47735 241
16.49746 244
16.51758 222
16.53769 252
16.5578 244
16.57792 248
16.59803 251
16.61814 233
16.63826 240
16.65837 268
16.67849 257
16.6986 234
16.71871 254
16.73883 238
16.75894 249
16.77905 212
16.79917 265
16.81928 277
16.8394 229
16.85951 252
16.87962 279
16.89974 238
16.91985 245
16.93996 219
16.96008 243
16.98019 232
17.00031 222
17.02042 224
17.04053 263
17.06065 245
17.08076 272
17.10087 259
17.12099 224
17.1411 254
17.16121 258
17.18133 258
17.20144 214
17.22156 251
17.24167 264
17.26178 220
17.2819 236
17.30201 245
17.32212 239
17.34224 255
17.36235 244
17.38247 209
17.40258 262
17.42269 202
17.44281 262
17.46292 223
17.48303 227
17.50315 230
17.52326 243
17.54338 208
17.56349 246
17.5836 263
17.60372 253
17.62383 233
17.64394 250
17.66406 232
17.68417 250
17.70428 240
17.7244 214
17.74451 229
17.76463 236
17.78474 244
17.80485 242
17.82497 281
17.84508 253
17.86519 249
17.88531 229
17.90542 243
17.92554 222
17.94565 240
17.96576 243
17.98588 231
18.00599 218
18.0261 249
18.04622 261
18.06633 274
18.08645 237
18.10656 237
18.12667 266
18.14679 265
18.1669 260
18.18701 246
18.20713 233
18.22724 215
18.24735 242
18.26747 223
18.28758 268
18.3077 264
18.32781 245
18.34792 250
18.36804 281
18.38815 273
18.40826 253
18.42838 242
18.44849 241
18.46861 247
18.48872 245
18.50883 247
18.52895 268
18.54906 249
18.56917 274
18.58929 245
18.6094 270
18.62951 250
18.64963 277
18.66974 268
18.68986 264
18.70997 252
18.73008 277
18.7502 247
18.77031 262
18.79042 227
18.81054 250
18.83065 267
18.85077 261
18.87088 241
18.89099 229
18.91111 258
18.93122 232
18.95133 246
18.97145 253
18.99156 235
19.01168 274
19.03179 256
19.0519 272
19.07202 249
19.09213 261
19.11224 235
19.13236 249
19.15247 250
19.17258 270
19.1927 254
19.21281 279
19.23293 321
19.25304 270
19.27315 307
19.29327 277
19.31338 294
19.33349 291
19.35361 292
19.37372 301
19.39384 292
19.41395 293
19.43406 320
19.45418 322
19.47429 342
19.4944 337
19.51452 365
19.53463 339
19.55475 359
19.57486 365
19.59497 390
19.61509 441
19.6352 461
19.65531 431
19.67543 472
19.69554 499
19.71565 505
19.73577 544
19.75588 569
19.776 580
19.79611 591
19.81622 609
19.83634 675
19.85645 697
19.87656 693
19.89668 658
19.91679 633
19.93691 676
19.95702 656
19.97713 652
19.99725 637
20.01736 708
20.03747 644
20.05759 638
20.0777 612
20.09782 582
20.11793 643
20.13804 622
20.15816 622
20.17827 590
20.19838 584
20.2185 608
20.23861 655
20.25872 602
20.27884 570
20.29895 586
20.31907 594
20.33918 617
20.35929 621
20.37941 607
20.39952 599
20.41963 574
20.43975 574
20.45986 612
20.47998 629
20.50009 593
20.5202 635
20.54032 656
20.56043 679
20.58054 667
20.60066 703
20.62077 762
20.64088 845
20.661 995
20.68111 1226
20.70123 1446
20.72134 1882
20.74145 2467
20.76157 3083
20.78168 3680
20.80179 4120
20.82191 4332
20.84202 4017
20.86214 3532
20.88225 3072
20.90236 2213
20.92248 1683
20.94259 1286
20.9627 962
20.98282 892
21.00293 812
21.02305 801
21.04316 767
21.06327 663
21.08339 707
21.1035 614
21.12361 604
21.14373 561
21.16384 553
21.18395 523
21.20407 506
21.22418 509
21.2443 516
21.26441 544
21.28452 496
21.30464 468
21.32475 475
21.34486 457
21.36498 495
21.38509 482
21.40521 478
21.42532 450
21.44543 434
21.46555 472
21.48566 474
21.50577 448
21.52589 478
21.546 420
21.56612 450
21.58623 418
21.60634 405
21.62646 449
21.64657 437
21.66668 450
21.6868 421
21.70691 361
21.72702 413
21.74714 395
21.76725 435
21.78737 386
21.80748 411
21.82759 417
21.84771 398
21.86782 444
21.88793 424
21.90805 482
21.92816 477
21.94828 444
21.96839 425
21.9885 453
22.00862 413
22.02873 419
22.04884 412
22.06896 392
22.08907 438
22.10919 425
22.1293 398
22.14941 386
22.16953 395
22.18964 392
22.20975 389
22.22987 374
22.24998 404
22.27009 420
22.29021 345
22.31032 379
22.33044 428
22.35055 382
22.37066 386
22.39078 418
22.41089 416
22.431 374
22.45112 355
22.47123 375
22.49135 355
22.51146 424
22.53157 377
22.55169 395
22.5718 369
22.59191 397
22.61203 428
22.63214 371
22.65225 360
22.67237 356
22.69248 390
22.7126 399
22.73271 368
22.75282 370
22.77294 336
22.79305 349
22.81316 370
22.83328 341
22.85339 363
22.87351 372
22.89362 335
22.91373 327
22.93385 376
22.95396 392
22.97407 374
22.99419 403
23.0143 410
23.03442 358
23.05453 401
23.07464 384
23.09476 389
23.11487 357
23.13498 403
23.1551 403
23.17521 415
23.19532 399
23.21544 429
23.23555 420
23.25567 412
23.27578 384
23.29589 412
23.31601 373
23.33612 371
23.35623 426
23.37635 403
23.39646 405
23.41658 386
23.43669 399
23.4568 404
23.47692 431
23.49703 435
23.51714 421
23.53726 414
23.55737 377
23.57749 409
23.5976 432
23.61771 388
23.63783 412
23.65794 420
23.67805 391
23.69817 436
23.71828 418
23.73839 386
23.75851 398
23.77862 354
23.79874 438
23.81885 411
23.83896 430
23.85908 437
23.87919 428
23.8993 475
23.91942 464
23.93953 498
23.95965 447
23.97976 514
23.99987 466
24.01999 415
24.0401 455
24.06021 470
24.08033 412
24.10044 396
24.12056 438
24.14067 446
24.16078 416
24.1809 426
24.20101 422
24.22112 413
24.24124 417
24.26135 452
24.28146 440
24.30158 431
24.32169 418
24.34181 442
24.36192 464
24.38203 436
24.40215 392
24.42226 428
24.44237 442
24.46249 411
24.4826 453
24.50272 430
24.52283 435
24.54294 416
24.56306 417
24.58317 450
24.60328 441
24.6234 440
24.64351 460
24.66362 457
24.68374 469
24.70385 477
24.72397 424
24.74408 467
24.76419 471
24.78431 424
24.80442 462
24.82453 485
24.84465 462
24.86476 491
24.88488 457
24.90499 455
24.9251 469
24.94522 488
24.96533 459
24.98544 477
25.00556 438
25.02567 500
25.04579 530
25.0659 508
25.08601 493
25.10613 510
25.12624 506
25.14635 528
25.16647 535
25.18658 529
25.20669 532
25.22681 528
25.24692 515
25.26704 506
25.28715 492
25.30726 498
25.32738 449
25.34749 474
25.3676 477
25.38772 504
25.40783 509
25.42795 553
25.44806 522
25.46817 540
25.48829 583
25.5084 556
25.52851 557
25.54863 567
25.56874 553
25.58886 571
25.60897 587
25.62908 522
25.6492 564
25.66931 519
25.68942 516
25.70954 569
25.72965 538
25.74976 560
25.76988 493
25.78999 488
25.81011 492
25.83022 496
25.85033 494
25.87045 534
25.89056 501
25.91067 472
25.93079 571
25.9509 540
25.97102 497
25.99113 541
26.01124 604
26.03136 542
26.05147 558
26.07158 608
26.0917 603
26.11181 662
26.13193 686
26.15204 704
26.17215 708
26.19227 827
26.21238 817
26.23249 935
26.25261 938
26.27272 963
26.29283 1048
26.31295 1187
26.33306 1329
26.35318 1505
26.37329 1722
26.3934 2166
26.41352 2679
26.43363 3404
26.45374 4513
26.47386 6009
26.49397 8034
26.51409 9995
26.5342 13134
26.55431 15706
26.57443 17594
26.59454 18141
26.61465 17080
26.63477 15118
26.65488 12286
26.67499 9421
26.69511 6612
26.71522 4582
26.73534 3024
26.75545 2153
26.77556 1624
26.79568 1366
26.81579 1149
26.8359 1110
26.85602 993
26.87613 996
26.89625 904
26.91636 903
26.93647 827
26.95659 808
26.9767 769
26.99681 826
27.01693 782
27.03704 724
27.05716 741
27.07727 670
27.09738 672
27.1175 599
27.13761 617
27.15772 545
27.17784 510
27.19795 507
27.21806 515
27.23818 549
27.25829 520
27.27841 555
27.29852 611
27.31863 632
27.33875 606
27.35886 700
27.37897 716
27.39909 763
27.4192 763
27.43932 749
27.45943 744
27.47954 706
27.49966 630
27.51977 585
27.53988 538
27.56 542
27.58011 484
27.60023 484
27.62034 424
27.64045 459
27.66057 434
27.68068 442
27.70079 443
27.72091 453
27.74102 470
27.76113 457
27.78125 477
27.80136 461
27.82148 481
27.84159 481
27.8617 478
27.88182 448
27.90193 486
27.92204 468
27.94216 444
27.96227 407
27.98239 456
28.0025 403
28.02261 388
28.04273 378
28.06284 364
28.08295 373
28.10307 349
28.12318 346
28.1433 355
28.16341 381
28.18352 393
28.20364 343
28.22375 362
28.24386 371
28.26398 319
28.28409 351
28.3042 357
28.32432 369
28.34443 345
28.36455 365
28.38466 334
28.40477 286
28.42489 309
28.445 353
28.46511 306
28.48523 336
28.50534 303
28.52546 304
28.54557 342
28.56568 350
28.5858 334
28.60591 331
28.62602 293
28.64614 278
28.66625 303
28.68636 345
28.70648 306
28.72659 312
28.74671 281
28.76682 289
28.78693 315
28.80705 345
28.82716 335
28.84727 288
28.86739 334
28.8875 331
28.90762 334
28.92773 322
28.94784 312
28.96796 316
28.98807 302
29.00818 306
29.0283 323
29.04841 325
29.06853 324
29.08864 319
29.10875 307
29.12887 298
29.14898 309
29.16909 312
29.18921 303
29.20932 317
29.22943 322
29.24955 327
29.26966 347
29.28978 332
29.30989 344
29.33 336
29.35012 335
29.37023 334
29.39034 360
29.41046 303
29.43057 344
29.45069 326
29.4708 341
29.49091 344
29.51103 338
29.53114 351
29.55125 277
29.57137 305
29.59148 347
29.6116 335
29.63171 331
29.65182 345
29.67194 352
29.69205 323
29.71216 321
29.73228 339
29.75239 342
29.7725 327
29.79262 360
29.81273 310
29.83285 352
29.85296 367
29.87307 305
29.89319 323
29.9133 327
29.93341 343
29.95353 313
29.97364 318
29.99376 302
30.01387 351
30.03398 314
30.0541 382
30.07421 360
30.09432 373
30.11444 339
30.13455 337
30.15467 335
30.17478 332
30.19489 330
30.21501 371
30.23512 336
30.25523 326
30.27535 332
30.29546 326
30.31557 331
30.33569 353
30.3558 358
30.37592 318
30.39603 321
30.41614 305
30.43626 297
30.45637 288
30.47648 304
30.4966 301
30.51671 300
30.53683 304
30.55694 313
30.57705 315
30.59717 330
30.61728 319
30.63739 319
30.65751 340
30.67762 334
30.69773 380
30.71785 355
30.73796 340
30.75808 348
30.77819 341
30.7983 342
30.81842 354
30.83853 352
30.85864 351
30.87876 319
30.89887 309
30.91899 280
30.9391 300
30.95921 280
30.97933 307
30.99944 279
31.01955 281
31.03967 274
31.05978 283
31.0799 254
31.10001 303
31.12012 270
31.14024 269
31.16035 271
31.18046 278
31.20058 297
31.22069 284
31.2408 291
31.26092 297
31.28103 270
31.30115 295
31.32126 281
31.34137 304
31.36149 263
31.3816 254
31.40171 282
31.42183 267
31.44194 260
31.46206 297
31.48217 245
31.50228 271
31.5224 291
31.54251 292
31.56262 300
31.58274 272
31.60285 281
31.62297 276
31.64308 284
31.66319 301
31.68331 275
31.70342 280
31.72353 295
31.74365 272
31.76376 281
31.78387 269
31.80399 263
31.8241 283
31.84422 288
31.86433 259
31.88444 265
31.90456 289
31.92467 254
31.94478 300
31.9649 259
31.98501 270
32.00513 257
32.02524 266
32.04535 268
32.06547 283
32.08558 287
32.10569 275
32.12581 299
32.14592 282
32.16604 303
32.18615 330
32.20626 316
32.22638 289
32.24649 298
32.2666 299
32.28672 296
32.30683 291
32.32694 301
32.34706 323
32.36717 294
32.38729 294
32.4074 268
32.42751 286
32.44763 273
32.46774 280
32.48785 333
32.50797 308
32.52808 284
32.5482 300
32.56831 253
32.58842 264
32.60854 292
32.62865 278
32.64876 282
32.66888 298
32.68899 303
32.7091 283
32.72922 280
32.74933 285
32.76945 299
32.78956 281
32.80967 289
32.82979 290
32.8499 317
32.87001 298
32.89013 290
32.91024 300
32.93036 309
32.95047 313
32.97058 293
32.9907 324
33.01081 291
33.03092 343
33.05104 290
33.07115 330
33.09127 314
33.11138 310
33.13149 271
33.15161 316
33.17172 318
33.19183 298
33.21195 330
33.23206 309
33.25217 315
33.27229 328
33.2924 299
33.31252 289
33.33263 312
33.35274 270
33.37286 314
33.39297 301
33.41308 303
33.4332 300
33.45331 301
33.47343 303
33.49354 280
33.51365 289
33.53377 287
33.55388 322
33.57399 258
33.59411 275
33.61422 270
33.63434 294
33.65445 266
33.67456 279
33.69468 266
33.71479 305
33.7349 306
33.75502 283
33.77513 278
33.79524 250
33.81536 291
33.83547 333
33.85559 273
33.8757 265
33.89581 307
33.91593 294
33.93604 298
33.95615 282
33.97627 256
33.99638 285
34.0165 306
34.03661 276
34.05672 286
34.07684 305
34.09695 284
34.11706 317
34.13718 310
34.15729 268
34.17741 337
34.19752 342
34.21763 320
34.23775 326
34.25786 323
34.27797 353
34.29809 334
34.3182 321
34.33831 306
34.35843 321
34.37854 343
34.39866 324
34.41877 355
34.43888 325
34.459 367
34.47911 361
34.49922 341
34.51934 370
34.53945 344
34.55957 383
34.57968 356
34.59979 391
34.61991 391
34.64002 373
34.66013 362
34.68025 419
34.70036 411
34.72047 439
34.74059 441
34.7607 429
34.78082 437
34.80093 425
34.82104 438
34.84116 423
34.86127 423
34.88138 443
34.9015 473
34.92161 455
34.94173 470
34.96184 429
34.98195 427
35.00207 468
35.02218 438
35.04229 425
35.06241 418
35.08252 440
35.10264 444
35.12275 488
35.14286 430
35.16298 377
35.18309 418
35.2032 423
35.22332 430
35.24343 428
35.26354 428
35.28366 428
35.30377 432
35.32389 408
35.344 421
35.36411 440
35.38423 454
35.40434 465
35.42445 447
35.44457 460
35.46468 462
35.4848 465
35.50491 487
35.52502 487
35.54514 438
35.56525 411
35.58536 447
35.60548 453
35.62559 478
35.64571 449
35.66582 453
35.68593 437
35.70605 462
35.72616 458
35.74627 433
35.76639 414
35.7865 393
35.80661 474
35.82673 433
35.84684 419
35.86696 455
35.88707 407
35.90718 384
35.9273 407
35.94741 365
35.96752 384
35.98764 386
36.00775 411
36.02787 384
36.04798 390
36.06809 371
36.08821 380
36.10832 409
36.12843 423
36.14855 408
36.16866 401
36.18878 422
36.20889 405
36.229 417
36.24912 525
36.26923 466
36.28934 518
36.30946 533
36.32957 585
36.34968 736
36.3698 799
36.38991 964
36.41003 1044
36.43014 1193
36.45025 1353
36.47037 1456
36.49048 1451
36.51059 1360
36.53071 1309
36.55082 1147
36.57094 977
36.59105 907
36.61116 771
36.63128 638
36.65139 569
36.6715 529
36.69162 431
36.71173 428
36.73184 401
36.75196 429
36.77207 449
36.79219 409
36.8123 392
36.83241 418
36.85253 420
36.87264 381
36.89275 424
36.91287 386
36.93298 418
36.9531 402
36.97321 389
36.99332 406
37.01344 420
37.03355 405
37.05366 401
37.07378 405
37.09389 397
37.11401 366
37.13412 391
37.15423 381
37.17435 386
37.19446 366
37.21457 379
37.23469 340
37.2548 361
37.27491 363
37.29503 364
37.31514 386
37.33526 360
37.35537 351
37.37548 374
37.3956 331
37.41571 372
37.43582 353
37.45594 379
37.47605 365
37.49617 378
37.51628 347
37.53639 367
37.55651 364
37.57662 394
37.59673 316
37.61685 388
37.63696 391
37.65708 364
37.67719 406
37.6973 380
37.71742 381
37.73753 360
37.75764 336
37.77776 339
37.79787 403
37.81798 354
37.8381 371
37.85821 387
37.87833 357
37.89844 350
37.91855 343
37.93867 370
37.95878 367
37.97889 358
37.99901 337
38.01912 374
38.03924 344
38.05935 336
38.07946 401
38.09958 339
38.11969 360
38.1398 381
38.15992 360
38.18003 405
38.20015 391
38.22026 372
38.24037 389
38.26049 392
38.2806 378
38.30071 385
38.32083 368
38.34094 394
38.36105 386
38.38117 381
38.40128 355
38.4214 407
38.44151 344
38.46162 367
38.48174 381
38.50185 374
38.52196 394
38.54208 372
38.56219 378
38.58231 352
38.60242 350
38.62253 336
38.64265 357
38.66276 396
38.68287 359
38.70299 352
38.7231 364
38.74321 311
38.76333 346
38.78344 350
38.80356 358
38.82367 323
38.84378 292
38.8639 353
38.88401 339
38.90412 336
38.92424 341
38.94435 334
38.96447 304
38.98458 348
39.00469 348
39.02481 340
39.04492 333
39.06503 372
39.08515 378
39.10526 353
39.12538 359
39.14549 375
39.1656 393
39.18572 450
39.20583 418
39.22594 508
39.24606 566
39.26617 599
39.28628 748
39.3064 807
39.32651 968
39.34663 1084
39.36674 1231
39.38685 1296
39.40697 1374
39.42708 1313
39.44719 1163
39.46731 1093
39.48742 954
39.50754 793
39.52765 738
39.54776 645
39.56788 528
39.58799 468
39.6081 432
39.62822 374
39.64833 354
39.66845 367
39.68856 317
39.70867 333
39.72879 309
39.7489 314
39.76901 317
39.78913 320
39.80924 296
39.82935 317
39.84947 280
39.86958 332
39.8897 311
39.90981 283
39.92992 342
39.95004 318
39.97015 358
39.99026 302
40.01038 341
40.03049 385
40.05061 376
40.07072 417
40.09083 433
40.11095 462
40.13106 564
40.15117 616
40.17129 691
40.1914 688
40.21152 751
40.23163 757
40.25174 738
40.27186 690
40.29197 648
40.31208 609
40.3322 582
40.35231 470
40.37242 454
40.39254 379
40.41265 361
40.43277 324
40.45288 333
40.47299 302
40.49311 336
40.51322 278
40.53333 278
40.55345 295
40.57356 301
40.59368 271
40.61379 313
40.6339 308
40.65402 312
40.67413 305
40.69424 306
40.71436 289
40.73447 295
40.75458 296
40.7747 306
40.79481 314
40.81493 279
40.83504 301
40.85515 277
40.87527 327
40.89538 342
40.91549 288
40.93561 280
40.95572 276
40.97584 312
40.99595 294
41.01606 288
41.03618 320
41.05629 279
41.0764 301
41.09652 305
41.11663 299
41.13675 293
41.15686 278
41.17697 265
41.19709 296
41.2172 286
41.23731 307
41.25743 297
41.27754 295
41.29765 270
41.31777 252
41.33788 329
41.358 293
41.37811 290
41.39822 317
41.41834 261
41.43845 286
41.45856 302
41.47868 302
41.49879 290
41.51891 304
41.53902 289
41.55913 300
41.57925 302
41.59936 309
41.61947 295
41.63959 331
41.6597 309
41.67982 360
41.69993 341
41.72004 322
41.74016 344
41.76027 314
41.78038 320
41.8005 303
41.82061 304
41.84072 314
41.86084 304
41.88095 269
41.90107 292
41.92118 320
41.94129 281
41.96141 298
41.98152 282
42.00163 262
42.02175 324
42.04186 292
42.06198 291
42.08209 309
42.1022 336
42.12232 348
42.14243 322
42.16254 354
42.18266 412
42.20277 358
42.22289 424
42.243 495
42.26311 525
42.28323 670
42.30334 718
42.32345 863
42.34357 821
42.36368 1034
42.38379 981
42.40391 943
42.42402 879
42.44414 770
42.46425 747
42.48436 715
42.50448 612
42.52459 561
42.5447 539
42.56482 414
42.58493 362
42.60505 337
42.62516 319
42.64527 279
42.66539 284
42.6855 287
42.70561 305
42.72573 281
42.74584 288
42.76595 280
42.78607 303
42.80618 319
42.8263 253
42.84641 296
42.86652 273
42.88664 259
42.90675 271
42.92686 265
42.94698 275
42.96709 283
42.98721 249
43.00732 256
43.02743 279
43.04755 264
43.06766 271
43.08777 246
43.10789 253
43.128 264
43.14812 242
43.16823 255
43.18834 268
43.20846 271
43.22857 256
43.24868 241
43.2688 256
43.28891 261
43.30902 231
43.32914 260
43.34925 247
43.36937 252
43.38948 241
43.40959 249
43.42971 247
43.44982 264
43.46993 265
43.49005 254
43.51016 265
43.53028 264
43.55039 250
43.5705 261
43.59062 249
43.61073 254
43.63084 270
43.65096 238
43.67107 248
43.69119 261
43.7113 235
43.73141 238
43.75153 261
43.77164 260
43.79175 245
43.81187 241
43.83198 238
43.85209 244
43.87221 253
43.89232 230
43.91244 258
43.93255 265
43.95266 264
43.97278 240
43.99289 241
44.013 275
44.03312 259
44.05323 224
44.07335 261
44.09346 265
44.11357 254
44.13369 263
44.1538 249
44.17391 225
44.19403 239
44.21414 264
44.23426 256
44.25437 217
44.27448 218
44.2946 236
44.31471 243
44.33482 230
44.35494 257
44.37505 236
44.39516 255
44.41528 229
44.43539 269
44.45551 232
44.47562 274
44.49573 243
44.51585 259
44.53596 258
44.55607 262
44.57619 247
44.5963 256
44.61642 260
44.63653 249
44.65664 252
44.67676 265
44.69687 244
44.71698 245
44.7371 272
44.75721 228
44.77732 237
44.79744 274
44.81755 242
44.83767 246
44.85778 254
44.87789 254
44.89801 266
44.91812 235
44.93823 242
44.95835 244
44.97846 241
44.99858 252
45.01869 276
45.0388 273
45.05892 285
45.07903 242
45.09914 239
45.11926 270
45.13937 264
45.15949 278
45.1796 268
45.19971 231
45.21983 254
45.23994 252
45.26005 262
45.28017 266
45.30028 252
45.32039 280
45.34051 257
45.36062 306
45.38074 286
45.40085 296
45.42096 283
45.44108 332
45.46119 318
45.4813 332
45.50142 365
45.52153 364
45.54165 350
45.56176 388
45.58187 448
45.60199 472
45.6221 494
45.64221 626
45.66233 571
45.68244 674
45.70256 701
45.72267 761
45.74278 756
45.7629 707
45.78301 661
45.80312 572
45.82324 553
45.84335 486
45.86346 474
45.88358 437
45.90369 417
45.92381 354
45.94392 324
45.96403 324
45.98415 333
46.00426 301
46.02437 315
46.04449 273
46.0646 285
46.08472 265
46.10483 246
46.12494 292
46.14506 254
46.16517 287
46.18528 259
46.2054 276
46.22551 291
46.24563 273
46.26574 292
46.28585 267
46.30597 278
46.32608 264
46.34619 260
46.36631 281
46.38642 237
46.40653 256
46.42665 235
46.44676 247
46.46688 288
46.48699 283
46.5071 272
46.52722 289
46.54733 274
46.56744 250
46.58756 252
46.60767 272
46.62779 266
46.6479 295
46.66801 244
46.68813 275
46.70824 249
46.72835 273
46.74847 250
46.76858 258
46.78869 268
46.80881 243
46.82892 248
46.84904 255
46.86915 274
46.88926 255
46.90938 238
46.92949 265
46.9496 274
46.96972 273
46.98983 285
47.00995 271
47.03006 273
47.05017 247
47.07029 262
47.0904 287
47.11051 244
47.13063 293
47.15074 259
47.17086 290
47.19097 265
47.21108 256
47.2312 260
47.25131 252
47.27142 256
47.29154 249
47.31165 285
47.33176 262
47.35188 244
47.37199 276
47.39211 293
47.41222 260
47.43233 261
47.45245 281
47.47256 274
47.49267 285
47.51279 257
47.5329 260
47.55302 288
47.57313 253
47.59324 249
47.61336 248
47.63347 286
47.65358 260
47.6737 271
47.69381 229
47.71393 235
47.73404 252
47.75415 247
47.77427 231
47.79438 241
47.81449 242
47.83461 265
47.85472 266
47.87483 281
47.89495 229
47.91506 246
47.93518 255
47.95529 264
47.9754 250
47.99552 274
48.01563 246
48.03574 278
48.05586 258
48.07597 288
48.09609 244
48.1162 247
48.13631 242
48.15643 276
48.17654 227
48.19665 261
48.21677 234
48.23688 261
48.257 251
48.27711 255
48.29722 236
48.31734 237
48.33745 248
48.35756 253
48.37768 276
48.39779 267
48.4179 294
48.43802 255
48.45813 205
48.47825 250
48.49836 243
48.51847 242
48.53859 256
48.5587 241
48.57881 236
48.59893 243
48.61904 247
48.63916 252
48.65927 254
48.67938 270
48.6995 251
48.71961 242
48.73972 255
48.75984 274
48.77995 266
48.80006 307
48.82018 278
48.84029 265
48.86041 248
48.88052 284
48.90063 294
48.92075 284
48.94086 260
48.96097 278
48.98109 269
49.0012 289
49.02132 257
49.04143 257
49.06154 268
49.08166 254
49.10177 276
49.12188 276
49.142 257
49.16211 247
49.18223 272
49.20234 291
49.22245 244
49.24257 267
49.26268 285
49.28279 260
49.30291 287
49.32302 258
49.34313 266
49.36325 245
49.38336 260
49.40348 277
49.42359 249
49.4437 271
49.46382 265
49.48393 285
49.50404 295
49.52416 295
49.54427 292
49.56439 292
49.5845 290
49.60461 305
49.62473 309
49.64484 294
49.66495 321
49.68507 320
49.70518 379
49.7253 369
49.74541 349
49.76552 407
49.78564 420
49.80575 447
49.82586 465
49.84598 491
49.86609 540
49.8862 624
49.90632 714
49.92643 849
49.94655 932
49.96666 1142
49.98677 1274
50.00689 1521
50.027 1779
50.04711 1846
50.06723 1935
50.08734 1922
50.10746 1755
50.12757 1497
50.14768 1297
50.1678 1292
50.18791 1125
50.20802 1025
50.22814 966
50.24825 847
50.26837 606
50.28848 512
50.30859 474
50.32871 440
50.34882 366
50.36893 385
50.38905 358
50.40916 368
50.42927 340
50.44939 348
50.4695 338
50.48962 346
50.50973 363
50.52984 393
50.54996 370
50.57007 386
50.59018 359
50.6103 335
50.63041 330
50.65053 304
50.67064 307
50.69075 315
50.71087 343
50.73098 302
50.75109 289
50.77121 266
50.79132 273
50.81143 289
50.83155 250
50.85166 258
50.87178 258
50.89189 242
50.912 265
50.93212 246
50.95223 278
50.97234 255
50.99246 236
51.01257 246
51.03269 242
51.0528 234
51.07291 229
51.09303 238
51.11314 245
51.13325 251
51.15337 237
51.17348 277
51.1936 243
51.21371 262
51.23382 222
51.25394 244
51.27405 265
51.29416 245
51.31428 272
51.33439 238
51.3545 246
51.37462 232
51.39473 229
51.41485 235
51.43496 237
51.45507 240
51.47519 231
51.4953 214
51.51541 241
51.53553 216
51.55564 258
51.57576 244
51.59587 237
51.61598 214
51.6361 216
51.65621 242
51.67632 233
51.69644 226
51.71655 193
51.73667 229
51.75678 228
51.77689 231
51.79701 217
51.81712 224
51.83723 215
51.85735 241
51.87746 225
51.89757 212
51.91769 218
51.9378 227
51.95792 217
51.97803 227
51.99814 236
52.01826 238
52.03837 218
52.05848 230
52.0786 235
52.09871 245
52.11883 211
52.13894 221
52.15905 230
52.17917 209
52.19928 238
52.21939 240
52.23951 227
52.25962 230
52.27974 208
52.29985 222
52.31996 217
52.34008 233
52.36019 265
52.3803 252
52.40042 252
52.42053 256
52.44064 253
52.46076 228
52.48087 252
52.50099 245
52.5211 250
52.54121 210
52.56133 258
52.58144 239
52.60155 229
52.62167 209
52.64178 220
52.6619 222
52.68201 237
52.70212 250
52.72224 217
52.74235 238
52.76246 232
52.78258 222
52.80269 245
52.8228 243
52.84292 213
52.86303 209
52.88315 219
52.90326 228
52.92337 251
52.94349 225
52.9636 244
52.98371 230
53.00383 243
53.02394 235
53.04406 245
53.06417 232
53.08428 260
53.1044 237
53.12451 262
53.14462 222
53.16474 217
53.18485 251
53.20497 253
53.22508 258
53.24519 246
53.26531 250
53.28542 249
53.30553 224
53.32565 230
53.34576 260
53.36587 268
53.38599 242
53.4061 274
53.42622 273
53.44633 260
53.46644 261
53.48656 260
53.50667 253
53.52678 293
53.5469 252
53.56701 251
53.58713 259
53.60724 270
53.62735 293
53.64747 283
53.66758 278
53.68769 280
53.70781 275
53.72792 288
53.74804 289
53.76815 284
53.78826 285
53.80838 275
53.82849 261
53.8486 319
53.86872 281
53.88883 276
53.90894 300
53.92906 307
53.94917 279
53.96929 306
53.9894 290
54.00951 328
54.02963 285
54.04974 297
54.06985 278
54.08997 273
54.11008 307
54.1302 297
54.15031 270
54.17042 336
54.19054 308
54.21065 315
54.23076 312
54.25088 308
54.27099 289
54.29111 339
54.31122 324
54.33133 326
54.35145 315
54.37156 341
54.39167 301
54.41179 340
54.4319 331
54.45201 314
54.47213 358
54.49224 342
54.51236 319
54.53247 346
54.55258 370
54.5727 376
54.59281 412
54.61292 409
54.63304 453
54.65315 427
54.67327 502
54.69338 544
54.71349 610
54.73361 707
54.75372 733
54.77383 754
54.79395 818
54.81406 781
54.83417 723
54.85429 686
54.8744 654
54.89452 557
54.91463 589
54.93474 537
54.95486 529
54.97497 464
54.99508 448
55.0152 460
55.03531 380
55.05543 386
55.07554 353
55.09565 367
55.11577 362
55.13588 399
55.15599 409
55.17611 437
55.19622 469
55.21634 499
55.23645 488
55.25656 494
55.27668 511
55.29679 469
55.3169 397
55.33702 414
55.35713 402
55.37724 392
55.39736 390
55.41747 389
55.43759 369
55.4577 324
55.47781 362
55.49793 297
55.51804 303
55.53815 305
55.55827 285
55.57838 260
55.5985 254
55.61861 284
55.63872 260
55.65884 266
55.67895 300
55.69906 268
55.71918 272
55.73929 304
55.75941 320
55.77952 275
55.79963 274
55.81975 266
55.83986 282
55.85997 272
55.88009 290
55.9002 244
55.92031 262
55.94043 256
55.96054 259
55.98066 257
56.00077 240
56.02088 243
56.041 274
56.06111 270
56.08122 279
56.10134 275
56.12145 262
56.14157 261
56.16168 247
56.18179 243
56.20191 270
56.22202 247
56.24213 272
56.26225 278
56.28236 261
56.30248 251
56.32259 231
56.3427 276
56.36282 258
56.38293 238
56.40304 251
56.42316 260
56.44327 236
56.46338 267
56.4835 261
56.50361 248
56.52373 241
56.54384 259
56.56395 235
56.58407 231
56.60418 238
56.62429 270
56.64441 247
56.66452 261
56.68464 250
56.70475 264
56.72486 240
56.74498 231
56.76509 266
56.7852 257
56.80532 282
56.82543 253
56.84554 249
56.86566 243
56.88577 234
56.90589 240
56.926 237
56.94611 268
56.96623 251
56.98634 237
57.00645 244
57.02657 261
57.04668 228
57.0668 243
57.08691 232
57.10702 265
57.12714 249
57.14725 249
57.16736 270
57.18748 308
57.20759 297
57.22771 266
57.24782 256
57.26793 241
57.28805 255
57.30816 261
57.32827 255
57.34839 285
57.3685 260
57.38861 259
57.40873 220
57.42884 210
57.44896 253
57.46907 263
57.48918 231
57.5093 250
57.52941 276
57.54952 249
57.56964 268
57.58975 250
57.60987 240
57.62998 234
57.65009 245
57.67021 258
57.69032 253
57.71043 224
57.73055 232
57.75066 214
57.77078 277
57.79089 238
57.811 239
57.83112 247
57.85123 229
57.87134 237
57.89146 231
57.91157 235
57.93168 228
57.9518 223
57.97191 239
57.99203 248
58.01214 246
58.03225 247
58.05237 222
58.07248 211
58.09259 224
58.11271 228
58.13282 254
58.15294 209
58.17305 245
58.19316 244
58.21328 248
58.23339 231
58.2535 241
58.27362 261
58.29373 245
58.31385 255
58.33396 242
58.35407 238
58.37419 218
58.3943 227
58.41441 237
58.43453 261
58.45464 269
58.47475 248
58.49487 253
58.51498 240
58.5351 236
58.55521 213
58.57532 258
58.59544 246
58.61555 245
58.63566 239
58.65578 258
58.67589 226
58.69601 263
58.71612 262
58.73623 263
58.75635 245
58.77646 269
58.79657 243
58.81669 254
58.8368 237
58.85691 255
58.87703 220
58.89714 236
58.91726 237
58.93737 211
58.95748 253
58.9776 232
58.99771 252
59.01782 248
59.03794 214
59.05805 227
59.07817 252
59.09828 253
59.11839 222
59.13851 242
59.15862 230
59.17873 257
59.19885 235
59.21896 245
59.23908 271
59.25919 233
59.2793 245
59.29942 248
59.31953 261
59.33964 242
59.35976 263
59.37987 269
59.39998 272
59.4201 282
59.44021 286
59.46033 294
59.48044 280
59.50055 310
59.52067 319
59.54078 288
59.56089 347
59.58101 341
59.60112 343
59.62124 400
59.64135 419
59.66146 423
59.68158 472
59.70169 515
59.7218 597
59.74192 619
59.76203 770
59.78215 876
59.80226 1007
59.82237 1116
59.84249 1214
59.8626 1271
59.88271 1284
59.90283 1304
59.92294 1079
59.94305 1035
59.96317 902
59.98328 815
60.0034 858
60.02351 792
60.04362 776
60.06374 741
60.08385 637
60.10396 547
60.12408 434
60.14419 378
60.16431 343
60.18442 308
60.20453 331
60.22465 308
60.24476 289
60.26487 283
60.28499 269
60.3051 291
60.32522 253
60.34533 282
60.36544 302
60.38556 282
60.40567 256
60.42578 263
60.4459 264
60.46601 275
60.48612 224
60.50624 225
60.52635 249
60.54647 229
60.56658 257
60.58669 222
60.60681 206
60.62692 259
60.64703 241
60.66715 273
60.68726 254
60.70738 234
60.72749 233
60.7476 261
60.76772 231
60.78783 254
60.80794 249
60.82806 244
60.84817 247
60.86828 246
60.8884 249
60.90851 259
60.92863 257
60.94874 239
60.96885 243
60.98897 270
61.00908 263
61.02919 252
61.04931 256
61.06942 235
61.08954 258
61.10965 249
61.12976 264
61.14988 254
61.16999 261
61.1901 254
61.21022 254
61.23033 260
61.25045 264
61.27056 280
61.29067 244
61.31079 270
61.3309 236
61.35101 275
61.37113 284
61.39124 244
61.41135 257
61.43147 284
61.45158 247
61.4717 258
61.49181 300
61.51192 251
61.53204 239
61.55215 268
61.57226 276
61.59238 285
61.61249 277
61.63261 279
61.65272 299
61.67283 261
61.69295 270
61.71306 324
61.73317 266
61.75329 309
61.7734 329
61.79352 316
61.81363 309
61.83374 325
61.85386 308
61.87397 328
61.89408 307
61.9142 338
61.93431 334
61.95442 324
61.97454 378
61.99465 367
62.01477 363
62.03488 373
62.05499 379
62.07511 380
62.09522 364
62.11533 382
62.13545 362
62.15556 377
62.17568 355
62.19579 375
62.2159 358
62.23602 350
62.25613 330
62.27624 330
62.29636 344
62.31647 372
62.33659 344
62.3567 319
62.37681 333
62.39693 339
62.41704 296
62.43715 304
62.45727 320
62.47738 272
62.49749 303
62.51761 307
62.53772 275
62.55784 280
62.57795 274
62.59806 258
62.61818 305
62.63829 292
62.6584 269
62.67852 297
62.69863 269
62.71875 273
62.73886 259
62.75897 245
62.77909 269
62.7992 248
62.81931 266
62.83943 257
62.85954 297
62.87965 272
62.89977 254
62.91988 238
62.94 253
62.96011 261
62.98022 261
63.00034 248
63.02045 262
63.04056 267
63.06068 237
63.08079 271
63.10091 247
63.12102 255
63.14113 239
63.16125 257
63.18136 253
63.20147 275
63.22159 256
63.2417 254
63.26182 228
63.28193 253
63.30204 243
63.32216 261
63.34227 256
63.36238 252
63.3825 278
63.40261 239
63.42272 248
63.44284 258
63.46295 256
63.48307 270
63.50318 241
63.52329 256
63.54341 273
63.56352 295
63.58363 248
63.60375 265
63.62386 304
63.64398 306
63.66409 264
63.6842 272
63.70432 288
63.72443 313
63.74454 268
63.76466 321
63.78477 300
63.80489 319
63.825 358
63.84511 374
63.86523 383
63.88534 443
63.90545 406
63.92557 485
63.94568 442
63.96579 440
63.98591 423
64.00602 408
64.02614 436
64.04625 356
64.06636 329
64.08648 376
64.10659 359
64.1267 378
64.14682 312
64.16693 321
64.18705 337
64.20716 325
64.22727 299
64.24739 262
64.2675 256
64.28761 278
64.30773 259
64.32784 270
64.34796 248
64.36807 232
64.38818 236
64.4083 243
64.42841 261
64.44852 262
64.46864 243
64.48875 217
64.50886 230
64.52898 223
64.54909 244
64.56921 245
64.58932 211
64.60943 200
64.62955 242
64.64966 231
64.66977 221
64.68989 227
64.71 193
64.73012 210
64.75023 212
64.77034 227
64.79046 235
64.81057 251
64.83068 217
64.8508 247
64.87091 230
64.89102 240
64.91114 261
64.93125 248
64.95137 219
64.97148 198
64.99159 234
65.01171 227
65.03182 244
65.05193 213
65.07205 238
65.09216 237
65.11228 240
65.13239 231
65.1525 222
65.17262 221
65.19273 239
65.21284 235
65.23296 254
65.25307 241
65.27319 201
65.2933 237
65.31341 248
65.33353 264
65.35364 250
65.37375 255
65.39387 260
65.41398 240
65.43409 216
65.45421 230
65.47432 234
65.49444 279
65.51455 234
65.53466 243
65.55478 236
65.57489 247
65.595 254
65.61512 252
65.63523 290
65.65535 290
65.67546 261
65.69557 266
65.71569 256
65.7358 253
65.75591 267
65.77603 262
65.79614 240
65.81626 256
65.83637 281
65.85648 225
65.8766 239
65.89671 251
65.91682 236
65.93694 238
65.95705 246
65.97716 222
65.99728 210
66.01739 225
66.03751 198
66.05762 236
66.07773 224
66.09785 207
66.11796 207
66.13807 209
66.15819 226
66.1783 249
66.19842 233
66.21853 227
66.23864 220
66.25876 233
66.27887 219
66.29898 225
66.3191 231
66.33921 230
66.35933 240
66.37944 235
66.39955 211
66.41967 234
66.43978 234
66.45989 215
66.48001 259
66.50012 240
66.52023 252
66.54035 243
66.56046 249
66.58058 225
66.60069 201
66.6208 199
66.64092 250
66.66103 224
66.68114 227
66.70126 234
66.72137 237
66.74149 231
66.7616 226
66.78171 231
66.80183 240
66.82194 222
66.84205 226
66.86217 216
66.88228 217
66.90239 231
66.92251 242
66.94262 224
66.96274 228
66.98285 238
67.00296 236
67.02308 233
67.04319 235
67.0633 215
67.08342 222
67.10353 220
67.12365 259
67.14376 248
67.16387 266
67.18399 227
67.2041 255
67.22421 246
67.24433 267
67.26444 251
67.28456 251
67.30467 249
67.32478 278
67.3449 288
67.36501 305
67.38512 310
67.40524 305
67.42535 332
67.44546 367
67.46558 379
67.48569 438
67.50581 485
67.52592 523
67.54603 535
67.56615 617
67.58626 670
67.60637 753
67.62649 834
67.6466 857
67.66672 847
67.68683 880
67.70694 746
67.72706 719
67.74717 684
67.76728 653
67.7874 666
67.80751 644
67.82763 682
67.84774 683
67.86785 720
67.88797 684
67.90808 707
67.92819 751
67.94831 725
67.96842 815
67.98853 870
68.00865 986
68.02876 1042
68.04888 1102
68.06899 1115
68.0891 1111
68.10922 1052
68.12933 1016
68.14944 988
68.16956 984
68.18967 1023
68.20979 976
68.2299 1051
68.25001 1020
68.27013 974
68.29024 834
68.31035 726
68.33047 671
68.35058 612
68.3707 544
68.39081 525
68.41092 500
68.43104 535
68.45115 477
68.47126 439
68.49138 358
68.51149 317
68.5316 334
68.55172 285
68.57183 280
68.59195 271
68.61206 258
68.63217 264
68.65229 265
68.6724 270
68.69251 271
68.71263 252
68.73274 251
68.75286 228
68.77297 236
68.79308 236
68.8132 238
68.83331 234
68.85342 236
68.87354 245
68.89365 268
68.91376 224
68.93388 214
68.95399 222
68.97411 233
68.99422 220
69.01433 206
69.03445 233
69.05456 233
69.07467 245
69.09479 247
69.1149 260
69.13502 244
69.15513 201
69.17524 234
69.19536 232
69.21547 233
69.23558 218
69.2557 223
69.27581 222
69.29593 244
69.31604 240
69.33615 216
69.35627 214
69.37638 200
69.39649 248
69.41661 240
69.43672 222
69.45683 215
69.47695 235
69.49706 224
69.51718 217
69.53729 221
69.5574 228
69.57752 246
69.59763 225
69.61774 228
69.63786 228
69.65797 217
69.67809 217
69.6982 209
69.71831 225
69.73843 260
69.75854 203
69.77865 208
69.79877 209
69.81888 214
69.839 217
69.85911 244
69.87922 212
69.89934 221
69.91945 200
69.93956 195
69.95968 203
69.97979 201
69.9999 228
70.02002 248
70.04013 208
70.06025 192
70.08036 208
70.10047 212
70.12059 193
70.1407 206
70.16081 219
70.18093 194
70.20104 252
70.22116 224
70.24127 215
70.26138 192
70.2815 195
70.30161 207
70.32172 205
70.34184 230
70.36195 221
70.38207 225
70.40218 234
70.42229 237
70.44241 212
70.46252 214
70.48263 217
70.50275 213
70.52286 214
70.54297 195
70.56309 200
70.5832 193
70.60332 209
70.62343 239
70.64354 189
70.66366 194
70.68377 210
70.70388 203
70.724 220
70.74411 209
70.76423 176
70.78434 228
70.80445 210
70.82457 221
70.84468 210
70.86479 199
70.88491 232
70.90502 210
70.92513 209
70.94525 206
70.96536 226
70.98548 172
71.00559 205
71.0257 234
71.04582 206
71.06593 216
71.08604 205
71.10616 229
71.12627 190
71.14639 208
71.1665 229
71.18661 196
71.20673 217
71.22684 213
71.24695 239
71.26707 224
71.28718 206
71.3073 203
71.32741 207
71.34752 202
71.36764 218
71.38775 209
71.40786 200
71.42798 211
71.44809 222
71.4682 253
71.48832 212
71.50843 233
71.52855 232
71.54866 244
71.56877 193
71.58889 223
71.609 204
71.62911 226
71.64923 210
71.66934 207
71.68946 225
71.70957 217
71.72968 205
71.7498 215
71.76991 214
71.79002 222
71.81014 239
71.83025 220
71.85037 220
71.87048 233
71.89059 207
71.91071 219
71.93082 212
71.95093 218
71.97105 195
71.99116 247
72.01127 233
72.03139 217
72.0515 216
72.07162 216
72.09173 223
72.11184 230
72.13196 214
72.15207 227
72.17218 223
72.1923 221
72.21241 216
72.23253 224
72.25264 218
72.27275 218
72.29287 209
72.31298 202
72.33309 211
72.35321 221
72.37332 216
72.39344 247
72.41355 208
72.43366 221
72.45378 213
72.47389 206
72.494 223
72.51412 237
72.53423 197
72.55434 209
72.57446 243
72.59457 227
72.61469 218
72.6348 209
72.65491 216
72.67503 228
72.69514 226
72.71525 229
72.73537 225
72.75548 249
72.7756 217
72.79571 210
72.81582 244
72.83594 203
72.85605 226
72.87616 248
72.89628 239
72.91639 199
72.9365 254
72.95662 230
72.97673 253
72.99685 250
73.01696 242
73.03707 253
73.05719 263
73.0773 256
73.09741 273
73.11753 281
73.13764 274
73.15776 284
73.17787 302
73.19798 287
73.2181 317
73.23821 300
73.25832 364
73.27844 389
73.29855 391
73.31867 445
73.33878 430
73.35889 441
73.37901 442
73.39912 469
73.41923 401
73.43935 411
73.45946 403
73.47957 352
73.49969 330
73.5198 308
73.53992 324
73.56003 330
73.58014 384
73.60026 353
73.62037 309
73.64048 315
73.6606 289
73.68071 280
73.70083 251
73.72094 253
73.74105 256
73.76117 228
73.78128 214
73.80139 245
73.82151 236
73.84162 252
73.86174 236
73.88185 222
73.90196 256
73.92208 242
73.94219 238
73.9623 240
73.98242 212
74.00253 232
74.02264 242
74.04276 200
74.06287 225
74.08299 219
74.1031 242
74.12321 236
74.14333 224
74.16344 224
74.18355 229
74.20367 229
74.22378 199
74.2439 220
74.26401 232
74.28412 188
74.30424 225
74.32435 254
74.34446 214
74.36458 227
74.38469 211
74.40481 216
74.42492 218
74.44503 240
74.46515 201
74.48526 234
74.50537 220
74.52549 230
74.5456 218
74.56571 232
74.58583 229
74.60594 207
74.62606 196
74.64617 238
74.66628 223
74.6864 257
74.70651 226
74.72662 223
74.74674 233
74.76685 203
74.78697 222
74.80708 235
74.82719 228
74.84731 247
74.86742 217
74.88753 255
74.90765 206
74.92776 228
74.94787 231
74.96799 222
74.9881 216
75.00822 214
