3.00117 23616
3.02128 23346
3.0414 22782
3.06151 22017
3.08162 21752
3.10174 20833
3.12185 20195
3.14197 19660
3.16208 18782
3.18219 18875
3.20231 17983
3.22242 17458
3.24253 16971
3.26265 16506
3.28276 16060
3.30288 15452
3.32299 15070
3.3431 14662
3.36322 14044
3.38333 13801
3.40344 13164
3.42356 12918
3.44367 12414
3.46379 12240
3.4839 11689
3.50401 11108
3.52413 10773
3.54424 10349
3.56435 10178
3.58447 9857
3.60458 9344
3.62469 8892
3.64481 8918
3.66492 8496
3.68504 8284
3.70515 7623
3.72526 7643
3.74538 7291
3.76549 6898
3.7856 6852
3.80572 6425
3.82583 6170
3.84595 5864
3.86606 5597
3.88617 5539
3.90629 5178
3.9264 5080
3.94651 4859
3.96663 4745
3.98674 4613
4.00686 4195
4.02697 3968
4.04708 3919
4.0672 3877
4.08731 3826
4.10742 3393
4.12754 3384
4.14765 3291
4.16776 3190
4.18788 3128
4.20799 2758
4.22811 2768
4.24822 2733
4.26833 2670
4.28845 2598
4.30856 2303
4.32867 2293
4.34879 2313
4.3689 2191
4.38902 2329
4.40913 2087
4.42924 2153
4.44936 2118
4.46947 1986
4.48958 2031
4.5097 1907
4.52981 1773
4.54992 1808
4.57004 1795
4.59015 1928
4.61027 1751
4.63038 1646
4.65049 1662
4.67061 1656
4.69072 1604
4.71083 1508
4.73095 1501
4.75106 1511
4.77118 1524
4.79129 1555
4.8114 1390
4.83152 1358
4.85163 1410
4.87174 1400
4.89186 1351
4.91197 1281
4.93209 1206
4.9522 1342
4.97231 1260
4.99243 1210
5.01254 1199
5.03265 1221
5.05277 1231
5.07288 1189
5.09299 1154
5.11311 1120
5.13322 1116
5.15334 1069
5.17345 1082
5.19356 1012
5.21368 975
5.23379 1060
5.2539 1077
5.27402 953
5.29413 944
5.31425 915
5.33436 943
5.35447 980
5.37459 967
5.3947 859
5.41481 854
5.43493 886
5.45504 824
5.47516 864
5.49527 827
5.51538 881
5.5355 778
5.55561 865
5.57572 900
5.59584 754
5.61595 780
5.63606 829
5.65618 760
5.67629 758
5.69641 737
5.71652 797
5.73663 736
5.75675 734
5.77686 728
5.79697 641
5.81709 695
5.8372 747
5.85732 733
5.87743 694
5.89754 668
5.91766 687
5.93777 692
5.95788 714
5.978 752
5.99811 718
6.01823 593
6.03834 697
6.05845 662
6.07857 646
6.09868 668
6.11879 681
6.13891 675
6.15902 647
6.17913 611
6.19925 638
6.21936 671
6.23948 641
6.25959 650
6.2797 684
6.29982 656
6.31993 624
6.34004 600
6.36016 626
6.38027 569
6.40039 605
6.4205 584
6.44061 557
6.46073 599
6.48084 592
6.50095 615
6.52107 547
6.54118 587
6.56129 563
6.58141 591
6.60152 584
6.62164 650
6.64175 611
6.66186 562
6.68198 538
6.70209 567
6.7222 592
6.74232 596
6.76243 533
6.78255 568
6.80266 551
6.82277 572
6.84289 581
6.863 571
6.88311 522
6.90323 544
6.92334 581
6.94346 525
6.96357 548
6.98368 542
7.0038 514
7.02391 483
7.04402 567
7.06414 581
7.08425 486
7.10436 487
7.12448 527
7.14459 538
7.16471 528
7.18482 583
7.20493 466
7.22505 512
7.24516 537
7.26527 535
7.28539 480
7.3055 520
7.32562 514
7.34573 507
7.36584 518
7.38596 491
7.40607 575
7.42618 504
7.4463 495
7.46641 512
7.48653 496
7.50664 501
7.52675 452
7.54687 506
7.56698 507
7.58709 519
7.60721 486
7.62732 498
7.64743 533
7.66755 484
7.68766 513
7.70778 484
7.72789 514
7.748 539
7.76812 506
7.78823 507
7.80834 478
7.82846 504
7.84857 440
7.86869 436
7.8888 520
7.90891 472
7.92903 497
7.94914 471
7.96925 514
7.98937 443
8.00948 454
8.0296 495
8.04971 451
8.06982 499
8.08994 461
8.11005 534
8.13016 487
8.15028 460
8.17039 458
8.1905 498
8.21062 458
8.23073 449
8.25085 448
8.27096 443
8.29107 471
8.31119 467
8.3313 469
8.35141 483
8.37153 477
8.39164 460
8.41176 437
8.43187 492
8.45198 451
8.4721 454
8.49221 438
8.51232 459
8.53244 430
8.55255 449
8.57266 502
8.59278 446
8.61289 495
8.63301 480
8.65312 507
8.67323 454
8.69335 488
8.71346 455
8.73357 500
8.75369 458
8.7738 464
8.79392 453
8.81403 514
8.83414 485
8.85426 427
8.87437 467
8.89448 452
8.9146 473
8.93471 435
8.95483 457
8.97494 496
8.99505 433
9.01517 431
9.03528 424
9.05539 437
9.07551 434
9.09562 410
9.11573 469
9.13585 475
9.15596 451
9.17608 445
9.19619 437
9.2163 451
9.23642 459
9.25653 461
9.27664 406
9.29676 422
9.31687 414
9.33699 484
9.3571 431
9.37721 423
9.39733 397
9.41744 426
9.43755 406
9.45767 459
9.47778 396
9.4979 425
9.51801 418
9.53812 401
9.55824 441
9.57835 466
9.59846 418
9.61858 420
9.63869 439
9.6588 387
9.67892 441
9.69903 420
9.71915 442
9.73926 405
9.75937 464
9.77949 416
9.7996 391
9.81971 423
9.83983 444
9.85994 407
9.88006 413
9.90017 406
9.92028 421
9.9404 426
9.96051 382
9.98062 441
10.00074 406
10.02085 435
10.04097 383
10.06108 423
10.08119 420
10.10131 426
10.12142 413
10.14153 395
10.16165 460
10.18176 463
10.20187 437
10.22199 427
10.2421 414
10.26222 456
10.28233 402
10.30244 409
10.32256 464
10.34267 474
10.36278 429
10.3829 397
10.40301 430
10.42313 414
10.44324 403
10.46335 459
10.48347 402
10.50358 393
10.52369 418
10.54381 381
10.56392 434
10.58403 429
10.60415 402
10.62426 415
10.64438 417
10.66449 386
10.6846 423
10.70472 416
10.72483 421
10.74494 444
10.76506 419
10.78517 427
10.80529 419
10.8254 445
10.84551 434
10.86563 416
10.88574 471
10.90585 416
10.92597 392
10.94608 447
10.9662 428
10.98631 444
11.00642 433
11.02654 466
11.04665 419
11.06676 397
11.08688 443
11.10699 456
11.1271 434
11.14722 427
11.16733 396
11.18745 444
11.20756 377
11.22767 460
11.24779 433
11.2679 456
11.28801 440
11.30813 461
11.32824 445
11.34836 439
11.36847 452
11.38858 413
11.4087 437
11.42881 444
11.44892 415
11.46904 468
11.48915 427
11.50927 467
11.52938 442
11.54949 450
11.56961 468
11.58972 449
11.60983 423
11.62995 471
11.65006 396
11.67017 443
11.69029 489
11.7104 516
11.73052 463
11.75063 468
11.77074 493
11.79086 507
11.81097 511
11.83108 482
11.8512 507
11.87131 488
11.89143 498
11.91154 548
11.93165 546
11.95177 572
11.97188 602
11.99199 582
12.01211 583
12.03222 604
12.05234 628
12.07245 647
12.09256 704
12.11268 728
12.13279 747
12.1529 758
12.17302 807
12.19313 894
12.21324 941
12.23336 958
12.25347 908
12.27359 914
12.2937 962
12.31381 959
12.33393 875
12.35404 876
12.37415 859
12.39427 794
12.41438 766
12.4345 758
12.45461 692
12.47472 646
12.49484 601
12.51495 620
12.53506 585
12.55518 573
12.57529 592
12.5954 487
12.61552 515
12.63563 522
12.65575 460
12.67586 506
12.69597 468
12.71609 470
12.7362 434
12.75631 441
12.77643 427
12.79654 438
12.81666 430
12.83677 400
12.85688 429
12.877 391
12.89711 379
12.91722 451
12.93734 416
12.95745 393
12.97757 395
12.99768 422
13.01779 419
13.03791 405
13.05802 414
13.07813 430
13.09825 396
13.11836 431
13.13847 424
13.15859 349
13.1787 427
13.19882 385
13.21893 436
13.23904 448
13.25916 401
13.27927 405
13.29938 398
13.3195 404
13.33961 425
13.35973 392
13.37984 425
13.39995 414
13.42007 363
13.44018 385
13.46029 421
13.48041 382
13.50052 382
13.52064 398
13.54075 408
13.56086 409
13.58098 437
13.60109 443
13.6212 410
13.64132 419
13.66143 417
13.68154 417
13.70166 385
13.72177 420
13.74189 399
13.762 435
13.78211 422
13.80223 394
13.82234 380
13.84245 424
13.86257 436
13.88268 392
13.9028 385
13.92291 359
13.94302 398
13.96314 394
13.98325 384
14.00336 409
14.02348 398
14.04359 406
14.06371 365
14.08382 402
14.10393 437
14.12405 409
14.14416 358
14.16427 380
14.18439 397
14.2045 390
14.22461 383
14.24473 372
14.26484 383
14.28496 453
14.30507 445
14.32518 386
14.3453 408
14.36541 406
14.38552 399
14.40564 396
14.42575 371
14.44587 325
14.46598 406
14.48609 403
14.50621 407
14.52632 391
14.54643 383
14.56655 389
14.58666 415
14.60677 412
14.62689 431
14.647 394
14.66712 419
14.68723 393
14.70734 416
14.72746 415
14.74757 417
14.76768 436
14.7878 383
14.80791 421
14.82803 435
14.84814 377
14.86825 415
14.88837 361
14.90848 416
14.92859 407
14.94871 394
14.96882 401
14.98894 405
15.00905 402
15.02916 390
15.04928 366
15.06939 376
15.0895 409
15.10962 415
15.12973 421
15.14984 432
15.16996 387
15.19007 450
15.21019 363
15.2303 410
15.25041 400
15.27053 428
15.29064 408
15.31075 380
15.33087 430
15.35098 426
15.3711 398
15.39121 417
15.41132 421
15.43144 395
15.45155 413
15.47166 411
15.49178 394
15.51189 398
15.53201 438
15.55212 366
15.57223 439
15.59235 418
15.61246 368
15.63257 412
15.65269 436
15.6728 414
15.69291 391
15.71303 417
15.73314 411
15.75326 415
15.77337 407
15.79348 398
15.8136 398
15.83371 403
15.85382 404
15.87394 396
15.89405 406
15.91417 389
15.93428 433
15.95439 408
15.97451 405
15.99462 401
16.01473 408
16.03485 435
16.05496 401
16.07508 453
16.09519 425
16.1153 425
16.13542 434
16.15553 452
16.17564 419
16.19576 414
16.21587 408
16.23598 442
16.2561 386
16.27621 410
16.29633 394
16.31644 423
16.33655 449
16.35667 396
16.37678 425
16.39689 444
16.41701 437
16.43712 398
16.45724 439
16.47735 431
16.49746 398
16.51758 337
16.53769 484
16.5578 430
16.57792 397
16.59803 488
16.61814 453
16.63826 416
16.65837 433
16.67849 451
16.6986 448
16.71871 442
16.73883 435
16.75894 435
16.77905 440
16.79917 452
16.81928 402
16.8394 418
16.85951 437
16.87962 411
16.89974 466
16.91985 469
16.93996 404
16.96008 473
16.98019 474
17.00031 438
17.02042 440
17.04053 496
17.06065 436
17.08076 454
17.10087 469
17.12099 455
17.1411 428
17.16121 441
17.18133 422
17.20144 451
17.22156 459
17.24167 478
17.26178 472
17.2819 438
17.30201 435
17.32212 426
17.34224 463
17.36235 464
17.38247 437
17.40258 502
17.42269 515
17.44281 480
17.46292 471
17.48303 445
17.50315 502
17.52326 470
17.54338 464
17.56349 469
17.5836 451
17.60372 449
17.62383 466
17.64394 488
17.66406 471
17.68417 510
17.70428 476
17.7244 488
17.74451 460
17.76463 526
17.78474 518
17.80485 514
17.82497 481
17.84508 532
17.86519 455
17.88531 538
17.90542 476
17.92554 463
17.94565 507
17.96576 506
17.98588 509
18.00599 485
18.0261 501
18.04622 532
18.06633 437
18.08645 540
18.10656 495
18.12667 515
18.14679 497
18.1669 490
18.18701 525
18.20713 468
18.22724 544
18.24735 522
18.26747 536
18.28758 534
18.3077 471
18.32781 513
18.34792 515
18.36804 525
18.38815 468
18.40826 490
18.42838 529
18.44849 474
18.46861 546
18.48872 551
18.50883 524
18.52895 546
18.54906 519
18.56917 516
18.58929 535
18.6094 547
18.62951 519
18.64963 589
18.66974 555
18.68986 531
18.70997 555
18.73008 561
18.7502 584
18.77031 508
18.79042 597
18.81054 517
18.83065 551
18.85077 560
18.87088 553
18.89099 513
18.91111 537
18.93122 527
18.95133 585
18.97145 614
18.99156 597
19.01168 539
19.03179 587
19.0519 598
19.07202 582
19.09213 549
19.11224 609
19.13236 612
19.15247 596
19.17258 576
19.1927 630
19.21281 656
19.23293 619
19.25304 612
19.27315 608
19.29327 631
19.31338 625
19.33349 668
19.35361 621
19.37372 613
19.39384 656
19.41395 623
19.43406 716
19.45418 729
19.47429 684
19.4944 677
19.51452 741
19.53463 749
19.55475 759
19.57486 796
19.59497 784
19.61509 852
19.6352 829
19.65531 843
19.67543 953
19.69554 966
19.71565 959
19.73577 985
19.75588 1075
19.776 1056
19.79611 1079
19.81622 1133
19.83634 1112
19.85645 1128
19.87656 1156
19.89668 1130
19.91679 1149
19.93691 1095
19.95702 1072
19.97713 1096
19.99725 1091
20.01736 1073
20.03747 1033
20.05759 1062
20.0777 992
20.09782 1055
20.11793 1007
20.13804 1005
20.15816 1056
20.17827 1027
20.19838 1060
20.2185 1070
20.23861 1047
20.25872 1017
20.27884 1039
20.29895 1057
20.31907 1010
20.33918 1063
20.35929 1051
20.37941 1039
20.39952 1012
20.41963 1000
20.43975 1073
20.45986 1117
20.47998 1089
20.50009 1137
20.5202 1119
20.54032 1182
20.56043 1147
20.58054 1210
20.60066 1350
20.62077 1313
20.64088 1497
20.661 1706
20.68111 1979
20.70123 2074
20.72134 2377
20.74145 2716
20.76157 2973
20.78168 3183
20.80179 3113
20.82191 3059
20.84202 2784
20.86214 2394
20.88225 2012
20.90236 1717
20.92248 1571
20.94259 1363
20.9627 1196
20.98282 1153
21.00293 1153
21.02305 1159
21.04316 1136
21.06327 1070
21.08339 1040
21.1035 985
21.12361 1016
21.14373 985
21.16384 994
21.18395 978
21.20407 962
21.22418 896
21.2443 873
21.26441 931
21.28452 973
21.30464 919
21.32475 898
21.34486 915
21.36498 905
21.38509 886
21.40521 922
21.42532 980
21.44543 880
21.46555 920
21.48566 878
21.50577 928
21.52589 979
21.546 906
21.56612 977
21.58623 935
21.60634 919
21.62646 919
21.64657 939
21.66668 865
21.6868 898
21.70691 923
21.72702 887
21.74714 914
21.76725 922
21.78737 911
21.80748 887
21.82759 922
21.84771 880
21.86782 942
21.88793 895
21.90805 885
21.92816 835
21.94828 820
21.96839 862
21.9885 946
22.00862 861
22.02873 835
22.04884 798
22.06896 882
22.08907 823
22.10919 847
22.1293 851
22.14941 836
22.16953 873
22.18964 879
22.20975 855
22.22987 876
22.24998 844
22.27009 865
22.29021 873
22.31032 822
22.33044 867
22.35055 855
22.37066 840
22.39078 839
22.41089 800
22.431 845
22.45112 815
22.47123 807
22.49135 759
22.51146 877
22.53157 816
22.55169 879
22.5718 835
22.59191 813
22.61203 803
22.63214 815
22.65225 842
22.67237 799
22.69248 794
22.7126 805
22.73271 850
22.75282 817
22.77294 793
22.79305 788
22.81316 758
22.83328 835
22.85339 799
22.87351 758
22.89362 803
22.91373 818
22.93385 795
22.95396 810
22.97407 776
22.99419 837
23.0143 838
23.03442 779
23.05453 812
23.07464 835
23.09476 802
23.11487 844
23.13498 844
23.1551 823
23.17521 768
23.19532 766
23.21544 821
23.23555 793
23.25567 792
23.27578 746
23.29589 746
23.31601 749
23.33612 775
23.35623 736
23.37635 726
23.39646 767
23.41658 773
23.43669 769
23.4568 729
23.47692 752
23.49703 764
23.51714 775
23.53726 759
23.55737 727
23.57749 769
23.5976 808
23.61771 704
23.63783 716
23.65794 745
23.67805 785
23.69817 801
23.71828 738
23.73839 775
23.75851 787
23.77862 779
23.79874 771
23.81885 729
23.83896 748
23.85908 784
23.87919 765
23.8993 842
23.91942 806
23.93953 860
23.95965 737
23.97976 779
23.99987 759
24.01999 767
24.0401 776
24.06021 772
24.08033 727
24.10044 738
24.12056 697
24.14067 764
24.16078 771
24.1809 741
24.20101 799
24.22112 775
24.24124 751
24.26135 761
24.28146 792
24.30158 779
24.32169 770
24.34181 786
24.36192 751
24.38203 786
24.40215 770
24.42226 749
24.44237 774
24.46249 801
24.4826 814
24.50272 830
24.52283 877
24.54294 835
24.56306 846
24.58317 886
24.60328 866
24.6234 950
24.64351 966
24.66362 965
24.68374 986
24.70385 995
24.72397 1001
24.74408 1012
24.76419 1052
24.78431 1100
24.80442 1086
24.82453 1082
24.84465 1066
24.86476 1019
24.88488 987
24.90499 996
24.9251 971
24.94522 923
24.96533 947
24.98544 913
25.00556 888
25.02567 861
25.04579 842
25.0659 826
25.08601 875
25.10613 880
25.12624 855
25.14635 852
25.16647 830
25.18658 936
25.20669 831
25.22681 786
25.24692 816
25.26704 864
25.28715 841
25.30726 786
25.32738 833
25.34749 802
25.3676 764
25.38772 791
25.40783 751
25.42795 855
25.44806 818
25.46817 813
25.48829 842
25.5084 805
25.52851 833
25.54863 794
25.56874 750
25.58886 813
25.60897 754
25.62908 836
25.6492 711
25.66931 780
25.68942 762
25.70954 797
25.72965 797
25.74976 722
25.76988 751
25.78999 776
25.81011 770
25.83022 796
25.85033 795
25.87045 826
25.89056 808
25.91067 828
25.93079 873
25.9509 812
25.97102 886
25.99113 812
26.01124 796
26.03136 814
26.05147 854
26.07158 946
26.0917 980
26.11181 934
26.13193 955
26.15204 1054
26.17215 1108
26.19227 1099
26.21238 1245
26.23249 1282
26.25261 1426
26.27272 1520
26.29283 1705
26.31295 1793
26.33306 2033
26.35318 2355
26.37329 2762
26.3934 3116
26.41352 3913
26.43363 4355
26.45374 5329
26.47386 6301
26.49397 7645
26.51409 8860
26.5342 9869
26.55431 10461
26.57443 10735
26.59454 10315
26.61465 9360
26.63477 7799
26.65488 6311
26.67499 4740
26.69511 3502
26.71522 2694
26.73534 2003
26.75545 1599
26.77556 1336
26.79568 1259
26.81579 1150
26.8359 1110
26.85602 991
26.87613 980
26.89625 966
26.91636 944
26.93647 952
26.95659 902
26.9767 862
26.99681 841
27.01693 783
27.03704 840
27.05716 794
27.07727 853
27.09738 804
27.1175 748
27.13761 782
27.15772 695
27.17784 733
27.19795 811
27.21806 756
27.23818 725
27.25829 825
27.27841 840
27.29852 877
27.31863 871
27.33875 828
27.35886 930
27.37897 928
27.39909 943
27.4192 901
27.43932 851
27.45943 828
27.47954 772
27.49966 727
27.51977 725
27.53988 717
27.56 721
27.58011 607
27.60023 635
27.62034 634
27.64045 660
27.66057 670
27.68068 654
27.70079 635
27.72091 668
27.74102 593
27.76113 636
27.78125 626
27.80136 598
27.82148 597
27.84159 591
27.8617 585
27.88182 545
27.90193 610
27.92204 590
27.94216 584
27.96227 563
27.98239 613
28.0025 540
28.02261 552
28.04273 557
28.06284 568
28.08295 546
28.10307 543
28.12318 553
28.1433 531
28.16341 553
28.18352 528
28.20364 517
28.22375 581
28.24386 535
28.26398 525
28.28409 517
28.3042 524
28.32432 536
28.34443 542
28.36455 503
28.38466 516
28.40477 540
28.42489 525
28.445 508
28.46511 537
28.48523 511
28.50534 518
28.52546 507
28.54557 503
28.56568 511
28.5858 490
28.60591 505
28.62602 501
28.64614 502
28.66625 567
28.68636 531
28.70648 475
28.72659 517
28.74671 479
28.76682 455
28.78693 491
28.80705 527
28.82716 475
28.84727 514
28.86739 490
28.8875 456
28.90762 486
28.92773 537
28.94784 468
28.96796 464
28.98807 477
29.00818 471
29.0283 473
29.04841 488
29.06853 479
29.08864 507
29.10875 433
29.12887 470
29.14898 491
29.16909 454
29.18921 471
29.20932 430
29.22943 474
29.24955 447
29.26966 516
29.28978 506
29.30989 517
29.33 499
29.35012 506
29.37023 499
29.39034 500
29.41046 499
29.43057 518
29.45069 495
29.4708 467
29.49091 498
29.51103 508
29.53114 454
29.55125 510
29.57137 449
29.59148 494
29.6116 484
29.63171 450
29.65182 447
29.67194 495
29.69205 475
29.71216 465
29.73228 445
29.75239 487
29.7725 466
29.79262 492
29.81273 482
29.83285 509
29.85296 478
29.87307 474
29.89319 480
29.9133 458
29.93341 494
29.95353 472
29.97364 462
29.99376 504
30.01387 486
30.03398 461
30.0541 471
30.07421 489
30.09432 491
30.11444 489
30.13455 534
30.15467 518
30.17478 461
30.19489 478
30.21501 507
30.23512 479
30.25523 457
30.27535 484
30.29546 450
30.31557 447
30.33569 482
30.3558 478
30.37592 457
30.39603 442
30.41614 460
30.43626 440
30.45637 449
30.47648 472
30.4966 482
30.51671 454
30.53683 474
30.55694 457
30.57705 474
30.59717 463
30.61728 499
30.63739 503
30.65751 466
30.67762 493
30.69773 454
30.71785 497
30.73796 485
30.75808 458
30.77819 450
30.7983 425
30.81842 461
30.83853 461
30.85864 441
30.87876 451
30.89887 415
30.91899 418
30.9391 452
30.95921 423
30.97933 433
30.99944 420
31.01955 417
31.03967 446
31.05978 424
31.0799 414
31.10001 442
31.12012 441
31.14024 419
31.16035 459
31.18046 448
31.20058 441
31.22069 402
31.2408 417
31.26092 399
31.28103 410
31.30115 413
31.32126 412
31.34137 397
31.36149 432
31.3816 411
31.40171 428
31.42183 417
31.44194 390
31.46206 396
31.48217 449
31.50228 417
31.5224 377
31.54251 433
31.56262 423
31.58274 412
31.60285 373
31.62297 383
31.64308 416
31.66319 370
31.68331 369
31.70342 438
31.72353 381
31.74365 380
31.76376 364
31.78387 377
31.80399 411
31.8241 393
31.84422 407
31.86433 338
31.88444 436
31.90456 436
31.92467 425
31.94478 408
31.9649 370
31.98501 392
32.00513 416
32.02524 397
32.04535 407
32.06547 411
32.08558 413
32.10569 413
32.12581 389
32.14592 392
32.16604 379
32.18615 392
32.20626 398
32.22638 379
32.24649 386
32.2666 402
32.28672 395
32.30683 401
32.32694 407
32.34706 413
32.36717 393
32.38729 417
32.4074 376
32.42751 417
32.44763 389
32.46774 413
32.48785 379
32.50797 360
32.52808 409
32.5482 402
32.56831 373
32.58842 399
32.60854 406
32.62865 351
32.64876 382
32.66888 385
32.68899 365
32.7091 393
32.72922 414
32.74933 396
32.76945 380
32.78956 407
32.80967 385
32.82979 382
32.8499 379
32.87001 377
32.89013 386
32.91024 386
32.93036 391
32.95047 381
32.97058 377
32.9907 366
33.01081 381
33.03092 368
33.05104 411
33.07115 367
33.09127 385
33.11138 379
33.13149 408
33.15161 379
33.17172 367
33.19183 358
33.21195 368
33.23206 342
33.25217 369
33.27229 361
33.2924 370
33.31252 382
33.33263 368
33.35274 350
33.37286 379
33.39297 350
33.41308 370
33.4332 377
33.45331 381
33.47343 401
33.49354 354
33.51365 368
33.53377 342
33.55388 354
33.57399 352
33.59411 388
33.61422 379
33.63434 400
33.65445 357
33.67456 405
33.69468 382
33.71479 378
33.7349 357
33.75502 397
33.77513 376
33.79524 408
33.81536 387
33.83547 412
33.85559 383
33.8757 387
33.89581 373
33.91593 372
33.93604 387
33.95615 413
33.97627 405
33.99638 406
34.0165 378
34.03661 401
34.05672 409
34.07684 402
34.09695 430
34.11706 435
34.13718 447
34.15729 408
34.17741 404
34.19752 399
34.21763 415
34.23775 432
34.25786 421
34.27797 419
34.29809 404
34.3182 417
34.33831 438
34.35843 440
34.37854 414
34.39866 422
34.41877 468
34.43888 441
34.459 466
34.47911 460
34.49922 446
34.51934 426
34.53945 484
34.55957 495
34.57968 474
34.59979 532
34.61991 526
34.64002 523
34.66013 535
34.68025 544
34.70036 527
34.72047 570
34.74059 591
34.7607 604
34.78082 560
34.80093 560
34.82104 613
34.84116 596
34.86127 610
34.88138 622
34.9015 609
34.92161 630
34.94173 611
34.96184 633
34.98195 621
35.00207 583
35.02218 617
35.04229 617
35.06241 573
35.08252 566
35.10264 589
35.12275 599
35.14286 554
35.16298 583
35.18309 547
35.2032 529
35.22332 521
35.24343 508
35.26354 547
35.28366 507
35.30377 571
35.32389 587
35.344 560
35.36411 527
35.38423 559
35.40434 562
35.42445 571
35.44457 569
35.46468 548
35.4848 572
35.50491 537
35.52502 527
35.54514 558
35.56525 577
35.58536 582
35.60548 559
35.62559 494
35.64571 530
35.66582 537
35.68593 526
35.70605 553
35.72616 550
35.74627 592
35.76639 576
35.7865 597
35.80661 513
35.82673 541
35.84684 540
35.86696 588
35.88707 602
35.90718 511
35.9273 558
35.94741 532
35.96752 548
35.98764 518
36.00775 552
36.02787 506
36.04798 554
36.06809 536
36.08821 554
36.10832 557
36.12843 567
36.14855 575
36.16866 516
36.18878 560
36.20889 592
36.229 536
36.24912 613
36.26923 611
36.28934 614
36.30946 664
36.32957 728
36.34968 722
36.3698 884
36.38991 936
36.41003 965
36.43014 994
36.45025 1033
36.47037 1080
36.49048 995
36.51059 993
36.53071 928
36.55082 848
36.57094 784
36.59105 696
36.61116 679
36.63128 594
36.65139 560
36.6715 519
36.69162 459
36.71173 487
36.73184 474
36.75196 482
36.77207 415
36.79219 469
36.8123 474
36.83241 425
36.85253 460
36.87264 445
36.89275 464
36.91287 456
36.93298 453
36.9531 460
36.97321 421
36.99332 460
37.01344 467
37.03355 442
37.05366 409
37.07378 419
37.09389 485
37.11401 421
37.13412 433
37.15423 431
37.17435 425
37.19446 476
37.21457 423
37.23469 410
37.2548 445
37.27491 430
37.29503 415
37.31514 434
37.33526 447
37.35537 463
37.37548 438
37.3956 458
37.41571 441
37.43582 435
37.45594 480
37.47605 420
37.49617 433
37.51628 492
37.53639 438
37.55651 487
37.57662 478
37.59673 504
37.61685 502
37.63696 505
37.65708 524
37.67719 478
37.6973 502
37.71742 494
37.73753 503
37.75764 474
37.77776 509
37.79787 507
37.81798 477
37.8381 447
37.85821 471
37.87833 478
37.89844 516
37.91855 439
37.93867 472
37.95878 497
37.97889 510
37.99901 461
38.01912 475
38.03924 486
38.05935 489
38.07946 512
38.09958 515
38.11969 540
38.1398 527
38.15992 517
38.18003 549
38.20015 556
38.22026 611
38.24037 594
38.26049 544
38.2806 596
38.30071 588
38.32083 546
38.34094 606
38.36105 587
38.38117 613
38.40128 544
38.4214 551
38.44151 559
38.46162 626
38.48174 535
38.50185 591
38.52196 533
38.54208 527
38.56219 552
38.58231 513
38.60242 548
38.62253 504
38.64265 499
38.66276 437
38.68287 499
38.70299 458
38.7231 454
38.74321 469
38.76333 468
38.78344 450
38.80356 439
38.82367 474
38.84378 494
38.8639 458
38.88401 498
38.90412 482
38.92424 480
38.94435 486
38.96447 516
38.98458 497
39.00469 495
39.02481 509
39.04492 508
39.06503 551
39.08515 527
39.10526 549
39.12538 584
39.14549 616
39.1656 566
39.18572 623
39.20583 674
39.22594 652
39.24606 721
39.26617 748
39.28628 776
39.3064 840
39.32651 925
39.34663 952
39.36674 1055
39.38685 972
39.40697 973
39.42708 891
39.44719 870
39.46731 816
39.48742 701
39.50754 694
39.52765 605
39.54776 543
39.56788 531
39.58799 505
39.6081 433
39.62822 392
39.64833 410
39.66845 400
39.68856 403
39.70867 378
39.72879 380
39.7489 393
39.76901 422
39.78913 455
39.80924 405
39.82935 385
39.84947 393
39.86958 415
39.8897 432
39.90981 420
39.92992 428
39.95004 428
39.97015 442
39.99026 469
40.01038 481
40.03049 466
40.05061 504
40.07072 500
40.09083 533
40.11095 548
40.13106 606
40.15117 607
40.17129 620
40.1914 656
40.21152 652
40.23163 646
40.25174 609
40.27186 597
40.29197 537
40.31208 540
40.3322 514
40.35231 434
40.37242 456
40.39254 416
40.41265 398
40.43277 381
40.45288 386
40.47299 389
40.49311 342
40.51322 357
40.53333 381
40.55345 387
40.57356 354
40.59368 399
40.61379 387
40.6339 346
40.65402 389
40.67413 417
40.69424 392
40.71436 357
40.73447 327
40.75458 391
40.7747 358
40.79481 344
40.81493 387
40.83504 351
40.85515 373
40.87527 377
40.89538 365
40.91549 395
40.93561 373
40.95572 377
40.97584 394
40.99595 354
41.01606 397
41.03618 400
41.05629 348
41.0764 373
41.09652 381
41.11663 378
41.13675 380
41.15686 361
41.17697 337
41.19709 353
41.2172 338
41.23731 381
41.25743 370
41.27754 378
41.29765 387
41.31777 355
41.33788 327
41.358 377
41.37811 355
41.39822 354
41.41834 338
41.43845 370
41.45856 380
41.47868 390
41.49879 368
41.51891 376
41.53902 372
41.55913 374
41.57925 361
41.59936 369
41.61947 377
41.63959 401
41.6597 363
41.67982 409
41.69993 411
41.72004 367
41.74016 363
41.76027 359
41.78038 398
41.8005 405
41.82061 390
41.84072 340
41.86084 371
41.88095 370
41.90107 383
41.92118 381
41.94129 381
41.96141 359
41.98152 383
42.00163 392
42.02175 401
42.04186 371
42.06198 395
42.08209 422
42.1022 399
42.12232 447
42.14243 462
42.16254 484
42.18266 429
42.20277 487
42.22289 531
42.243 534
42.26311 602
42.28323 648
42.30334 651
42.32345 710
42.34357 719
42.36368 774
42.38379 735
42.40391 721
42.42402 654
42.44414 645
42.46425 601
42.48436 565
42.50448 549
42.52459 460
42.5447 431
42.56482 446
42.58493 380
42.60505 389
42.62516 363
42.64527 388
42.66539 370
42.6855 361
42.70561 340
42.72573 341
42.74584 347
42.76595 368
42.78607 356
42.80618 353
42.8263 350
42.84641 301
42.86652 318
42.88664 364
42.90675 319
42.92686 334
42.94698 332
42.96709 331
42.98721 352
43.00732 356
43.02743 348
43.04755 333
43.06766 321
43.08777 322
43.10789 329
43.128 343
43.14812 359
43.16823 320
43.18834 325
43.20846 344
43.22857 358
43.24868 327
43.2688 324
43.28891 329
43.30902 319
43.32914 313
43.34925 337
43.36937 328
43.38948 347
43.40959 317
43.42971 352
43.44982 352
43.46993 325
43.49005 312
43.51016 324
43.53028 348
43.55039 316
43.5705 348
43.59062 331
43.61073 350
43.63084 312
43.65096 324
43.67107 326
43.69119 320
43.7113 306
43.73141 303
43.75153 285
43.77164 340
43.79175 319
43.81187 307
43.83198 311
43.85209 346
43.87221 370
43.89232 329
43.91244 331
43.93255 328
43.95266 350
43.97278 359
43.99289 305
44.013 328
44.03312 351
44.05323 331
44.07335 329
44.09346 327
44.11357 285
44.13369 354
44.1538 338
44.17391 315
44.19403 336
44.21414 350
44.23426 302
44.25437 330
44.27448 338
44.2946 326
44.31471 357
44.33482 358
44.35494 310
44.37505 318
44.39516 343
44.41528 341
44.43539 324
44.45551 350
44.47562 359
44.49573 318
44.51585 333
44.53596 319
44.55607 337
44.57619 346
44.5963 321
44.61642 324
44.63653 328
44.65664 340
44.67676 310
44.69687 312
44.71698 340
44.7371 336
44.75721 333
44.77732 331
44.79744 356
44.81755 368
44.83767 348
44.85778 354
44.87789 339
44.89801 337
44.91812 347
44.93823 347
44.95835 342
44.97846 340
44.99858 370
45.01869 319
45.0388 333
45.05892 346
45.07903 362
45.09914 345
45.11926 373
45.13937 369
45.15949 341
45.1796 365
45.19971 376
45.21983 366
45.23994 381
45.26005 418
45.28017 397
45.30028 397
45.32039 386
45.34051 393
45.36062 396
45.38074 430
45.40085 418
45.42096 427
45.44108 433
45.46119 435
45.4813 456
45.50142 451
45.52153 502
45.54165 469
45.56176 515
45.58187 505
45.60199 525
45.6221 513
45.64221 584
45.66233 631
45.68244 625
45.70256 685
45.72267 639
45.74278 609
45.7629 609
45.78301 552
45.80312 555
45.82324 534
45.84335 487
45.86346 453
45.88358 436
45.90369 387
45.92381 377
45.94392 398
45.96403 355
45.98415 338
46.00426 357
46.02437 347
46.04449 322
46.0646 341
46.08472 326
46.10483 368
46.12494 360
46.14506 347
46.16517 365
46.18528 332
46.2054 324
46.22551 358
46.24563 327
46.26574 360
46.28585 377
46.30597 369
46.32608 338
46.34619 347
46.36631 316
46.38642 357
46.40653 349
46.42665 347
46.44676 339
46.46688 321
46.48699 338
46.5071 331
46.52722 332
46.54733 330
46.56744 316
46.58756 313
46.60767 293
46.62779 368
46.6479 325
46.66801 316
46.68813 358
46.70824 327
46.72835 316
46.74847 323
46.76858 300
46.78869 355
46.80881 316
46.82892 340
46.84904 329
46.86915 345
46.88926 343
46.90938 342
46.92949 351
46.9496 327
46.96972 365
46.98983 342
47.00995 342
47.03006 394
47.05017 341
47.07029 348
47.0904 331
47.11051 322
47.13063 341
47.15074 348
47.17086 345
47.19097 323
47.21108 342
47.2312 345
47.25131 346
47.27142 355
47.29154 334
47.31165 348
47.33176 331
47.35188 316
47.37199 331
47.39211 322
47.41222 355
47.43233 349
47.45245 319
47.47256 339
47.49267 293
47.51279 342
47.5329 325
47.55302 332
47.57313 287
47.59324 333
47.61336 336
47.63347 363
47.65358 312
47.6737 314
47.69381 347
47.71393 333
47.73404 367
47.75415 312
47.77427 336
47.79438 350
47.81449 369
47.83461 338
47.85472 324
47.87483 346
47.89495 373
47.91506 322
47.93518 330
47.95529 335
47.9754 338
47.99552 354
48.01563 347
48.03574 319
48.05586 358
48.07597 347
48.09609 353
48.1162 338
48.13631 318
48.15643 335
48.17654 289
48.19665 315
48.21677 350
48.23688 334
48.257 353
48.27711 322
48.29722 341
48.31734 347
48.33745 339
48.35756 317
48.37768 319
48.39779 309
48.4179 315
48.43802 331
48.45813 332
48.47825 313
48.49836 344
48.51847 310
48.53859 363
48.5587 322
48.57881 334
48.59893 324
48.61904 310
48.63916 336
48.65927 308
48.67938 328
48.6995 322
48.71961 351
48.73972 306
48.75984 277
48.77995 341
48.80006 338
48.82018 353
48.84029 337
48.86041 306
48.88052 352
48.90063 344
48.92075 310
48.94086 332
48.96097 325
48.98109 328
49.0012 348
49.02132 321
49.04143 306
49.06154 325
49.08166 329
49.10177 329
49.12188 326
49.142 344
49.16211 323
49.18223 321
49.20234 313
49.22245 336
49.24257 331
49.26268 316
49.28279 307
49.30291 353
49.32302 355
49.34313 305
49.36325 328
49.38336 337
49.40348 336
49.42359 354
49.4437 333
49.46382 351
49.48393 341
49.50404 335
49.52416 350
49.54427 366
49.56439 385
49.5845 355
49.60461 360
49.62473 389
49.64484 382
49.66495 393
49.68507 425
49.70518 432
49.7253 458
49.74541 472
49.76552 477
49.78564 507
49.80575 577
49.82586 561
49.84598 615
49.86609 684
49.8862 647
49.90632 787
49.92643 874
49.94655 928
49.96666 1061
49.98677 1134
50.00689 1189
50.027 1207
50.04711 1319
50.06723 1188
50.08734 1178
50.10746 1091
50.12757 1005
50.14768 954
50.1678 835
50.18791 789
50.20802 695
50.22814 652
50.24825 562
50.26837 538
50.28848 468
50.30859 444
50.32871 413
50.34882 426
50.36893 428
50.38905 364
50.40916 406
50.42927 391
50.44939 396
50.4695 379
50.48962 368
50.50973 414
50.52984 390
50.54996 378
50.57007 335
50.59018 363
50.6103 358
50.63041 348
50.65053 339
50.67064 310
50.69075 362
50.71087 317
50.73098 358
50.75109 335
50.77121 343
50.79132 341
50.81143 317
50.83155 334
50.85166 327
50.87178 325
50.89189 344
50.912 317
50.93212 294
50.95223 329
50.97234 336
50.99246 316
51.01257 307
51.03269 330
51.0528 341
51.07291 335
51.09303 303
51.11314 313
51.13325 277
51.15337 268
51.17348 321
51.1936 314
51.21371 318
51.23382 313
51.25394 277
51.27405 290
51.29416 277
51.31428 299
51.33439 301
51.3545 316
51.37462 289
51.39473 263
51.41485 300
51.43496 296
51.45507 323
51.47519 324
51.4953 288
51.51541 303
51.53553 307
51.55564 293
51.57576 296
51.59587 302
51.61598 350
51.6361 289
51.65621 279
51.67632 268
51.69644 260
51.71655 307
51.73667 288
51.75678 310
51.77689 266
51.79701 301
51.81712 318
51.83723 287
51.85735 280
51.87746 282
51.89757 297
51.91769 298
51.9378 302
51.95792 274
51.97803 288
51.99814 269
52.01826 293
52.03837 285
52.05848 287
52.0786 289
52.09871 285
52.11883 288
52.13894 276
52.15905 294
52.17917 294
52.19928 289
52.21939 289
52.23951 301
52.25962 309
52.27974 279
52.29985 283
52.31996 254
52.34008 252
52.36019 285
52.3803 273
52.40042 304
52.42053 299
52.44064 313
52.46076 269
52.48087 325
52.50099 294
52.5211 263
52.54121 278
52.56133 294
52.58144 302
52.60155 276
52.62167 283
52.64178 294
52.6619 296
52.68201 291
52.70212 282
52.72224 315
52.74235 295
52.76246 301
52.78258 273
52.80269 299
52.8228 287
52.84292 268
52.86303 307
52.88315 284
52.90326 269
52.92337 270
52.94349 311
52.9636 308
52.98371 297
53.00383 280
53.02394 305
53.04406 311
53.06417 287
53.08428 294
53.1044 285
53.12451 314
53.14462 316
53.16474 313
53.18485 275
53.20497 301
53.22508 304
53.24519 296
53.26531 298
53.28542 316
53.30553 295
53.32565 285
53.34576 309
53.36587 310
53.38599 336
53.4061 315
53.42622 285
53.44633 334
53.46644 321
53.48656 307
53.50667 302
53.52678 330
53.5469 279
53.56701 325
53.58713 324
53.60724 330
53.62735 322
53.64747 321
53.66758 284
53.68769 316
53.70781 338
53.72792 336
53.74804 351
53.76815 337
53.78826 342
53.80838 341
53.82849 309
53.8486 334
53.86872 349
53.88883 334
53.90894 324
53.92906 322
53.94917 360
53.96929 352
53.9894 328
54.00951 358
54.02963 366
54.04974 358
54.06985 335
54.08997 351
54.11008 335
54.1302 384
54.15031 356
54.17042 394
54.19054 340
54.21065 392
54.23076 351
54.25088 404
54.27099 348
54.29111 370
54.31122 373
54.33133 372
54.35145 424
54.37156 385
54.39167 408
54.41179 386
54.4319 407
54.45201 412
54.47213 391
54.49224 428
54.51236 409
54.53247 455
54.55258 466
54.5727 458
54.59281 465
54.61292 440
54.63304 472
54.65315 559
54.67327 555
54.69338 537
54.71349 584
54.73361 609
54.75372 651
54.77383 659
54.79395 644
54.81406 654
54.83417 602
54.85429 593
54.8744 566
54.89452 527
54.91463 544
54.93474 500
54.95486 506
54.97497 491
54.99508 486
55.0152 459
55.03531 501
55.05543 476
55.07554 459
55.09565 475
55.11577 466
55.13588 487
55.15599 471
55.17611 499
55.19622 511
55.21634 488
55.23645 489
55.25656 497
55.27668 496
55.29679 466
55.3169 432
55.33702 461
55.35713 453
55.37724 426
55.39736 405
55.41747 387
55.43759 446
55.4577 345
55.47781 368
55.49793 376
55.51804 345
55.53815 369
55.55827 350
55.57838 355
55.5985 355
55.61861 330
55.63872 360
55.65884 335
55.67895 367
55.69906 337
55.71918 317
55.73929 359
55.75941 313
55.77952 340
55.79963 341
55.81975 367
55.83986 343
55.85997 354
55.88009 332
55.9002 342
55.92031 313
55.94043 343
55.96054 324
55.98066 319
56.00077 333
56.02088 323
56.041 315
56.06111 309
56.08122 309
56.10134 338
56.12145 321
56.14157 328
56.16168 337
56.18179 315
56.20191 343
56.22202 318
56.24213 337
56.26225 326
56.28236 328
56.30248 333
56.32259 330
56.3427 305
56.36282 341
56.38293 324
56.40304 323
56.42316 351
56.44327 316
56.46338 347
56.4835 349
56.50361 343
56.52373 332
56.54384 334
56.56395 357
56.58407 317
56.60418 310
56.62429 333
56.64441 327
56.66452 305
56.68464 312
56.70475 338
56.72486 340
56.74498 309
56.76509 324
56.7852 364
56.80532 331
56.82543 330
56.84554 338
56.86566 297
56.88577 329
56.90589 326
56.926 286
56.94611 304
56.96623 322
56.98634 327
57.00645 315
57.02657 306
57.04668 321
57.0668 318
57.08691 294
57.10702 345
57.12714 324
57.14725 305
57.16736 315
57.18748 285
57.20759 321
57.22771 326
57.24782 311
57.26793 285
57.28805 317
57.30816 289
57.32827 310
57.34839 306
57.3685 297
57.38861 280
57.40873 275
57.42884 302
57.44896 305
57.46907 328
57.48918 260
57.5093 324
57.52941 307
57.54952 310
57.56964 304
57.58975 303
57.60987 319
57.62998 323
57.65009 292
57.67021 299
57.69032 312
57.71043 303
57.73055 323
57.75066 315
57.77078 285
57.79089 256
57.811 271
57.83112 299
57.85123 316
57.87134 287
57.89146 297
57.91157 277
57.93168 278
57.9518 309
57.97191 283
57.99203 308
58.01214 290
58.03225 297
58.05237 294
58.07248 319
58.09259 296
58.11271 328
58.13282 308
58.15294 283
58.17305 327
58.19316 305
58.21328 289
58.23339 308
58.2535 313
58.27362 303
58.29373 312
58.31385 314
58.33396 310
58.35407 314
58.37419 309
58.3943 310
58.41441 294
58.43453 286
58.45464 324
58.47475 272
58.49487 319
58.51498 309
58.5351 301
58.55521 277
58.57532 301
58.59544 293
58.61555 292
58.63566 305
58.65578 303
58.67589 301
58.69601 328
58.71612 280
58.73623 286
58.75635 293
58.77646 273
58.79657 340
58.81669 338
58.8368 297
58.85691 291
58.87703 313
58.89714 302
58.91726 290
58.93737 297
58.95748 295
58.9776 302
58.99771 297
59.01782 300
59.03794 297
59.05805 283
59.07817 270
59.09828 342
59.11839 335
59.13851 293
59.15862 341
59.17873 306
59.19885 331
59.21896 283
59.23908 293
59.25919 300
59.2793 303
59.29942 320
59.31953 314
59.33964 351
59.35976 293
59.37987 346
59.39998 357
59.4201 356
59.44021 351
59.46033 321
59.48044 395
59.50055 384
59.52067 400
59.54078 385
59.56089 398
59.58101 455
59.60112 484
59.62124 458
59.64135 473
59.66146 501
59.68158 626
59.70169 578
59.7218 604
59.74192 640
59.76203 712
59.78215 793
59.80226 813
59.82237 835
59.84249 924
59.8626 932
59.88271 886
59.90283 855
59.92294 756
59.94305 729
59.96317 716
59.98328 666
60.0034 631
60.02351 624
60.04362 586
60.06374 546
60.08385 483
60.10396 424
60.12408 391
60.14419 394
60.16431 362
60.18442 369
60.20453 341
60.22465 321
60.24476 341
60.26487 335
60.28499 307
60.3051 316
60.32522 314
60.34533 341
60.36544 330
60.38556 333
60.40567 296
60.42578 338
60.4459 299
60.46601 310
60.48612 308
60.50624 306
60.52635 312
60.54647 288
60.56658 308
60.58669 323
60.60681 303
60.62692 318
60.64703 280
60.66715 281
60.68726 300
60.70738 305
60.72749 283
60.7476 319
60.76772 321
60.78783 285
60.80794 305
60.82806 338
60.84817 335
60.86828 297
60.8884 301
60.90851 301
60.92863 307
60.94874 350
60.96885 315
60.98897 326
61.00908 297
61.02919 349
61.04931 342
61.06942 306
61.08954 315
61.10965 304
61.12976 324
61.14988 324
61.16999 308
61.1901 301
61.21022 331
61.23033 358
61.25045 343
61.27056 314
61.29067 301
61.31079 288
61.3309 305
61.35101 333
61.37113 332
61.39124 304
61.41135 342
61.43147 344
61.45158 343
61.4717 340
61.49181 339
61.51192 313
61.53204 378
61.55215 362
61.57226 359
61.59238 344
61.61249 337
61.63261 339
61.65272 363
61.67283 336
61.69295 336
61.71306 362
61.73317 355
61.75329 382
61.7734 377
61.79352 366
61.81363 351
61.83374 375
61.85386 384
61.87397 356
61.89408 401
61.9142 382
61.93431 437
61.95442 386
61.97454 418
61.99465 452
62.01477 432
62.03488 414
62.05499 452
62.07511 432
62.09522 448
62.11533 411
62.13545 403
62.15556 429
62.17568 442
62.19579 436
62.2159 429
62.23602 448
62.25613 445
62.27624 417
62.29636 412
62.31647 411
62.33659 383
62.3567 384
62.37681 371
62.39693 402
62.41704 379
62.43715 387
62.45727 369
62.47738 356
62.49749 371
62.51761 338
62.53772 320
62.55784 340
62.57795 356
62.59806 348
62.61818 326
62.63829 307
62.6584 315
62.67852 323
62.69863 332
62.71875 295
62.73886 324
62.75897 287
62.77909 292
62.7992 279
62.81931 335
62.83943 289
62.85954 337
62.87965 312
62.89977 282
62.91988 304
62.94 329
62.96011 310
62.98022 326
63.00034 311
63.02045 318
63.04056 298
63.06068 309
63.08079 326
63.10091 313
63.12102 276
63.14113 299
63.16125 341
63.18136 327
63.20147 305
63.22159 296
63.2417 316
63.26182 319
63.28193 297
63.30204 312
63.32216 308
63.34227 306
63.36238 295
63.3825 293
63.40261 290
63.42272 307
63.44284 299
63.46295 332
63.48307 310
63.50318 292
63.52329 340
63.54341 315
63.56352 339
63.58363 325
63.60375 352
63.62386 293
63.64398 317
63.66409 343
63.6842 332
63.70432 355
63.72443 356
63.74454 355
63.76466 377
63.78477 368
63.80489 385
63.825 396
63.84511 446
63.86523 374
63.88534 397
63.90545 383
63.92557 399
63.94568 395
63.96579 405
63.98591 384
64.00602 379
64.02614 365
64.04625 350
64.06636 326
64.08648 342
64.10659 363
64.1267 346
64.14682 328
64.16693 316
64.18705 287
64.20716 330
64.22727 335
64.24739 272
64.2675 300
64.28761 291
64.30773 302
64.32784 298
64.34796 301
64.36807 299
64.38818 296
64.4083 312
64.42841 293
64.44852 296
64.46864 305
64.48875 270
64.50886 331
64.52898 285
64.54909 274
64.56921 270
64.58932 302
64.60943 269
64.62955 258
64.64966 269
64.66977 282
64.68989 295
64.71 294
64.73012 258
64.75023 293
64.77034 279
64.79046 282
64.81057 285
64.83068 270
64.8508 294
64.87091 265
64.89102 297
64.91114 296
64.93125 310
64.95137 243
64.97148 325
64.99159 290
65.01171 251
65.03182 299
65.05193 284
65.07205 270
65.09216 265
65.11228 291
65.13239 288
65.1525 306
65.17262 305
65.19273 276
65.21284 272
65.23296 268
65.25307 273
65.27319 310
65.2933 269
65.31341 291
65.33353 296
65.35364 277
65.37375 298
65.39387 314
65.41398 287
65.43409 305
65.45421 312
65.47432 312
65.49444 294
65.51455 289
65.53466 284
65.55478 290
65.57489 291
65.595 282
65.61512 289
65.63523 291
65.65535 280
65.67546 307
65.69557 295
65.71569 255
65.7358 282
65.75591 299
65.77603 296
65.79614 299
65.81626 322
65.83637 279
65.85648 245
65.8766 286
65.89671 288
65.91682 291
65.93694 269
65.95705 281
65.97716 293
65.99728 287
66.01739 297
66.03751 294
66.05762 276
66.07773 262
66.09785 298
66.11796 257
66.13807 294
66.15819 267
66.1783 252
66.19842 283
66.21853 302
66.23864 305
66.25876 282
66.27887 266
66.29898 298
66.3191 287
66.33921 297
66.35933 282
66.37944 267
66.39955 286
66.41967 268
66.43978 296
66.45989 303
66.48001 314
66.50012 286
66.52023 273
66.54035 264
66.56046 299
66.58058 270
66.60069 271
66.6208 303
66.64092 272
66.66103 269
66.68114 296
66.70126 287
66.72137 273
66.74149 304
66.7616 272
66.78171 276
66.80183 295
66.82194 276
66.84205 254
66.86217 269
66.88228 320
66.90239 285
66.92251 269
66.94262 270
66.96274 291
66.98285 274
67.00296 286
67.02308 297
67.04319 303
67.0633 300
67.08342 317
67.10353 332
67.12365 312
67.14376 327
67.16387 294
67.18399 329
67.2041 306
67.22421 307
67.24433 318
67.26444 343
67.28456 350
67.30467 327
67.32478 350
67.3449 337
67.36501 399
67.38512 393
67.40524 396
67.42535 412
67.44546 442
67.46558 444
67.48569 454
67.50581 512
67.52592 539
67.54603 567
67.56615 580
67.58626 609
67.60637 679
67.62649 683
67.6466 680
67.66672 702
67.68683 675
67.70694 592
67.72706 621
67.74717 561
67.76728 590
67.7874 590
67.80751 622
67.82763 606
67.84774 620
67.86785 668
67.88797 675
67.90808 632
67.92819 649
67.94831 681
67.96842 712
67.98853 757
68.00865 804
68.02876 852
68.04888 820
68.06899 798
68.0891 814
68.10922 741
68.12933 708
68.14944 757
68.16956 725
68.18967 730
68.20979 726
68.2299 719
68.25001 711
68.27013 619
68.29024 558
68.31035 511
68.33047 508
68.35058 510
68.3707 449
68.39081 423
68.41092 424
68.43104 429
68.45115 416
68.47126 402
68.49138 351
68.51149 320
68.5316 327
68.55172 319
68.57183 317
68.59195 299
68.61206 279
68.63217 302
68.65229 302
68.6724 303
68.69251 296
68.71263 279
68.73274 289
68.75286 318
68.77297 300
68.79308 282
68.8132 311
68.83331 280
68.85342 264
68.87354 289
68.89365 262
68.91376 299
68.93388 285
68.95399 262
68.97411 290
68.99422 275
69.01433 256
69.03445 251
69.05456 253
69.07467 280
69.09479 274
69.1149 252
69.13502 286
69.15513 271
69.17524 279
69.19536 299
69.21547 292
69.23558 276
69.2557 295
69.27581 272
69.29593 248
69.31604 259
69.33615 297
69.35627 275
69.37638 253
69.39649 265
69.41661 296
69.43672 261
69.45683 256
69.47695 265
69.49706 299
69.51718 257
69.53729 266
69.5574 263
69.57752 261
69.59763 244
69.61774 274
69.63786 277
69.65797 266
69.67809 275
69.6982 270
69.71831 235
69.73843 295
69.75854 251
69.77865 252
69.79877 280
69.81888 258
69.839 233
69.85911 262
69.87922 288
69.89934 278
69.91945 256
69.93956 258
69.95968 288
69.97979 250
69.9999 293
70.02002 251
70.04013 270
70.06025 292
70.08036 236
70.10047 234
70.12059 262
70.1407 288
70.16081 252
70.18093 271
70.20104 291
70.22116 265
70.24127 278
70.26138 287
70.2815 280
70.30161 251
70.32172 257
70.34184 277
70.36195 239
70.38207 250
70.40218 270
70.42229 270
70.44241 289
70.46252 244
70.48263 233
70.50275 266
70.52286 249
70.54297 275
70.56309 275
70.5832 280
70.60332 253
70.62343 250
70.64354 270
70.66366 254
70.68377 244
70.70388 250
70.724 261
70.74411 271
70.76423 232
70.78434 263
70.80445 254
70.82457 228
70.84468 239
70.86479 228
70.88491 250
70.90502 255
70.92513 257
70.94525 273
70.96536 244
70.98548 260
71.00559 256
71.0257 226
71.04582 252
71.06593 274
71.08604 262
71.10616 259
71.12627 267
71.14639 261
71.1665 243
71.18661 248
71.20673 253
71.22684 263
71.24695 260
71.26707 242
71.28718 235
71.3073 254
71.32741 228
71.34752 249
71.36764 265
71.38775 249
71.40786 268
71.42798 250
71.44809 249
71.4682 294
71.48832 256
71.50843 282
71.52855 263
71.54866 238
71.56877 244
71.58889 260
71.609 268
71.62911 239
71.64923 257
71.66934 275
71.68946 243
71.70957 245
71.72968 276
71.7498 260
71.76991 286
71.79002 250
71.81014 267
71.83025 273
71.85037 262
71.87048 266
71.89059 273
71.91071 270
71.93082 280
71.95093 257
71.97105 281
71.99116 276
72.01127 257
72.03139 267
72.0515 238
72.07162 236
72.09173 258
72.11184 280
72.13196 257
72.15207 275
72.17218 288
72.1923 274
72.21241 238
72.23253 292
72.25264 309
72.27275 267
72.29287 274
72.31298 279
72.33309 300
72.35321 271
72.37332 248
72.39344 252
72.41355 300
72.43366 278
72.45378 248
72.47389 259
72.494 295
72.51412 264
72.53423 290
72.55434 263
72.57446 287
72.59457 268
72.61469 268
72.6348 276
72.65491 277
72.67503 261
72.69514 275
72.71525 264
72.73537 297
72.75548 302
72.7756 292
72.79571 263
72.81582 311
72.83594 293
72.85605 304
72.87616 318
72.89628 281
72.91639 282
72.9365 295
72.95662 298
72.97673 275
72.99685 312
73.01696 338
73.03707 307
73.05719 305
73.0773 363
73.09741 309
73.11753 327
73.13764 294
73.15776 335
73.17787 332
73.19798 320
73.2181 327
73.23821 365
73.25832 329
73.27844 379
73.29855 391
73.31867 409
73.33878 438
73.35889 412
73.37901 380
73.39912 407
73.41923 389
73.43935 373
73.45946 350
73.47957 332
73.49969 360
73.5198 333
73.53992 302
73.56003 365
73.58014 300
73.60026 331
73.62037 344
73.64048 336
73.6606 308
73.68071 326
73.70083 289
73.72094 279
73.74105 290
73.76117 291
73.78128 291
73.80139 298
73.82151 268
73.84162 265
73.86174 287
73.88185 261
73.90196 268
73.92208 270
73.94219 250
73.9623 272
73.98242 270
74.00253 271
74.02264 267
74.04276 282
74.06287 245
74.08299 268
74.1031 256
74.12321 251
74.14333 278
74.16344 230
74.18355 258
74.20367 273
74.22378 293
74.2439 274
74.26401 250
74.28412 228
74.30424 282
74.32435 264
74.34446 271
74.36458 270
74.38469 287
74.40481 268
74.42492 254
74.44503 282
74.46515 262
74.48526 280
74.50537 279
74.52549 251
74.5456 256
74.56571 276
74.58583 269
74.60594 280
74.62606 265
74.64617 241
74.66628 246
74.6864 246
74.70651 273
74.72662 260
74.74674 277
74.76685 246
74.78697 294
74.80708 279
74.82719 269
74.84731 239
74.86742 248
74.88753 275
74.90765 265
74.92776 280
74.94787 271
74.96799 252
74.9881 257
75.00822 306
