3.00117 19589
3.02128 18546
3.0414 17922
3.06151 17791
3.08162 17038
3.10174 16854
3.12185 15830
3.14197 15599
3.16208 15143
3.18219 14661
3.20231 14456
3.22242 13728
3.24253 13615
3.26265 12911
3.28276 12715
3.30288 12315
3.32299 11766
3.3431 11285
3.36322 11087
3.38333 10428
3.40344 10328
3.42356 9952
3.44367 9666
3.46379 9220
3.4839 8720
3.50401 8742
3.52413 8293
3.54424 7831
3.56435 7581
3.58447 7383
3.60458 7254
3.62469 6762
3.64481 6695
3.66492 6265
3.68504 5969
3.70515 5966
3.72526 5586
3.74538 5244
3.76549 5181
3.7856 4806
3.80572 4725
3.82583 4431
3.84595 4317
3.86606 4030
3.88617 3885
3.90629 3885
3.9264 3563
3.94651 3595
3.96663 3202
3.98674 3044
4.00686 3100
4.02697 2882
4.04708 2626
4.0672 2687
4.08731 2352
4.10742 2382
4.12754 2369
4.14765 2179
4.16776 2128
4.18788 1997
4.20799 1911
4.22811 1929
4.24822 1791
4.26833 1648
4.28845 1592
4.30856 1650
4.32867 1631
4.34879 1554
4.3689 1381
4.38902 1320
4.40913 1384
4.42924 1434
4.44936 1208
4.46947 1227
4.48958 1245
4.5097 1211
4.52981 1176
4.54992 1066
4.57004 1169
4.59015 1064
4.61027 1072
4.63038 1084
4.65049 962
4.67061 1021
4.69072 935
4.71083 927
4.73095 928
4.75106 834
4.77118 932
4.79129 816
4.8114 890
4.83152 798
4.85163 740
4.87174 830
4.89186 717
4.91197 713
4.93209 700
4.9522 670
4.97231 704
4.99243 642
5.01254 628
5.03265 614
5.05277 561
5.07288 614
5.09299 573
5.11311 628
5.13322 535
5.15334 545
5.17345 515
5.19356 546
5.21368 502
5.23379 521
5.2539 484
5.27402 498
5.29413 445
5.31425 443
5.33436 494
5.35447 488
5.37459 414
5.3947 421
5.41481 407
5.43493 412
5.45504 359
5.47516 382
5.49527 398
5.51538 353
5.5355 330
5.55561 336
5.57572 360
5.59584 354
5.61595 295
5.63606 307
5.65618 316
5.67629 336
5.69641 313
5.71652 265
5.73663 288
5.75675 287
5.77686 274
5.79697 263
5.81709 263
5.8372 286
5.85732 228
5.87743 254
5.89754 290
5.91766 255
5.93777 264
5.95788 271
5.978 245
5.99811 254
6.01823 246
6.03834 220
6.05845 221
6.07857 223
6.09868 226
6.11879 208
6.13891 237
6.15902 232
6.17913 224
6.19925 198
6.21936 237
6.23948 250
6.25959 212
6.2797 215
6.29982 227
6.31993 240
6.34004 221
6.36016 211
6.38027 219
6.40039 217
6.4205 227
6.44061 222
6.46073 226
6.48084 205
6.50095 215
6.52107 214
6.54118 218
6.56129 197
6.58141 200
6.60152 185
6.62164 202
6.64175 246
6.66186 195
6.68198 200
6.70209 199
6.7222 196
6.74232 225
6.76243 219
6.78255 232
6.80266 204
6.82277 192
6.84289 209
6.863 171
6.88311 209
6.90323 190
6.92334 213
6.94346 193
6.96357 188
6.98368 181
7.0038 196
7.02391 214
7.04402 207
7.06414 183
7.08425 207
7.10436 177
7.12448 212
7.14459 178
7.16471 192
7.18482 203
7.20493 191
7.22505 200
7.24516 217
7.26527 202
7.28539 189
7.3055 217
7.32562 187
7.34573 217
7.36584 245
7.38596 193
7.40607 188
7.42618 225
7.4463 206
7.46641 202
7.48653 222
7.50664 240
7.52675 218
7.54687 212
7.56698 211
7.58709 206
7.60721 228
7.62732 218
7.64743 225
7.66755 205
7.68766 205
7.70778 217
7.72789 237
7.748 209
7.76812 241
7.78823 192
7.80834 209
7.82846 231
7.84857 251
7.86869 220
7.8888 222
7.90891 220
7.92903 247
7.94914 248
7.96925 236
7.98937 215
8.00948 215
8.0296 233
8.04971 223
8.06982 243
8.08994 229
8.11005 228
8.13016 191
8.15028 228
8.17039 229
8.1905 225
8.21062 191
8.23073 204
8.25085 217
8.27096 237
8.29107 239
8.31119 201
8.3313 221
8.35141 229
8.37153 234
8.39164 211
8.41176 231
8.43187 216
8.45198 236
8.4721 227
8.49221 206
8.51232 243
8.53244 256
8.55255 222
8.57266 231
8.59278 210
8.61289 284
8.63301 216
8.65312 218
8.67323 224
8.69335 252
8.71346 214
8.73357 222
8.75369 238
8.7738 242
8.79392 233
8.81403 240
8.83414 234
8.85426 243
8.87437 234
8.89448 216
8.9146 231
8.93471 256
8.95483 228
8.97494 242
8.99505 225
9.01517 250
9.03528 224
9.05539 240
9.07551 223
9.09562 214
9.11573 246
9.13585 206
9.15596 240
9.17608 225
9.19619 252
9.2163 237
9.23642 206
9.25653 242
9.27664 228
9.29676 221
9.31687 239
9.33699 216
9.3571 236
9.37721 229
9.39733 271
9.41744 256
9.43755 229
9.45767 271
9.47778 228
9.4979 267
9.51801 232
9.53812 252
9.55824 258
9.57835 257
9.59846 229
9.61858 233
9.63869 253
9.6588 246
9.67892 231
9.69903 248
9.71915 279
9.73926 240
9.75937 235
9.77949 219
9.7996 206
9.81971 202
9.83983 241
9.85994 229
9.88006 242
9.90017 259
9.92028 246
9.9404 248
9.96051 244
9.98062 226
10.00074 252
10.02085 218
10.04097 275
10.06108 219
10.08119 226
10.10131 251
10.12142 258
10.14153 258
10.16165 225
10.18176 245
10.20187 258
10.22199 228
10.2421 235
10.26222 233
10.28233 248
10.30244 249
10.32256 242
10.34267 261
10.36278 255
10.3829 230
10.40301 236
10.42313 214
10.44324 256
10.46335 237
10.48347 237
10.50358 217
10.52369 251
10.54381 263
10.56392 250
10.58403 240
10.60415 213
10.62426 255
10.64438 219
10.66449 268
10.6846 242
10.70472 232
10.72483 237
10.74494 228
10.76506 240
10.78517 246
10.80529 255
10.8254 206
10.84551 195
10.86563 185
10.88574 259
10.90585 235
10.92597 246
10.94608 220
10.9662 215
10.98631 254
11.00642 239
11.02654 227
11.04665 231
11.06676 227
11.08688 254
11.10699 240
11.1271 220
11.14722 203
11.16733 235
11.18745 229
11.20756 240
11.22767 245
11.24779 220
11.2679 248
11.28801 216
11.30813 247
11.32824 235
11.34836 233
11.36847 220
11.38858 218
11.4087 246
11.42881 251
11.44892 244
11.46904 265
11.48915 216
11.50927 261
11.52938 263
11.54949 253
11.56961 225
11.58972 248
11.60983 282
11.62995 258
11.65006 251
11.67017 259
11.69029 258
11.7104 236
11.73052 243
11.75063 267
11.77074 295
11.79086 255
11.81097 255
11.83108 249
11.8512 260
11.87131 281
11.89143 247
11.91154 261
11.93165 277
11.95177 281
11.97188 301
11.99199 320
12.01211 279
12.03222 296
12.05234 305
12.07245 294
12.09256 311
12.11268 334
12.13279 358
12.1529 364
12.17302 358
12.19313 371
12.21324 354
12.23336 352
12.25347 361
12.27359 408
12.2937 393
12.31381 385
12.33393 388
12.35404 352
12.37415 392
12.39427 342
12.41438 309
12.4345 339
12.45461 312
12.47472 324
12.49484 335
12.51495 287
12.53506 318
12.55518 310
12.57529 334
12.5954 284
12.61552 258
12.63563 286
12.65575 288
12.67586 287
12.69597 253
12.71609 259
12.7362 285
12.75631 259
12.77643 216
12.79654 267
12.81666 259
12.83677 241
12.85688 236
12.877 205
12.89711 244
12.91722 234
12.93734 215
12.95745 228
12.97757 200
12.99768 195
13.01779 206
13.03791 213
13.05802 245
13.07813 218
13.09825 227
13.11836 214
13.13847 207
13.15859 254
13.1787 194
13.19882 211
13.21893 248
13.23904 213
13.25916 227
13.27927 205
13.29938 222
13.3195 219
13.33961 233
13.35973 228
13.37984 203
13.39995 221
13.42007 222
13.44018 208
13.46029 226
13.48041 212
13.50052 216
13.52064 198
13.54075 204
13.56086 203
13.58098 243
13.60109 235
13.6212 217
13.64132 194
13.66143 214
13.68154 214
13.70166 196
13.72177 212
13.74189 192
13.762 210
13.78211 208
13.80223 205
13.82234 199
13.84245 226
13.86257 231
13.88268 208
13.9028 196
13.92291 189
13.94302 207
13.96314 220
13.98325 231
14.00336 206
14.02348 206
14.04359 185
14.06371 197
14.08382 218
14.10393 194
14.12405 190
14.14416 173
14.16427 206
14.18439 213
14.2045 210
14.22461 200
14.24473 196
14.26484 191
14.28496 195
14.30507 182
14.32518 213
14.3453 189
14.36541 207
14.38552 200
14.40564 187
14.42575 212
14.44587 209
14.46598 196
14.48609 191
14.50621 190
14.52632 188
14.54643 174
14.56655 176
14.58666 195
14.60677 198
14.62689 197
14.647 208
14.66712 182
14.68723 210
14.70734 184
14.72746 206
14.74757 194
14.76768 219
14.7878 175
14.80791 204
14.82803 171
14.84814 170
14.86825 181
14.88837 195
14.90848 160
14.92859 170
14.94871 184
14.96882 193
14.98894 201
15.00905 193
15.02916 181
15.04928 204
15.06939 200
15.0895 211
15.10962 173
15.12973 192
15.14984 188
15.16996 197
15.19007 203
15.21019 165
15.2303 216
15.25041 171
15.27053 190
15.29064 196
15.31075 204
15.33087 183
15.35098 179
15.3711 181
15.39121 164
15.41132 198
15.43144 197
15.45155 174
15.47166 180
15.49178 185
15.51189 205
15.53201 185
15.55212 172
15.57223 171
15.59235 192
15.61246 193
15.63257 192
15.65269 202
15.6728 187
15.69291 183
15.71303 195
15.73314 175
15.75326 187
15.77337 198
15.79348 179
15.8136 168
15.83371 208
15.85382 180
15.87394 176
15.89405 207
15.91417 176
15.93428 164
15.95439 197
15.97451 188
15.99462 175
16.01473 194
16.03485 177
16.05496 182
16.07508 185
16.09519 189
16.1153 166
16.13542 190
16.15553 152
16.17564 180
16.19576 155
16.21587 181
16.23598 196
16.2561 212
16.27621 192
16.29633 168
16.31644 193
16.33655 171
16.35667 179
16.37678 188
16.39689 167
16.41701 178
16.43712 199
16.45724 187
16.47735 190
16.49746 178
16.51758 190
16.53769 174
16.5578 182
16.57792 150
16.59803 186
16.61814 165
16.63826 187
16.65837 209
16.67849 175
16.6986 155
16.71871 194
16.73883 189
16.75894 171
16.77905 196
16.79917 204
16.81928 195
16.8394 162
16.85951 179
16.87962 198
16.89974 150
16.91985 163
16.93996 167
16.96008 191
16.98019 191
17.00031 196
17.02042 185
17.04053 194
17.06065 177
17.08076 144
17.10087 207
17.12099 194
17.1411 172
17.16121 190
17.18133 201
17.20144 178
17.22156 170
17.24167 187
17.26178 201
17.2819 191
17.30201 175
17.32212 195
17.34224 144
17.36235 167
17.38247 195
17.40258 189
17.42269 170
17.44281 197
17.46292 184
17.48303 179
17.50315 184
17.52326 181
17.54338 185
17.56349 197
17.5836 178
17.60372 152
17.62383 170
17.64394 163
17.66406 160
17.68417 176
17.70428 161
17.7244 179
17.74451 181
17.76463 193
17.78474 169
17.80485 179
17.82497 193
17.84508 179
17.86519 180
17.88531 169
17.90542 190
17.92554 174
17.94565 192
17.96576 173
17.98588 179
18.00599 171
18.0261 198
18.04622 178
18.06633 171
18.08645 183
18.10656 177
18.12667 188
18.14679 171
18.1669 228
18.18701 198
18.20713 197
18.22724 210
18.24735 194
18.26747 196
18.28758 226
18.3077 205
18.32781 200
18.34792 220
18.36804 181
18.38815 198
18.40826 191
18.42838 199
18.44849 198
18.46861 183
18.48872 186
18.50883 191
18.52895 163
18.54906 206
18.56917 200
18.58929 191
18.6094 189
18.62951 190
18.64963 179
18.66974 165
18.68986 171
18.70997 204
18.73008 175
18.7502 187
18.77031 199
18.79042 199
18.81054 205
18.83065 203
18.85077 186
18.87088 177
18.89099 180
18.91111 167
18.93122 200
18.95133 186
18.97145 190
18.99156 207
19.01168 188
19.03179 147
19.0519 181
19.07202 179
19.09213 199
19.11224 149
19.13236 172
19.15247 177
19.17258 183
19.1927 182
19.21281 195
19.23293 169
19.25304 191
19.27315 174
19.29327 189
19.31338 183
19.33349 176
19.35361 212
19.37372 180
19.39384 177
19.41395 174
19.43406 198
19.45418 190
19.47429 183
19.4944 169
19.51452 198
19.53463 193
19.55475 199
19.57486 198
19.59497 220
19.61509 212
19.6352 204
19.65531 197
19.67543 215
19.69554 240
19.71565 223
19.73577 242
19.75588 245
19.776 271
19.79611 267
19.81622 310
19.83634 333
19.85645 297
19.87656 304
19.89668 336
19.91679 338
19.93691 353
19.95702 333
19.97713 327
19.99725 346
20.01736 302
20.03747 316
20.05759 306
20.0777 328
20.09782 325
20.11793 341
20.13804 313
20.15816 309
20.17827 332
20.19838 309
20.2185 348
20.23861 341
20.25872 382
20.27884 377
20.29895 318
20.31907 367
20.33918 390
20.35929 345
20.37941 373
20.39952 349
20.41963 362
20.43975 406
20.45986 415
20.47998 408
20.50009 436
20.5202 438
20.54032 392
20.56043 476
20.58054 452
20.60066 499
20.62077 503
20.64088 562
20.661 621
20.68111 688
20.70123 953
20.72134 1229
20.74145 1699
20.76157 2614
20.78168 3792
20.80179 5569
20.82191 7517
20.84202 9112
20.86214 9993
20.88225 8663
20.90236 6768
20.92248 4639
20.94259 2727
20.9627 1644
20.98282 953
21.00293 651
21.02305 557
21.04316 534
21.06327 474
21.08339 482
21.1035 412
21.12361 396
21.14373 394
21.16384 420
21.18395 387
21.20407 360
21.22418 362
21.2443 322
21.26441 343
21.28452 341
21.30464 317
21.32475 333
21.34486 333
21.36498 333
21.38509 294
21.40521 326
21.42532 318
21.44543 302
21.46555 301
21.48566 273
21.50577 296
21.52589 312
21.546 339
21.56612 310
21.58623 281
21.60634 294
21.62646 299
21.64657 300
21.66668 262
21.6868 292
21.70691 307
21.72702 266
21.74714 252
21.76725 271
21.78737 248
21.80748 262
21.82759 263
21.84771 270
21.86782 293
21.88793 276
21.90805 259
21.92816 285
21.94828 244
21.96839 218
21.9885 259
22.00862 271
22.02873 238
22.04884 223
22.06896 275
22.08907 220
22.10919 238
22.1293 269
22.14941 272
22.16953 231
22.18964 248
22.20975 253
22.22987 233
22.24998 230
22.27009 237
22.29021 246
22.31032 254
22.33044 239
22.35055 258
22.37066 227
22.39078 227
22.41089 259
22.431 251
22.45112 226
22.47123 212
22.49135 224
22.51146 238
22.53157 222
22.55169 248
22.5718 280
22.59191 249
22.61203 214
22.63214 226
22.65225 227
22.67237 234
22.69248 239
22.7126 208
22.73271 218
22.75282 227
22.77294 220
22.79305 225
22.81316 235
22.83328 204
22.85339 233
22.87351 226
22.89362 229
22.91373 211
22.93385 233
22.95396 228
22.97407 229
22.99419 206
23.0143 226
23.03442 218
23.05453 204
23.07464 218
23.09476 252
23.11487 207
23.13498 188
23.1551 226
23.17521 217
23.19532 196
23.21544 242
23.23555 214
23.25567 181
23.27578 211
23.29589 208
23.31601 232
23.33612 230
23.35623 247
23.37635 203
23.39646 235
23.41658 220
23.43669 221
23.4568 211
23.47692 211
23.49703 247
23.51714 239
23.53726 220
23.55737 218
23.57749 250
23.5976 217
23.61771 216
23.63783 228
23.65794 192
23.67805 238
23.69817 244
23.71828 216
23.73839 241
23.75851 243
23.77862 232
23.79874 239
23.81885 207
23.83896 217
23.85908 211
23.87919 258
23.8993 260
23.91942 246
23.93953 278
23.95965 278
23.97976 314
23.99987 331
24.01999 308
24.0401 367
24.06021 278
24.08033 287
24.10044 270
24.12056 266
24.14067 240
24.16078 291
24.1809 276
24.20101 252
24.22112 257
24.24124 267
24.26135 249
24.28146 249
24.30158 243
24.32169 232
24.34181 248
24.36192 238
24.38203 248
24.40215 234
24.42226 219
24.44237 236
24.46249 251
24.4826 235
24.50272 247
24.52283 256
24.54294 281
24.56306 255
24.58317 268
24.60328 257
24.6234 266
24.64351 280
24.66362 290
24.68374 300
24.70385 288
24.72397 302
24.74408 304
24.76419 332
24.78431 317
24.80442 295
24.82453 337
24.84465 322
24.86476 327
24.88488 325
24.90499 311
24.9251 326
24.94522 363
24.96533 309
24.98544 311
25.00556 306
25.02567 284
25.04579 289
25.0659 291
25.08601 285
25.10613 271
25.12624 295
25.14635 281
25.16647 305
25.18658 253
25.20669 299
25.22681 306
25.24692 259
25.26704 279
25.28715 263
25.30726 304
25.32738 298
25.34749 254
25.3676 252
25.38772 285
25.40783 236
25.42795 272
25.44806 205
25.46817 252
25.48829 247
25.5084 246
25.52851 252
25.54863 246
25.56874 313
25.58886 240
25.60897 265
25.62908 283
25.6492 310
25.66931 313
25.68942 357
25.70954 359
25.72965 378
25.74976 444
25.76988 418
25.78999 406
25.81011 424
25.83022 431
25.85033 400
25.87045 414
25.89056 432
25.91067 450
25.93079 450
25.9509 445
25.97102 454
25.99113 435
26.01124 449
26.03136 506
26.05147 489
26.07158 547
26.0917 512
26.11181 517
26.13193 579
26.15204 660
26.17215 619
26.19227 703
26.21238 755
26.23249 788
26.25261 818
26.27272 893
26.29283 949
26.31295 989
26.33306 1102
26.35318 1105
26.37329 1329
26.3934 1549
26.41352 1762
26.43363 2173
26.45374 2829
26.47386 3736
26.49397 5355
26.51409 7585
26.5342 11723
26.55431 16973
26.57443 24730
26.59454 33608
26.61465 41587
26.63477 44445
26.65488 40187
26.67499 31982
26.69511 24412
26.71522 18165
26.73534 11561
26.75545 6004
26.77556 3231
26.79568 2166
26.81579 1713
26.8359 1553
26.85602 1369
26.87613 1253
26.89625 1151
26.91636 1146
26.93647 1003
26.95659 894
26.9767 827
26.99681 730
27.01693 670
27.03704 599
27.05716 549
27.07727 505
27.09738 521
27.1175 458
27.13761 458
27.15772 411
27.17784 467
27.19795 441
27.21806 403
27.23818 413
27.25829 429
27.27841 357
27.29852 413
27.31863 354
27.33875 399
27.35886 383
27.37897 404
27.39909 382
27.4192 387
27.43932 409
27.45943 360
27.47954 355
27.49966 357
27.51977 344
27.53988 355
27.56 350
27.58011 328
27.60023 304
27.62034 314
27.64045 351
27.66057 317
27.68068 299
27.70079 281
27.72091 323
27.74102 302
27.76113 285
27.78125 317
27.80136 305
27.82148 278
27.84159 280
27.8617 313
27.88182 284
27.90193 305
27.92204 304
27.94216 269
27.96227 267
27.98239 307
28.0025 279
28.02261 286
28.04273 264
28.06284 266
28.08295 279
28.10307 246
28.12318 286
28.1433 263
28.16341 278
28.18352 268
28.20364 266
28.22375 259
28.24386 283
28.26398 243
28.28409 264
28.3042 296
28.32432 269
28.34443 277
28.36455 281
28.38466 261
28.40477 242
28.42489 272
28.445 285
28.46511 255
28.48523 234
28.50534 269
28.52546 245
28.54557 289
28.56568 251
28.5858 237
28.60591 245
28.62602 278
28.64614 258
28.66625 242
28.68636 231
28.70648 281
28.72659 247
28.74671 245
28.76682 266
28.78693 260
28.80705 224
28.82716 226
28.84727 253
28.86739 233
28.8875 241
28.90762 253
28.92773 252
28.94784 250
28.96796 252
28.98807 212
29.00818 227
29.0283 242
29.04841 253
29.06853 254
29.08864 236
29.10875 242
29.12887 231
29.14898 244
29.16909 205
29.18921 222
29.20932 232
29.22943 240
29.24955 232
29.26966 243
29.28978 237
29.30989 237
29.33 245
29.35012 239
29.37023 203
29.39034 237
29.41046 237
29.43057 248
29.45069 206
29.4708 196
29.49091 238
29.51103 260
29.53114 201
29.55125 234
29.57137 190
29.59148 226
29.6116 201
29.63171 211
29.65182 233
29.67194 221
29.69205 236
29.71216 224
29.73228 197
29.75239 200
29.7725 213
29.79262 191
29.81273 204
29.83285 209
29.85296 203
29.87307 210
29.89319 225
29.9133 212
29.93341 214
29.95353 223
29.97364 225
29.99376 227
30.01387 212
30.03398 211
30.0541 203
30.07421 233
30.09432 233
30.11444 207
30.13455 212
30.15467 219
30.17478 222
30.19489 221
30.21501 194
30.23512 207
30.25523 213
30.27535 232
30.29546 213
30.31557 220
30.33569 224
30.3558 181
30.37592 196
30.39603 202
30.41614 216
30.43626 224
30.45637 188
30.47648 197
30.4966 217
30.51671 210
30.53683 203
30.55694 188
30.57705 210
30.59717 197
30.61728 213
30.63739 224
30.65751 205
30.67762 205
30.69773 194
30.71785 210
30.73796 200
30.75808 203
30.77819 194
30.7983 232
30.81842 209
30.83853 192
30.85864 214
30.87876 217
30.89887 207
30.91899 221
30.9391 192
30.95921 198
30.97933 173
30.99944 209
31.01955 192
31.03967 200
31.05978 203
31.0799 166
31.10001 208
31.12012 199
31.14024 207
31.16035 213
31.18046 181
31.20058 195
31.22069 163
31.2408 182
31.26092 189
31.28103 208
31.30115 189
31.32126 172
31.34137 202
31.36149 180
31.3816 204
31.40171 168
31.42183 178
31.44194 180
31.46206 203
31.48217 177
31.50228 207
31.5224 198
31.54251 194
31.56262 207
31.58274 207
31.60285 164
31.62297 186
31.64308 190
31.66319 175
31.68331 203
31.70342 178
31.72353 185
31.74365 174
31.76376 200
31.78387 167
31.80399 198
31.8241 186
31.84422 208
31.86433 194
31.88444 165
31.90456 167
31.92467 175
31.94478 193
31.9649 191
31.98501 165
32.00513 174
32.02524 171
32.04535 195
32.06547 157
32.08558 177
32.10569 196
32.12581 195
32.14592 187
32.16604 196
32.18615 198
32.20626 161
32.22638 182
32.24649 200
32.2666 190
32.28672 183
32.30683 183
32.32694 175
32.34706 181
32.36717 165
32.38729 187
32.4074 170
32.42751 181
32.44763 171
32.46774 190
32.48785 198
32.50797 179
32.52808 207
32.5482 200
32.56831 177
32.58842 194
32.60854 188
32.62865 161
32.64876 202
32.66888 171
32.68899 242
32.7091 208
32.72922 171
32.74933 189
32.76945 194
32.78956 174
32.80967 215
32.82979 153
32.8499 197
32.87001 218
32.89013 205
32.91024 227
32.93036 190
32.95047 221
32.97058 245
32.9907 214
33.01081 231
33.03092 203
33.05104 230
33.07115 237
33.09127 238
33.11138 258
33.13149 247
33.15161 259
33.17172 246
33.19183 246
33.21195 221
33.23206 219
33.25217 248
33.27229 219
33.2924 209
33.31252 209
33.33263 197
33.35274 197
33.37286 198
33.39297 216
33.41308 192
33.4332 196
33.45331 168
33.47343 182
33.49354 182
33.51365 202
33.53377 217
33.55388 178
33.57399 185
33.59411 159
33.61422 167
33.63434 167
33.65445 189
33.67456 171
33.69468 173
33.71479 147
33.7349 181
33.75502 206
33.77513 187
33.79524 161
33.81536 189
33.83547 159
33.85559 166
33.8757 161
33.89581 166
33.91593 163
33.93604 167
33.95615 178
33.97627 130
33.99638 150
34.0165 184
34.03661 160
34.05672 164
34.07684 164
34.09695 167
34.11706 149
34.13718 163
34.15729 204
34.17741 185
34.19752 175
34.21763 143
34.23775 152
34.25786 175
34.27797 159
34.29809 163
34.3182 170
34.33831 170
34.35843 170
34.37854 165
34.39866 164
34.41877 180
34.43888 183
34.459 170
34.47911 193
34.49922 168
34.51934 175
34.53945 142
34.55957 189
34.57968 159
34.59979 169
34.61991 153
34.64002 148
34.66013 190
34.68025 176
34.70036 203
34.72047 196
34.74059 202
34.7607 190
34.78082 172
34.80093 190
34.82104 218
34.84116 207
34.86127 224
34.88138 221
34.9015 225
34.92161 223
34.94173 226
34.96184 252
34.98195 232
35.00207 252
35.02218 228
35.04229 219
35.06241 217
35.08252 242
35.10264 207
35.12275 232
35.14286 237
35.16298 201
35.18309 194
35.2032 206
35.22332 204
35.24343 191
35.26354 206
35.28366 227
35.30377 215
35.32389 237
35.344 252
35.36411 234
35.38423 247
35.40434 233
35.42445 231
35.44457 245
35.46468 243
35.4848 231
35.50491 252
35.52502 263
35.54514 265
35.56525 292
35.58536 291
35.60548 264
35.62559 262
35.64571 257
35.66582 264
35.68593 287
35.70605 283
35.72616 269
35.74627 262
35.76639 257
35.7865 284
35.80661 279
35.82673 284
35.84684 271
35.86696 275
35.88707 271
35.90718 270
35.9273 241
35.94741 259
35.96752 256
35.98764 276
36.00775 258
36.02787 236
36.04798 287
36.06809 284
36.08821 238
36.10832 250
36.12843 263
36.14855 280
36.16866 250
36.18878 276
36.20889 273
36.229 274
36.24912 273
36.26923 280
36.28934 328
36.30946 282
36.32957 371
36.34968 453
36.3698 557
36.38991 662
36.41003 836
36.43014 1090
36.45025 1449
36.47037 1924
36.49048 2538
36.51059 2957
36.53071 3083
36.55082 2710
36.57094 2133
36.59105 1719
36.61116 1607
36.63128 1490
36.65139 1153
36.6715 723
36.69162 442
36.71173 392
36.73184 310
36.75196 293
36.77207 267
36.79219 272
36.8123 236
36.83241 232
36.85253 244
36.87264 243
36.89275 207
36.91287 194
36.93298 235
36.9531 227
36.97321 227
36.99332 209
37.01344 217
37.03355 191
37.05366 229
37.07378 194
37.09389 195
37.11401 230
37.13412 208
37.15423 217
37.17435 180
37.19446 187
37.21457 178
37.23469 199
37.2548 193
37.27491 194
37.29503 222
37.31514 202
37.33526 203
37.35537 203
37.37548 197
37.3956 215
37.41571 186
37.43582 190
37.45594 186
37.47605 192
37.49617 217
37.51628 213
37.53639 197
37.55651 191
37.57662 195
37.59673 208
37.61685 201
37.63696 206
37.65708 194
37.67719 200
37.6973 209
37.71742 196
37.73753 203
37.75764 208
37.77776 222
37.79787 185
37.81798 226
37.8381 199
37.85821 199
37.87833 174
37.89844 195
37.91855 199
37.93867 193
37.95878 215
37.97889 178
37.99901 192
38.01912 194
38.03924 216
38.05935 203
38.07946 218
38.09958 211
38.11969 239
38.1398 195
38.15992 233
38.18003 244
38.20015 214
38.22026 253
38.24037 215
38.26049 240
38.2806 208
38.30071 262
38.32083 254
38.34094 262
38.36105 258
38.38117 246
38.40128 226
38.4214 266
38.44151 242
38.46162 283
38.48174 263
38.50185 244
38.52196 244
38.54208 217
38.56219 243
38.58231 238
38.60242 239
38.62253 240
38.64265 252
38.66276 245
38.68287 238
38.70299 218
38.7231 234
38.74321 243
38.76333 200
38.78344 241
38.80356 231
38.82367 249
38.84378 214
38.8639 215
38.88401 210
38.90412 207
38.92424 214
38.94435 228
38.96447 206
38.98458 231
39.00469 251
39.02481 231
39.04492 225
39.06503 246
39.08515 258
39.10526 264
39.12538 265
39.14549 247
39.1656 283
39.18572 305
39.20583 347
39.22594 347
39.24606 387
39.26617 443
39.28628 498
39.3064 574
39.32651 741
39.34663 967
39.36674 1282
39.38685 1636
39.40697 2100
39.42708 2491
39.44719 2751
39.46731 2670
39.48742 2102
39.50754 1625
39.52765 1373
39.54776 1410
39.56788 1321
39.58799 982
39.6081 623
39.62822 441
39.64833 284
39.66845 290
39.68856 250
39.70867 265
39.72879 282
39.7489 245
39.76901 255
39.78913 239
39.80924 217
39.82935 234
39.84947 241
39.86958 237
39.8897 251
39.90981 233
39.92992 195
39.95004 230
39.97015 222
39.99026 223
40.01038 220
40.03049 234
40.05061 279
40.07072 262
40.09083 298
40.11095 382
40.13106 425
40.15117 498
40.17129 563
40.1914 721
40.21152 946
40.23163 1134
40.25174 1350
40.27186 1466
40.29197 1296
40.31208 1047
40.3322 908
40.35231 816
40.37242 812
40.39254 685
40.41265 564
40.43277 403
40.45288 299
40.47299 231
40.49311 232
40.51322 241
40.53333 242
40.55345 239
40.57356 221
40.59368 247
40.61379 198
40.6339 195
40.65402 223
40.67413 191
40.69424 195
40.71436 214
40.73447 194
40.75458 234
40.7747 207
40.79481 205
40.81493 200
40.83504 217
40.85515 216
40.87527 186
40.89538 188
40.91549 188
40.93561 173
40.95572 206
40.97584 184
40.99595 204
41.01606 186
41.03618 196
41.05629 194
41.0764 215
41.09652 223
41.11663 208
41.13675 204
41.15686 193
41.17697 210
41.19709 196
41.2172 180
41.23731 195
41.25743 194
41.27754 192
41.29765 177
41.31777 184
41.33788 177
41.358 187
41.37811 164
41.39822 165
41.41834 175
41.43845 193
41.45856 210
41.47868 184
41.49879 181
41.51891 188
41.53902 173
41.55913 191
41.57925 186
41.59936 199
41.61947 183
41.63959 182
41.6597 208
41.67982 180
41.69993 185
41.72004 187
41.74016 173
41.76027 217
41.78038 173
41.8005 175
41.82061 172
41.84072 192
41.86084 178
41.88095 186
41.90107 171
41.92118 196
41.94129 180
41.96141 204
41.98152 179
42.00163 190
42.02175 208
42.04186 205
42.06198 213
42.08209 240
42.1022 222
42.12232 244
42.14243 209
42.16254 273
42.18266 281
42.20277 300
42.22289 344
42.243 322
42.26311 431
42.28323 495
42.30334 576
42.32345 722
42.34357 927
42.36368 1214
42.38379 1433
42.40391 1728
42.42402 1908
42.44414 1891
42.46425 1592
42.48436 1246
42.50448 1127
42.52459 1043
42.5447 1126
42.56482 882
42.58493 626
42.60505 444
42.62516 318
42.64527 287
42.66539 262
42.6855 234
42.70561 199
42.72573 228
42.74584 225
42.76595 185
42.78607 205
42.80618 194
42.8263 177
42.84641 178
42.86652 159
42.88664 183
42.90675 162
42.92686 170
42.94698 174
42.96709 165
42.98721 164
43.00732 161
43.02743 166
43.04755 192
43.06766 160
43.08777 167
43.10789 151
43.128 164
43.14812 174
43.16823 167
43.18834 188
43.20846 178
43.22857 178
43.24868 166
43.2688 167
43.28891 166
43.30902 147
43.32914 185
43.34925 158
43.36937 182
43.38948 157
43.40959 158
43.42971 172
43.44982 156
43.46993 149
43.49005 174
43.51016 151
43.53028 156
43.55039 164
43.5705 150
43.59062 177
43.61073 164
43.63084 132
43.65096 157
43.67107 175
43.69119 155
43.7113 157
43.73141 178
43.75153 189
43.77164 176
43.79175 163
43.81187 163
43.83198 153
43.85209 159
43.87221 148
43.89232 170
43.91244 166
43.93255 168
43.95266 165
43.97278 166
43.99289 141
44.013 154
44.03312 162
44.05323 178
44.07335 165
44.09346 155
44.11357 171
44.13369 165
44.1538 157
44.17391 186
44.19403 161
44.21414 164
44.23426 154
44.25437 170
44.27448 152
44.2946 142
44.31471 168
44.33482 174
44.35494 141
44.37505 180
44.39516 153
44.41528 159
44.43539 173
44.45551 181
44.47562 149
44.49573 180
44.51585 147
44.53596 167
44.55607 184
44.57619 155
44.5963 160
44.61642 172
44.63653 183
44.65664 175
44.67676 182
44.69687 150
44.71698 161
44.7371 139
44.75721 159
44.77732 182
44.79744 159
44.81755 168
44.83767 173
44.85778 167
44.87789 179
44.89801 162
44.91812 154
44.93823 161
44.95835 164
44.97846 146
44.99858 195
45.01869 198
45.0388 195
45.05892 181
45.07903 160
45.09914 178
45.11926 205
45.13937 187
45.15949 195
45.1796 182
45.19971 173
45.21983 175
45.23994 175
45.26005 183
45.28017 181
45.30028 187
45.32039 179
45.34051 191
45.36062 193
45.38074 184
45.40085 232
45.42096 216
45.44108 200
45.46119 214
45.4813 204
45.50142 204
45.52153 256
45.54165 267
45.56176 256
45.58187 314
45.60199 336
45.6221 405
45.64221 445
45.66233 546
45.68244 670
45.70256 835
45.72267 1040
45.74278 1186
45.7629 1419
45.78301 1343
45.80312 1160
45.82324 878
45.84335 763
45.86346 761
45.88358 793
45.90369 721
45.92381 590
45.94392 423
45.96403 312
45.98415 228
46.00426 223
46.02437 211
46.04449 207
46.0646 196
46.08472 176
46.10483 194
46.12494 171
46.14506 173
46.16517 171
46.18528 194
46.2054 177
46.22551 160
46.24563 158
46.26574 168
46.28585 163
46.30597 160
46.32608 177
46.34619 173
46.36631 148
46.38642 176
46.40653 155
46.42665 137
46.44676 135
46.46688 161
46.48699 172
46.5071 158
46.52722 152
46.54733 167
46.56744 175
46.58756 167
46.60767 174
46.62779 150
46.6479 167
46.66801 171
46.68813 170
46.70824 171
46.72835 155
46.74847 141
46.76858 196
46.78869 182
46.80881 179
46.82892 162
46.84904 181
46.86915 164
46.88926 148
46.90938 173
46.92949 144
46.9496 163
46.96972 154
46.98983 175
47.00995 162
47.03006 152
47.05017 150
47.07029 157
47.0904 182
47.11051 138
47.13063 163
47.15074 158
47.17086 158
47.19097 152
47.21108 159
47.2312 160
47.25131 166
47.27142 140
47.29154 146
47.31165 172
47.33176 149
47.35188 138
47.37199 146
47.39211 172
47.41222 156
47.43233 149
47.45245 145
47.47256 143
47.49267 141
47.51279 152
47.5329 158
47.55302 156
47.57313 162
47.59324 137
47.61336 157
47.63347 165
47.65358 144
47.6737 153
47.69381 159
47.71393 145
47.73404 166
47.75415 151
47.77427 160
47.79438 154
47.81449 147
47.83461 146
47.85472 171
47.87483 157
47.89495 174
47.91506 156
47.93518 160
47.95529 168
47.9754 159
47.99552 152
48.01563 184
48.03574 150
48.05586 162
48.07597 136
48.09609 161
48.1162 149
48.13631 153
48.15643 156
48.17654 172
48.19665 186
48.21677 159
48.23688 155
48.257 162
48.27711 176
48.29722 156
48.31734 179
48.33745 163
48.35756 165
48.37768 153
48.39779 173
48.4179 168
48.43802 170
48.45813 171
48.47825 143
48.49836 170
48.51847 138
48.53859 166
48.5587 159
48.57881 148
48.59893 147
48.61904 159
48.63916 164
48.65927 164
48.67938 172
48.6995 179
48.71961 163
48.73972 171
48.75984 164
48.77995 166
48.80006 170
48.82018 160
48.84029 175
48.86041 161
48.88052 164
48.90063 164
48.92075 187
48.94086 158
48.96097 169
48.98109 190
49.0012 144
49.02132 166
49.04143 174
49.06154 175
49.08166 175
49.10177 168
49.12188 161
49.142 195
49.16211 187
49.18223 182
49.20234 202
49.22245 162
49.24257 174
49.26268 194
49.28279 199
49.30291 182
49.32302 176
49.34313 173
49.36325 194
49.38336 219
49.40348 213
49.42359 207
49.4437 212
49.46382 223
49.48393 193
49.50404 207
49.52416 233
49.54427 227
49.56439 213
49.5845 225
49.60461 204
49.62473 201
49.64484 217
49.66495 227
49.68507 239
49.70518 214
49.7253 251
49.74541 238
49.76552 277
49.78564 302
49.80575 327
49.82586 350
49.84598 390
49.86609 449
49.8862 500
49.90632 555
49.92643 681
49.94655 798
49.96666 959
49.98677 1197
50.00689 1518
50.027 1954
50.04711 2603
50.06723 3238
50.08734 3767
50.10746 4218
50.12757 4286
50.14768 3642
50.1678 2737
50.18791 2183
50.20802 2015
50.22814 2067
50.24825 2078
50.26837 2000
50.28848 1446
50.30859 934
50.32871 605
50.34882 432
50.36893 347
50.38905 335
50.40916 299
50.42927 319
50.44939 270
50.4695 289
50.48962 245
50.50973 275
50.52984 278
50.54996 256
50.57007 278
50.59018 304
50.6103 268
50.63041 287
50.65053 245
50.67064 228
50.69075 215
50.71087 189
50.73098 212
50.75109 240
50.77121 200
50.79132 219
50.81143 169
50.83155 178
50.85166 167
50.87178 155
50.89189 182
50.912 164
50.93212 166
50.95223 170
50.97234 168
50.99246 162
51.01257 162
51.03269 149
51.0528 172
51.07291 150
51.09303 146
51.11314 178
51.13325 149
51.15337 174
51.17348 149
51.1936 163
51.21371 161
51.23382 177
51.25394 159
51.27405 176
51.29416 167
51.31428 152
51.33439 161
51.3545 173
51.37462 183
51.39473 171
51.41485 174
51.43496 165
51.45507 129
51.47519 152
51.4953 156
51.51541 142
51.53553 141
51.55564 154
51.57576 152
51.59587 140
51.61598 157
51.6361 138
51.65621 136
51.67632 147
51.69644 147
51.71655 155
51.73667 140
51.75678 143
51.77689 148
51.79701 137
51.81712 151
51.83723 141
51.85735 142
51.87746 148
51.89757 150
51.91769 160
51.9378 153
51.95792 138
51.97803 147
51.99814 143
52.01826 153
52.03837 165
52.05848 173
52.0786 145
52.09871 152
52.11883 123
52.13894 147
52.15905 143
52.17917 127
52.19928 136
52.21939 175
52.23951 159
52.25962 151
52.27974 149
52.29985 159
52.31996 185
52.34008 145
52.36019 139
52.3803 147
52.40042 161
52.42053 149
52.44064 144
52.46076 153
52.48087 119
52.50099 144
52.5211 157
52.54121 134
52.56133 148
52.58144 137
52.60155 153
52.62167 141
52.64178 128
52.6619 147
52.68201 150
52.70212 126
52.72224 150
52.74235 142
52.76246 152
52.78258 159
52.80269 149
52.8228 146
52.84292 161
52.86303 167
52.88315 155
52.90326 149
52.92337 161
52.94349 149
52.9636 168
52.98371 156
53.00383 169
53.02394 160
53.04406 152
53.06417 151
53.08428 157
53.1044 164
53.12451 156
53.14462 152
53.16474 158
53.18485 154
53.20497 159
53.22508 165
53.24519 182
53.26531 157
53.28542 170
53.30553 170
53.32565 147
53.34576 191
53.36587 170
53.38599 161
53.4061 177
53.42622 156
53.44633 166
53.46644 176
53.48656 177
53.50667 152
53.52678 174
53.5469 165
53.56701 170
53.58713 209
53.60724 170
53.62735 187
53.64747 179
53.66758 192
53.68769 162
53.70781 151
53.72792 177
53.74804 186
53.76815 172
53.78826 163
53.80838 181
53.82849 200
53.8486 167
53.86872 190
53.88883 193
53.90894 183
53.92906 206
53.94917 181
53.96929 204
53.9894 209
54.00951 219
54.02963 210
54.04974 195
54.06985 197
54.08997 218
54.11008 199
54.1302 224
54.15031 231
54.17042 195
54.19054 183
54.21065 189
54.23076 215
54.25088 204
54.27099 210
54.29111 183
54.31122 205
54.33133 213
54.35145 212
54.37156 220
54.39167 210
54.41179 205
54.4319 193
54.45201 221
54.47213 223
54.49224 241
54.51236 240
54.53247 233
54.55258 218
54.5727 241
54.59281 267
54.61292 286
54.63304 277
54.65315 323
54.67327 366
54.69338 403
54.71349 465
54.73361 533
54.75372 627
54.77383 851
54.79395 989
54.81406 1172
54.83417 1314
54.85429 1304
54.8744 1228
54.89452 981
54.91463 777
54.93474 691
54.95486 761
54.97497 796
54.99508 777
55.0152 735
55.03531 603
55.05543 475
55.07554 350
55.09565 290
55.11577 315
55.13588 319
55.15599 327
55.17611 348
55.19622 416
55.21634 435
55.23645 533
55.25656 570
55.27668 673
55.29679 687
55.3169 713
55.33702 597
55.35713 465
55.37724 358
55.39736 453
55.41747 424
55.43759 483
55.4577 440
55.47781 370
55.49793 298
55.51804 244
55.53815 238
55.55827 208
55.57838 195
55.5985 179
55.61861 207
55.63872 175
55.65884 175
55.67895 190
55.69906 197
55.71918 193
55.73929 171
55.75941 156
55.77952 179
55.79963 184
55.81975 166
55.83986 159
55.85997 174
55.88009 163
55.9002 166
55.92031 191
55.94043 140
55.96054 156
55.98066 186
56.00077 183
56.02088 175
56.041 162
56.06111 173
56.08122 144
56.10134 162
56.12145 165
56.14157 149
56.16168 164
56.18179 177
56.20191 163
56.22202 162
56.24213 148
56.26225 198
56.28236 173
56.30248 167
56.32259 159
56.3427 168
56.36282 160
56.38293 162
56.40304 171
56.42316 170
56.44327 148
56.46338 136
56.4835 166
56.50361 160
56.52373 146
56.54384 152
56.56395 175
56.58407 160
56.60418 150
56.62429 151
56.64441 164
56.66452 178
56.68464 130
56.70475 171
56.72486 163
56.74498 168
56.76509 151
56.7852 154
56.80532 146
56.82543 166
56.84554 165
56.86566 161
56.88577 147
56.90589 156
56.926 156
56.94611 148
56.96623 152
56.98634 169
57.00645 149
57.02657 165
57.04668 173
57.0668 173
57.08691 189
57.10702 166
57.12714 222
57.14725 209
57.16736 213
57.18748 215
57.20759 212
57.22771 207
57.24782 208
57.26793 199
57.28805 187
57.30816 169
57.32827 188
57.34839 175
57.3685 183
57.38861 181
57.40873 184
57.42884 177
57.44896 167
57.46907 137
57.48918 155
57.5093 164
57.52941 160
57.54952 162
57.56964 167
57.58975 148
57.60987 148
57.62998 152
57.65009 164
57.67021 178
57.69032 143
57.71043 199
57.73055 153
57.75066 169
57.77078 154
57.79089 146
57.811 154
57.83112 173
57.85123 171
57.87134 174
57.89146 163
57.91157 148
57.93168 165
57.9518 161
57.97191 145
57.99203 153
58.01214 155
58.03225 154
58.05237 145
58.07248 143
58.09259 168
58.11271 142
58.13282 173
58.15294 154
58.17305 153
58.19316 149
58.21328 151
58.23339 176
58.2535 162
58.27362 171
58.29373 140
58.31385 142
58.33396 142
58.35407 147
58.37419 137
58.3943 160
58.41441 145
58.43453 165
58.45464 156
58.47475 148
58.49487 169
58.51498 150
58.5351 171
58.55521 164
58.57532 175
58.59544 163
58.61555 150
58.63566 160
58.65578 153
58.67589 165
58.69601 150
58.71612 154
58.73623 158
58.75635 143
58.77646 169
58.79657 159
58.81669 165
58.8368 178
58.85691 164
58.87703 152
58.89714 152
58.91726 156
58.93737 158
58.95748 166
58.9776 174
58.99771 158
59.01782 147
59.03794 158
59.05805 158
59.07817 177
59.09828 165
59.11839 164
59.13851 183
59.15862 191
59.17873 163
59.19885 150
59.21896 171
59.23908 155
59.25919 170
59.2793 150
59.29942 180
59.31953 165
59.33964 181
59.35976 186
59.37987 193
59.39998 190
59.4201 200
59.44021 188
59.46033 180
59.48044 184
59.50055 222
59.52067 220
59.54078 215
59.56089 227
59.58101 238
59.60112 256
59.62124 293
59.64135 298
59.66146 339
59.68158 391
59.70169 429
59.7218 474
59.74192 566
59.76203 671
59.78215 791
59.80226 971
59.82237 1260
59.84249 1578
59.8626 1904
59.88271 2195
59.90283 2695
59.92294 2814
59.94305 2761
59.96317 2169
59.98328 1687
60.0034 1309
60.02351 1263
60.04362 1283
60.06374 1447
60.08385 1482
60.10396 1435
60.12408 1144
60.14419 861
60.16431 569
60.18442 410
60.20453 328
60.22465 306
60.24476 261
60.26487 242
60.28499 249
60.3051 224
60.32522 196
60.34533 238
60.36544 183
60.38556 212
60.40567 188
60.42578 175
60.4459 190
60.46601 183
60.48612 176
60.50624 190
60.52635 177
60.54647 172
60.56658 192
60.58669 178
60.60681 158
60.62692 151
60.64703 171
60.66715 171
60.68726 174
60.70738 147
60.72749 163
60.7476 152
60.76772 148
60.78783 136
60.80794 152
60.82806 150
60.84817 161
60.86828 144
60.8884 150
60.90851 145
60.92863 133
60.94874 153
60.96885 154
60.98897 161
61.00908 154
61.02919 144
61.04931 137
61.06942 172
61.08954 145
61.10965 140
61.12976 144
61.14988 146
61.16999 136
61.1901 149
61.21022 169
61.23033 152
61.25045 153
61.27056 161
61.29067 176
61.31079 165
61.3309 162
61.35101 154
61.37113 135
61.39124 152
61.41135 159
61.43147 159
61.45158 146
61.4717 173
61.49181 144
61.51192 182
61.53204 143
61.55215 170
61.57226 137
61.59238 144
61.61249 133
61.63261 153
61.65272 146
61.67283 150
61.69295 167
61.71306 163
61.73317 151
61.75329 168
61.7734 148
61.79352 145
61.81363 151
61.83374 160
61.85386 149
61.87397 144
61.89408 155
61.9142 167
61.93431 149
61.95442 161
61.97454 162
61.99465 184
62.01477 163
62.03488 161
62.05499 173
62.07511 184
62.09522 186
62.11533 187
62.13545 193
62.15556 203
62.17568 216
62.19579 201
62.2159 206
62.23602 208
62.25613 208
62.27624 219
62.29636 222
62.31647 226
62.33659 225
62.3567 215
62.37681 210
62.39693 204
62.41704 205
62.43715 194
62.45727 204
62.47738 195
62.49749 194
62.51761 196
62.53772 194
62.55784 190
62.57795 173
62.59806 197
62.61818 167
62.63829 162
62.6584 171
62.67852 152
62.69863 170
62.71875 177
62.73886 170
62.75897 172
62.77909 163
62.7992 148
62.81931 165
62.83943 178
62.85954 148
62.87965 139
62.89977 161
62.91988 147
62.94 153
62.96011 143
62.98022 165
63.00034 149
63.02045 151
63.04056 147
63.06068 136
63.08079 170
63.10091 136
63.12102 172
63.14113 152
63.16125 161
63.18136 154
63.20147 153
63.22159 147
63.2417 137
63.26182 168
63.28193 133
63.30204 166
63.32216 128
63.34227 140
63.36238 146
63.3825 146
63.40261 161
63.42272 156
63.44284 173
63.46295 155
63.48307 144
63.50318 158
63.52329 137
63.54341 142
63.56352 164
63.58363 176
63.60375 149
63.62386 157
63.64398 152
63.66409 165
63.6842 147
63.70432 181
63.72443 187
63.74454 185
63.76466 188
63.78477 198
63.80489 240
63.825 222
63.84511 266
63.86523 299
63.88534 337
63.90545 381
63.92557 436
63.94568 492
63.96579 579
63.98591 616
64.00602 640
64.02614 568
64.04625 535
64.06636 409
64.08648 381
64.10659 338
64.1267 356
64.14682 380
64.16693 355
64.18705 395
64.20716 376
64.22727 339
64.24739 279
64.2675 227
64.28761 166
64.30773 174
64.32784 175
64.34796 184
64.36807 130
64.38818 147
64.4083 164
64.42841 147
64.44852 161
64.46864 158
64.48875 169
64.50886 161
64.52898 160
64.54909 162
64.56921 143
64.58932 145
64.60943 150
64.62955 127
64.64966 144
64.66977 156
64.68989 144
64.71 167
64.73012 139
64.75023 141
64.77034 142
64.79046 147
64.81057 141
64.83068 144
64.8508 173
64.87091 131
64.89102 146
64.91114 132
64.93125 145
64.95137 136
64.97148 156
64.99159 168
65.01171 150
65.03182 163
65.05193 137
65.07205 140
65.09216 159
65.11228 147
65.13239 147
65.1525 147
65.17262 137
65.19273 143
65.21284 161
65.23296 153
65.25307 160
65.27319 132
65.2933 158
65.31341 150
65.33353 142
65.35364 163
65.37375 154
65.39387 154
65.41398 147
65.43409 146
65.45421 171
65.47432 156
65.49444 160
65.51455 147
65.53466 172
65.55478 166
65.57489 163
65.595 163
65.61512 185
65.63523 214
65.65535 193
65.67546 243
65.69557 238
65.71569 227
65.7358 290
65.75591 288
65.77603 256
65.79614 252
65.81626 206
65.83637 187
65.85648 193
65.8766 198
65.89671 192
65.91682 221
65.93694 188
65.95705 212
65.97716 179
65.99728 179
66.01739 158
66.03751 157
66.05762 178
66.07773 164
66.09785 133
66.11796 150
66.13807 145
66.15819 143
66.1783 147
66.19842 149
66.21853 139
66.23864 168
66.25876 168
66.27887 148
66.29898 170
66.3191 154
66.33921 149
66.35933 156
66.37944 151
66.39955 149
66.41967 139
66.43978 142
66.45989 127
66.48001 158
66.50012 141
66.52023 142
66.54035 146
66.56046 166
66.58058 148
66.60069 164
66.6208 155
66.64092 167
66.66103 160
66.68114 159
66.70126 162
66.72137 164
66.74149 167
66.7616 160
66.78171 153
66.80183 150
66.82194 134
66.84205 173
66.86217 151
66.88228 148
66.90239 180
66.92251 150
66.94262 155
66.96274 147
66.98285 164
67.00296 164
67.02308 165
67.04319 151
67.0633 176
67.08342 174
67.10353 168
67.12365 185
67.14376 172
67.16387 192
67.18399 156
67.2041 188
67.22421 200
67.24433 204
67.26444 194
67.28456 209
67.30467 195
67.32478 216
67.3449 219
67.36501 224
67.38512 238
67.40524 258
67.42535 239
67.44546 250
67.46558 291
67.48569 330
67.50581 396
67.52592 445
67.54603 444
67.56615 577
67.58626 722
67.60637 852
67.62649 953
67.6466 1208
67.66672 1398
67.68683 1558
67.70694 1665
67.72706 1591
67.74717 1410
67.76728 1087
67.7874 888
67.80751 845
67.82763 867
67.84774 891
67.86785 985
67.88797 1060
67.90808 1160
67.92819 1113
67.94831 1119
67.96842 961
67.98853 1015
68.00865 1151
68.02876 1341
68.04888 1515
68.06899 1790
68.0891 1992
68.10922 2140
68.12933 2105
68.14944 1862
68.16956 1683
68.18967 1478
68.20979 1507
68.2299 1718
68.25001 1826
68.27013 1982
68.29024 2083
68.31035 1847
68.33047 1588
68.35058 1184
68.3707 943
68.39081 799
68.41092 769
68.43104 728
68.45115 716
68.47126 742
68.49138 672
68.51149 573
68.5316 455
68.55172 361
68.57183 282
68.59195 273
68.61206 211
68.63217 222
68.65229 226
68.6724 202
68.69251 194
68.71263 200
68.73274 188
68.75286 192
68.77297 180
68.79308 173
68.8132 164
68.83331 181
68.85342 181
68.87354 163
68.89365 178
68.91376 170
68.93388 165
68.95399 175
68.97411 186
68.99422 160
69.01433 152
69.03445 179
69.05456 171
69.07467 159
69.09479 169
69.1149 155
69.13502 157
69.15513 141
69.17524 175
69.19536 158
69.21547 145
69.23558 162
69.2557 153
69.27581 161
69.29593 169
69.31604 159
69.33615 160
69.35627 131
69.37638 156
69.39649 158
69.41661 144
69.43672 164
69.45683 140
69.47695 154
69.49706 149
69.51718 151
69.53729 149
69.5574 137
69.57752 132
69.59763 153
69.61774 145
69.63786 132
69.65797 144
69.67809 139
69.6982 153
69.71831 157
69.73843 146
69.75854 141
69.77865 151
69.79877 129
69.81888 133
69.839 141
69.85911 160
69.87922 143
69.89934 148
69.91945 163
69.93956 162
69.95968 133
69.97979 133
69.9999 138
70.02002 141
70.04013 147
70.06025 148
70.08036 136
70.10047 162
70.12059 141
70.1407 123
70.16081 178
70.18093 150
70.20104 146
70.22116 139
70.24127 155
70.26138 149
70.2815 154
70.30161 133
70.32172 143
70.34184 132
70.36195 129
70.38207 132
70.40218 139
70.42229 133
70.44241 147
70.46252 126
70.48263 148
70.50275 167
70.52286 167
70.54297 125
70.56309 141
70.5832 126
70.60332 154
70.62343 140
70.64354 132
70.66366 145
70.68377 146
70.70388 131
70.724 124
70.74411 140
70.76423 158
70.78434 151
70.80445 153
70.82457 124
70.84468 136
70.86479 117
70.88491 146
70.90502 141
70.92513 142
70.94525 146
70.96536 124
70.98548 146
71.00559 154
71.0257 140
71.04582 146
71.06593 130
71.08604 137
71.10616 131
71.12627 112
71.14639 149
71.1665 143
71.18661 158
71.20673 135
71.22684 118
71.24695 132
71.26707 112
71.28718 143
71.3073 122
71.32741 140
71.34752 143
71.36764 158
71.38775 129
71.40786 135
71.42798 102
71.44809 151
71.4682 141
71.48832 147
71.50843 115
71.52855 117
71.54866 129
71.56877 149
71.58889 150
71.609 145
71.62911 139
71.64923 156
71.66934 139
71.68946 146
71.70957 131
71.72968 148
71.7498 146
71.76991 146
71.79002 141
71.81014 138
71.83025 151
71.85037 150
71.87048 139
71.89059 134
71.91071 157
71.93082 141
71.95093 159
71.97105 138
71.99116 149
72.01127 162
72.03139 136
72.0515 137
72.07162 136
72.09173 138
72.11184 148
72.13196 144
72.15207 156
72.17218 149
72.1923 143
72.21241 137
72.23253 151
72.25264 153
72.27275 145
72.29287 152
72.31298 133
72.33309 127
72.35321 143
72.37332 163
72.39344 128
72.41355 141
72.43366 129
72.45378 143
72.47389 138
72.494 128
72.51412 132
72.53423 142
72.55434 136
72.57446 148
72.59457 130
72.61469 120
72.6348 128
72.65491 123
72.67503 156
72.69514 136
72.71525 146
72.73537 136
72.75548 130
72.7756 120
72.79571 145
72.81582 134
72.83594 146
72.85605 139
72.87616 142
72.89628 146
72.91639 140
72.9365 149
72.95662 171
72.97673 142
72.99685 134
73.01696 150
73.03707 154
73.05719 141
73.0773 149
73.09741 172
73.11753 174
73.13764 177
73.15776 172
73.17787 183
73.19798 205
73.2181 210
73.23821 205
73.25832 249
73.27844 242
73.29855 291
73.31867 339
73.33878 396
73.35889 424
73.37901 513
73.39912 620
73.41923 618
73.43935 647
73.45946 628
73.47957 537
73.49969 466
73.5198 366
73.53992 317
73.56003 294
73.58014 375
73.60026 308
73.62037 381
73.64048 405
73.6606 389
73.68071 363
73.70083 319
73.72094 258
73.74105 201
73.76117 182
73.78128 186
73.80139 151
73.82151 137
73.84162 146
73.86174 157
73.88185 148
73.90196 150
73.92208 147
73.94219 146
73.9623 129
73.98242 164
74.00253 143
74.02264 147
74.04276 137
74.06287 146
74.08299 149
74.1031 128
74.12321 150
74.14333 146
74.16344 146
74.18355 130
74.20367 150
74.22378 134
74.2439 129
74.26401 130
74.28412 139
74.30424 157
74.32435 156
74.34446 123
74.36458 130
74.38469 156
74.40481 127
74.42492 147
74.44503 136
74.46515 152
74.48526 133
74.50537 132
74.52549 149
74.5456 140
74.56571 137
74.58583 141
74.60594 136
74.62606 138
74.64617 145
74.66628 145
74.6864 128
74.70651 119
74.72662 141
74.74674 142
74.76685 160
74.78697 141
74.80708 148
74.82719 158
74.84731 140
74.86742 153
74.88753 142
74.90765 157
74.92776 148
74.94787 143
74.96799 141
74.9881 138
75.00822 146
