3.00117 19346
3.02128 19176
3.0414 18350
3.06151 18012
3.08162 17475
3.10174 16869
3.12185 16845
3.14197 15815
3.16208 15669
3.18219 15276
3.20231 14552
3.22242 14627
3.24253 13892
3.26265 13503
3.28276 13248
3.30288 12700
3.32299 12208
3.3431 11869
3.36322 11611
3.38333 10993
3.40344 10733
3.42356 10655
3.44367 9903
3.46379 9472
3.4839 9349
3.50401 8937
3.52413 8708
3.54424 8517
3.56435 8149
3.58447 8002
3.60458 7534
3.62469 7348
3.64481 7114
3.66492 6901
3.68504 6513
3.70515 6231
3.72526 6179
3.74538 6006
3.76549 5421
3.7856 5415
3.80572 5278
3.82583 5032
3.84595 4797
3.86606 4665
3.88617 4506
3.90629 4174
3.9264 4223
3.94651 4029
3.96663 3846
3.98674 3666
4.00686 3526
4.02697 3463
4.04708 3307
4.0672 3007
4.08731 3060
4.10742 2901
4.12754 2787
4.14765 2706
4.16776 2653
4.18788 2443
4.20799 2424
4.22811 2428
4.24822 2394
4.26833 2252
4.28845 2077
4.30856 2046
4.32867 2066
4.34879 2091
4.3689 1929
4.38902 1811
4.40913 1821
4.42924 1911
4.44936 1750
4.46947 1694
4.48958 1690
4.5097 1637
4.52981 1718
4.54992 1648
4.57004 1553
4.59015 1526
4.61027 1541
4.63038 1506
4.65049 1454
4.67061 1520
4.69072 1427
4.71083 1476
4.73095 1400
4.75106 1389
4.77118 1305
4.79129 1364
4.8114 1307
4.83152 1310
4.85163 1326
4.87174 1217
4.89186 1277
4.91197 1212
4.93209 1202
4.9522 1216
4.97231 1128
4.99243 1132
5.01254 1062
5.03265 1175
5.05277 1132
5.07288 1100
5.09299 1026
5.11311 1093
5.13322 1015
5.15334 1124
5.17345 988
5.19356 1062
5.21368 995
5.23379 915
5.2539 978
5.27402 1004
5.29413 916
5.31425 934
5.33436 949
5.35447 941
5.37459 908
5.3947 926
5.41481 946
5.43493 924
5.45504 918
5.47516 922
5.49527 892
5.51538 922
5.5355 891
5.55561 900
5.57572 811
5.59584 844
5.61595 870
5.63606 829
5.65618 803
5.67629 743
5.69641 824
5.71652 745
5.73663 835
5.75675 764
5.77686 750
5.79697 803
5.81709 777
5.8372 732
5.85732 719
5.87743 758
5.89754 698
5.91766 746
5.93777 718
5.95788 696
5.978 719
5.99811 722
6.01823 664
6.03834 684
6.05845 742
6.07857 699
6.09868 721
6.11879 674
6.13891 672
6.15902 650
6.17913 686
6.19925 667
6.21936 694
6.23948 703
6.25959 659
6.2797 679
6.29982 663
6.31993 618
6.34004 604
6.36016 661
6.38027 624
6.40039 618
6.4205 630
6.44061 641
6.46073 644
6.48084 588
6.50095 621
6.52107 600
6.54118 600
6.56129 574
6.58141 583
6.60152 603
6.62164 610
6.64175 578
6.66186 569
6.68198 570
6.70209 578
6.7222 512
6.74232 539
6.76243 536
6.78255 592
6.80266 551
6.82277 526
6.84289 538
6.863 559
6.88311 536
6.90323 519
6.92334 558
6.94346 510
6.96357 535
6.98368 530
7.0038 490
7.02391 510
7.04402 495
7.06414 450
7.08425 524
7.10436 543
7.12448 494
7.14459 513
7.16471 504
7.18482 511
7.20493 503
7.22505 529
7.24516 495
7.26527 481
7.28539 519
7.3055 507
7.32562 488
7.34573 468
7.36584 513
7.38596 497
7.40607 448
7.42618 458
7.4463 467
7.46641 506
7.48653 470
7.50664 457
7.52675 471
7.54687 479
7.56698 464
7.58709 437
7.60721 487
7.62732 476
7.64743 495
7.66755 499
7.68766 490
7.70778 467
7.72789 414
7.748 466
7.76812 466
7.78823 412
7.80834 486
7.82846 447
7.84857 415
7.86869 477
7.8888 495
7.90891 461
7.92903 466
7.94914 468
7.96925 459
7.98937 486
8.00948 468
8.0296 467
8.04971 495
8.06982 463
8.08994 421
8.11005 473
8.13016 465
8.15028 471
8.17039 468
8.1905 495
8.21062 502
8.23073 454
8.25085 463
8.27096 458
8.29107 472
8.31119 450
8.3313 484
8.35141 459
8.37153 511
8.39164 455
8.41176 488
8.43187 466
8.45198 492
8.4721 497
8.49221 410
8.51232 479
8.53244 451
8.55255 423
8.57266 508
8.59278 454
8.61289 486
8.63301 457
8.65312 406
8.67323 433
8.69335 454
8.71346 426
8.73357 417
8.75369 420
8.7738 427
8.79392 437
8.81403 399
8.83414 406
8.85426 376
8.87437 422
8.89448 384
8.9146 430
8.93471 387
8.95483 373
8.97494 428
8.99505 375
9.01517 347
9.03528 388
9.05539 394
9.07551 386
9.09562 356
9.11573 401
9.13585 354
9.15596 351
9.17608 390
9.19619 350
9.2163 399
9.23642 376
9.25653 365
9.27664 364
9.29676 333
9.31687 406
9.33699 390
9.3571 390
9.37721 389
9.39733 374
9.41744 314
9.43755 368
9.45767 329
9.47778 340
9.4979 356
9.51801 340
9.53812 371
9.55824 358
9.57835 342
9.59846 355
9.61858 384
9.63869 361
9.6588 327
9.67892 373
9.69903 369
9.71915 332
9.73926 384
9.75937 346
9.77949 321
9.7996 354
9.81971 300
9.83983 317
9.85994 331
9.88006 327
9.90017 343
9.92028 367
9.9404 331
9.96051 347
9.98062 336
10.00074 325
10.02085 383
10.04097 310
10.06108 339
10.08119 311
10.10131 341
10.12142 342
10.14153 365
10.16165 360
10.18176 329
10.20187 333
10.22199 314
10.2421 359
10.26222 346
10.28233 328
10.30244 365
10.32256 330
10.34267 330
10.36278 344
10.3829 365
10.40301 324
10.42313 372
10.44324 373
10.46335 386
10.48347 360
10.50358 335
10.52369 341
10.54381 372
10.56392 328
10.58403 382
10.60415 332
10.62426 327
10.64438 323
10.66449 314
10.6846 287
10.70472 300
10.72483 295
10.74494 318
10.76506 324
10.78517 344
10.80529 357
10.8254 361
10.84551 321
10.86563 340
10.88574 306
10.90585 320
10.92597 328
10.94608 354
10.9662 325
10.98631 329
11.00642 300
11.02654 331
11.04665 325
11.06676 331
11.08688 282
11.10699 335
11.1271 300
11.14722 320
11.16733 296
11.18745 320
11.20756 303
11.22767 337
11.24779 325
11.2679 306
11.28801 307
11.30813 321
11.32824 293
11.34836 274
11.36847 320
11.38858 347
11.4087 315
11.42881 305
11.44892 303
11.46904 308
11.48915 312
11.50927 306
11.52938 317
11.54949 301
11.56961 299
11.58972 305
11.60983 297
11.62995 310
11.65006 305
11.67017 308
11.69029 288
11.7104 334
11.73052 317
11.75063 320
11.77074 322
11.79086 311
11.81097 342
11.83108 291
11.8512 308
11.87131 328
11.89143 308
11.91154 314
11.93165 292
11.95177 333
11.97188 334
11.99199 322
12.01211 334
12.03222 334
12.05234 298
12.07245 305
12.09256 331
12.11268 311
12.13279 332
12.1529 321
12.17302 325
12.19313 328
12.21324 311
12.23336 317
12.25347 317
12.27359 307
12.2937 335
12.31381 343
12.33393 306
12.35404 315
12.37415 338
12.39427 290
12.41438 287
12.4345 328
12.45461 336
12.47472 313
12.49484 312
12.51495 344
12.53506 363
12.55518 323
12.57529 322
12.5954 313
12.61552 294
12.63563 315
12.65575 329
12.67586 312
12.69597 326
12.71609 323
12.7362 320
12.75631 334
12.77643 282
12.79654 322
12.81666 273
12.83677 348
12.85688 347
12.877 301
12.89711 275
12.91722 356
12.93734 311
12.95745 340
12.97757 291
12.99768 294
13.01779 312
13.03791 326
13.05802 311
13.07813 306
13.09825 315
13.11836 337
13.13847 289
13.15859 302
13.1787 336
13.19882 315
13.21893 325
13.23904 347
13.25916 312
13.27927 335
13.29938 314
13.3195 343
13.33961 324
13.35973 326
13.37984 340
13.39995 307
13.42007 321
13.44018 323
13.46029 313
13.48041 277
13.50052 317
13.52064 345
13.54075 284
13.56086 320
13.58098 381
13.60109 369
13.6212 378
13.64132 340
13.66143 362
13.68154 361
13.70166 334
13.72177 329
13.74189 402
13.762 350
13.78211 372
13.80223 389
13.82234 407
13.84245 374
13.86257 367
13.88268 371
13.9028 338
13.92291 353
13.94302 368
13.96314 331
13.98325 348
14.00336 325
14.02348 348
14.04359 292
14.06371 299
14.08382 347
14.10393 329
14.12405 285
14.14416 310
14.16427 315
14.18439 259
14.2045 320
14.22461 314
14.24473 278
14.26484 307
14.28496 303
14.30507 301
14.32518 314
14.3453 277
14.36541 289
14.38552 277
14.40564 327
14.42575 282
14.44587 294
14.46598 321
14.48609 308
14.50621 298
14.52632 284
14.54643 308
14.56655 286
14.58666 330
14.60677 291
14.62689 278
14.647 342
14.66712 306
14.68723 353
14.70734 323
14.72746 344
14.74757 273
14.76768 309
14.7878 313
14.80791 309
14.82803 299
14.84814 365
14.86825 341
14.88837 321
14.90848 327
14.92859 337
14.94871 304
14.96882 340
14.98894 319
15.00905 314
15.02916 362
15.04928 348
15.06939 327
15.0895 318
15.10962 332
15.12973 278
15.14984 312
15.16996 298
15.19007 342
15.21019 316
15.2303 304
15.25041 289
15.27053 297
15.29064 306
15.31075 272
15.33087 276
15.35098 331
15.3711 328
15.39121 291
15.41132 325
15.43144 278
15.45155 329
15.47166 336
15.49178 332
15.51189 347
15.53201 329
15.55212 273
15.57223 305
15.59235 292
15.61246 312
15.63257 298
15.65269 298
15.6728 326
15.69291 302
15.71303 324
15.73314 328
15.75326 322
15.77337 303
15.79348 271
15.8136 288
15.83371 306
15.85382 307
15.87394 307
15.89405 309
15.91417 299
15.93428 305
15.95439 314
15.97451 285
15.99462 321
16.01473 297
16.03485 289
16.05496 318
16.07508 299
16.09519 334
16.1153 303
16.13542 310
16.15553 303
16.17564 336
16.19576 302
16.21587 284
16.23598 311
16.2561 319
16.27621 310
16.29633 295
16.31644 332
16.33655 303
16.35667 287
16.37678 301
16.39689 269
16.41701 294
16.43712 312
16.45724 315
16.47735 307
16.49746 288
16.51758 335
16.53769 337
16.5578 296
16.57792 333
16.59803 302
16.61814 276
16.63826 304
16.65837 299
16.67849 318
16.6986 341
16.71871 280
16.73883 287
16.75894 337
16.77905 304
16.79917 307
16.81928 305
16.8394 283
16.85951 313
16.87962 306
16.89974 320
16.91985 312
16.93996 325
16.96008 270
16.98019 319
17.00031 284
17.02042 311
17.04053 293
17.06065 306
17.08076 305
17.10087 322
17.12099 309
17.1411 306
17.16121 304
17.18133 316
17.20144 345
17.22156 333
17.24167 338
17.26178 334
17.2819 375
17.30201 335
17.32212 345
17.34224 332
17.36235 353
17.38247 347
17.40258 311
17.42269 324
17.44281 312
17.46292 310
17.48303 337
17.50315 336
17.52326 317
17.54338 305
17.56349 362
17.5836 339
17.60372 316
17.62383 307
17.64394 318
17.66406 300
17.68417 338
17.70428 335
17.7244 336
17.74451 308
17.76463 290
17.78474 348
17.80485 307
17.82497 324
17.84508 291
17.86519 323
17.88531 309
17.90542 321
17.92554 305
17.94565 318
17.96576 324
17.98588 307
18.00599 293
18.0261 304
18.04622 290
18.06633 346
18.08645 359
18.10656 276
18.12667 301
18.14679 320
18.1669 309
18.18701 314
18.20713 327
18.22724 326
18.24735 315
18.26747 279
18.28758 328
18.3077 375
18.32781 350
18.34792 336
18.36804 322
18.38815 311
18.40826 323
18.42838 326
18.44849 308
18.46861 293
18.48872 300
18.50883 299
18.52895 295
18.54906 298
18.56917 266
18.58929 312
18.6094 336
18.62951 307
18.64963 318
18.66974 319
18.68986 308
18.70997 307
18.73008 326
18.7502 332
18.77031 349
18.79042 292
18.81054 316
18.83065 354
18.85077 325
18.87088 370
18.89099 354
18.91111 338
18.93122 332
18.95133 335
18.97145 334
18.99156 320
19.01168 371
19.03179 355
19.0519 380
19.07202 352
19.09213 342
19.11224 358
19.13236 349
19.15247 347
19.17258 343
19.1927 386
19.21281 366
19.23293 409
19.25304 387
19.27315 400
19.29327 375
19.31338 414
19.33349 438
19.35361 476
19.37372 410
19.39384 444
19.41395 507
19.43406 457
19.45418 445
19.47429 514
19.4944 468
19.51452 519
19.53463 527
19.55475 509
19.57486 510
19.59497 546
19.61509 564
19.6352 523
19.65531 584
19.67543 547
19.69554 594
19.71565 603
19.73577 591
19.75588 589
19.776 605
19.79611 644
19.81622 630
19.83634 581
19.85645 613
19.87656 580
19.89668 547
19.91679 549
19.93691 537
19.95702 512
19.97713 564
19.99725 545
20.01736 496
20.03747 536
20.05759 524
20.0777 528
20.09782 500
20.11793 492
20.13804 480
20.15816 498
20.17827 496
20.19838 474
20.2185 521
20.23861 489
20.25872 480
20.27884 471
20.29895 469
20.31907 488
20.33918 448
20.35929 445
20.37941 435
20.39952 439
20.41963 484
20.43975 489
20.45986 490
20.47998 483
20.50009 463
20.5202 536
20.54032 473
20.56043 500
20.58054 501
20.60066 488
20.62077 496
20.64088 600
20.661 617
20.68111 695
20.70123 765
20.72134 919
20.74145 1076
20.76157 1261
20.78168 1397
20.80179 1537
20.82191 1590
20.84202 1500
20.86214 1350
20.88225 1182
20.90236 1031
20.92248 866
20.94259 756
20.9627 656
20.98282 700
21.00293 635
21.02305 651
21.04316 579
21.06327 556
21.08339 536
21.1035 508
21.12361 445
21.14373 447
21.16384 424
21.18395 447
21.20407 413
21.22418 434
21.2443 389
21.26441 386
21.28452 413
21.30464 434
21.32475 429
21.34486 426
21.36498 410
21.38509 370
21.40521 404
21.42532 414
21.44543 432
21.46555 394
21.48566 397
21.50577 423
21.52589 403
21.546 403
21.56612 414
21.58623 413
21.60634 388
21.62646 379
21.64657 387
21.66668 397
21.6868 407
21.70691 382
21.72702 385
21.74714 435
21.76725 448
21.78737 400
21.80748 436
21.82759 494
21.84771 546
21.86782 601
21.88793 625
21.90805 677
21.92816 772
21.94828 774
21.96839 818
21.9885 784
22.00862 759
22.02873 712
22.04884 638
22.06896 572
22.08907 514
22.10919 399
22.1293 440
22.14941 418
22.16953 438
22.18964 424
22.20975 436
22.22987 409
22.24998 435
22.27009 422
22.29021 404
22.31032 408
22.33044 404
22.35055 385
22.37066 433
22.39078 399
22.41089 455
22.431 457
22.45112 441
22.47123 467
22.49135 506
22.51146 460
22.53157 429
22.55169 399
22.5718 412
22.59191 410
22.61203 424
22.63214 421
22.65225 390
22.67237 459
22.69248 460
22.7126 470
22.73271 479
22.75282 507
22.77294 508
22.79305 523
22.81316 488
22.83328 482
22.85339 514
22.87351 480
22.89362 494
22.91373 486
22.93385 532
22.95396 523
22.97407 488
22.99419 549
23.0143 519
23.03442 559
23.05453 531
23.07464 542
23.09476 516
23.11487 510
23.13498 489
23.1551 491
23.17521 474
23.19532 468
23.21544 484
23.23555 445
23.25567 439
23.27578 447
23.29589 439
23.31601 461
23.33612 421
23.35623 456
23.37635 480
23.39646 513
23.41658 539
23.43669 597
23.4568 614
23.47692 617
23.49703 704
23.51714 700
23.53726 700
23.55737 659
23.57749 678
23.5976 657
23.61771 589
23.63783 525
23.65794 507
23.67805 525
23.69817 513
23.71828 486
23.73839 531
23.75851 500
23.77862 460
23.79874 521
23.81885 507
23.83896 518
23.85908 503
23.87919 538
23.8993 543
23.91942 568
23.93953 562
23.95965 540
23.97976 540
23.99987 560
24.01999 517
24.0401 551
24.06021 549
24.08033 554
24.10044 579
24.12056 619
24.14067 579
24.16078 574
24.1809 577
24.20101 580
24.22112 565
24.24124 606
24.26135 592
24.28146 579
24.30158 593
24.32169 542
24.34181 513
24.36192 491
24.38203 463
24.40215 462
24.42226 431
24.44237 457
24.46249 403
24.4826 452
24.50272 377
24.52283 423
24.54294 408
24.56306 417
24.58317 399
24.60328 362
24.6234 438
24.64351 375
24.66362 432
24.68374 394
24.70385 431
24.72397 409
24.74408 374
24.76419 384
24.78431 381
24.80442 373
24.82453 428
24.84465 441
24.86476 425
24.88488 406
24.90499 414
24.9251 450
24.94522 406
24.96533 399
24.98544 424
25.00556 438
25.02567 423
25.04579 451
25.0659 450
25.08601 404
25.10613 433
25.12624 410
25.14635 463
25.16647 470
25.18658 447
25.20669 443
25.22681 480
25.24692 487
25.26704 507
25.28715 481
25.30726 484
25.32738 504
25.34749 474
25.3676 526
25.38772 543
25.40783 559
25.42795 548
25.44806 510
25.46817 572
25.48829 555
25.5084 568
25.52851 584
25.54863 597
25.56874 596
25.58886 581
25.60897 559
25.62908 566
25.6492 578
25.66931 560
25.68942 504
25.70954 486
25.72965 478
25.74976 487
25.76988 444
25.78999 423
25.81011 436
25.83022 452
25.85033 461
25.87045 432
25.89056 433
25.91067 440
25.93079 478
25.9509 498
25.97102 480
25.99113 460
26.01124 460
26.03136 494
26.05147 465
26.07158 503
26.0917 467
26.11181 517
26.13193 496
26.15204 538
26.17215 559
26.19227 535
26.21238 592
26.23249 649
26.25261 626
26.27272 633
26.29283 656
26.31295 755
26.33306 827
26.35318 828
26.37329 929
26.3934 1025
26.41352 1158
26.43363 1538
26.45374 1857
26.47386 2266
26.49397 3025
26.51409 3621
26.5342 4325
26.55431 5091
26.57443 5658
26.59454 5663
26.61465 5258
26.63477 4780
26.65488 3873
26.67499 2910
26.69511 2266
26.71522 1720
26.73534 1233
26.75545 1016
26.77556 859
26.79568 797
26.81579 832
26.8359 785
26.85602 785
26.87613 727
26.89625 798
26.91636 767
26.93647 666
26.95659 786
26.9767 682
26.99681 706
27.01693 707
27.03704 749
27.05716 648
27.07727 679
27.09738 676
27.1175 606
27.13761 592
27.15772 546
27.17784 600
27.19795 519
27.21806 516
27.23818 566
27.25829 557
27.27841 593
27.29852 594
27.31863 652
27.33875 659
27.35886 653
27.37897 758
27.39909 813
27.4192 821
27.43932 889
27.45943 881
27.47954 892
27.49966 824
27.51977 804
27.53988 784
27.56 747
27.58011 867
27.60023 833
27.62034 877
27.64045 898
27.66057 906
27.68068 976
27.70079 1015
27.72091 1053
27.74102 1037
27.76113 1064
27.78125 1134
27.80136 1142
27.82148 1208
27.84159 1174
27.8617 1222
27.88182 1249
27.90193 1289
27.92204 1197
27.94216 1069
27.96227 1038
27.98239 941
28.0025 886
28.02261 733
28.04273 692
28.06284 673
28.08295 658
28.10307 674
28.12318 642
28.1433 693
28.16341 697
28.18352 634
28.20364 672
28.22375 644
28.24386 664
28.26398 613
28.28409 563
28.3042 539
28.32432 500
28.34443 480
28.36455 471
28.38466 469
28.40477 458
28.42489 465
28.445 450
28.46511 465
28.48523 431
28.50534 437
28.52546 398
28.54557 421
28.56568 450
28.5858 405
28.60591 397
28.62602 429
28.64614 411
28.66625 387
28.68636 438
28.70648 421
28.72659 423
28.74671 414
28.76682 418
28.78693 404
28.80705 424
28.82716 405
28.84727 390
28.86739 435
28.8875 421
28.90762 404
28.92773 393
28.94784 423
28.96796 416
28.98807 380
29.00818 408
29.0283 411
29.04841 437
29.06853 426
29.08864 469
29.10875 520
29.12887 497
29.14898 547
29.16909 539
29.18921 570
29.20932 611
29.22943 679
29.24955 744
29.26966 847
29.28978 933
29.30989 1146
29.33 1184
29.35012 1349
29.37023 1377
29.39034 1509
29.41046 1448
29.43057 1380
29.45069 1301
29.4708 1253
29.49091 1172
29.51103 1132
29.53114 946
29.55125 883
29.57137 811
29.59148 760
29.6116 699
29.63171 693
29.65182 673
29.67194 680
29.69205 722
29.71216 665
29.73228 694
29.75239 684
29.7725 717
29.79262 702
29.81273 671
29.83285 704
29.85296 673
29.87307 624
29.89319 585
29.9133 624
29.93341 598
29.95353 545
29.97364 594
29.99376 540
30.01387 515
30.03398 521
30.0541 509
30.07421 519
30.09432 499
30.11444 515
30.13455 511
30.15467 572
30.17478 528
30.19489 553
30.21501 540
30.23512 520
30.25523 567
30.27535 579
30.29546 582
30.31557 568
30.33569 623
30.3558 568
30.37592 540
30.39603 619
30.41614 585
30.43626 562
30.45637 520
30.47648 514
30.4966 474
30.51671 454
30.53683 451
30.55694 430
30.57705 463
30.59717 426
30.61728 457
30.63739 457
30.65751 463
30.67762 459
30.69773 441
30.71785 500
30.73796 531
30.75808 516
30.77819 498
30.7983 519
30.81842 481
30.83853 464
30.85864 486
30.87876 468
30.89887 416
30.91899 425
30.9391 369
30.95921 420
30.97933 427
30.99944 416
31.01955 413
31.03967 409
31.05978 418
31.0799 378
31.10001 420
31.12012 411
31.14024 404
31.16035 411
31.18046 434
31.20058 408
31.22069 418
31.2408 419
31.26092 394
31.28103 482
31.30115 428
31.32126 406
31.34137 421
31.36149 417
31.3816 411
31.40171 388
31.42183 390
31.44194 421
31.46206 424
31.48217 392
31.50228 389
31.5224 381
31.54251 372
31.56262 340
31.58274 394
31.60285 396
31.62297 358
31.64308 345
31.66319 388
31.68331 374
31.70342 350
31.72353 376
31.74365 350
31.76376 319
31.78387 354
31.80399 358
31.8241 362
31.84422 369
31.86433 375
31.88444 330
31.90456 375
31.92467 337
31.94478 352
31.9649 378
31.98501 388
32.00513 408
32.02524 382
32.04535 433
32.06547 428
32.08558 396
32.10569 445
32.12581 447
32.14592 478
32.16604 500
32.18615 460
32.20626 471
32.22638 487
32.24649 481
32.2666 473
32.28672 428
32.30683 464
32.32694 417
32.34706 390
32.36717 394
32.38729 398
32.4074 350
32.42751 393
32.44763 397
32.46774 383
32.48785 403
32.50797 382
32.52808 429
32.5482 360
32.56831 398
32.58842 340
32.60854 366
32.62865 346
32.64876 352
32.66888 368
32.68899 372
32.7091 348
32.72922 355
32.74933 330
32.76945 372
32.78956 371
32.80967 364
32.82979 401
32.8499 378
32.87001 418
32.89013 380
32.91024 417
32.93036 422
32.95047 439
32.97058 443
32.9907 390
33.01081 460
33.03092 439
33.05104 414
33.07115 399
33.09127 401
33.11138 451
33.13149 396
33.15161 385
33.17172 376
33.19183 380
33.21195 356
33.23206 362
33.25217 342
33.27229 347
33.2924 333
33.31252 375
33.33263 356
33.35274 332
33.37286 364
33.39297 338
33.41308 344
33.4332 367
33.45331 336
33.47343 339
33.49354 333
33.51365 378
33.53377 322
33.55388 350
33.57399 336
33.59411 349
33.61422 366
33.63434 365
33.65445 346
33.67456 392
33.69468 322
33.71479 354
33.7349 381
33.75502 356
33.77513 383
33.79524 398
33.81536 394
33.83547 360
33.85559 373
33.8757 411
33.89581 384
33.91593 384
33.93604 414
33.95615 394
33.97627 398
33.99638 405
34.0165 416
34.03661 399
34.05672 373
34.07684 425
34.09695 398
34.11706 370
34.13718 433
34.15729 408
34.17741 456
34.19752 442
34.21763 423
34.23775 431
34.25786 458
34.27797 436
34.29809 451
34.3182 494
34.33831 482
34.35843 516
34.37854 512
34.39866 467
34.41877 480
34.43888 531
34.459 512
34.47911 509
34.49922 492
34.51934 489
34.53945 500
34.55957 535
34.57968 526
34.59979 492
34.61991 557
34.64002 566
34.66013 530
34.68025 575
34.70036 536
34.72047 549
34.74059 516
34.7607 551
34.78082 548
34.80093 538
34.82104 559
34.84116 587
34.86127 539
34.88138 590
34.9015 562
34.92161 585
34.94173 611
34.96184 593
34.98195 636
35.00207 618
35.02218 610
35.04229 648
35.06241 615
35.08252 601
35.10264 610
35.12275 602
35.14286 552
35.16298 581
35.18309 582
35.2032 578
35.22332 633
35.24343 583
35.26354 562
35.28366 591
35.30377 636
35.32389 616
35.344 576
35.36411 646
35.38423 616
35.40434 646
35.42445 615
35.44457 702
35.46468 706
35.4848 705
35.50491 679
35.52502 701
35.54514 717
35.56525 723
35.58536 712
35.60548 699
35.62559 682
35.64571 643
35.66582 631
35.68593 556
35.70605 577
35.72616 537
35.74627 533
35.76639 505
35.7865 546
35.80661 536
35.82673 558
35.84684 555
35.86696 546
35.88707 555
35.90718 590
35.9273 564
35.94741 603
35.96752 578
35.98764 586
36.00775 575
36.02787 589
36.04798 516
36.06809 581
36.08821 549
36.10832 567
36.12843 551
36.14855 495
36.16866 528
36.18878 517
36.20889 517
36.229 482
36.24912 517
36.26923 580
36.28934 593
36.30946 669
36.32957 670
36.34968 690
36.3698 736
36.38991 732
36.41003 731
36.43014 794
36.45025 857
36.47037 870
36.49048 847
36.51059 869
36.53071 784
36.55082 671
36.57094 692
36.59105 615
36.61116 563
36.63128 530
36.65139 525
36.6715 474
36.69162 466
36.71173 426
36.73184 444
36.75196 425
36.77207 426
36.79219 437
36.8123 438
36.83241 424
36.85253 458
36.87264 426
36.89275 453
36.91287 426
36.93298 445
36.9531 424
36.97321 431
36.99332 433
37.01344 412
37.03355 433
37.05366 444
37.07378 427
37.09389 434
37.11401 399
37.13412 429
37.15423 432
37.17435 414
37.19446 396
37.21457 418
37.23469 417
37.2548 418
37.27491 401
37.29503 403
37.31514 386
37.33526 404
37.35537 409
37.37548 439
37.3956 447
37.41571 395
37.43582 405
37.45594 408
37.47605 423
37.49617 430
37.51628 433
37.53639 411
37.55651 397
37.57662 453
37.59673 451
37.61685 450
37.63696 468
37.65708 421
37.67719 425
37.6973 414
37.71742 411
37.73753 405
37.75764 411
37.77776 382
37.79787 453
37.81798 375
37.8381 382
37.85821 357
37.87833 353
37.89844 347
37.91855 384
37.93867 337
37.95878 358
37.97889 390
37.99901 378
38.01912 357
38.03924 371
38.05935 361
38.07946 386
38.09958 370
38.11969 408
38.1398 362
38.15992 366
38.18003 390
38.20015 382
38.22026 354
38.24037 395
38.26049 399
38.2806 378
38.30071 367
38.32083 374
38.34094 377
38.36105 381
38.38117 388
38.40128 367
38.4214 346
38.44151 406
38.46162 365
38.48174 387
38.50185 392
38.52196 410
38.54208 363
38.56219 348
38.58231 425
38.60242 376
38.62253 399
38.64265 353
38.66276 371
38.68287 419
38.70299 416
38.7231 405
38.74321 393
38.76333 401
38.78344 358
38.80356 367
38.82367 383
38.84378 403
38.8639 360
38.88401 385
38.90412 405
38.92424 382
38.94435 401
38.96447 385
38.98458 386
39.00469 406
39.02481 407
39.04492 366
39.06503 405
39.08515 375
39.10526 446
39.12538 400
39.14549 430
39.1656 419
39.18572 444
39.20583 429
39.22594 468
39.24606 493
39.26617 530
39.28628 574
39.3064 597
39.32651 685
39.34663 745
39.36674 782
39.38685 893
39.40697 888
39.42708 867
39.44719 852
39.46731 815
39.48742 749
39.50754 723
39.52765 714
39.54776 642
39.56788 618
39.58799 560
39.6081 466
39.62822 484
39.64833 468
39.66845 422
39.68856 451
39.70867 414
39.72879 422
39.7489 445
39.76901 435
39.78913 415
39.80924 405
39.82935 424
39.84947 399
39.86958 425
39.8897 390
39.90981 413
39.92992 419
39.95004 408
39.97015 425
39.99026 388
40.01038 428
40.03049 413
40.05061 414
40.07072 408
40.09083 456
40.11095 439
40.13106 476
40.15117 456
40.17129 514
40.1914 522
40.21152 507
40.23163 524
40.25174 495
40.27186 477
40.29197 450
40.31208 489
40.3322 438
40.35231 440
40.37242 422
40.39254 405
40.41265 383
40.43277 354
40.45288 370
40.47299 359
40.49311 363
40.51322 361
40.53333 364
40.55345 367
40.57356 387
40.59368 358
40.61379 363
40.6339 356
40.65402 359
40.67413 377
40.69424 378
40.71436 389
40.73447 382
40.75458 410
40.7747 375
40.79481 341
40.81493 391
40.83504 377
40.85515 385
40.87527 374
40.89538 336
40.91549 373
40.93561 356
40.95572 386
40.97584 358
40.99595 382
41.01606 354
41.03618 338
41.05629 351
41.0764 373
41.09652 388
41.11663 381
41.13675 330
41.15686 338
41.17697 385
41.19709 371
41.2172 391
41.23731 375
41.25743 335
41.27754 336
41.29765 310
41.31777 306
41.33788 312
41.358 370
41.37811 343
41.39822 374
41.41834 338
41.43845 347
41.45856 375
41.47868 384
41.49879 366
41.51891 344
41.53902 386
41.55913 376
41.57925 445
41.59936 434
41.61947 444
41.63959 421
41.6597 369
41.67982 436
41.69993 404
41.72004 423
41.74016 436
41.76027 414
41.78038 399
41.8005 402
41.82061 384
41.84072 386
41.86084 354
41.88095 388
41.90107 346
41.92118 378
41.94129 354
41.96141 362
41.98152 354
42.00163 373
42.02175 388
42.04186 351
42.06198 329
42.08209 365
42.1022 370
42.12232 404
42.14243 388
42.16254 369
42.18266 393
42.20277 415
42.22289 439
42.243 403
42.26311 473
42.28323 504
42.30334 553
42.32345 560
42.34357 583
42.36368 565
42.38379 631
42.40391 556
42.42402 591
42.44414 547
42.46425 520
42.48436 562
42.50448 502
42.52459 431
42.5447 423
42.56482 431
42.58493 439
42.60505 434
42.62516 432
42.64527 388
42.66539 421
42.6855 416
42.70561 422
42.72573 406
42.74584 397
42.76595 404
42.78607 401
42.80618 413
42.8263 414
42.84641 371
42.86652 396
42.88664 379
42.90675 389
42.92686 402
42.94698 383
42.96709 397
42.98721 394
43.00732 411
43.02743 430
43.04755 424
43.06766 421
43.08777 437
43.10789 453
43.128 518
43.14812 504
43.16823 490
43.18834 480
43.20846 485
43.22857 496
43.24868 482
43.2688 456
43.28891 476
43.30902 426
43.32914 445
43.34925 376
43.36937 410
43.38948 391
43.40959 391
43.42971 354
43.44982 358
43.46993 348
43.49005 354
43.51016 384
43.53028 389
43.55039 354
43.5705 326
43.59062 337
43.61073 306
43.63084 334
43.65096 329
43.67107 294
43.69119 305
43.7113 330
43.73141 338
43.75153 364
43.77164 321
43.79175 350
43.81187 339
43.83198 308
43.85209 309
43.87221 315
43.89232 321
43.91244 352
43.93255 326
43.95266 345
43.97278 328
43.99289 305
44.013 326
44.03312 350
44.05323 333
44.07335 350
44.09346 302
44.11357 328
44.13369 328
44.1538 321
44.17391 342
44.19403 341
44.21414 363
44.23426 350
44.25437 329
44.27448 331
44.2946 332
44.31471 356
44.33482 327
44.35494 350
44.37505 335
44.39516 369
44.41528 323
44.43539 363
44.45551 346
44.47562 327
44.49573 331
44.51585 340
44.53596 327
44.55607 316
44.57619 317
44.5963 365
44.61642 344
44.63653 342
44.65664 333
44.67676 336
44.69687 335
44.71698 373
44.7371 352
44.75721 321
44.77732 335
44.79744 323
44.81755 364
44.83767 318
44.85778 330
44.87789 327
44.89801 343
44.91812 311
44.93823 348
44.95835 337
44.97846 324
44.99858 342
45.01869 355
45.0388 322
45.05892 322
45.07903 347
45.09914 349
45.11926 331
45.13937 312
45.15949 336
45.1796 346
45.19971 350
45.21983 358
45.23994 354
45.26005 335
45.28017 321
45.30028 343
45.32039 339
45.34051 341
45.36062 363
45.38074 341
45.40085 351
45.42096 359
45.44108 344
45.46119 355
45.4813 350
45.50142 311
45.52153 343
45.54165 356
45.56176 375
45.58187 423
45.60199 393
45.6221 414
45.64221 473
45.66233 486
45.68244 456
45.70256 491
45.72267 482
45.74278 524
45.7629 515
45.78301 484
45.80312 440
45.82324 461
45.84335 412
45.86346 402
45.88358 377
45.90369 347
45.92381 353
45.94392 366
45.96403 348
45.98415 309
46.00426 326
46.02437 310
46.04449 319
46.0646 307
46.08472 328
46.10483 316
46.12494 309
46.14506 321
46.16517 329
46.18528 295
46.2054 306
46.22551 303
46.24563 340
46.26574 348
46.28585 327
46.30597 308
46.32608 295
46.34619 320
46.36631 314
46.38642 281
46.40653 340
46.42665 325
46.44676 345
46.46688 320
46.48699 301
46.5071 324
46.52722 342
46.54733 325
46.56744 300
46.58756 335
46.60767 299
46.62779 275
46.6479 319
46.66801 329
46.68813 306
46.70824 330
46.72835 323
46.74847 301
46.76858 303
46.78869 338
46.80881 323
46.82892 355
46.84904 310
46.86915 330
46.88926 341
46.90938 316
46.92949 343
46.9496 341
46.96972 331
46.98983 365
47.00995 350
47.03006 357
47.05017 383
47.07029 402
47.0904 395
47.11051 390
47.13063 385
47.15074 399
47.17086 398
47.19097 429
47.21108 403
47.2312 389
47.25131 419
47.27142 421
47.29154 399
47.31165 398
47.33176 397
47.35188 407
47.37199 405
47.39211 477
47.41222 456
47.43233 472
47.45245 473
47.47256 497
47.49267 487
47.51279 471
47.5329 440
47.55302 463
47.57313 447
47.59324 450
47.61336 455
47.63347 466
47.65358 418
47.6737 393
47.69381 413
47.71393 405
47.73404 385
47.75415 388
47.77427 362
47.79438 391
47.81449 368
47.83461 336
47.85472 342
47.87483 343
47.89495 328
47.91506 349
47.93518 334
47.95529 338
47.9754 364
47.99552 343
48.01563 353
48.03574 334
48.05586 373
48.07597 310
48.09609 369
48.1162 366
48.13631 377
48.15643 349
48.17654 359
48.19665 354
48.21677 380
48.23688 366
48.257 350
48.27711 396
48.29722 382
48.31734 397
48.33745 378
48.35756 398
48.37768 433
48.39779 391
48.4179 413
48.43802 414
48.45813 437
48.47825 451
48.49836 474
48.51847 458
48.53859 460
48.5587 486
48.57881 433
48.59893 482
48.61904 450
48.63916 431
48.65927 407
48.67938 416
48.6995 413
48.71961 439
48.73972 410
48.75984 370
48.77995 377
48.80006 355
48.82018 367
48.84029 360
48.86041 359
48.88052 354
48.90063 356
48.92075 386
48.94086 310
48.96097 338
48.98109 338
49.0012 363
49.02132 358
49.04143 387
49.06154 394
49.08166 377
49.10177 362
49.12188 353
49.142 399
49.16211 355
49.18223 371
49.20234 355
49.22245 346
49.24257 371
49.26268 378
49.28279 343
49.30291 340
49.32302 360
49.34313 324
49.36325 332
49.38336 299
49.40348 360
49.42359 361
49.4437 330
49.46382 371
49.48393 351
49.50404 347
49.52416 371
49.54427 368
49.56439 358
49.5845 359
49.60461 344
49.62473 353
49.64484 379
49.66495 344
49.68507 357
49.70518 380
49.7253 402
49.74541 413
49.76552 359
49.78564 434
49.80575 412
49.82586 407
49.84598 452
49.86609 484
49.8862 455
49.90632 487
49.92643 504
49.94655 532
49.96666 602
49.98677 660
50.00689 780
50.027 843
50.04711 810
50.06723 842
50.08734 806
50.10746 785
50.12757 747
50.14768 700
50.1678 655
50.18791 603
50.20802 596
50.22814 540
50.24825 476
50.26837 442
50.28848 436
50.30859 377
50.32871 368
50.34882 321
50.36893 349
50.38905 375
50.40916 328
50.42927 355
50.44939 408
50.4695 397
50.48962 369
50.50973 400
50.52984 375
50.54996 410
50.57007 423
50.59018 383
50.6103 396
50.63041 397
50.65053 406
50.67064 392
50.69075 405
50.71087 384
50.73098 354
50.75109 348
50.77121 361
50.79132 336
50.81143 325
50.83155 336
50.85166 316
50.87178 313
50.89189 343
50.912 343
50.93212 314
50.95223 320
50.97234 313
50.99246 328
51.01257 336
51.03269 328
51.0528 341
51.07291 319
51.09303 369
51.11314 361
51.13325 369
51.15337 378
51.17348 346
51.1936 356
51.21371 335
51.23382 351
51.25394 327
51.27405 367
51.29416 327
51.31428 357
51.33439 336
51.3545 309
51.37462 336
51.39473 340
51.41485 340
51.43496 311
51.45507 303
51.47519 307
51.4953 301
51.51541 315
51.53553 309
51.55564 318
51.57576 299
51.59587 296
51.61598 279
51.6361 315
51.65621 323
51.67632 319
51.69644 318
51.71655 280
51.73667 306
51.75678 289
51.77689 315
51.79701 298
51.81712 309
51.83723 298
51.85735 344
51.87746 312
51.89757 332
51.91769 335
51.9378 332
51.95792 395
51.97803 309
51.99814 379
52.01826 346
52.03837 371
52.05848 374
52.0786 365
52.09871 371
52.11883 391
52.13894 378
52.15905 370
52.17917 359
52.19928 345
52.21939 332
52.23951 336
52.25962 346
52.27974 376
52.29985 353
52.31996 318
52.34008 351
52.36019 356
52.3803 312
52.40042 360
52.42053 311
52.44064 321
52.46076 323
52.48087 305
52.50099 316
52.5211 352
52.54121 297
52.56133 349
52.58144 331
52.60155 296
52.62167 316
52.64178 333
52.6619 307
52.68201 324
52.70212 314
52.72224 292
52.74235 338
52.76246 332
52.78258 354
52.80269 318
52.8228 293
52.84292 320
52.86303 324
52.88315 343
52.90326 316
52.92337 337
52.94349 303
52.9636 336
52.98371 327
53.00383 344
53.02394 331
53.04406 357
53.06417 328
53.08428 337
53.1044 306
53.12451 339
53.14462 329
53.16474 336
53.18485 328
53.20497 334
53.22508 359
53.24519 309
53.26531 303
53.28542 310
53.30553 334
53.32565 327
53.34576 334
53.36587 333
53.38599 311
53.4061 317
53.42622 314
53.44633 330
53.46644 333
53.48656 355
53.50667 291
53.52678 332
53.5469 365
53.56701 343
53.58713 340
53.60724 329
53.62735 317
53.64747 336
53.66758 337
53.68769 343
53.70781 316
53.72792 357
53.74804 324
53.76815 338
53.78826 371
53.80838 375
53.82849 301
53.8486 350
53.86872 312
53.88883 361
53.90894 345
53.92906 346
53.94917 355
53.96929 345
53.9894 386
54.00951 344
54.02963 344
54.04974 330
54.06985 364
54.08997 338
54.11008 344
54.1302 328
54.15031 322
54.17042 384
54.19054 362
54.21065 353
54.23076 334
54.25088 338
54.27099 366
54.29111 355
54.31122 339
54.33133 344
54.35145 383
54.37156 336
54.39167 369
54.41179 354
54.4319 347
54.45201 308
54.47213 338
54.49224 337
54.51236 332
54.53247 337
54.55258 350
54.5727 361
54.59281 359
54.61292 394
54.63304 374
54.65315 383
54.67327 414
54.69338 409
54.71349 443
54.73361 444
54.75372 492
54.77383 471
54.79395 494
54.81406 477
54.83417 476
54.85429 469
54.8744 432
54.89452 427
54.91463 422
54.93474 404
54.95486 412
54.97497 391
54.99508 394
55.0152 394
55.03531 363
55.05543 336
55.07554 349
55.09565 363
55.11577 348
55.13588 326
55.15599 385
55.17611 391
55.19622 359
55.21634 389
55.23645 413
55.25656 387
55.27668 395
55.29679 375
55.3169 388
55.33702 356
55.35713 321
55.37724 356
55.39736 337
55.41747 355
55.43759 371
55.4577 355
55.47781 314
55.49793 323
55.51804 347
55.53815 323
55.55827 345
55.57838 339
55.5985 335
55.61861 341
55.63872 321
55.65884 352
55.67895 334
55.69906 328
55.71918 337
55.73929 320
55.75941 338
55.77952 324
55.79963 320
55.81975 308
55.83986 348
55.85997 324
55.88009 333
55.9002 358
55.92031 376
55.94043 345
55.96054 317
55.98066 328
56.00077 320
56.02088 337
56.041 343
56.06111 308
56.08122 292
56.10134 306
56.12145 331
56.14157 337
56.16168 339
56.18179 327
56.20191 304
56.22202 353
56.24213 316
56.26225 329
56.28236 354
56.30248 342
56.32259 301
56.3427 328
56.36282 301
56.38293 326
56.40304 368
56.42316 335
56.44327 347
56.46338 319
56.4835 395
56.50361 361
56.52373 357
56.54384 394
56.56395 355
56.58407 363
56.60418 365
56.62429 402
56.64441 347
56.66452 344
56.68464 384
56.70475 366
56.72486 386
56.74498 368
56.76509 366
56.7852 411
56.80532 348
56.82543 352
56.84554 332
56.86566 353
56.88577 350
56.90589 315
56.926 311
56.94611 331
56.96623 326
56.98634 355
57.00645 312
57.02657 327
57.04668 318
57.0668 328
57.08691 365
57.10702 330
57.12714 349
57.14725 342
57.16736 338
57.18748 301
57.20759 349
57.22771 353
57.24782 359
57.26793 344
57.28805 359
57.30816 375
57.32827 374
57.34839 358
57.3685 360
57.38861 369
57.40873 379
57.42884 382
57.44896 370
57.46907 387
57.48918 383
57.5093 390
57.52941 376
57.54952 422
57.56964 370
57.58975 376
57.60987 386
57.62998 341
57.65009 397
57.67021 340
57.69032 356
57.71043 319
57.73055 351
57.75066 310
57.77078 306
57.79089 307
57.811 321
57.83112 324
57.85123 338
57.87134 311
57.89146 332
57.91157 317
57.93168 295
57.9518 323
57.97191 318
57.99203 328
58.01214 351
58.03225 296
58.05237 340
58.07248 320
58.09259 302
58.11271 313
58.13282 321
58.15294 304
58.17305 310
58.19316 284
58.21328 335
58.23339 318
58.2535 306
58.27362 314
58.29373 328
58.31385 270
58.33396 323
58.35407 323
58.37419 337
58.3943 311
58.41441 274
58.43453 298
58.45464 313
58.47475 310
58.49487 326
58.51498 296
58.5351 322
58.55521 323
58.57532 313
58.59544 341
58.61555 357
58.63566 303
58.65578 298
58.67589 312
58.69601 324
58.71612 337
58.73623 325
58.75635 314
58.77646 322
58.79657 317
58.81669 295
58.8368 286
58.85691 293
58.87703 281
58.89714 286
58.91726 290
58.93737 322
58.95748 314
58.9776 282
58.99771 301
59.01782 311
59.03794 337
59.05805 314
59.07817 340
59.09828 290
59.11839 270
59.13851 316
59.15862 275
59.17873 295
59.19885 307
59.21896 330
59.23908 296
59.25919 292
59.2793 289
59.29942 300
59.31953 307
59.33964 304
59.35976 333
59.37987 273
59.39998 318
59.4201 312
59.44021 309
59.46033 306
59.48044 276
59.50055 319
59.52067 334
59.54078 307
59.56089 326
59.58101 328
59.60112 307
59.62124 330
59.64135 315
59.66146 326
59.68158 344
59.70169 376
59.7218 387
59.74192 435
59.76203 460
59.78215 509
59.80226 552
59.82237 567
59.84249 624
59.8626 637
59.88271 603
59.90283 537
59.92294 562
59.94305 539
59.96317 518
59.98328 491
60.0034 526
60.02351 457
60.04362 483
60.06374 462
60.08385 411
60.10396 387
60.12408 382
60.14419 366
60.16431 348
60.18442 342
60.20453 352
60.22465 319
60.24476 323
60.26487 325
60.28499 374
60.3051 330
60.32522 328
60.34533 312
60.36544 349
60.38556 321
60.40567 315
60.42578 335
60.4459 331
60.46601 333
60.48612 341
60.50624 338
60.52635 358
60.54647 386
60.56658 355
60.58669 346
60.60681 339
60.62692 388
60.64703 364
60.66715 378
60.68726 367
60.70738 361
60.72749 349
60.7476 368
60.76772 367
60.78783 363
60.80794 390
60.82806 351
60.84817 350
60.86828 376
60.8884 378
60.90851 366
60.92863 383
60.94874 380
60.96885 359
60.98897 380
61.00908 366
61.02919 392
61.04931 367
61.06942 377
61.08954 388
61.10965 399
61.12976 413
61.14988 388
61.16999 370
61.1901 407
61.21022 414
61.23033 411
61.25045 382
61.27056 405
61.29067 431
61.31079 368
61.3309 469
61.35101 416
61.37113 419
61.39124 392
61.41135 403
61.43147 398
61.45158 421
61.4717 395
61.49181 394
61.51192 417
61.53204 423
61.55215 402
61.57226 450
61.59238 410
61.61249 452
61.63261 430
61.65272 414
61.67283 427
61.69295 407
61.71306 437
61.73317 402
61.75329 419
61.7734 417
61.79352 377
61.81363 377
61.83374 395
61.85386 368
61.87397 395
61.89408 379
61.9142 363
61.93431 358
61.95442 403
61.97454 363
61.99465 373
62.01477 366
62.03488 346
62.05499 386
62.07511 394
62.09522 408
62.11533 356
62.13545 325
62.15556 340
62.17568 359
62.19579 363
62.2159 367
62.23602 373
62.25613 356
62.27624 364
62.29636 335
62.31647 360
62.33659 357
62.3567 392
62.37681 396
62.39693 372
62.41704 405
62.43715 360
62.45727 350
62.47738 371
62.49749 365
62.51761 366
62.53772 350
62.55784 339
62.57795 391
62.59806 339
62.61818 356
62.63829 349
62.6584 358
62.67852 355
62.69863 361
62.71875 349
62.73886 366
62.75897 318
62.77909 326
62.7992 359
62.81931 318
62.83943 325
62.85954 335
62.87965 328
62.89977 308
62.91988 346
62.94 304
62.96011 309
62.98022 322
63.00034 323
63.02045 302
63.04056 311
63.06068 334
63.08079 336
63.10091 326
63.12102 320
63.14113 333
63.16125 318
63.18136 359
63.20147 325
63.22159 330
63.2417 297
63.26182 307
63.28193 315
63.30204 311
63.32216 304
63.34227 330
63.36238 358
63.3825 322
63.40261 326
63.42272 320
63.44284 328
63.46295 345
63.48307 325
63.50318 338
63.52329 309
63.54341 307
63.56352 339
63.58363 307
63.60375 306
63.62386 316
63.64398 307
63.66409 342
63.6842 361
63.70432 312
63.72443 355
63.74454 395
63.76466 317
63.78477 329
63.80489 349
63.825 329
63.84511 360
63.86523 370
63.88534 389
63.90545 427
63.92557 390
63.94568 362
63.96579 362
63.98591 379
64.00602 359
64.02614 357
64.04625 335
64.06636 333
64.08648 342
64.10659 295
64.1267 306
64.14682 335
64.16693 322
64.18705 326
64.20716 334
64.22727 337
64.24739 318
64.2675 295
64.28761 296
64.30773 312
64.32784 304
64.34796 310
64.36807 302
64.38818 294
64.4083 305
64.42841 279
64.44852 300
64.46864 293
64.48875 300
64.50886 313
64.52898 300
64.54909 337
64.56921 301
64.58932 319
64.60943 356
64.62955 333
64.64966 338
64.66977 330
64.68989 356
64.71 373
64.73012 352
64.75023 349
64.77034 358
64.79046 320
64.81057 318
64.83068 322
64.8508 338
64.87091 361
64.89102 331
64.91114 343
64.93125 332
64.95137 323
64.97148 299
64.99159 346
65.01171 301
65.03182 310
65.05193 313
65.07205 316
65.09216 304
65.11228 306
65.13239 330
65.1525 303
65.17262 322
65.19273 305
65.21284 318
65.23296 350
65.25307 311
65.27319 319
65.2933 308
65.31341 327
65.33353 279
65.35364 318
65.37375 302
65.39387 313
65.41398 317
65.43409 303
65.45421 308
65.47432 286
65.49444 293
65.51455 299
65.53466 326
65.55478 333
65.57489 322
65.595 287
65.61512 295
65.63523 337
65.65535 316
65.67546 306
65.69557 314
65.71569 303
65.7358 323
65.75591 293
65.77603 327
65.79614 320
65.81626 316
65.83637 301
65.85648 334
65.8766 300
65.89671 319
65.91682 303
65.93694 317
65.95705 321
65.97716 276
65.99728 312
66.01739 310
66.03751 333
66.05762 292
66.07773 281
66.09785 304
66.11796 266
66.13807 274
66.15819 296
66.1783 273
66.19842 290
66.21853 293
66.23864 285
66.25876 247
66.27887 264
66.29898 287
66.3191 293
66.33921 307
66.35933 327
66.37944 281
66.39955 283
66.41967 295
66.43978 262
66.45989 322
66.48001 297
66.50012 330
66.52023 333
66.54035 282
66.56046 290
66.58058 296
66.60069 308
66.6208 270
66.64092 296
66.66103 288
66.68114 313
66.70126 289
66.72137 303
66.74149 306
66.7616 309
66.78171 303
66.80183 271
66.82194 275
66.84205 303
66.86217 309
66.88228 269
66.90239 307
66.92251 288
66.94262 311
66.96274 265
66.98285 306
67.00296 284
67.02308 296
67.04319 310
67.0633 263
67.08342 287
67.10353 332
67.12365 319
67.14376 277
67.16387 298
67.18399 252
67.2041 310
67.22421 279
67.24433 296
67.26444 298
67.28456 285
67.30467 317
67.32478 308
67.3449 284
67.36501 312
67.38512 279
67.40524 309
67.42535 324
67.44546 319
67.46558 333
67.48569 311
67.50581 343
67.52592 382
67.54603 376
67.56615 386
67.58626 436
67.60637 451
67.62649 450
67.6466 460
67.66672 506
67.68683 482
67.70694 439
67.72706 415
67.74717 419
67.76728 405
67.7874 412
67.80751 438
67.82763 433
67.84774 408
67.86785 455
67.88797 423
67.90808 436
67.92819 421
67.94831 429
67.96842 499
67.98853 496
68.00865 525
68.02876 554
68.04888 542
68.06899 593
68.0891 537
68.10922 542
68.12933 493
68.14944 527
68.16956 501
68.18967 489
68.20979 506
68.2299 528
68.25001 533
68.27013 520
68.29024 465
68.31035 438
68.33047 409
68.35058 390
68.3707 369
68.39081 396
68.41092 342
68.43104 359
68.45115 314
68.47126 347
68.49138 336
68.51149 308
68.5316 301
68.55172 294
68.57183 331
68.59195 322
68.61206 286
68.63217 283
68.65229 301
68.6724 267
68.69251 266
68.71263 280
68.73274 297
68.75286 306
68.77297 306
68.79308 284
68.8132 270
68.83331 291
68.85342 293
68.87354 255
68.89365 298
68.91376 272
68.93388 261
68.95399 291
68.97411 276
68.99422 292
69.01433 280
69.03445 279
69.05456 283
69.07467 302
69.09479 305
69.1149 322
69.13502 326
69.15513 309
69.17524 319
69.19536 294
69.21547 309
69.23558 330
69.2557 345
69.27581 296
69.29593 337
69.31604 307
69.33615 327
69.35627 312
69.37638 320
69.39649 302
69.41661 305
69.43672 329
69.45683 285
69.47695 297
69.49706 299
69.51718 316
69.53729 305
69.5574 309
69.57752 300
69.59763 281
69.61774 287
69.63786 304
69.65797 316
69.67809 283
69.6982 275
69.71831 298
69.73843 283
69.75854 281
69.77865 292
69.79877 286
69.81888 309
69.839 256
69.85911 280
69.87922 304
69.89934 291
69.91945 282
69.93956 292
69.95968 268
69.97979 264
69.9999 264
70.02002 286
70.04013 276
70.06025 273
70.08036 266
70.10047 272
70.12059 281
70.1407 269
70.16081 283
70.18093 275
70.20104 295
70.22116 252
70.24127 297
70.26138 273
70.2815 296
70.30161 326
70.32172 273
70.34184 274
70.36195 267
70.38207 265
70.40218 261
70.42229 288
70.44241 303
70.46252 293
70.48263 274
70.50275 293
70.52286 286
70.54297 302
70.56309 254
70.5832 274
70.60332 264
70.62343 297
70.64354 246
70.66366 273
70.68377 275
70.70388 262
70.724 281
70.74411 266
70.76423 286
70.78434 266
70.80445 291
70.82457 284
70.84468 286
70.86479 271
70.88491 267
70.90502 307
70.92513 307
70.94525 285
70.96536 293
70.98548 279
71.00559 264
71.0257 273
71.04582 304
71.06593 301
71.08604 282
71.10616 264
71.12627 298
71.14639 279
71.1665 287
71.18661 271
71.20673 307
71.22684 283
71.24695 276
71.26707 249
71.28718 292
71.3073 290
71.32741 289
71.34752 279
71.36764 324
71.38775 306
71.40786 309
71.42798 284
71.44809 293
71.4682 271
71.48832 317
71.50843 273
71.52855 291
71.54866 298
71.56877 299
71.58889 271
71.609 319
71.62911 284
71.64923 274
71.66934 274
71.68946 275
71.70957 284
71.72968 315
71.7498 285
71.76991 269
71.79002 285
71.81014 267
71.83025 262
71.85037 271
71.87048 265
71.89059 290
71.91071 269
71.93082 292
71.95093 308
71.97105 274
71.99116 281
72.01127 265
72.03139 294
72.0515 261
72.07162 275
72.09173 310
72.11184 274
72.13196 270
72.15207 264
72.17218 260
72.1923 287
72.21241 279
72.23253 282
72.25264 271
72.27275 284
72.29287 319
72.31298 278
72.33309 277
72.35321 302
72.37332 299
72.39344 291
72.41355 300
72.43366 278
72.45378 269
72.47389 277
72.494 263
72.51412 268
72.53423 316
72.55434 296
72.57446 319
72.59457 299
72.61469 295
72.6348 310
72.65491 282
72.67503 289
72.69514 314
72.71525 313
72.73537 315
72.75548 314
72.7756 342
72.79571 325
72.81582 311
72.83594 313
72.85605 328
72.87616 328
72.89628 310
72.91639 310
72.9365 332
72.95662 312
72.97673 306
72.99685 336
73.01696 319
73.03707 285
73.05719 295
73.0773 318
73.09741 320
73.11753 295
73.13764 322
73.15776 319
73.17787 313
73.19798 310
73.2181 320
73.23821 299
73.25832 337
73.27844 342
73.29855 353
73.31867 350
73.33878 354
73.35889 348
73.37901 390
73.39912 353
73.41923 353
73.43935 347
73.45946 330
73.47957 331
73.49969 328
73.5198 326
73.53992 319
73.56003 334
73.58014 324
73.60026 332
73.62037 326
73.64048 330
73.6606 312
73.68071 312
73.70083 290
73.72094 293
73.74105 313
73.76117 274
73.78128 297
73.80139 274
73.82151 259
73.84162 292
73.86174 283
73.88185 318
73.90196 304
73.92208 310
73.94219 316
73.9623 288
73.98242 295
74.00253 305
74.02264 289
74.04276 277
74.06287 287
74.08299 291
74.1031 292
74.12321 305
74.14333 279
74.16344 290
74.18355 314
74.20367 313
74.22378 283
74.2439 263
74.26401 293
74.28412 298
74.30424 265
74.32435 278
74.34446 279
74.36458 293
74.38469 255
74.40481 268
74.42492 262
74.44503 259
74.46515 299
74.48526 296
74.50537 269
74.52549 306
74.5456 269
74.56571 281
74.58583 288
74.60594 298
74.62606 284
74.64617 260
74.66628 284
74.6864 281
74.70651 311
74.72662 283
74.74674 282
74.76685 281
74.78697 308
74.80708 279
74.82719 288
74.84731 282
74.86742 279
74.88753 293
74.90765 261
74.92776 285
74.94787 255
74.96799 307
74.9881 285
75.00822 274
