3.00117 19971
3.02128 19687
3.0414 19404
3.06151 18433
3.08162 18210
3.10174 17204
3.12185 17239
3.14197 16872
3.16208 16142
3.18219 15828
3.20231 14865
3.22242 14623
3.24253 14632
3.26265 13631
3.28276 13478
3.30288 13116
3.32299 12519
3.3431 12353
3.36322 11776
3.38333 11553
3.40344 10898
3.42356 10795
3.44367 10592
3.46379 10140
3.4839 9747
3.50401 9178
3.52413 8937
3.54424 8765
3.56435 8175
3.58447 8287
3.60458 7601
3.62469 7607
3.64481 7387
3.66492 6794
3.68504 6766
3.70515 6418
3.72526 6071
3.74538 6073
3.76549 5525
3.7856 5416
3.80572 5195
3.82583 4859
3.84595 5024
3.86606 4506
3.88617 4392
3.90629 4104
3.9264 4009
3.94651 4056
3.96663 3647
3.98674 3564
4.00686 3199
4.02697 3212
4.04708 3235
4.0672 2804
4.08731 2827
4.10742 2808
4.12754 2715
4.14765 2615
4.16776 2301
4.18788 2336
4.20799 2184
4.22811 2119
4.24822 2185
4.26833 1995
4.28845 1901
4.30856 1886
4.32867 1852
4.34879 1819
4.3689 1636
4.38902 1685
4.40913 1639
4.42924 1650
4.44936 1678
4.46947 1403
4.48958 1438
4.5097 1410
4.52981 1426
4.54992 1467
4.57004 1291
4.59015 1227
4.61027 1278
4.63038 1233
4.65049 1273
4.67061 1148
4.69072 1176
4.71083 1093
4.73095 1101
4.75106 1021
4.77118 1018
4.79129 950
4.8114 1061
4.83152 949
4.85163 978
4.87174 902
4.89186 855
4.91197 958
4.93209 906
4.9522 860
4.97231 852
4.99243 850
5.01254 799
5.03265 785
5.05277 832
5.07288 726
5.09299 768
5.11311 734
5.13322 704
5.15334 720
5.17345 660
5.19356 644
5.21368 715
5.23379 659
5.2539 642
5.27402 616
5.29413 604
5.31425 626
5.33436 590
5.35447 569
5.37459 564
5.3947 558
5.41481 538
5.43493 584
5.45504 497
5.47516 527
5.49527 452
5.51538 553
5.5355 491
5.55561 407
5.57572 433
5.59584 421
5.61595 431
5.63606 421
5.65618 417
5.67629 435
5.69641 410
5.71652 424
5.73663 416
5.75675 394
5.77686 377
5.79697 378
5.81709 393
5.8372 413
5.85732 403
5.87743 395
5.89754 413
5.91766 362
5.93777 372
5.95788 359
5.978 335
5.99811 411
6.01823 399
6.03834 351
6.05845 359
6.07857 339
6.09868 357
6.11879 371
6.13891 379
6.15902 359
6.17913 300
6.19925 351
6.21936 368
6.23948 345
6.25959 337
6.2797 330
6.29982 332
6.31993 340
6.34004 297
6.36016 346
6.38027 320
6.40039 347
6.4205 325
6.44061 310
6.46073 284
6.48084 312
6.50095 303
6.52107 320
6.54118 299
6.56129 312
6.58141 326
6.60152 301
6.62164 292
6.64175 285
6.66186 303
6.68198 305
6.70209 330
6.7222 283
6.74232 343
6.76243 329
6.78255 281
6.80266 291
6.82277 272
6.84289 305
6.863 350
6.88311 344
6.90323 317
6.92334 297
6.94346 289
6.96357 317
6.98368 286
7.0038 307
7.02391 319
7.04402 291
7.06414 293
7.08425 316
7.10436 299
7.12448 281
7.14459 307
7.16471 288
7.18482 305
7.20493 279
7.22505 294
7.24516 312
7.26527 288
7.28539 316
7.3055 269
7.32562 304
7.34573 314
7.36584 271
7.38596 293
7.40607 318
7.42618 294
7.4463 291
7.46641 309
7.48653 284
7.50664 304
7.52675 300
7.54687 324
7.56698 284
7.58709 269
7.60721 275
7.62732 299
7.64743 266
7.66755 271
7.68766 312
7.70778 273
7.72789 320
7.748 293
7.76812 267
7.78823 274
7.80834 316
7.82846 312
7.84857 314
7.86869 293
7.8888 277
7.90891 289
7.92903 315
7.94914 299
7.96925 281
7.98937 313
8.00948 287
8.0296 289
8.04971 285
8.06982 285
8.08994 273
8.11005 308
8.13016 293
8.15028 321
8.17039 308
8.1905 298
8.21062 279
8.23073 319
8.25085 270
8.27096 313
8.29107 287
8.31119 292
8.3313 291
8.35141 267
8.37153 289
8.39164 298
8.41176 316
8.43187 257
8.45198 326
8.4721 301
8.49221 300
8.51232 301
8.53244 313
8.55255 283
8.57266 317
8.59278 298
8.61289 309
8.63301 336
8.65312 298
8.67323 288
8.69335 333
8.71346 316
8.73357 290
8.75369 332
8.7738 335
8.79392 296
8.81403 342
8.83414 322
8.85426 351
8.87437 353
8.89448 325
8.9146 283
8.93471 292
8.95483 323
8.97494 297
8.99505 300
9.01517 273
9.03528 301
9.05539 295
9.07551 329
9.09562 290
9.11573 336
9.13585 327
9.15596 315
9.17608 287
9.19619 303
9.2163 307
9.23642 327
9.25653 310
9.27664 267
9.29676 277
9.31687 299
9.33699 282
9.3571 251
9.37721 299
9.39733 301
9.41744 323
9.43755 317
9.45767 283
9.47778 272
9.4979 285
9.51801 275
9.53812 274
9.55824 311
9.57835 256
9.59846 313
9.61858 300
9.63869 282
9.6588 304
9.67892 293
9.69903 295
9.71915 240
9.73926 258
9.75937 262
9.77949 303
9.7996 268
9.81971 297
9.83983 262
9.85994 305
9.88006 308
9.90017 342
9.92028 293
9.9404 305
9.96051 278
9.98062 265
10.00074 288
10.02085 264
10.04097 285
10.06108 277
10.08119 266
10.10131 310
10.12142 268
10.14153 313
10.16165 293
10.18176 326
10.20187 310
10.22199 269
10.2421 259
10.26222 293
10.28233 308
10.30244 316
10.32256 302
10.34267 305
10.36278 278
10.3829 273
10.40301 296
10.42313 293
10.44324 271
10.46335 273
10.48347 316
10.50358 276
10.52369 281
10.54381 279
10.56392 299
10.58403 305
10.60415 301
10.62426 268
10.64438 313
10.66449 271
10.6846 298
10.70472 291
10.72483 278
10.74494 290
10.76506 286
10.78517 308
10.80529 292
10.8254 279
10.84551 319
10.86563 287
10.88574 314
10.90585 262
10.92597 268
10.94608 275
10.9662 271
10.98631 286
11.00642 331
11.02654 290
11.04665 327
11.06676 320
11.08688 316
11.10699 321
11.1271 321
11.14722 332
11.16733 314
11.18745 314
11.20756 262
11.22767 316
11.24779 302
11.2679 356
11.28801 293
11.30813 320
11.32824 287
11.34836 334
11.36847 295
11.38858 314
11.4087 302
11.42881 303
11.44892 313
11.46904 332
11.48915 301
11.50927 326
11.52938 312
11.54949 298
11.56961 312
11.58972 319
11.60983 362
11.62995 357
11.65006 360
11.67017 316
11.69029 320
11.7104 339
11.73052 350
11.75063 348
11.77074 417
11.79086 358
11.81097 374
11.83108 383
11.8512 378
11.87131 370
11.89143 407
11.91154 407
11.93165 436
11.95177 413
11.97188 479
11.99199 417
12.01211 474
12.03222 503
12.05234 537
12.07245 566
12.09256 554
12.11268 575
12.13279 594
12.1529 592
12.17302 649
12.19313 669
12.21324 640
12.23336 694
12.25347 688
12.27359 671
12.2937 705
12.31381 630
12.33393 693
12.35404 638
12.37415 636
12.39427 666
12.41438 592
12.4345 552
12.45461 482
12.47472 513
12.49484 470
12.51495 450
12.53506 465
12.55518 425
12.57529 400
12.5954 393
12.61552 374
12.63563 410
12.65575 344
12.67586 377
12.69597 370
12.71609 372
12.7362 338
12.75631 325
12.77643 321
12.79654 339
12.81666 322
12.83677 300
12.85688 291
12.877 313
12.89711 283
12.91722 317
12.93734 302
12.95745 303
12.97757 272
12.99768 293
13.01779 323
13.03791 264
13.05802 271
13.07813 288
13.09825 282
13.11836 255
13.13847 264
13.15859 270
13.1787 279
13.19882 242
13.21893 289
13.23904 287
13.25916 286
13.27927 274
13.29938 272
13.3195 290
13.33961 272
13.35973 275
13.37984 247
13.39995 300
13.42007 293
13.44018 275
13.46029 262
13.48041 266
13.50052 277
13.52064 266
13.54075 272
13.56086 268
13.58098 273
13.60109 221
13.6212 227
13.64132 271
13.66143 237
13.68154 242
13.70166 255
13.72177 270
13.74189 296
13.762 251
13.78211 229
13.80223 249
13.82234 249
13.84245 279
13.86257 261
13.88268 225
13.9028 269
13.92291 261
13.94302 258
13.96314 248
13.98325 252
14.00336 236
14.02348 256
14.04359 256
14.06371 248
14.08382 247
14.10393 259
14.12405 265
14.14416 244
14.16427 291
14.18439 251
14.2045 249
14.22461 265
14.24473 248
14.26484 257
14.28496 239
14.30507 230
14.32518 228
14.3453 235
14.36541 249
14.38552 241
14.40564 245
14.42575 255
14.44587 249
14.46598 259
14.48609 240
14.50621 237
14.52632 238
14.54643 253
14.56655 238
14.58666 252
14.60677 249
14.62689 216
14.647 233
14.66712 250
14.68723 251
14.70734 261
14.72746 248
14.74757 276
14.76768 237
14.7878 255
14.80791 271
14.82803 247
14.84814 257
14.86825 222
14.88837 238
14.90848 234
14.92859 253
14.94871 241
14.96882 244
14.98894 275
15.00905 229
15.02916 265
15.04928 244
15.06939 222
15.0895 233
15.10962 236
15.12973 262
15.14984 236
15.16996 243
15.19007 225
15.21019 259
15.2303 254
15.25041 268
15.27053 269
15.29064 229
15.31075 231
15.33087 271
15.35098 244
15.3711 254
15.39121 221
15.41132 259
15.43144 225
15.45155 225
15.47166 230
15.49178 226
15.51189 243
15.53201 247
15.55212 263
15.57223 230
15.59235 240
15.61246 245
15.63257 234
15.65269 250
15.6728 235
15.69291 213
15.71303 235
15.73314 200
15.75326 244
15.77337 216
15.79348 271
15.8136 215
15.83371 244
15.85382 214
15.87394 218
15.89405 237
15.91417 229
15.93428 239
15.95439 232
15.97451 238
15.99462 214
16.01473 213
16.03485 236
16.05496 221
16.07508 233
16.09519 259
16.1153 223
16.13542 217
16.15553 238
16.17564 224
16.19576 249
16.21587 236
16.23598 252
16.2561 228
16.27621 215
16.29633 235
16.31644 223
16.33655 265
16.35667 239
16.37678 232
16.39689 225
16.41701 238
16.43712 231
16.45724 261
16.47735 221
16.49746 226
16.51758 265
16.53769 248
16.5578 240
16.57792 246
16.59803 235
16.61814 244
16.63826 249
16.65837 244
16.67849 249
16.6986 249
16.71871 230
16.73883 199
16.75894 234
16.77905 243
16.79917 238
16.81928 252
16.8394 226
16.85951 232
16.87962 248
16.89974 229
16.91985 229
16.93996 244
16.96008 210
16.98019 239
17.00031 227
17.02042 230
17.04053 232
17.06065 242
17.08076 258
17.10087 252
17.12099 203
17.1411 245
17.16121 233
17.18133 255
17.20144 237
17.22156 243
17.24167 245
17.26178 280
17.2819 253
17.30201 221
17.32212 261
17.34224 230
17.36235 220
17.38247 229
17.40258 249
17.42269 241
17.44281 253
17.46292 212
17.48303 242
17.50315 223
17.52326 246
17.54338 279
17.56349 246
17.5836 251
17.60372 249
17.62383 243
17.64394 256
17.66406 228
17.68417 237
17.70428 267
17.7244 278
17.74451 270
17.76463 222
17.78474 289
17.80485 243
17.82497 261
17.84508 231
17.86519 294
17.88531 250
17.90542 252
17.92554 268
17.94565 289
17.96576 287
17.98588 257
18.00599 254
18.0261 307
18.04622 248
18.06633 287
18.08645 245
18.10656 273
18.12667 287
18.14679 315
18.1669 329
18.18701 326
18.20713 287
18.22724 329
18.24735 342
18.26747 352
18.28758 376
18.3077 329
18.32781 320
18.34792 303
18.36804 293
18.38815 284
18.40826 268
18.42838 263
18.44849 253
18.46861 285
18.48872 274
18.50883 272
18.52895 280
18.54906 272
18.56917 227
18.58929 280
18.6094 246
18.62951 257
18.64963 277
18.66974 269
18.68986 248
18.70997 251
18.73008 221
18.7502 261
18.77031 271
18.79042 269
18.81054 229
18.83065 269
18.85077 248
18.87088 269
18.89099 242
18.91111 230
18.93122 233
18.95133 237
18.97145 260
18.99156 213
19.01168 231
19.03179 261
19.0519 224
19.07202 226
19.09213 247
19.11224 238
19.13236 261
19.15247 255
19.17258 245
19.1927 283
19.21281 222
19.23293 253
19.25304 263
19.27315 237
19.29327 257
19.31338 266
19.33349 266
19.35361 300
19.37372 263
19.39384 271
19.41395 286
19.43406 278
19.45418 290
19.47429 298
19.4944 304
19.51452 267
19.53463 306
19.55475 335
19.57486 344
19.59497 357
19.61509 374
19.6352 398
19.65531 401
19.67543 471
19.69554 524
19.71565 502
19.73577 528
19.75588 603
19.776 665
19.79611 691
19.81622 660
19.83634 683
19.85645 680
19.87656 661
19.89668 669
19.91679 621
19.93691 635
19.95702 605
19.97713 631
19.99725 629
20.01736 611
20.03747 570
20.05759 571
20.0777 599
20.09782 598
20.11793 537
20.13804 584
20.15816 558
20.17827 604
20.19838 572
20.2185 606
20.23861 631
20.25872 622
20.27884 574
20.29895 578
20.31907 586
20.33918 578
20.35929 629
20.37941 627
20.39952 584
20.41963 666
20.43975 631
20.45986 618
20.47998 580
20.50009 619
20.5202 706
20.54032 723
20.56043 704
20.58054 740
20.60066 846
20.62077 883
20.64088 1046
20.661 1326
20.68111 1590
20.70123 1983
20.72134 2567
20.74145 3356
20.76157 4108
20.78168 4701
20.80179 5199
20.82191 5288
20.84202 4755
20.86214 4077
20.88225 3086
20.90236 2192
20.92248 1601
20.94259 1140
20.9627 874
20.98282 744
21.00293 678
21.02305 655
21.04316 600
21.06327 615
21.08339 528
21.1035 597
21.12361 609
21.14373 546
21.16384 529
21.18395 521
21.20407 539
21.22418 510
21.2443 579
21.26441 540
21.28452 554
21.30464 547
21.32475 532
21.34486 597
21.36498 524
21.38509 553
21.40521 541
21.42532 541
21.44543 526
21.46555 547
21.48566 533
21.50577 478
21.52589 515
21.546 471
21.56612 452
21.58623 480
21.60634 469
21.62646 489
21.64657 455
21.66668 456
21.6868 458
21.70691 414
21.72702 442
21.74714 479
21.76725 434
21.78737 457
21.80748 408
21.82759 404
21.84771 422
21.86782 419
21.88793 410
21.90805 380
21.92816 447
21.94828 404
21.96839 405
21.9885 380
22.00862 411
22.02873 389
22.04884 401
22.06896 409
22.08907 374
22.10919 419
22.1293 407
22.14941 408
22.16953 361
22.18964 383
22.20975 370
22.22987 385
22.24998 386
22.27009 373
22.29021 344
22.31032 423
22.33044 380
22.35055 374
22.37066 379
22.39078 382
22.41089 413
22.431 362
22.45112 361
22.47123 375
22.49135 368
22.51146 366
22.53157 360
22.55169 290
22.5718 365
22.59191 367
22.61203 348
22.63214 336
22.65225 337
22.67237 342
22.69248 343
22.7126 312
22.73271 377
22.75282 381
22.77294 362
22.79305 354
22.81316 419
22.83328 381
22.85339 405
22.87351 385
22.89362 363
22.91373 377
22.93385 361
22.95396 332
22.97407 322
22.99419 307
23.0143 337
23.03442 342
23.05453 331
23.07464 326
23.09476 355
23.11487 370
23.13498 355
23.1551 337
23.17521 331
23.19532 293
23.21544 330
23.23555 319
23.25567 333
23.27578 335
23.29589 304
23.31601 289
23.33612 304
23.35623 356
23.37635 335
23.39646 329
23.41658 316
23.43669 304
23.4568 306
23.47692 336
23.49703 361
23.51714 316
23.53726 327
23.55737 357
23.57749 348
23.5976 366
23.61771 326
23.63783 372
23.65794 352
23.67805 325
23.69817 380
23.71828 381
23.73839 359
23.75851 369
23.77862 415
23.79874 338
23.81885 361
23.83896 373
23.85908 396
23.87919 373
23.8993 360
23.91942 353
23.93953 408
23.95965 378
23.97976 387
23.99987 371
24.01999 347
24.0401 376
24.06021 387
24.08033 346
24.10044 337
24.12056 351
24.14067 386
24.16078 351
24.1809 334
24.20101 324
24.22112 332
24.24124 380
24.26135 353
24.28146 398
24.30158 340
24.32169 338
24.34181 374
24.36192 358
24.38203 369
24.40215 354
24.42226 398
24.44237 390
24.46249 404
24.4826 403
24.50272 391
24.52283 415
24.54294 447
24.56306 437
24.58317 456
24.60328 491
24.6234 472
24.64351 515
24.66362 544
24.68374 542
24.70385 521
24.72397 575
24.74408 602
24.76419 576
24.78431 602
24.80442 596
24.82453 689
24.84465 609
24.86476 600
24.88488 652
24.90499 605
24.9251 632
24.94522 592
24.96533 526
24.98544 544
25.00556 554
25.02567 462
25.04579 514
25.0659 440
25.08601 481
25.10613 465
25.12624 439
25.14635 517
25.16647 463
25.18658 476
25.20669 465
25.22681 456
25.24692 461
25.26704 489
25.28715 442
25.30726 441
25.32738 444
25.34749 392
25.3676 456
25.38772 423
25.40783 429
25.42795 415
25.44806 401
25.46817 426
25.48829 397
25.5084 374
25.52851 389
25.54863 390
25.56874 407
25.58886 369
25.60897 420
25.62908 440
25.6492 440
25.66931 465
25.68942 452
25.70954 475
25.72965 493
25.74976 478
25.76988 500
25.78999 475
25.81011 489
25.83022 474
25.85033 545
25.87045 514
25.89056 550
25.91067 499
25.93079 518
25.9509 545
25.97102 540
25.99113 551
26.01124 561
26.03136 581
26.05147 607
26.07158 626
26.0917 659
26.11181 703
26.13193 745
26.15204 756
26.17215 816
26.19227 803
26.21238 934
26.23249 982
26.25261 1029
26.27272 1155
26.29283 1270
26.31295 1326
26.33306 1584
26.35318 1950
26.37329 2277
26.3934 2794
26.41352 3735
26.43363 4821
26.45374 6324
26.47386 8363
26.49397 10973
26.51409 14304
26.5342 17422
26.55431 20801
26.57443 22148
26.59454 22366
26.61465 21055
26.63477 17894
26.65488 14137
26.67499 10527
26.69511 7440
26.71522 4975
26.73534 3259
26.75545 2224
26.77556 1714
26.79568 1405
26.81579 1244
26.8359 1111
26.85602 1035
26.87613 930
26.89625 829
26.91636 901
26.93647 748
26.95659 708
26.9767 704
26.99681 604
27.01693 566
27.03704 571
27.05716 525
27.07727 546
27.09738 490
27.1175 485
27.13761 495
27.15772 466
27.17784 462
27.19795 470
27.21806 472
27.23818 427
27.25829 464
27.27841 453
27.29852 482
27.31863 459
27.33875 432
27.35886 431
27.37897 472
27.39909 404
27.4192 428
27.43932 417
27.45943 404
27.47954 433
27.49966 396
27.51977 385
27.53988 420
27.56 407
27.58011 419
27.60023 389
27.62034 404
27.64045 400
27.66057 348
27.68068 359
27.70079 373
27.72091 377
27.74102 400
27.76113 397
27.78125 404
27.80136 392
27.82148 371
27.84159 371
27.8617 362
27.88182 386
27.90193 412
27.92204 338
27.94216 397
27.96227 372
27.98239 346
28.0025 366
28.02261 379
28.04273 388
28.06284 336
28.08295 365
28.10307 378
28.12318 318
28.1433 327
28.16341 343
28.18352 286
28.20364 309
28.22375 315
28.24386 337
28.26398 335
28.28409 310
28.3042 349
28.32432 303
28.34443 322
28.36455 295
28.38466 293
28.40477 272
28.42489 336
28.445 320
28.46511 264
28.48523 285
28.50534 345
28.52546 312
28.54557 272
28.56568 309
28.5858 297
28.60591 324
28.62602 306
28.64614 277
28.66625 325
28.68636 299
28.70648 273
28.72659 297
28.74671 296
28.76682 271
28.78693 297
28.80705 300
28.82716 306
28.84727 310
28.86739 268
28.8875 309
28.90762 301
28.92773 327
28.94784 305
28.96796 272
28.98807 293
29.00818 286
29.0283 286
29.04841 297
29.06853 295
29.08864 272
29.10875 300
29.12887 282
29.14898 289
29.16909 294
29.18921 263
29.20932 286
29.22943 245
29.24955 291
29.26966 281
29.28978 313
29.30989 271
29.33 281
29.35012 275
29.37023 274
29.39034 295
29.41046 290
29.43057 298
29.45069 261
29.4708 303
29.49091 296
29.51103 277
29.53114 304
29.55125 294
29.57137 302
29.59148 320
29.6116 298
29.63171 307
29.65182 309
29.67194 298
29.69205 289
29.71216 302
29.73228 307
29.75239 289
29.7725 290
29.79262 288
29.81273 289
29.83285 310
29.85296 325
29.87307 291
29.89319 294
29.9133 283
29.93341 273
29.95353 297
29.97364 274
29.99376 292
30.01387 273
30.03398 299
30.0541 282
30.07421 281
30.09432 291
30.11444 299
30.13455 276
30.15467 284
30.17478 274
30.19489 283
30.21501 264
30.23512 297
30.25523 296
30.27535 274
30.29546 266
30.31557 255
30.33569 271
30.3558 305
30.37592 296
30.39603 299
30.41614 281
30.43626 282
30.45637 272
30.47648 286
30.4966 260
30.51671 285
30.53683 299
30.55694 245
30.57705 263
30.59717 280
30.61728 282
30.63739 269
30.65751 275
30.67762 277
30.69773 260
30.71785 272
30.73796 271
30.75808 270
30.77819 260
30.7983 261
30.81842 264
30.83853 269
30.85864 270
30.87876 342
30.89887 268
30.91899 258
30.9391 272
30.95921 258
30.97933 259
30.99944 306
31.01955 282
31.03967 268
31.05978 285
31.0799 291
31.10001 297
31.12012 314
31.14024 281
31.16035 286
31.18046 265
31.20058 293
31.22069 280
31.2408 274
31.26092 289
31.28103 311
31.30115 274
31.32126 302
31.34137 286
31.36149 286
31.3816 287
31.40171 267
31.42183 269
31.44194 268
31.46206 262
31.48217 267
31.50228 281
31.5224 273
31.54251 273
31.56262 278
31.58274 249
31.60285 262
31.62297 245
31.64308 291
31.66319 246
31.68331 230
31.70342 261
31.72353 280
31.74365 240
31.76376 269
31.78387 249
31.80399 249
31.8241 274
31.84422 255
31.86433 258
31.88444 244
31.90456 243
31.92467 276
31.94478 275
31.9649 278
31.98501 263
32.00513 290
32.02524 285
32.04535 267
32.06547 267
32.08558 255
32.10569 273
32.12581 259
32.14592 249
32.16604 250
32.18615 264
32.20626 238
32.22638 257
32.24649 268
32.2666 271
32.28672 258
32.30683 245
32.32694 285
32.34706 259
32.36717 307
32.38729 304
32.4074 280
32.42751 267
32.44763 278
32.46774 279
32.48785 281
32.50797 291
32.52808 291
32.5482 275
32.56831 263
32.58842 277
32.60854 299
32.62865 268
32.64876 277
32.66888 257
32.68899 258
32.7091 264
32.72922 255
32.74933 281
32.76945 273
32.78956 285
32.80967 297
32.82979 273
32.8499 283
32.87001 288
32.89013 273
32.91024 275
32.93036 238
32.95047 255
32.97058 254
32.9907 300
33.01081 285
33.03092 297
33.05104 304
33.07115 277
33.09127 289
33.11138 295
33.13149 292
33.15161 309
33.17172 319
33.19183 286
33.21195 282
33.23206 305
33.25217 286
33.27229 261
33.2924 318
33.31252 293
33.33263 272
33.35274 276
33.37286 307
33.39297 299
33.41308 327
33.4332 237
33.45331 305
33.47343 220
33.49354 274
33.51365 287
33.53377 289
33.55388 267
33.57399 253
33.59411 284
33.61422 292
33.63434 263
33.65445 275
33.67456 266
33.69468 283
33.71479 257
33.7349 287
33.75502 272
33.77513 264
33.79524 273
33.81536 258
33.83547 309
33.85559 219
33.8757 252
33.89581 280
33.91593 257
33.93604 249
33.95615 221
33.97627 234
33.99638 276
34.0165 253
34.03661 257
34.05672 257
34.07684 267
34.09695 221
34.11706 269
34.13718 250
34.15729 267
34.17741 217
34.19752 278
34.21763 284
34.23775 254
34.25786 294
34.27797 257
34.29809 303
34.3182 303
34.33831 271
34.35843 281
34.37854 269
34.39866 278
34.41877 303
34.43888 348
34.459 310
34.47911 333
34.49922 315
34.51934 339
34.53945 335
34.55957 353
34.57968 333
34.59979 341
34.61991 378
34.64002 368
34.66013 362
34.68025 372
34.70036 395
34.72047 411
34.74059 425
34.7607 408
34.78082 436
34.80093 450
34.82104 468
34.84116 506
34.86127 544
34.88138 482
34.9015 503
34.92161 509
34.94173 463
34.96184 478
34.98195 466
35.00207 475
35.02218 430
35.04229 436
35.06241 399
35.08252 379
35.10264 415
35.12275 416
35.14286 403
35.16298 391
35.18309 397
35.2032 377
35.22332 384
35.24343 382
35.26354 424
35.28366 406
35.30377 400
35.32389 381
35.344 410
35.36411 399
35.38423 378
35.40434 355
35.42445 410
35.44457 429
35.46468 433
35.4848 405
35.50491 369
35.52502 381
35.54514 379
35.56525 402
35.58536 401
35.60548 419
35.62559 425
35.64571 370
35.66582 392
35.68593 398
35.70605 442
35.72616 455
35.74627 443
35.76639 420
35.7865 424
35.80661 435
35.82673 410
35.84684 464
35.86696 459
35.88707 454
35.90718 451
35.9273 410
35.94741 454
35.96752 407
35.98764 480
36.00775 407
36.02787 398
36.04798 381
36.06809 403
36.08821 371
36.10832 422
36.12843 398
36.14855 421
36.16866 425
36.18878 425
36.20889 420
36.229 433
36.24912 514
36.26923 499
36.28934 543
36.30946 635
36.32957 719
36.34968 753
36.3698 941
36.38991 1089
36.41003 1286
36.43014 1482
36.45025 1668
36.47037 1671
36.49048 1709
36.51059 1662
36.53071 1415
36.55082 1367
36.57094 1127
36.59105 1017
36.61116 841
36.63128 703
36.65139 547
36.6715 503
36.69162 423
36.71173 440
36.73184 400
36.75196 379
36.77207 411
36.79219 331
36.8123 365
36.83241 381
36.85253 362
36.87264 315
36.89275 321
36.91287 344
36.93298 331
36.9531 374
36.97321 352
36.99332 353
37.01344 357
37.03355 345
37.05366 371
37.07378 354
37.09389 345
37.11401 360
37.13412 381
37.15423 367
37.17435 327
37.19446 354
37.21457 339
37.23469 351
37.2548 352
37.27491 372
37.29503 352
37.31514 371
37.33526 364
37.35537 374
37.37548 403
37.3956 372
37.41571 388
37.43582 350
37.45594 371
37.47605 357
37.49617 370
37.51628 398
37.53639 353
37.55651 362
37.57662 380
37.59673 408
37.61685 367
37.63696 404
37.65708 370
37.67719 381
37.6973 341
37.71742 394
37.73753 376
37.75764 353
37.77776 373
37.79787 404
37.81798 370
37.8381 365
37.85821 336
37.87833 350
37.89844 330
37.91855 318
37.93867 337
37.95878 352
37.97889 326
37.99901 345
38.01912 356
38.03924 338
38.05935 371
38.07946 383
38.09958 381
38.11969 405
38.1398 351
38.15992 376
38.18003 393
38.20015 428
38.22026 434
38.24037 422
38.26049 446
38.2806 441
38.30071 437
38.32083 426
38.34094 421
38.36105 428
38.38117 435
38.40128 436
38.4214 465
38.44151 400
38.46162 397
38.48174 400
38.50185 413
38.52196 418
38.54208 411
38.56219 422
38.58231 408
38.60242 371
38.62253 385
38.64265 359
38.66276 359
38.68287 377
38.70299 358
38.7231 367
38.74321 327
38.76333 340
38.78344 347
38.80356 312
38.82367 346
38.84378 364
38.8639 316
38.88401 338
38.90412 342
38.92424 359
38.94435 398
38.96447 412
38.98458 401
39.00469 369
39.02481 351
39.04492 396
39.06503 394
39.08515 411
39.10526 408
39.12538 424
39.14549 436
39.1656 487
39.18572 492
39.20583 530
39.22594 588
39.24606 666
39.26617 752
39.28628 855
39.3064 1013
39.32651 1136
39.34663 1318
39.36674 1580
39.38685 1596
39.40697 1622
39.42708 1545
39.44719 1355
39.46731 1272
39.48742 1071
39.50754 988
39.52765 834
39.54776 767
39.56788 601
39.58799 463
39.6081 377
39.62822 364
39.64833 343
39.66845 325
39.68856 327
39.70867 348
39.72879 314
39.7489 345
39.76901 295
39.78913 317
39.80924 300
39.82935 310
39.84947 339
39.86958 291
39.8897 333
39.90981 309
39.92992 331
39.95004 333
39.97015 340
39.99026 333
40.01038 353
40.03049 413
40.05061 430
40.07072 488
40.09083 506
40.11095 569
40.13106 593
40.15117 732
40.17129 803
40.1914 778
40.21152 913
40.23163 924
40.25174 842
40.27186 807
40.29197 725
40.31208 644
40.3322 566
40.35231 511
40.37242 531
40.39254 433
40.41265 367
40.43277 341
40.45288 348
40.47299 340
40.49311 334
40.51322 285
40.53333 334
40.55345 306
40.57356 315
40.59368 329
40.61379 295
40.6339 307
40.65402 319
40.67413 288
40.69424 277
40.71436 294
40.73447 320
40.75458 298
40.7747 312
40.79481 292
40.81493 286
40.83504 288
40.85515 270
40.87527 277
40.89538 300
40.91549 299
40.93561 305
40.95572 329
40.97584 311
40.99595 302
41.01606 321
41.03618 280
41.05629 284
41.0764 308
41.09652 291
41.11663 284
41.13675 267
41.15686 299
41.17697 283
41.19709 323
41.2172 305
41.23731 287
41.25743 268
41.27754 251
41.29765 280
41.31777 270
41.33788 290
41.358 235
41.37811 274
41.39822 269
41.41834 283
41.43845 311
41.45856 265
41.47868 275
41.49879 266
41.51891 265
41.53902 274
41.55913 294
41.57925 293
41.59936 232
41.61947 270
41.63959 279
41.6597 283
41.67982 289
41.69993 294
41.72004 272
41.74016 278
41.76027 292
41.78038 290
41.8005 290
41.82061 270
41.84072 276
41.86084 302
41.88095 310
41.90107 293
41.92118 301
41.94129 308
41.96141 271
41.98152 298
42.00163 315
42.02175 302
42.04186 289
42.06198 345
42.08209 330
42.1022 332
42.12232 347
42.14243 349
42.16254 387
42.18266 439
42.20277 466
42.22289 484
42.243 568
42.26311 660
42.28323 793
42.30334 830
42.32345 1013
42.34357 1079
42.36368 1203
42.38379 1133
42.40391 1110
42.42402 1037
42.44414 916
42.46425 795
42.48436 726
42.50448 641
42.52459 632
42.5447 480
42.56482 429
42.58493 382
42.60505 335
42.62516 263
42.64527 266
42.66539 300
42.6855 285
42.70561 237
42.72573 242
42.74584 224
42.76595 248
42.78607 246
42.80618 249
42.8263 257
42.84641 242
42.86652 245
42.88664 239
42.90675 242
42.92686 218
42.94698 243
42.96709 232
42.98721 232
43.00732 246
43.02743 256
43.04755 226
43.06766 225
43.08777 228
43.10789 221
43.128 240
43.14812 224
43.16823 234
43.18834 229
43.20846 230
43.22857 237
43.24868 215
43.2688 201
43.28891 262
43.30902 212
43.32914 235
43.34925 223
43.36937 237
43.38948 220
43.40959 213
43.42971 238
43.44982 215
43.46993 224
43.49005 248
43.51016 240
43.53028 245
43.55039 238
43.5705 238
43.59062 255
43.61073 221
43.63084 237
43.65096 223
43.67107 254
43.69119 237
43.7113 237
43.73141 248
43.75153 219
43.77164 236
43.79175 250
43.81187 266
43.83198 242
43.85209 258
43.87221 239
43.89232 239
43.91244 259
43.93255 266
43.95266 261
43.97278 215
43.99289 249
44.013 247
44.03312 212
44.05323 230
44.07335 242
44.09346 254
44.11357 251
44.13369 247
44.1538 231
44.17391 255
44.19403 231
44.21414 247
44.23426 233
44.25437 216
44.27448 221
44.2946 225
44.31471 226
44.33482 235
44.35494 250
44.37505 237
44.39516 231
44.41528 273
44.43539 232
44.45551 259
44.47562 252
44.49573 236
44.51585 222
44.53596 237
44.55607 233
44.57619 231
44.5963 230
44.61642 221
44.63653 234
44.65664 250
44.67676 264
44.69687 250
44.71698 231
44.7371 234
44.75721 232
44.77732 239
44.79744 261
44.81755 223
44.83767 221
44.85778 253
44.87789 228
44.89801 267
44.91812 229
44.93823 243
44.95835 270
44.97846 256
44.99858 263
45.01869 262
45.0388 244
45.05892 283
45.07903 251
45.09914 245
45.11926 212
45.13937 268
45.15949 270
45.1796 260
45.19971 268
45.21983 287
45.23994 301
45.26005 298
45.28017 292
45.30028 303
45.32039 285
45.34051 302
45.36062 318
45.38074 321
45.40085 336
45.42096 316
45.44108 332
45.46119 328
45.4813 384
45.50142 362
45.52153 355
45.54165 392
45.56176 429
45.58187 475
45.60199 506
45.6221 594
45.64221 667
45.66233 698
45.68244 838
45.70256 840
45.72267 872
45.74278 807
45.7629 816
45.78301 766
45.80312 628
45.82324 625
45.84335 567
45.86346 544
45.88358 455
45.90369 438
45.92381 395
45.94392 304
45.96403 304
45.98415 290
46.00426 263
46.02437 284
46.04449 278
46.0646 274
46.08472 229
46.10483 249
46.12494 269
46.14506 252
46.16517 241
46.18528 263
46.2054 259
46.22551 257
46.24563 269
46.26574 259
46.28585 239
46.30597 264
46.32608 221
46.34619 245
46.36631 237
46.38642 255
46.40653 231
46.42665 235
46.44676 239
46.46688 262
46.48699 256
46.5071 264
46.52722 269
46.54733 263
46.56744 238
46.58756 224
46.60767 259
46.62779 246
46.6479 248
46.66801 263
46.68813 233
46.70824 259
46.72835 276
46.74847 213
46.76858 250
46.78869 236
46.80881 229
46.82892 235
46.84904 236
46.86915 260
46.88926 247
46.90938 252
46.92949 243
46.9496 264
46.96972 224
46.98983 249
47.00995 218
47.03006 211
47.05017 251
47.07029 252
47.0904 234
47.11051 227
47.13063 235
47.15074 245
47.17086 228
47.19097 233
47.21108 237
47.2312 262
47.25131 256
47.27142 229
47.29154 224
47.31165 224
47.33176 207
47.35188 227
47.37199 226
47.39211 247
47.41222 241
47.43233 263
47.45245 217
47.47256 259
47.49267 239
47.51279 238
47.5329 245
47.55302 233
47.57313 226
47.59324 235
47.61336 240
47.63347 235
47.65358 228
47.6737 264
47.69381 261
47.71393 228
47.73404 204
47.75415 265
47.77427 240
47.79438 249
47.81449 242
47.83461 253
47.85472 236
47.87483 231
47.89495 231
47.91506 257
47.93518 252
47.95529 228
47.9754 232
47.99552 247
48.01563 235
48.03574 248
48.05586 231
48.07597 211
48.09609 241
48.1162 217
48.13631 243
48.15643 246
48.17654 241
48.19665 256
48.21677 234
48.23688 249
48.257 246
48.27711 254
48.29722 230
48.31734 256
48.33745 241
48.35756 250
48.37768 214
48.39779 268
48.4179 227
48.43802 241
48.45813 264
48.47825 235
48.49836 225
48.51847 248
48.53859 247
48.5587 259
48.57881 275
48.59893 231
48.61904 276
48.63916 260
48.65927 253
48.67938 241
48.6995 242
48.71961 274
48.73972 268
48.75984 231
48.77995 259
48.80006 261
48.82018 270
48.84029 259
48.86041 254
48.88052 250
48.90063 225
48.92075 226
48.94086 251
48.96097 271
48.98109 251
49.0012 280
49.02132 262
49.04143 252
49.06154 233
49.08166 266
49.10177 247
49.12188 274
49.142 246
49.16211 255
49.18223 269
49.20234 252
49.22245 246
49.24257 251
49.26268 267
49.28279 256
49.30291 258
49.32302 256
49.34313 266
49.36325 265
49.38336 264
49.40348 268
49.42359 270
49.4437 229
49.46382 278
49.48393 271
49.50404 274
49.52416 281
49.54427 278
49.56439 269
49.5845 294
49.60461 289
49.62473 329
49.64484 295
49.66495 306
49.68507 322
49.70518 355
49.7253 386
49.74541 367
49.76552 401
49.78564 403
49.80575 451
49.82586 549
49.84598 564
49.86609 620
49.8862 744
49.90632 799
49.92643 1029
49.94655 1210
49.96666 1431
49.98677 1660
50.00689 1923
50.027 2129
50.04711 2325
50.06723 2312
50.08734 2263
50.10746 2084
50.12757 1883
50.14768 1634
50.1678 1504
50.18791 1378
50.20802 1264
50.22814 1085
50.24825 923
50.26837 728
50.28848 532
50.30859 469
50.32871 400
50.34882 334
50.36893 330
50.38905 340
50.40916 342
50.42927 337
50.44939 292
50.4695 334
50.48962 305
50.50973 319
50.52984 312
50.54996 304
50.57007 285
50.59018 288
50.6103 287
50.63041 320
50.65053 299
50.67064 278
50.69075 266
50.71087 264
50.73098 262
50.75109 270
50.77121 241
50.79132 257
50.81143 232
50.83155 262
50.85166 258
50.87178 226
50.89189 226
50.912 247
50.93212 254
50.95223 226
50.97234 267
50.99246 217
51.01257 239
51.03269 239
51.0528 276
51.07291 229
51.09303 260
51.11314 217
51.13325 245
51.15337 226
51.17348 244
51.1936 218
51.21371 221
51.23382 237
51.25394 229
51.27405 199
51.29416 254
51.31428 242
51.33439 218
51.3545 227
51.37462 204
51.39473 226
51.41485 186
51.43496 238
51.45507 248
51.47519 234
51.4953 239
51.51541 215
51.53553 216
51.55564 214
51.57576 226
51.59587 208
51.61598 219
51.6361 206
51.65621 215
51.67632 259
51.69644 225
51.71655 222
51.73667 226
51.75678 234
51.77689 203
51.79701 213
51.81712 218
51.83723 227
51.85735 229
51.87746 220
51.89757 250
51.91769 215
51.9378 270
51.95792 204
51.97803 222
51.99814 214
52.01826 244
52.03837 218
52.05848 214
52.0786 218
52.09871 202
52.11883 218
52.13894 221
52.15905 209
52.17917 233
52.19928 187
52.21939 221
52.23951 228
52.25962 239
52.27974 230
52.29985 244
52.31996 208
52.34008 240
52.36019 220
52.3803 217
52.40042 228
52.42053 211
52.44064 216
52.46076 210
52.48087 241
52.50099 225
52.5211 246
52.54121 214
52.56133 210
52.58144 246
52.60155 212
52.62167 234
52.64178 210
52.6619 247
52.68201 231
52.70212 201
52.72224 235
52.74235 225
52.76246 229
52.78258 246
52.80269 251
52.8228 233
52.84292 234
52.86303 248
52.88315 226
52.90326 247
52.92337 228
52.94349 223
52.9636 265
52.98371 230
53.00383 258
53.02394 220
53.04406 246
53.06417 246
53.08428 247
53.1044 241
53.12451 223
53.14462 237
53.16474 239
53.18485 241
53.20497 237
53.22508 240
53.24519 260
53.26531 251
53.28542 225
53.30553 231
53.32565 269
53.34576 264
53.36587 229
53.38599 255
53.4061 262
53.42622 211
53.44633 243
53.46644 257
53.48656 239
53.50667 215
53.52678 276
53.5469 259
53.56701 276
53.58713 265
53.60724 257
53.62735 240
53.64747 295
53.66758 276
53.68769 253
53.70781 300
53.72792 277
53.74804 259
53.76815 291
53.78826 257
53.80838 287
53.82849 311
53.8486 291
53.86872 313
53.88883 282
53.90894 283
53.92906 302
53.94917 288
53.96929 294
53.9894 299
54.00951 324
54.02963 309
54.04974 293
54.06985 299
54.08997 317
54.11008 332
54.1302 332
54.15031 319
54.17042 339
54.19054 346
54.21065 344
54.23076 338
54.25088 338
54.27099 337
54.29111 347
54.31122 345
54.33133 328
54.35145 309
54.37156 350
54.39167 322
54.41179 329
54.4319 343
54.45201 312
54.47213 354
54.49224 356
54.51236 363
54.53247 384
54.55258 403
54.5727 406
54.59281 412
54.61292 427
54.63304 463
54.65315 501
54.67327 540
54.69338 623
54.71349 697
54.73361 720
54.75372 807
54.77383 877
54.79395 915
54.81406 887
54.83417 832
54.85429 726
54.8744 700
54.89452 710
54.91463 651
54.93474 624
54.95486 560
54.97497 573
54.99508 517
55.0152 483
55.03531 440
55.05543 461
55.07554 443
55.09565 401
55.11577 411
55.13588 426
55.15599 466
55.17611 525
55.19622 546
55.21634 541
55.23645 579
55.25656 501
55.27668 533
55.29679 483
55.3169 498
55.33702 454
55.35713 442
55.37724 419
55.39736 450
55.41747 405
55.43759 378
55.4577 366
55.47781 348
55.49793 351
55.51804 319
55.53815 301
55.55827 301
55.57838 301
55.5985 308
55.61861 286
55.63872 278
55.65884 287
55.67895 266
55.69906 286
55.71918 296
55.73929 262
55.75941 275
55.77952 284
55.79963 252
55.81975 263
55.83986 273
55.85997 271
55.88009 266
55.9002 284
55.92031 257
55.94043 291
55.96054 235
55.98066 265
56.00077 300
56.02088 288
56.041 265
56.06111 290
56.08122 257
56.10134 271
56.12145 254
56.14157 260
56.16168 270
56.18179 236
56.20191 251
56.22202 237
56.24213 285
56.26225 257
56.28236 259
56.30248 285
56.32259 294
56.3427 249
56.36282 269
56.38293 290
56.40304 246
56.42316 235
56.44327 283
56.46338 248
56.4835 236
56.50361 227
56.52373 267
56.54384 250
56.56395 255
56.58407 217
56.60418 241
56.62429 270
56.64441 246
56.66452 247
56.68464 238
56.70475 246
56.72486 263
56.74498 245
56.76509 275
56.7852 262
56.80532 222
56.82543 254
56.84554 237
56.86566 221
56.88577 223
56.90589 263
56.926 281
56.94611 232
56.96623 232
56.98634 267
57.00645 247
57.02657 254
57.04668 256
57.0668 249
57.08691 257
57.10702 305
57.12714 266
57.14725 250
57.16736 278
57.18748 256
57.20759 281
57.22771 265
57.24782 227
57.26793 253
57.28805 228
57.30816 240
57.32827 256
57.34839 220
57.3685 241
57.38861 218
57.40873 234
57.42884 243
57.44896 203
57.46907 230
57.48918 233
57.5093 225
57.52941 211
57.54952 223
57.56964 265
57.58975 245
57.60987 229
57.62998 232
57.65009 221
57.67021 237
57.69032 219
57.71043 217
57.73055 211
57.75066 219
57.77078 244
57.79089 217
57.811 243
57.83112 243
57.85123 191
57.87134 247
57.89146 244
57.91157 232
57.93168 224
57.9518 220
57.97191 227
57.99203 229
58.01214 235
58.03225 212
58.05237 226
58.07248 245
58.09259 246
58.11271 224
58.13282 231
58.15294 249
58.17305 201
58.19316 239
58.21328 225
58.23339 224
58.2535 260
58.27362 217
58.29373 234
58.31385 233
58.33396 238
58.35407 225
58.37419 208
58.3943 234
58.41441 205
58.43453 233
58.45464 234
58.47475 208
58.49487 214
58.51498 216
58.5351 232
58.55521 208
58.57532 212
58.59544 217
58.61555 212
58.63566 226
58.65578 209
58.67589 204
58.69601 235
58.71612 239
58.73623 226
58.75635 225
58.77646 227
58.79657 219
58.81669 234
58.8368 225
58.85691 228
58.87703 214
58.89714 243
58.91726 226
58.93737 249
58.95748 215
58.9776 240
58.99771 211
59.01782 232
59.03794 210
59.05805 237
59.07817 230
59.09828 225
59.11839 253
59.13851 247
59.15862 250
59.17873 245
59.19885 235
59.21896 262
59.23908 263
59.25919 234
59.2793 250
59.29942 238
59.31953 246
59.33964 272
59.35976 249
59.37987 251
59.39998 284
59.4201 283
59.44021 250
59.46033 294
59.48044 323
59.50055 308
59.52067 281
59.54078 348
59.56089 367
59.58101 344
59.60112 360
59.62124 426
59.64135 481
59.66146 484
59.68158 524
59.70169 606
59.7218 652
59.74192 808
59.76203 890
59.78215 1069
59.80226 1150
59.82237 1281
59.84249 1527
59.8626 1583
59.88271 1617
59.90283 1400
59.92294 1268
59.94305 1168
59.96317 1055
59.98328 909
60.0034 898
60.02351 922
60.04362 892
60.06374 772
60.08385 756
60.10396 561
60.12408 460
60.14419 392
60.16431 332
60.18442 313
60.20453 311
60.22465 285
60.24476 289
60.26487 267
60.28499 246
60.3051 255
60.32522 263
60.34533 232
60.36544 256
60.38556 259
60.40567 241
60.42578 234
60.4459 232
60.46601 267
60.48612 237
60.50624 229
60.52635 250
60.54647 243
60.56658 236
60.58669 239
60.60681 241
60.62692 232
60.64703 230
60.66715 226
60.68726 225
60.70738 196
60.72749 248
60.7476 218
60.76772 231
60.78783 225
60.80794 216
60.82806 226
60.84817 212
60.86828 215
60.8884 234
60.90851 205
60.92863 216
60.94874 201
60.96885 227
60.98897 227
61.00908 225
61.02919 211
61.04931 226
61.06942 221
61.08954 214
61.10965 207
61.12976 253
61.14988 258
61.16999 206
61.1901 223
61.21022 233
61.23033 250
61.25045 250
61.27056 225
61.29067 253
61.31079 265
61.3309 233
61.35101 258
61.37113 264
61.39124 226
61.41135 269
61.43147 242
61.45158 270
61.4717 268
61.49181 244
61.51192 269
61.53204 263
61.55215 259
61.57226 244
61.59238 258
61.61249 268
61.63261 273
61.65272 231
61.67283 258
61.69295 230
61.71306 239
61.73317 258
61.75329 273
61.7734 234
61.79352 258
61.81363 251
61.83374 260
61.85386 309
61.87397 273
61.89408 279
61.9142 280
61.93431 271
61.95442 296
61.97454 271
61.99465 301
62.01477 315
62.03488 341
62.05499 311
62.07511 349
62.09522 334
62.11533 365
62.13545 330
62.15556 365
62.17568 349
62.19579 346
62.2159 358
62.23602 362
62.25613 332
62.27624 332
62.29636 343
62.31647 364
62.33659 347
62.3567 364
62.37681 318
62.39693 332
62.41704 324
62.43715 296
62.45727 271
62.47738 303
62.49749 276
62.51761 267
62.53772 244
62.55784 257
62.57795 225
62.59806 247
62.61818 245
62.63829 249
62.6584 233
62.67852 274
62.69863 255
62.71875 252
62.73886 219
62.75897 249
62.77909 247
62.7992 239
62.81931 245
62.83943 229
62.85954 253
62.87965 214
62.89977 232
62.91988 237
62.94 259
62.96011 231
62.98022 244
63.00034 257
63.02045 247
63.04056 247
63.06068 219
63.08079 273
63.10091 207
63.12102 229
63.14113 221
63.16125 235
63.18136 254
63.20147 234
63.22159 222
63.2417 227
63.26182 221
63.28193 254
63.30204 229
63.32216 241
63.34227 256
63.36238 236
63.3825 270
63.40261 236
63.42272 245
63.44284 245
63.46295 211
63.48307 233
63.50318 239
63.52329 269
63.54341 242
63.56352 222
63.58363 233
63.60375 261
63.62386 255
63.64398 235
63.66409 255
63.6842 269
63.70432 283
63.72443 253
63.74454 306
63.76466 301
63.78477 301
63.80489 298
63.825 364
63.84511 365
63.86523 413
63.88534 432
63.90545 451
63.92557 460
63.94568 486
63.96579 468
63.98591 455
64.00602 446
64.02614 370
64.04625 368
64.06636 345
64.08648 380
64.10659 333
64.1267 339
64.14682 338
64.16693 323
64.18705 302
64.20716 306
64.22727 260
64.24739 225
64.2675 221
64.28761 233
64.30773 248
64.32784 258
64.34796 248
64.36807 238
64.38818 236
64.4083 235
64.42841 224
64.44852 237
64.46864 246
64.48875 218
64.50886 237
64.52898 204
64.54909 193
64.56921 197
64.58932 234
64.60943 203
64.62955 205
64.64966 236
64.66977 245
64.68989 235
64.71 229
64.73012 231
64.75023 237
64.77034 237
64.79046 229
64.81057 197
64.83068 206
64.8508 222
64.87091 221
64.89102 200
64.91114 187
64.93125 189
64.95137 208
64.97148 226
64.99159 203
65.01171 239
65.03182 196
65.05193 217
65.07205 236
65.09216 215
65.11228 207
65.13239 197
65.1525 208
65.17262 216
65.19273 206
65.21284 214
65.23296 210
65.25307 230
65.27319 183
65.2933 216
65.31341 212
65.33353 221
65.35364 221
65.37375 261
65.39387 213
65.41398 240
65.43409 222
65.45421 209
65.47432 235
65.49444 235
65.51455 227
65.53466 259
65.55478 232
65.57489 249
65.595 226
65.61512 237
65.63523 244
65.65535 269
65.67546 272
65.69557 245
65.71569 287
65.7358 239
65.75591 258
65.77603 240
65.79614 236
65.81626 230
65.83637 243
65.85648 222
65.8766 243
65.89671 242
65.91682 251
65.93694 252
65.95705 216
65.97716 221
65.99728 235
66.01739 244
66.03751 202
66.05762 215
66.07773 237
66.09785 228
66.11796 211
66.13807 204
66.15819 201
66.1783 200
66.19842 208
66.21853 239
66.23864 206
66.25876 199
66.27887 216
66.29898 207
66.3191 225
66.33921 207
66.35933 216
66.37944 206
66.39955 220
66.41967 214
66.43978 234
66.45989 210
66.48001 214
66.50012 209
66.52023 239
66.54035 217
66.56046 200
66.58058 213
66.60069 218
66.6208 210
66.64092 213
66.66103 213
66.68114 202
66.70126 217
66.72137 239
66.74149 214
66.7616 219
66.78171 210
66.80183 219
66.82194 201
66.84205 215
66.86217 235
66.88228 224
66.90239 213
66.92251 198
66.94262 236
66.96274 229
66.98285 199
67.00296 240
67.02308 212
67.04319 260
67.0633 200
67.08342 241
67.10353 199
67.12365 216
67.14376 250
67.16387 230
67.18399 255
67.2041 241
67.22421 262
67.24433 234
67.26444 274
67.28456 295
67.30467 291
67.32478 275
67.3449 313
67.36501 302
67.38512 351
67.40524 360
67.42535 344
67.44546 378
67.46558 461
67.48569 467
67.50581 527
67.52592 592
67.54603 657
67.56615 732
67.58626 839
67.60637 897
67.62649 925
67.6466 935
67.66672 944
67.68683 1006
67.70694 891
67.72706 795
67.74717 773
67.76728 736
67.7874 696
67.80751 759
67.82763 819
67.84774 808
67.86785 821
67.88797 803
67.90808 832
67.92819 832
67.94831 823
67.96842 939
67.98853 1036
68.00865 1119
68.02876 1200
68.04888 1307
68.06899 1306
68.0891 1272
68.10922 1174
68.12933 1173
68.14944 1206
68.16956 1085
68.18967 1130
68.20979 1175
68.2299 1171
68.25001 1161
68.27013 1039
68.29024 911
68.31035 803
68.33047 710
68.35058 679
68.3707 600
68.39081 544
68.41092 497
68.43104 504
68.45115 478
68.47126 443
68.49138 354
68.51149 319
68.5316 317
68.55172 284
68.57183 266
68.59195 258
68.61206 251
68.63217 266
68.65229 260
68.6724 267
68.69251 247
68.71263 218
68.73274 274
68.75286 235
68.77297 214
68.79308 215
68.8132 225
68.83331 258
68.85342 222
68.87354 229
68.89365 207
68.91376 245
68.93388 213
68.95399 222
68.97411 223
68.99422 230
69.01433 226
69.03445 197
69.05456 187
69.07467 225
69.09479 226
69.1149 215
69.13502 206
69.15513 214
69.17524 196
69.19536 210
69.21547 205
69.23558 232
69.2557 205
69.27581 225
69.29593 200
69.31604 216
69.33615 194
69.35627 206
69.37638 215
69.39649 221
69.41661 218
69.43672 199
69.45683 197
69.47695 219
69.49706 204
69.51718 209
69.53729 200
69.5574 208
69.57752 213
69.59763 226
69.61774 199
69.63786 230
69.65797 222
69.67809 221
69.6982 196
69.71831 214
69.73843 199
69.75854 186
69.77865 230
69.79877 184
69.81888 209
69.839 219
69.85911 219
69.87922 228
69.89934 204
69.91945 219
69.93956 172
69.95968 226
69.97979 206
69.9999 207
70.02002 210
70.04013 204
70.06025 237
70.08036 187
70.10047 193
70.12059 200
70.1407 205
70.16081 219
70.18093 194
70.20104 204
70.22116 214
70.24127 210
70.26138 203
70.2815 208
70.30161 203
70.32172 208
70.34184 208
70.36195 191
70.38207 206
70.40218 194
70.42229 207
70.44241 212
70.46252 199
70.48263 211
70.50275 223
70.52286 219
70.54297 194
70.56309 179
70.5832 194
70.60332 200
70.62343 190
70.64354 183
70.66366 198
70.68377 216
70.70388 175
70.724 196
70.74411 186
70.76423 196
70.78434 205
70.80445 176
70.82457 220
70.84468 202
70.86479 213
70.88491 167
70.90502 191
70.92513 210
70.94525 201
70.96536 194
70.98548 181
71.00559 187
71.0257 181
71.04582 185
71.06593 189
71.08604 202
71.10616 210
71.12627 190
71.14639 214
71.1665 186
71.18661 183
71.20673 190
71.22684 216
71.24695 217
71.26707 188
71.28718 171
71.3073 182
71.32741 176
71.34752 197
71.36764 204
71.38775 187
71.40786 195
71.42798 205
71.44809 232
71.4682 177
71.48832 183
71.50843 179
71.52855 198
71.54866 172
71.56877 198
71.58889 191
71.609 199
71.62911 173
71.64923 195
71.66934 198
71.68946 184
71.70957 198
71.72968 202
71.7498 203
71.76991 208
71.79002 197
71.81014 202
71.83025 208
71.85037 199
71.87048 185
71.89059 206
71.91071 209
71.93082 210
71.95093 190
71.97105 210
71.99116 227
72.01127 191
72.03139 210
72.0515 198
72.07162 184
72.09173 172
72.11184 217
72.13196 209
72.15207 231
72.17218 180
72.1923 183
72.21241 207
72.23253 184
72.25264 209
72.27275 202
72.29287 202
72.31298 206
72.33309 232
72.35321 208
72.37332 213
72.39344 221
72.41355 209
72.43366 184
72.45378 202
72.47389 185
72.494 257
72.51412 184
72.53423 177
72.55434 182
72.57446 198
72.59457 194
72.61469 214
72.6348 207
72.65491 180
72.67503 194
72.69514 174
72.71525 229
72.73537 240
72.75548 179
72.7756 200
72.79571 206
72.81582 234
72.83594 231
72.85605 209
72.87616 198
72.89628 221
72.91639 221
72.9365 223
72.95662 207
72.97673 202
72.99685 207
73.01696 234
73.03707 241
73.05719 222
73.0773 222
73.09741 230
73.11753 253
73.13764 257
73.15776 233
73.17787 280
73.19798 266
73.2181 305
73.23821 318
73.25832 332
73.27844 362
73.29855 383
73.31867 399
73.33878 432
73.35889 428
73.37901 433
73.39912 500
73.41923 451
73.43935 389
73.45946 379
73.47957 307
73.49969 335
73.5198 331
73.53992 337
73.56003 361
73.58014 349
73.60026 352
73.62037 338
73.64048 300
73.6606 245
73.68071 274
73.70083 271
73.72094 229
73.74105 240
73.76117 247
73.78128 217
73.80139 214
73.82151 204
73.84162 205
73.86174 204
73.88185 200
73.90196 192
73.92208 192
73.94219 192
73.9623 231
73.98242 216
74.00253 177
74.02264 201
74.04276 191
74.06287 177
74.08299 184
74.1031 185
74.12321 209
74.14333 222
74.16344 192
74.18355 209
74.20367 187
74.22378 204
74.2439 201
74.26401 209
74.28412 201
74.30424 219
74.32435 191
74.34446 211
74.36458 195
74.38469 196
74.40481 192
74.42492 181
74.44503 200
74.46515 198
74.48526 196
74.50537 184
74.52549 190
74.5456 209
74.56571 194
74.58583 208
74.60594 185
74.62606 182
74.64617 218
74.66628 191
74.6864 212
74.70651 214
74.72662 181
74.74674 195
74.76685 205
74.78697 175
74.80708 204
74.82719 194
74.84731 186
74.86742 196
74.88753 176
74.90765 173
74.92776 174
74.94787 209
74.96799 201
74.9881 210
75.00822 198
