3.00117 21102
3.02128 20492
3.0414 20042
3.06151 19432
3.08162 18881
3.10174 18255
3.12185 17730
3.14197 17531
3.16208 16546
3.18219 16557
3.20231 15700
3.22242 15469
3.24253 15074
3.26265 14588
3.28276 14285
3.30288 13961
3.32299 13180
3.3431 13210
3.36322 12512
3.38333 12178
3.40344 11532
3.42356 11483
3.44367 11197
3.46379 10331
3.4839 10343
3.50401 9717
3.52413 9752
3.54424 9329
3.56435 8885
3.58447 8734
3.60458 8213
3.62469 8232
3.64481 8279
3.66492 7550
3.68504 7337
3.70515 6871
3.72526 6832
3.74538 6525
3.76549 6017
3.7856 6074
3.80572 5829
3.82583 5652
3.84595 5459
3.86606 5047
3.88617 5026
3.90629 4694
3.9264 4593
3.94651 4527
3.96663 4242
3.98674 4126
4.00686 3833
4.02697 3707
4.04708 3733
4.0672 3390
4.08731 3312
4.10742 3263
4.12754 3124
4.14765 2967
4.16776 2755
4.18788 2759
4.20799 2611
4.22811 2590
4.24822 2572
4.26833 2361
4.28845 2310
4.30856 2271
4.32867 2202
4.34879 2307
4.3689 1998
4.38902 2100
4.40913 2105
4.42924 2066
4.44936 1987
4.46947 1926
4.48958 1899
4.5097 1827
4.52981 1855
4.54992 1748
4.57004 1655
4.59015 1733
4.61027 1742
4.63038 1653
4.65049 1703
4.67061 1546
4.69072 1533
4.71083 1572
4.73095 1529
4.75106 1512
4.77118 1430
4.79129 1478
4.8114 1422
4.83152 1476
4.85163 1401
4.87174 1282
4.89186 1303
4.91197 1310
4.93209 1317
4.9522 1274
4.97231 1176
4.99243 1226
5.01254 1218
5.03265 1249
5.05277 1129
5.07288 1210
5.09299 1122
5.11311 1123
5.13322 1093
5.15334 1091
5.17345 995
5.19356 1010
5.21368 1090
5.23379 1035
5.2539 987
5.27402 1018
5.29413 938
5.31425 949
5.33436 989
5.35447 893
5.37459 963
5.3947 902
5.41481 869
5.43493 954
5.45504 896
5.47516 906
5.49527 821
5.51538 851
5.5355 889
5.55561 856
5.57572 856
5.59584 792
5.61595 795
5.63606 781
5.65618 825
5.67629 743
5.69641 786
5.71652 788
5.73663 780
5.75675 844
5.77686 796
5.79697 729
5.81709 791
5.8372 787
5.85732 805
5.87743 747
5.89754 746
5.91766 756
5.93777 801
5.95788 759
5.978 699
5.99811 752
6.01823 760
6.03834 804
6.05845 720
6.07857 765
6.09868 797
6.11879 797
6.13891 700
6.15902 722
6.17913 767
6.19925 801
6.21936 829
6.23948 756
6.25959 738
6.2797 744
6.29982 751
6.31993 774
6.34004 752
6.36016 770
6.38027 653
6.40039 746
6.4205 724
6.44061 727
6.46073 699
6.48084 696
6.50095 679
6.52107 725
6.54118 690
6.56129 711
6.58141 663
6.60152 715
6.62164 650
6.64175 728
6.66186 665
6.68198 730
6.70209 640
6.7222 657
6.74232 711
6.76243 663
6.78255 690
6.80266 726
6.82277 719
6.84289 692
6.863 630
6.88311 664
6.90323 599
6.92334 664
6.94346 648
6.96357 701
6.98368 668
7.0038 688
7.02391 652
7.04402 716
7.06414 649
7.08425 646
7.10436 631
7.12448 597
7.14459 622
7.16471 625
7.18482 634
7.20493 663
7.22505 595
7.24516 632
7.26527 618
7.28539 598
7.3055 613
7.32562 680
7.34573 632
7.36584 673
7.38596 652
7.40607 669
7.42618 617
7.4463 640
7.46641 595
7.48653 630
7.50664 608
7.52675 677
7.54687 617
7.56698 621
7.58709 655
7.60721 634
7.62732 615
7.64743 689
7.66755 616
7.68766 635
7.70778 626
7.72789 702
7.748 600
7.76812 584
7.78823 581
7.80834 611
7.82846 592
7.84857 688
7.86869 595
7.8888 562
7.90891 630
7.92903 684
7.94914 596
7.96925 649
7.98937 613
8.00948 648
8.0296 624
8.04971 625
8.06982 634
8.08994 642
8.11005 653
8.13016 601
8.15028 535
8.17039 614
8.1905 588
8.21062 590
8.23073 671
8.25085 605
8.27096 597
8.29107 588
8.31119 641
8.3313 586
8.35141 671
8.37153 636
8.39164 579
8.41176 605
8.43187 632
8.45198 614
8.4721 600
8.49221 615
8.51232 655
8.53244 657
8.55255 613
8.57266 617
8.59278 605
8.61289 603
8.63301 624
8.65312 589
8.67323 551
8.69335 610
8.71346 633
8.73357 598
8.75369 576
8.7738 593
8.79392 613
8.81403 610
8.83414 595
8.85426 562
8.87437 554
8.89448 621
8.9146 590
8.93471 652
8.95483 596
8.97494 587
8.99505 574
9.01517 610
9.03528 602
9.05539 562
9.07551 617
9.09562 643
9.11573 569
9.13585 587
9.15596 561
9.17608 672
9.19619 579
9.2163 641
9.23642 613
9.25653 569
9.27664 581
9.29676 608
9.31687 645
9.33699 559
9.3571 567
9.37721 646
9.39733 617
9.41744 601
9.43755 576
9.45767 603
9.47778 606
9.4979 623
9.51801 592
9.53812 605
9.55824 614
9.57835 614
9.59846 584
9.61858 619
9.63869 584
9.6588 624
9.67892 606
9.69903 550
9.71915 600
9.73926 587
9.75937 615
9.77949 633
9.7996 564
9.81971 569
9.83983 596
9.85994 626
9.88006 594
9.90017 629
9.92028 602
9.9404 614
9.96051 555
9.98062 593
10.00074 573
10.02085 546
10.04097 611
10.06108 575
10.08119 594
10.10131 592
10.12142 570
10.14153 562
10.16165 592
10.18176 555
10.20187 544
10.22199 584
10.2421 604
10.26222 597
10.28233 582
10.30244 570
10.32256 626
10.34267 563
10.36278 578
10.3829 561
10.40301 604
10.42313 571
10.44324 631
10.46335 586
10.48347 545
10.50358 606
10.52369 636
10.54381 621
10.56392 583
10.58403 606
10.60415 597
10.62426 614
10.64438 574
10.66449 607
10.6846 604
10.70472 646
10.72483 567
10.74494 609
10.76506 625
10.78517 619
10.80529 548
10.8254 631
10.84551 565
10.86563 606
10.88574 587
10.90585 650
10.92597 622
10.94608 574
10.9662 610
10.98631 605
11.00642 560
11.02654 591
11.04665 579
11.06676 556
11.08688 583
11.10699 679
11.1271 545
11.14722 575
11.16733 559
11.18745 544
11.20756 559
11.22767 588
11.24779 598
11.2679 518
11.28801 563
11.30813 631
11.32824 588
11.34836 602
11.36847 577
11.38858 584
11.4087 637
11.42881 577
11.44892 622
11.46904 578
11.48915 556
11.50927 585
11.52938 573
11.54949 590
11.56961 575
11.58972 578
11.60983 612
11.62995 566
11.65006 548
11.67017 566
11.69029 584
11.7104 590
11.73052 588
11.75063 640
11.77074 676
11.79086 609
11.81097 630
11.83108 602
11.8512 623
11.87131 624
11.89143 596
11.91154 605
11.93165 615
11.95177 598
11.97188 656
11.99199 633
12.01211 611
12.03222 696
12.05234 629
12.07245 624
12.09256 580
12.11268 607
12.13279 661
12.1529 618
12.17302 692
12.19313 672
12.21324 720
12.23336 723
12.25347 699
12.27359 688
12.2937 688
12.31381 724
12.33393 775
12.35404 723
12.37415 728
12.39427 715
12.41438 707
12.4345 710
12.45461 635
12.47472 646
12.49484 645
12.51495 659
12.53506 642
12.55518 647
12.57529 610
12.5954 591
12.61552 619
12.63563 607
12.65575 580
12.67586 595
12.69597 601
12.71609 574
12.7362 593
12.75631 583
12.77643 595
12.79654 584
12.81666 566
12.83677 554
12.85688 578
12.877 593
12.89711 607
12.91722 612
12.93734 582
12.95745 566
12.97757 555
12.99768 589
13.01779 564
13.03791 580
13.05802 548
13.07813 525
13.09825 567
13.11836 574
13.13847 610
13.15859 634
13.1787 549
13.19882 542
13.21893 549
13.23904 634
13.25916 587
13.27927 595
13.29938 568
13.3195 598
13.33961 535
13.35973 595
13.37984 570
13.39995 610
13.42007 619
13.44018 623
13.46029 566
13.48041 537
13.50052 581
13.52064 570
13.54075 575
13.56086 559
13.58098 555
13.60109 564
13.6212 576
13.64132 596
13.66143 510
13.68154 567
13.70166 574
13.72177 557
13.74189 569
13.762 550
13.78211 568
13.80223 596
13.82234 550
13.84245 581
13.86257 624
13.88268 619
13.9028 567
13.92291 599
13.94302 606
13.96314 562
13.98325 534
14.00336 532
14.02348 556
14.04359 599
14.06371 551
14.08382 630
14.10393 603
14.12405 586
14.14416 589
14.16427 610
14.18439 612
14.2045 620
14.22461 597
14.24473 613
14.26484 656
14.28496 661
14.30507 652
14.32518 613
14.3453 633
14.36541 663
14.38552 659
14.40564 634
14.42575 643
14.44587 745
14.46598 672
14.48609 659
14.50621 644
14.52632 625
14.54643 664
14.56655 623
14.58666 655
14.60677 651
14.62689 617
14.647 607
14.66712 601
14.68723 572
14.70734 574
14.72746 600
14.74757 638
14.76768 594
14.7878 552
14.80791 573
14.82803 620
14.84814 620
14.86825 576
14.88837 595
14.90848 599
14.92859 577
14.94871 597
14.96882 588
14.98894 613
15.00905 580
15.02916 580
15.04928 571
15.06939 569
15.0895 582
15.10962 596
15.12973 534
15.14984 605
15.16996 526
15.19007 562
15.21019 537
15.2303 544
15.25041 594
15.27053 570
15.29064 567
15.31075 561
15.33087 548
15.35098 556
15.3711 586
15.39121 598
15.41132 559
15.43144 559
15.45155 550
15.47166 540
15.49178 572
15.51189 539
15.53201 614
15.55212 562
15.57223 520
15.59235 544
15.61246 575
15.63257 544
15.65269 543
15.6728 546
15.69291 575
15.71303 624
15.73314 599
15.75326 563
15.77337 533
15.79348 566
15.8136 632
15.83371 571
15.85382 564
15.87394 508
15.89405 577
15.91417 554
15.93428 591
15.95439 578
15.97451 550
15.99462 589
16.01473 552
16.03485 595
16.05496 600
16.07508 557
16.09519 577
16.1153 598
16.13542 567
16.15553 573
16.17564 559
16.19576 586
16.21587 576
16.23598 566
16.2561 600
16.27621 539
16.29633 612
16.31644 572
16.33655 537
16.35667 571
16.37678 602
16.39689 579
16.41701 612
16.43712 623
16.45724 569
16.47735 562
16.49746 543
16.51758 547
16.53769 560
16.5578 548
16.57792 553
16.59803 571
16.61814 560
16.63826 565
16.65837 573
16.67849 575
16.6986 555
16.71871 552
16.73883 576
16.75894 569
16.77905 576
16.79917 571
16.81928 548
16.8394 600
16.85951 599
16.87962 585
16.89974 535
16.91985 576
16.93996 571
16.96008 631
16.98019 565
17.00031 608
17.02042 573
17.04053 580
17.06065 647
17.08076 623
17.10087 587
17.12099 559
17.1411 614
17.16121 538
17.18133 527
17.20144 560
17.22156 573
17.24167 563
17.26178 551
17.2819 583
17.30201 578
17.32212 578
17.34224 598
17.36235 588
17.38247 549
17.40258 634
17.42269 550
17.44281 600
17.46292 570
17.48303 575
17.50315 602
17.52326 542
17.54338 639
17.56349 595
17.5836 625
17.60372 581
17.62383 581
17.64394 618
17.66406 636
17.68417 606
17.70428 638
17.7244 616
17.74451 643
17.76463 610
17.78474 566
17.80485 617
17.82497 634
17.84508 619
17.86519 630
17.88531 627
17.90542 637
17.92554 627
17.94565 698
17.96576 676
17.98588 679
18.00599 651
18.0261 706
18.04622 691
18.06633 742
18.08645 654
18.10656 737
18.12667 743
18.14679 834
18.1669 933
18.18701 969
18.20713 1050
18.22724 1161
18.24735 1257
18.26747 1298
18.28758 1258
18.3077 1208
18.32781 1230
18.34792 1197
18.36804 1014
18.38815 975
18.40826 881
18.42838 862
18.44849 800
18.46861 809
18.48872 767
18.50883 673
18.52895 696
18.54906 687
18.56917 687
18.58929 688
18.6094 667
18.62951 609
18.64963 618
18.66974 637
18.68986 613
18.70997 658
18.73008 651
18.7502 591
18.77031 680
18.79042 635
18.81054 589
18.83065 664
18.85077 597
18.87088 610
18.89099 604
18.91111 586
18.93122 628
18.95133 626
18.97145 610
18.99156 608
19.01168 617
19.03179 588
19.0519 598
19.07202 649
19.09213 568
19.11224 608
19.13236 639
19.15247 610
19.17258 613
19.1927 603
19.21281 567
19.23293 594
19.25304 640
19.27315 601
19.29327 623
19.31338 586
19.33349 557
19.35361 584
19.37372 625
19.39384 647
19.41395 645
19.43406 635
19.45418 632
19.47429 635
19.4944 648
19.51452 591
19.53463 665
19.55475 665
19.57486 619
19.59497 718
19.61509 644
19.6352 752
19.65531 697
19.67543 773
19.69554 762
19.71565 793
19.73577 761
19.75588 800
19.776 824
19.79611 812
19.81622 871
19.83634 875
19.85645 871
19.87656 817
19.89668 839
19.91679 837
19.93691 865
19.95702 847
19.97713 882
19.99725 802
20.01736 841
20.03747 806
20.05759 831
20.0777 879
20.09782 837
20.11793 896
20.13804 887
20.15816 895
20.17827 895
20.19838 925
20.2185 1020
20.23861 973
20.25872 980
20.27884 1136
20.29895 1014
20.31907 955
20.33918 945
20.35929 926
20.37941 880
20.39952 896
20.41963 891
20.43975 898
20.45986 909
20.47998 937
20.50009 924
20.5202 875
20.54032 905
20.56043 860
20.58054 890
20.60066 864
20.62077 920
20.64088 874
20.661 907
20.68111 951
20.70123 1003
20.72134 1071
20.74145 1199
20.76157 1436
20.78168 1685
20.80179 1814
20.82191 1925
20.84202 1801
20.86214 1684
20.88225 1396
20.90236 1255
20.92248 1160
20.94259 967
20.9627 876
20.98282 907
21.00293 883
21.02305 866
21.04316 865
21.06327 804
21.08339 816
21.1035 804
21.12361 845
21.14373 869
21.16384 820
21.18395 860
21.20407 817
21.22418 879
21.2443 902
21.26441 923
21.28452 895
21.30464 876
21.32475 898
21.34486 936
21.36498 930
21.38509 903
21.40521 936
21.42532 902
21.44543 889
21.46555 924
21.48566 933
21.50577 891
21.52589 942
21.546 964
21.56612 929
21.58623 884
21.60634 873
21.62646 924
21.64657 901
21.66668 868
21.6868 873
21.70691 854
21.72702 854
21.74714 873
21.76725 782
21.78737 810
21.80748 760
21.82759 770
21.84771 770
21.86782 770
21.88793 791
21.90805 737
21.92816 705
21.94828 761
21.96839 752
21.9885 759
22.00862 712
22.02873 696
22.04884 723
22.06896 690
22.08907 744
22.10919 747
22.1293 712
22.14941 694
22.16953 675
22.18964 727
22.20975 687
22.22987 685
22.24998 630
22.27009 701
22.29021 723
22.31032 676
22.33044 696
22.35055 703
22.37066 665
22.39078 664
22.41089 696
22.431 689
22.45112 675
22.47123 595
22.49135 701
22.51146 700
22.53157 679
22.55169 671
22.5718 655
22.59191 683
22.61203 640
22.63214 703
22.65225 690
22.67237 658
22.69248 679
22.7126 647
22.73271 691
22.75282 649
22.77294 613
22.79305 684
22.81316 708
22.83328 624
22.85339 668
22.87351 603
22.89362 741
22.91373 657
22.93385 634
22.95396 706
22.97407 667
22.99419 660
23.0143 673
23.03442 661
23.05453 669
23.07464 646
23.09476 677
23.11487 674
23.13498 647
23.1551 626
23.17521 644
23.19532 664
23.21544 676
23.23555 713
23.25567 643
23.27578 653
23.29589 643
23.31601 642
23.33612 634
23.35623 683
23.37635 646
23.39646 630
23.41658 721
23.43669 657
23.4568 644
23.47692 680
23.49703 682
23.51714 667
23.53726 649
23.55737 599
23.57749 704
23.5976 655
23.61771 625
23.63783 691
23.65794 638
23.67805 678
23.69817 663
23.71828 664
23.73839 634
23.75851 703
23.77862 656
23.79874 719
23.81885 660
23.83896 681
23.85908 655
23.87919 681
23.8993 696
23.91942 615
23.93953 691
23.95965 661
23.97976 714
23.99987 677
24.01999 680
24.0401 674
24.06021 702
24.08033 664
24.10044 784
24.12056 633
24.14067 709
24.16078 698
24.1809 687
24.20101 672
24.22112 649
24.24124 652
24.26135 664
24.28146 708
24.30158 728
24.32169 691
24.34181 720
24.36192 682
24.38203 706
24.40215 671
24.42226 685
24.44237 696
24.46249 707
24.4826 695
24.50272 740
24.52283 699
24.54294 684
24.56306 715
24.58317 688
24.60328 710
24.6234 718
24.64351 668
24.66362 720
24.68374 733
24.70385 777
24.72397 752
24.74408 763
24.76419 743
24.78431 770
24.80442 846
24.82453 762
24.84465 831
24.86476 726
24.88488 766
24.90499 719
24.9251 775
24.94522 793
24.96533 741
24.98544 751
25.00556 714
25.02567 749
25.04579 728
25.0659 687
25.08601 747
25.10613 756
25.12624 817
25.14635 808
25.16647 787
25.18658 841
25.20669 829
25.22681 846
25.24692 844
25.26704 845
25.28715 880
25.30726 785
25.32738 757
25.34749 816
25.3676 714
25.38772 775
25.40783 701
25.42795 769
25.44806 734
25.46817 692
25.48829 688
25.5084 684
25.52851 714
25.54863 713
25.56874 686
25.58886 649
25.60897 688
25.62908 709
25.6492 652
25.66931 680
25.68942 710
25.70954 726
25.72965 671
25.74976 708
25.76988 637
25.78999 716
25.81011 700
25.83022 668
25.85033 652
25.87045 676
25.89056 673
25.91067 635
25.93079 729
25.9509 710
25.97102 721
25.99113 687
26.01124 699
26.03136 690
26.05147 698
26.07158 735
26.0917 733
26.11181 728
26.13193 758
26.15204 740
26.17215 740
26.19227 702
26.21238 736
26.23249 816
26.25261 815
26.27272 868
26.29283 846
26.31295 891
26.33306 868
26.35318 916
26.37329 949
26.3934 1095
26.41352 1137
26.43363 1398
26.45374 1683
26.47386 2022
26.49397 2517
26.51409 3191
26.5342 4142
26.55431 4939
26.57443 5562
26.59454 6023
26.61465 5952
26.63477 5126
26.65488 4339
26.67499 3541
26.69511 2684
26.71522 2075
26.73534 1530
26.75545 1252
26.77556 1005
26.79568 993
26.81579 912
26.8359 941
26.85602 883
26.87613 846
26.89625 832
26.91636 797
26.93647 836
26.95659 724
26.9767 752
26.99681 692
27.01693 710
27.03704 722
27.05716 733
27.07727 687
27.09738 720
27.1175 688
27.13761 738
27.15772 707
27.17784 705
27.19795 705
27.21806 655
27.23818 723
27.25829 679
27.27841 686
27.29852 717
27.31863 739
27.33875 763
27.35886 694
27.37897 766
27.39909 779
27.4192 732
27.43932 753
27.45943 706
27.47954 659
27.49966 688
27.51977 721
27.53988 676
27.56 705
27.58011 625
27.60023 651
27.62034 651
27.64045 638
27.66057 622
27.68068 671
27.70079 655
27.72091 634
27.74102 668
27.76113 709
27.78125 616
27.80136 693
27.82148 696
27.84159 673
27.8617 697
27.88182 702
27.90193 688
27.92204 703
27.94216 669
27.96227 735
27.98239 663
28.0025 676
28.02261 689
28.04273 734
28.06284 679
28.08295 669
28.10307 723
28.12318 671
28.1433 679
28.16341 662
28.18352 667
28.20364 658
28.22375 650
28.24386 617
28.26398 646
28.28409 662
28.3042 627
28.32432 643
28.34443 611
28.36455 622
28.38466 651
28.40477 573
28.42489 630
28.445 579
28.46511 631
28.48523 627
28.50534 590
28.52546 580
28.54557 655
28.56568 641
28.5858 657
28.60591 601
28.62602 629
28.64614 609
28.66625 621
28.68636 636
28.70648 653
28.72659 626
28.74671 601
28.76682 609
28.78693 615
28.80705 609
28.82716 630
28.84727 587
28.86739 621
28.8875 619
28.90762 607
28.92773 618
28.94784 651
28.96796 620
28.98807 612
29.00818 571
29.0283 636
29.04841 669
29.06853 635
29.08864 579
29.10875 589
29.12887 606
29.14898 589
29.16909 574
29.18921 615
29.20932 552
29.22943 572
29.24955 581
29.26966 593
29.28978 585
29.30989 646
29.33 615
29.35012 616
29.37023 622
29.39034 593
29.41046 606
29.43057 603
29.45069 622
29.4708 595
29.49091 629
29.51103 588
29.53114 598
29.55125 604
29.57137 553
29.59148 598
29.6116 572
29.63171 647
29.65182 587
29.67194 622
29.69205 588
29.71216 645
29.73228 609
29.75239 558
29.7725 596
29.79262 576
29.81273 601
29.83285 621
29.85296 626
29.87307 597
29.89319 600
29.9133 572
29.93341 607
29.95353 579
29.97364 628
29.99376 597
30.01387 599
30.03398 643
30.0541 661
30.07421 617
30.09432 607
30.11444 630
30.13455 591
30.15467 666
30.17478 610
30.19489 665
30.21501 679
30.23512 608
30.25523 658
30.27535 599
30.29546 633
30.31557 640
30.33569 607
30.3558 565
30.37592 605
30.39603 598
30.41614 606
30.43626 614
30.45637 579
30.47648 629
30.4966 604
30.51671 627
30.53683 540
30.55694 555
30.57705 594
30.59717 642
30.61728 575
30.63739 652
30.65751 595
30.67762 588
30.69773 583
30.71785 622
30.73796 617
30.75808 632
30.77819 590
30.7983 580
30.81842 611
30.83853 568
30.85864 639
30.87876 570
30.89887 632
30.91899 603
30.9391 617
30.95921 602
30.97933 595
30.99944 578
31.01955 597
31.03967 577
31.05978 590
31.0799 625
31.10001 601
31.12012 587
31.14024 646
31.16035 572
31.18046 643
31.20058 594
31.22069 582
31.2408 606
31.26092 606
31.28103 624
31.30115 573
31.32126 639
31.34137 614
31.36149 584
31.3816 591
31.40171 570
31.42183 623
31.44194 612
31.46206 634
31.48217 627
31.50228 609
31.5224 612
31.54251 626
31.56262 635
31.58274 632
31.60285 608
31.62297 628
31.64308 569
31.66319 580
31.68331 609
31.70342 618
31.72353 597
31.74365 571
31.76376 559
31.78387 599
31.80399 595
31.8241 572
31.84422 592
31.86433 602
31.88444 616
31.90456 624
31.92467 600
31.94478 575
31.9649 593
31.98501 581
32.00513 591
32.02524 650
32.04535 578
32.06547 617
32.08558 597
32.10569 636
32.12581 610
32.14592 615
32.16604 581
32.18615 642
32.20626 597
32.22638 623
32.24649 636
32.2666 629
32.28672 612
32.30683 623
32.32694 625
32.34706 587
32.36717 611
32.38729 608
32.4074 636
32.42751 650
32.44763 640
32.46774 630
32.48785 591
32.50797 638
32.52808 612
32.5482 642
32.56831 657
32.58842 636
32.60854 603
32.62865 613
32.64876 642
32.66888 662
32.68899 651
32.7091 675
32.72922 632
32.74933 662
32.76945 613
32.78956 667
32.80967 694
32.82979 684
32.8499 658
32.87001 658
32.89013 583
32.91024 663
32.93036 698
32.95047 682
32.97058 697
32.9907 660
33.01081 718
33.03092 661
33.05104 708
33.07115 714
33.09127 700
33.11138 722
33.13149 767
33.15161 664
33.17172 722
33.19183 743
33.21195 718
33.23206 714
33.25217 741
33.27229 711
33.2924 763
33.31252 713
33.33263 736
33.35274 809
33.37286 654
33.39297 742
33.41308 717
33.4332 738
33.45331 684
33.47343 736
33.49354 724
33.51365 726
33.53377 709
33.55388 729
33.57399 733
33.59411 731
33.61422 729
33.63434 718
33.65445 741
33.67456 773
33.69468 721
33.71479 726
33.7349 685
33.75502 740
33.77513 756
33.79524 745
33.81536 753
33.83547 725
33.85559 724
33.8757 682
33.89581 703
33.91593 697
33.93604 752
33.95615 734
33.97627 779
33.99638 690
34.0165 727
34.03661 668
34.05672 722
34.07684 731
34.09695 662
34.11706 637
34.13718 642
34.15729 677
34.17741 681
34.19752 688
34.21763 681
34.23775 676
34.25786 712
34.27797 665
34.29809 668
34.3182 664
34.33831 660
34.35843 640
34.37854 657
34.39866 640
34.41877 665
34.43888 689
34.459 708
34.47911 674
34.49922 641
34.51934 626
34.53945 728
34.55957 655
34.57968 639
34.59979 703
34.61991 720
34.64002 677
34.66013 699
34.68025 708
34.70036 709
34.72047 750
34.74059 718
34.7607 717
34.78082 668
34.80093 727
34.82104 734
34.84116 693
34.86127 750
34.88138 748
34.9015 744
34.92161 749
34.94173 678
34.96184 737
34.98195 796
35.00207 749
35.02218 770
35.04229 794
35.06241 697
35.08252 768
35.10264 710
35.12275 713
35.14286 747
35.16298 741
35.18309 695
35.2032 745
35.22332 727
35.24343 766
35.26354 746
35.28366 731
35.30377 719
35.32389 724
35.344 752
35.36411 751
35.38423 686
35.40434 729
35.42445 740
35.44457 777
35.46468 773
35.4848 741
35.50491 813
35.52502 784
35.54514 742
35.56525 786
35.58536 801
35.60548 822
35.62559 782
35.64571 815
35.66582 795
35.68593 793
35.70605 855
35.72616 839
35.74627 833
35.76639 871
35.7865 845
35.80661 888
35.82673 776
35.84684 839
35.86696 828
35.88707 801
35.90718 811
35.9273 830
35.94741 833
35.96752 834
35.98764 863
36.00775 826
36.02787 805
36.04798 811
36.06809 805
36.08821 798
36.10832 752
36.12843 826
36.14855 801
36.16866 803
36.18878 836
36.20889 750
36.229 794
36.24912 820
36.26923 824
36.28934 776
36.30946 759
36.32957 820
36.34968 894
36.3698 897
36.38991 938
36.41003 992
36.43014 982
36.45025 1089
36.47037 1115
36.49048 1115
36.51059 1134
36.53071 1043
36.55082 1032
36.57094 953
36.59105 976
36.61116 882
36.63128 872
36.65139 858
36.6715 802
36.69162 809
36.71173 793
36.73184 807
36.75196 755
36.77207 756
36.79219 782
36.8123 768
36.83241 754
36.85253 744
36.87264 774
36.89275 790
36.91287 762
36.93298 773
36.9531 775
36.97321 765
36.99332 766
37.01344 789
37.03355 801
37.05366 741
37.07378 824
37.09389 794
37.11401 820
37.13412 829
37.15423 830
37.17435 760
37.19446 788
37.21457 765
37.23469 815
37.2548 770
37.27491 753
37.29503 777
37.31514 759
37.33526 791
37.35537 823
37.37548 801
37.3956 839
37.41571 817
37.43582 856
37.45594 803
37.47605 875
37.49617 887
37.51628 836
37.53639 831
37.55651 860
37.57662 853
37.59673 856
37.61685 818
37.63696 820
37.65708 808
37.67719 776
37.6973 842
37.71742 789
37.73753 879
37.75764 773
37.77776 818
37.79787 806
37.81798 805
37.8381 798
37.85821 784
37.87833 718
37.89844 759
37.91855 727
37.93867 701
37.95878 731
37.97889 762
37.99901 778
38.01912 742
38.03924 719
38.05935 768
38.07946 776
38.09958 756
38.11969 726
38.1398 699
38.15992 738
38.18003 743
38.20015 776
38.22026 725
38.24037 735
38.26049 696
38.2806 719
38.30071 683
38.32083 722
38.34094 738
38.36105 737
38.38117 723
38.40128 728
38.4214 736
38.44151 717
38.46162 769
38.48174 694
38.50185 687
38.52196 668
38.54208 686
38.56219 715
38.58231 667
38.60242 707
38.62253 694
38.64265 635
38.66276 657
38.68287 658
38.70299 659
38.7231 625
38.74321 646
38.76333 621
38.78344 664
38.80356 719
38.82367 617
38.84378 652
38.8639 669
38.88401 649
38.90412 672
38.92424 671
38.94435 678
38.96447 673
38.98458 657
39.00469 609
39.02481 673
39.04492 667
39.06503 657
39.08515 642
39.10526 705
39.12538 688
39.14549 683
39.1656 656
39.18572 712
39.20583 649
39.22594 643
39.24606 714
39.26617 708
39.28628 731
39.3064 698
39.32651 821
39.34663 762
39.36674 855
39.38685 951
39.40697 970
39.42708 988
39.44719 968
39.46731 865
39.48742 830
39.50754 834
39.52765 821
39.54776 757
39.56788 710
39.58799 704
39.6081 647
39.62822 676
39.64833 648
39.66845 635
39.68856 651
39.70867 636
39.72879 625
39.7489 599
39.76901 680
39.78913 639
39.80924 604
39.82935 593
39.84947 623
39.86958 597
39.8897 642
39.90981 641
39.92992 640
39.95004 636
39.97015 606
39.99026 636
40.01038 634
40.03049 623
40.05061 641
40.07072 698
40.09083 711
40.11095 719
40.13106 783
40.15117 805
40.17129 742
40.1914 759
40.21152 782
40.23163 808
40.25174 805
40.27186 802
40.29197 723
40.31208 755
40.3322 733
40.35231 668
40.37242 691
40.39254 676
40.41265 693
40.43277 618
40.45288 647
40.47299 641
40.49311 642
40.51322 631
40.53333 685
40.55345 621
40.57356 653
40.59368 652
40.61379 712
40.6339 688
40.65402 613
40.67413 671
40.69424 624
40.71436 683
40.73447 673
40.75458 664
40.7747 651
40.79481 671
40.81493 690
40.83504 649
40.85515 702
40.87527 644
40.89538 675
40.91549 646
40.93561 718
40.95572 665
40.97584 733
40.99595 675
41.01606 699
41.03618 685
41.05629 656
41.0764 667
41.09652 765
41.11663 658
41.13675 651
41.15686 737
41.17697 668
41.19709 656
41.2172 661
41.23731 692
41.25743 719
41.27754 659
41.29765 646
41.31777 747
41.33788 677
41.358 714
41.37811 670
41.39822 706
41.41834 678
41.43845 687
41.45856 698
41.47868 654
41.49879 733
41.51891 598
41.53902 711
41.55913 692
41.57925 672
41.59936 638
41.61947 697
41.63959 732
41.6597 695
41.67982 665
41.69993 643
41.72004 689
41.74016 670
41.76027 702
41.78038 671
41.8005 678
41.82061 726
41.84072 699
41.86084 674
41.88095 687
41.90107 683
41.92118 695
41.94129 695
41.96141 722
41.98152 672
42.00163 667
42.02175 659
42.04186 656
42.06198 703
42.08209 671
42.1022 653
42.12232 658
42.14243 644
42.16254 635
42.18266 656
42.20277 694
42.22289 731
42.243 700
42.26311 662
42.28323 751
42.30334 748
42.32345 755
42.34357 762
42.36368 823
42.38379 825
42.40391 852
42.42402 811
42.44414 779
42.46425 769
42.48436 729
42.50448 747
42.52459 702
42.5447 657
42.56482 642
42.58493 611
42.60505 651
42.62516 626
42.64527 608
42.66539 602
42.6855 614
42.70561 609
42.72573 585
42.74584 615
42.76595 641
42.78607 597
42.80618 658
42.8263 619
42.84641 605
42.86652 613
42.88664 625
42.90675 589
42.92686 592
42.94698 578
42.96709 612
42.98721 592
43.00732 625
43.02743 590
43.04755 584
43.06766 593
43.08777 597
43.10789 590
43.128 586
43.14812 573
43.16823 571
43.18834 586
43.20846 579
43.22857 632
43.24868 630
43.2688 629
43.28891 580
43.30902 600
43.32914 602
43.34925 590
43.36937 571
43.38948 590
43.40959 558
43.42971 571
43.44982 588
43.46993 580
43.49005 628
43.51016 593
43.53028 581
43.55039 629
43.5705 620
43.59062 610
43.61073 561
43.63084 614
43.65096 656
43.67107 609
43.69119 563
43.7113 551
43.73141 574
43.75153 592
43.77164 537
43.79175 649
43.81187 607
43.83198 588
43.85209 585
43.87221 621
43.89232 588
43.91244 615
43.93255 534
43.95266 619
43.97278 586
43.99289 593
44.013 637
44.03312 595
44.05323 609
44.07335 628
44.09346 625
44.11357 623
44.13369 652
44.1538 652
44.17391 647
44.19403 666
44.21414 602
44.23426 611
44.25437 623
44.27448 636
44.2946 570
44.31471 635
44.33482 633
44.35494 603
44.37505 593
44.39516 657
44.41528 588
44.43539 614
44.45551 582
44.47562 600
44.49573 615
44.51585 577
44.53596 553
44.55607 578
44.57619 604
44.5963 617
44.61642 607
44.63653 555
44.65664 593
44.67676 582
44.69687 600
44.71698 534
44.7371 583
44.75721 631
44.77732 617
44.79744 586
44.81755 599
44.83767 620
44.85778 587
44.87789 590
44.89801 595
44.91812 571
44.93823 620
44.95835 581
44.97846 570
44.99858 559
45.01869 651
45.0388 604
45.05892 591
45.07903 547
45.09914 630
45.11926 597
45.13937 625
45.15949 600
45.1796 614
45.19971 554
45.21983 629
45.23994 621
45.26005 629
45.28017 634
45.30028 632
45.32039 618
45.34051 613
45.36062 597
45.38074 620
45.40085 605
45.42096 620
45.44108 616
45.46119 612
45.4813 609
45.50142 635
45.52153 632
45.54165 615
45.56176 627
45.58187 628
45.60199 641
45.6221 678
45.64221 733
45.66233 689
45.68244 752
45.70256 712
45.72267 730
45.74278 723
45.7629 741
45.78301 741
45.80312 733
45.82324 647
45.84335 637
45.86346 698
45.88358 701
45.90369 573
45.92381 623
45.94392 588
45.96403 597
45.98415 629
46.00426 610
46.02437 602
46.04449 567
46.0646 547
46.08472 596
46.10483 581
46.12494 607
46.14506 603
46.16517 552
46.18528 569
46.2054 529
46.22551 582
46.24563 562
46.26574 615
46.28585 572
46.30597 574
46.32608 594
46.34619 545
46.36631 582
46.38642 548
46.40653 573
46.42665 600
46.44676 572
46.46688 567
46.48699 572
46.5071 592
46.52722 617
46.54733 572
46.56744 514
46.58756 570
46.60767 596
46.62779 545
46.6479 584
46.66801 595
46.68813 575
46.70824 558
46.72835 576
46.74847 561
46.76858 530
46.78869 577
46.80881 555
46.82892 555
46.84904 555
46.86915 597
46.88926 574
46.90938 525
46.92949 569
46.9496 600
46.96972 572
46.98983 525
47.00995 579
47.03006 586
47.05017 581
47.07029 507
47.0904 598
47.11051 554
47.13063 575
47.15074 567
47.17086 588
47.19097 579
47.21108 558
47.2312 632
47.25131 562
47.27142 561
47.29154 632
47.31165 602
47.33176 558
47.35188 615
47.37199 599
47.39211 559
47.41222 579
47.43233 554
47.45245 602
47.47256 552
47.49267 547
47.51279 533
47.5329 532
47.55302 596
47.57313 577
47.59324 573
47.61336 566
47.63347 595
47.65358 598
47.6737 547
47.69381 574
47.71393 588
47.73404 543
47.75415 586
47.77427 615
47.79438 612
47.81449 583
47.83461 581
47.85472 618
47.87483 608
47.89495 599
47.91506 568
47.93518 589
47.95529 594
47.9754 647
47.99552 582
48.01563 598
48.03574 522
48.05586 590
48.07597 631
48.09609 592
48.1162 581
48.13631 553
48.15643 553
48.17654 577
48.19665 583
48.21677 566
48.23688 571
48.257 524
48.27711 565
48.29722 554
48.31734 600
48.33745 568
48.35756 540
48.37768 585
48.39779 574
48.4179 602
48.43802 598
48.45813 582
48.47825 563
48.49836 589
48.51847 589
48.53859 648
48.5587 619
48.57881 628
48.59893 581
48.61904 610
48.63916 614
48.65927 605
48.67938 656
48.6995 621
48.71961 603
48.73972 625
48.75984 569
48.77995 556
48.80006 622
48.82018 608
48.84029 583
48.86041 591
48.88052 586
48.90063 591
48.92075 619
48.94086 614
48.96097 606
48.98109 574
49.0012 625
49.02132 589
49.04143 612
49.06154 601
49.08166 627
49.10177 621
49.12188 595
49.142 598
49.16211 605
49.18223 566
49.20234 579
49.22245 614
49.24257 558
49.26268 557
49.28279 629
49.30291 637
49.32302 564
49.34313 533
49.36325 599
49.38336 628
49.40348 568
49.42359 621
49.4437 589
49.46382 605
49.48393 581
49.50404 598
49.52416 567
49.54427 549
49.56439 598
49.5845 577
49.60461 604
49.62473 598
49.64484 565
49.66495 617
49.68507 643
49.70518 585
49.7253 619
49.74541 597
49.76552 604
49.78564 633
49.80575 654
49.82586 619
49.84598 614
49.86609 671
49.8862 656
49.90632 680
49.92643 729
49.94655 757
49.96666 827
49.98677 878
50.00689 931
50.027 970
50.04711 1115
50.06723 1078
50.08734 1112
50.10746 1003
50.12757 986
50.14768 882
50.1678 848
50.18791 865
50.20802 854
50.22814 861
50.24825 805
50.26837 710
50.28848 697
50.30859 662
50.32871 622
50.34882 598
50.36893 620
50.38905 660
50.40916 636
50.42927 604
50.44939 588
50.4695 610
50.48962 636
50.50973 630
50.52984 582
50.54996 671
50.57007 597
50.59018 658
50.6103 604
50.63041 614
50.65053 579
50.67064 625
50.69075 664
50.71087 575
50.73098 607
50.75109 544
50.77121 609
50.79132 577
50.81143 608
50.83155 625
50.85166 596
50.87178 597
50.89189 604
50.912 566
50.93212 615
50.95223 589
50.97234 554
50.99246 605
51.01257 579
51.03269 558
51.0528 554
51.07291 596
51.09303 604
51.11314 581
51.13325 558
51.15337 620
51.17348 582
51.1936 561
51.21371 605
51.23382 576
51.25394 579
51.27405 535
51.29416 580
51.31428 585
51.33439 592
51.3545 555
51.37462 616
51.39473 586
51.41485 522
51.43496 526
51.45507 553
51.47519 549
51.4953 584
51.51541 547
51.53553 568
51.55564 578
51.57576 565
51.59587 616
51.61598 592
51.6361 573
51.65621 569
51.67632 552
51.69644 551
51.71655 613
51.73667 583
51.75678 594
51.77689 612
51.79701 532
51.81712 600
51.83723 598
51.85735 572
51.87746 578
51.89757 550
51.91769 564
51.9378 538
51.95792 579
51.97803 604
51.99814 598
52.01826 582
52.03837 593
52.05848 572
52.0786 638
52.09871 555
52.11883 619
52.13894 622
52.15905 581
52.17917 630
52.19928 603
52.21939 649
52.23951 597
52.25962 573
52.27974 597
52.29985 550
52.31996 592
52.34008 599
52.36019 581
52.3803 566
52.40042 568
52.42053 559
52.44064 561
52.46076 575
52.48087 537
52.50099 594
52.5211 586
52.54121 570
52.56133 579
52.58144 586
52.60155 518
52.62167 600
52.64178 555
52.6619 564
52.68201 536
52.70212 577
52.72224 578
52.74235 549
52.76246 537
52.78258 566
52.80269 566
52.8228 570
52.84292 549
52.86303 568
52.88315 526
52.90326 572
52.92337 535
52.94349 551
52.9636 579
52.98371 544
53.00383 552
53.02394 594
53.04406 567
53.06417 546
53.08428 577
53.1044 545
53.12451 580
53.14462 565
53.16474 568
53.18485 584
53.20497 597
53.22508 570
53.24519 594
53.26531 594
53.28542 581
53.30553 546
53.32565 628
53.34576 594
53.36587 629
53.38599 546
53.4061 653
53.42622 573
53.44633 599
53.46644 569
53.48656 594
53.50667 574
53.52678 588
53.5469 617
53.56701 585
53.58713 650
53.60724 608
53.62735 636
53.64747 643
53.66758 663
53.68769 642
53.70781 652
53.72792 648
53.74804 624
53.76815 686
53.78826 721
53.80838 693
53.82849 641
53.8486 676
53.86872 661
53.88883 657
53.90894 645
53.92906 683
53.94917 690
53.96929 683
53.9894 695
54.00951 690
54.02963 698
54.04974 681
54.06985 694
54.08997 687
54.11008 714
54.1302 675
54.15031 707
54.17042 726
54.19054 703
54.21065 749
54.23076 752
54.25088 762
54.27099 768
54.29111 738
54.31122 711
54.33133 733
54.35145 791
54.37156 767
54.39167 720
54.41179 735
54.4319 743
54.45201 750
54.47213 678
54.49224 741
54.51236 742
54.53247 718
54.55258 707
54.5727 713
54.59281 733
54.61292 686
54.63304 756
54.65315 723
54.67327 719
54.69338 683
54.71349 761
54.73361 690
54.75372 810
54.77383 764
54.79395 834
54.81406 795
54.83417 837
54.85429 788
54.8744 802
54.89452 730
54.91463 730
54.93474 810
54.95486 751
54.97497 779
54.99508 705
55.0152 707
55.03531 732
55.05543 661
55.07554 641
55.09565 715
55.11577 684
55.13588 710
55.15599 698
55.17611 702
55.19622 704
55.21634 724
55.23645 728
55.25656 747
55.27668 738
55.29679 656
55.3169 680
55.33702 622
55.35713 682
55.37724 673
55.39736 654
55.41747 717
55.43759 638
55.4577 623
55.47781 646
55.49793 621
55.51804 638
55.53815 651
55.55827 649
55.57838 628
55.5985 607
55.61861 605
55.63872 657
55.65884 605
55.67895 601
55.69906 564
55.71918 676
55.73929 592
55.75941 595
55.77952 642
55.79963 573
55.81975 558
55.83986 623
55.85997 613
55.88009 619
55.9002 596
55.92031 605
55.94043 554
55.96054 616
55.98066 613
56.00077 588
56.02088 630
56.041 583
56.06111 581
56.08122 613
56.10134 561
56.12145 556
56.14157 595
56.16168 569
56.18179 584
56.20191 563
56.22202 579
56.24213 581
56.26225 600
56.28236 564
56.30248 600
56.32259 582
56.3427 576
56.36282 568
56.38293 550
56.40304 575
56.42316 602
56.44327 570
56.46338 548
56.4835 570
56.50361 607
56.52373 613
56.54384 565
56.56395 594
56.58407 594
56.60418 587
56.62429 568
56.64441 544
56.66452 575
56.68464 585
56.70475 573
56.72486 539
56.74498 562
56.76509 617
56.7852 599
56.80532 547
56.82543 569
56.84554 564
56.86566 528
56.88577 529
56.90589 561
56.926 557
56.94611 544
56.96623 513
56.98634 540
57.00645 577
57.02657 554
57.04668 558
57.0668 596
57.08691 566
57.10702 609
57.12714 549
57.14725 586
57.16736 542
57.18748 576
57.20759 535
57.22771 553
57.24782 562
57.26793 561
57.28805 575
57.30816 562
57.32827 543
57.34839 571
57.3685 543
57.38861 514
57.40873 592
57.42884 615
57.44896 578
57.46907 572
57.48918 560
57.5093 579
57.52941 527
57.54952 573
57.56964 590
57.58975 570
57.60987 571
57.62998 575
57.65009 551
57.67021 586
57.69032 579
57.71043 564
57.73055 561
57.75066 548
57.77078 591
57.79089 557
57.811 573
57.83112 594
57.85123 589
57.87134 569
57.89146 539
57.91157 554
57.93168 544
57.9518 550
57.97191 559
57.99203 550
58.01214 586
58.03225 580
58.05237 590
58.07248 595
58.09259 572
58.11271 542
58.13282 601
58.15294 569
58.17305 548
58.19316 585
58.21328 527
58.23339 564
58.2535 536
58.27362 560
58.29373 592
58.31385 524
58.33396 554
58.35407 579
58.37419 530
58.3943 550
58.41441 519
58.43453 567
58.45464 580
58.47475 588
58.49487 555
58.51498 547
58.5351 549
58.55521 572
58.57532 588
58.59544 528
58.61555 593
58.63566 599
58.65578 576
58.67589 562
58.69601 540
58.71612 537
58.73623 539
58.75635 540
58.77646 549
58.79657 596
58.81669 565
58.8368 555
58.85691 548
58.87703 583
58.89714 572
58.91726 590
58.93737 535
58.95748 557
58.9776 563
58.99771 569
59.01782 547
59.03794 593
59.05805 548
59.07817 544
59.09828 545
59.11839 582
59.13851 611
59.15862 549
59.17873 604
59.19885 577
59.21896 564
59.23908 567
59.25919 532
59.2793 557
59.29942 524
59.31953 561
59.33964 565
59.35976 572
59.37987 584
59.39998 579
59.4201 594
59.44021 589
59.46033 566
59.48044 606
59.50055 563
59.52067 575
59.54078 548
59.56089 573
59.58101 558
59.60112 607
59.62124 562
59.64135 600
59.66146 602
59.68158 595
59.70169 619
59.7218 631
59.74192 713
59.76203 774
59.78215 749
59.80226 745
59.82237 808
59.84249 857
59.8626 886
59.88271 885
59.90283 916
59.92294 813
59.94305 818
59.96317 720
59.98328 744
60.0034 739
60.02351 739
60.04362 710
60.06374 703
60.08385 668
60.10396 637
60.12408 659
60.14419 621
60.16431 622
60.18442 605
60.20453 591
60.22465 587
60.24476 585
60.26487 596
60.28499 561
60.3051 588
60.32522 563
60.34533 570
60.36544 603
60.38556 597
60.40567 588
60.42578 602
60.4459 572
60.46601 559
60.48612 557
60.50624 564
60.52635 532
60.54647 564
60.56658 530
60.58669 553
60.60681 594
60.62692 570
60.64703 558
60.66715 517
60.68726 547
60.70738 534
60.72749 566
60.7476 555
60.76772 553
60.78783 589
60.80794 568
60.82806 552
60.84817 568
60.86828 550
60.8884 523
60.90851 555
60.92863 521
60.94874 513
60.96885 562
60.98897 555
61.00908 552
61.02919 527
61.04931 553
61.06942 548
61.08954 520
61.10965 542
61.12976 570
61.14988 559
61.16999 564
61.1901 509
61.21022 559
61.23033 544
61.25045 553
61.27056 534
61.29067 573
61.31079 547
61.3309 561
61.35101 579
61.37113 577
61.39124 572
61.41135 551
61.43147 536
61.45158 567
61.4717 540
61.49181 562
61.51192 570
61.53204 570
61.55215 561
61.57226 568
61.59238 576
61.61249 599
61.63261 539
61.65272 537
61.67283 610
61.69295 606
61.71306 556
61.73317 598
61.75329 567
61.7734 625
61.79352 521
61.81363 594
61.83374 567
61.85386 595
61.87397 615
61.89408 600
61.9142 631
61.93431 629
61.95442 601
61.97454 581
61.99465 593
62.01477 593
62.03488 590
62.05499 633
62.07511 584
62.09522 614
62.11533 580
62.13545 582
62.15556 638
62.17568 670
62.19579 642
62.2159 653
62.23602 639
62.25613 656
62.27624 651
62.29636 695
62.31647 627
62.33659 602
62.3567 584
62.37681 590
62.39693 652
62.41704 594
62.43715 607
62.45727 646
62.47738 613
62.49749 609
62.51761 568
62.53772 644
62.55784 632
62.57795 598
62.59806 612
62.61818 666
62.63829 604
62.6584 574
62.67852 593
62.69863 597
62.71875 603
62.73886 573
62.75897 612
62.77909 607
62.7992 578
62.81931 630
62.83943 569
62.85954 583
62.87965 612
62.89977 607
62.91988 616
62.94 574
62.96011 577
62.98022 591
63.00034 547
63.02045 603
63.04056 596
63.06068 610
63.08079 540
63.10091 606
63.12102 596
63.14113 587
63.16125 590
63.18136 598
63.20147 647
63.22159 604
63.2417 564
63.26182 564
63.28193 582
63.30204 592
63.32216 620
63.34227 585
63.36238 602
63.3825 567
63.40261 596
63.42272 598
63.44284 614
63.46295 572
63.48307 614
63.50318 599
63.52329 670
63.54341 569
63.56352 635
63.58363 632
63.60375 619
63.62386 648
63.64398 570
63.66409 613
63.6842 645
63.70432 636
63.72443 641
63.74454 602
63.76466 611
63.78477 637
63.80489 658
63.825 624
63.84511 661
63.86523 623
63.88534 666
63.90545 658
63.92557 647
63.94568 660
63.96579 664
63.98591 698
64.00602 632
64.02614 638
64.04625 613
64.06636 637
64.08648 666
64.10659 607
64.1267 628
64.14682 658
64.16693 602
64.18705 590
64.20716 599
64.22727 566
64.24739 574
64.2675 623
64.28761 580
64.30773 653
64.32784 552
64.34796 596
64.36807 589
64.38818 599
64.4083 590
64.42841 615
64.44852 609
64.46864 645
64.48875 567
64.50886 592
64.52898 554
64.54909 589
64.56921 613
64.58932 600
64.60943 622
64.62955 587
64.64966 529
64.66977 581
64.68989 576
64.71 606
64.73012 600
64.75023 573
64.77034 564
64.79046 549
64.81057 551
64.83068 571
64.8508 593
64.87091 601
64.89102 532
64.91114 598
64.93125 592
64.95137 560
64.97148 578
64.99159 541
65.01171 534
65.03182 551
65.05193 572
65.07205 578
65.09216 573
65.11228 580
65.13239 598
65.1525 557
65.17262 566
65.19273 558
65.21284 544
65.23296 560
65.25307 574
65.27319 555
65.2933 554
65.31341 535
65.33353 574
65.35364 576
65.37375 595
65.39387 590
65.41398 536
65.43409 563
65.45421 587
65.47432 560
65.49444 577
65.51455 545
65.53466 538
65.55478 529
65.57489 543
65.595 561
65.61512 541
65.63523 597
65.65535 553
65.67546 601
65.69557 585
65.71569 579
65.7358 548
65.75591 607
65.77603 552
65.79614 590
65.81626 582
65.83637 523
65.85648 558
65.8766 563
65.89671 581
65.91682 540
65.93694 553
65.95705 596
65.97716 534
65.99728 568
66.01739 548
66.03751 575
66.05762 590
66.07773 561
66.09785 569
66.11796 540
66.13807 587
66.15819 575
66.1783 541
66.19842 547
66.21853 528
66.23864 538
66.25876 566
66.27887 555
66.29898 531
66.3191 563
66.33921 571
66.35933 578
66.37944 565
66.39955 587
66.41967 531
66.43978 539
66.45989 583
66.48001 555
66.50012 546
66.52023 546
66.54035 523
66.56046 517
66.58058 547
66.60069 552
66.6208 557
66.64092 526
66.66103 571
66.68114 576
66.70126 549
66.72137 530
66.74149 554
66.7616 507
66.78171 564
66.80183 568
66.82194 515
66.84205 546
66.86217 540
66.88228 538
66.90239 556
66.92251 564
66.94262 552
66.96274 569
66.98285 535
67.00296 506
67.02308 532
67.04319 530
67.0633 507
67.08342 531
67.10353 522
67.12365 548
67.14376 514
67.16387 549
67.18399 521
67.2041 513
67.22421 548
67.24433 542
67.26444 536
67.28456 524
67.30467 512
67.32478 540
67.3449 555
67.36501 551
67.38512 572
67.40524 570
67.42535 570
67.44546 586
67.46558 591
67.48569 587
67.50581 597
67.52592 598
67.54603 596
67.56615 651
67.58626 667
67.60637 660
67.62649 720
67.6466 740
67.66672 697
67.68683 684
67.70694 669
67.72706 690
67.74717 694
67.76728 645
67.7874 638
67.80751 685
67.82763 662
67.84774 649
67.86785 669
67.88797 649
67.90808 694
67.92819 659
67.94831 653
67.96842 734
67.98853 731
68.00865 740
68.02876 771
68.04888 787
68.06899 803
68.0891 740
68.10922 735
68.12933 767
68.14944 744
68.16956 788
68.18967 771
68.20979 772
68.2299 770
68.25001 721
68.27013 725
68.29024 713
68.31035 678
68.33047 628
68.35058 685
68.3707 595
68.39081 577
68.41092 595
68.43104 585
68.45115 612
68.47126 596
68.49138 534
68.51149 548
68.5316 540
68.55172 575
68.57183 545
68.59195 541
68.61206 536
68.63217 543
68.65229 532
68.6724 538
68.69251 548
68.71263 522
68.73274 465
68.75286 578
68.77297 538
68.79308 511
68.8132 531
68.83331 539
68.85342 553
68.87354 554
68.89365 544
68.91376 525
68.93388 532
68.95399 536
68.97411 524
68.99422 498
69.01433 535
69.03445 530
69.05456 529
69.07467 500
69.09479 505
69.1149 497
69.13502 507
69.15513 547
69.17524 512
69.19536 530
69.21547 499
69.23558 529
69.2557 518
69.27581 507
69.29593 499
69.31604 531
69.33615 495
69.35627 467
69.37638 479
69.39649 487
69.41661 567
69.43672 509
69.45683 518
69.47695 505
69.49706 495
69.51718 537
69.53729 534
69.5574 510
69.57752 489
69.59763 524
69.61774 497
69.63786 493
69.65797 533
69.67809 470
69.6982 504
69.71831 522
69.73843 574
69.75854 490
69.77865 508
69.79877 490
69.81888 505
69.839 506
69.85911 531
69.87922 483
69.89934 567
69.91945 516
69.93956 489
69.95968 520
69.97979 515
69.9999 554
70.02002 523
70.04013 496
70.06025 555
70.08036 550
70.10047 513
70.12059 497
70.1407 505
70.16081 518
70.18093 514
70.20104 554
70.22116 497
70.24127 478
70.26138 511
70.2815 493
70.30161 489
70.32172 511
70.34184 533
70.36195 484
70.38207 497
70.40218 515
70.42229 538
70.44241 480
70.46252 514
70.48263 493
70.50275 506
70.52286 522
70.54297 489
70.56309 522
70.5832 503
70.60332 499
70.62343 482
70.64354 497
70.66366 525
70.68377 511
70.70388 479
70.724 498
70.74411 518
70.76423 468
70.78434 523
70.80445 523
70.82457 519
70.84468 504
70.86479 523
70.88491 513
70.90502 514
70.92513 521
70.94525 517
70.96536 520
70.98548 496
71.00559 482
71.0257 522
71.04582 527
71.06593 526
71.08604 483
71.10616 497
71.12627 527
71.14639 466
71.1665 475
71.18661 477
71.20673 506
71.22684 485
71.24695 547
71.26707 517
71.28718 544
71.3073 512
71.32741 507
71.34752 519
71.36764 490
71.38775 496
71.40786 497
71.42798 493
71.44809 562
71.4682 487
71.48832 536
71.50843 511
71.52855 512
71.54866 495
71.56877 510
71.58889 525
71.609 533
71.62911 481
71.64923 529
71.66934 513
71.68946 502
71.70957 499
71.72968 554
71.7498 557
71.76991 503
71.79002 516
71.81014 509
71.83025 497
71.85037 504
71.87048 538
71.89059 486
71.91071 530
71.93082 523
71.95093 501
71.97105 482
71.99116 538
72.01127 477
72.03139 509
72.0515 493
72.07162 499
72.09173 481
72.11184 506
72.13196 516
72.15207 488
72.17218 515
72.1923 518
72.21241 506
72.23253 488
72.25264 502
72.27275 486
72.29287 512
72.31298 497
72.33309 470
72.35321 529
72.37332 512
72.39344 517
72.41355 495
72.43366 486
72.45378 517
72.47389 479
72.494 504
72.51412 487
72.53423 517
72.55434 511
72.57446 500
72.59457 533
72.61469 495
72.6348 497
72.65491 488
72.67503 497
72.69514 494
72.71525 502
72.73537 505
72.75548 509
72.7756 496
72.79571 520
72.81582 512
72.83594 456
72.85605 488
72.87616 494
72.89628 529
72.91639 477
72.9365 508
72.95662 482
72.97673 481
72.99685 523
73.01696 518
73.03707 507
73.05719 514
73.0773 536
73.09741 506
73.11753 506
73.13764 552
73.15776 514
73.17787 545
73.19798 527
73.2181 514
73.23821 503
73.25832 507
73.27844 535
73.29855 532
73.31867 558
73.33878 522
73.35889 541
73.37901 556
73.39912 595
73.41923 564
73.43935 562
73.45946 522
73.47957 568
73.49969 469
73.5198 504
73.53992 520
73.56003 542
73.58014 554
73.60026 535
73.62037 498
73.64048 529
73.6606 524
73.68071 542
73.70083 483
73.72094 513
73.74105 511
73.76117 530
73.78128 492
73.80139 487
73.82151 477
73.84162 480
73.86174 467
73.88185 495
73.90196 511
73.92208 511
73.94219 508
73.9623 466
73.98242 493
74.00253 469
74.02264 495
74.04276 520
74.06287 543
74.08299 510
74.1031 538
74.12321 470
74.14333 449
74.16344 523
74.18355 491
74.20367 463
74.22378 459
74.2439 470
74.26401 508
74.28412 497
74.30424 506
74.32435 505
74.34446 455
74.36458 477
74.38469 500
74.40481 492
74.42492 474
74.44503 468
74.46515 503
74.48526 520
74.50537 546
74.52549 504
74.5456 470
74.56571 473
74.58583 467
74.60594 461
74.62606 501
74.64617 491
74.66628 515
74.6864 481
74.70651 469
74.72662 462
74.74674 491
74.76685 460
74.78697 494
74.80708 485
74.82719 514
74.84731 476
74.86742 496
74.88753 513
74.90765 495
74.92776 472
74.94787 448
74.96799 458
74.9881 497
75.00822 466
