3.00117 20990
3.02128 20961
3.0414 20013
3.06151 19460
3.08162 19009
3.10174 18442
3.12185 18040
3.14197 17357
3.16208 17317
3.18219 16616
3.20231 16123
3.22242 16004
3.24253 15106
3.26265 14799
3.28276 14386
3.30288 13932
3.32299 13372
3.3431 12953
3.36322 12828
3.38333 12267
3.40344 11658
3.42356 11480
3.44367 10950
3.46379 10894
3.4839 10480
3.50401 9947
3.52413 9779
3.54424 9040
3.56435 9214
3.58447 8713
3.60458 8156
3.62469 8137
3.64481 7647
3.66492 7622
3.68504 7329
3.70515 6982
3.72526 6787
3.74538 6391
3.76549 6284
3.7856 6016
3.80572 5779
3.82583 5583
3.84595 5367
3.86606 5222
3.88617 5032
3.90629 4708
3.9264 4599
3.94651 4366
3.96663 4363
3.98674 4102
4.00686 3907
4.02697 3731
4.04708 3514
4.0672 3580
4.08731 3397
4.10742 3245
4.12754 3091
4.14765 3011
4.16776 2860
4.18788 2813
4.20799 2738
4.22811 2597
4.24822 2520
4.26833 2508
4.28845 2443
4.30856 2189
4.32867 2288
4.34879 2145
4.3689 2201
4.38902 2094
4.40913 1903
4.42924 1979
4.44936 1991
4.46947 1871
4.48958 2038
4.5097 1856
4.52981 1815
4.54992 1792
4.57004 1785
4.59015 1674
4.61027 1665
4.63038 1671
4.65049 1594
4.67061 1660
4.69072 1690
4.71083 1490
4.73095 1486
4.75106 1549
4.77118 1423
4.79129 1507
4.8114 1461
4.83152 1372
4.85163 1423
4.87174 1341
4.89186 1404
4.91197 1247
4.93209 1276
4.9522 1229
4.97231 1315
4.99243 1286
5.01254 1228
5.03265 1315
5.05277 1193
5.07288 1186
5.09299 1297
5.11311 1077
5.13322 1100
5.15334 1162
5.17345 1113
5.19356 1105
5.21368 1090
5.23379 988
5.2539 1163
5.27402 1061
5.29413 1124
5.31425 1012
5.33436 1049
5.35447 971
5.37459 933
5.3947 942
5.41481 900
5.43493 946
5.45504 945
5.47516 931
5.49527 901
5.51538 912
5.5355 884
5.55561 927
5.57572 884
5.59584 884
5.61595 863
5.63606 790
5.65618 903
5.67629 866
5.69641 796
5.71652 825
5.73663 832
5.75675 807
5.77686 775
5.79697 852
5.81709 823
5.8372 797
5.85732 836
5.87743 768
5.89754 820
5.91766 756
5.93777 739
5.95788 816
5.978 779
5.99811 874
6.01823 770
6.03834 759
6.05845 794
6.07857 788
6.09868 774
6.11879 767
6.13891 786
6.15902 767
6.17913 730
6.19925 740
6.21936 730
6.23948 770
6.25959 793
6.2797 767
6.29982 760
6.31993 769
6.34004 783
6.36016 719
6.38027 730
6.40039 729
6.4205 782
6.44061 783
6.46073 766
6.48084 731
6.50095 749
6.52107 730
6.54118 778
6.56129 749
6.58141 736
6.60152 769
6.62164 754
6.64175 780
6.66186 795
6.68198 800
6.70209 698
6.7222 772
6.74232 761
6.76243 728
6.78255 746
6.80266 783
6.82277 744
6.84289 728
6.863 747
6.88311 785
6.90323 732
6.92334 754
6.94346 751
6.96357 735
6.98368 754
7.0038 714
7.02391 743
7.04402 717
7.06414 782
7.08425 734
7.10436 704
7.12448 721
7.14459 764
7.16471 696
7.18482 682
7.20493 729
7.22505 768
7.24516 771
7.26527 728
7.28539 720
7.3055 765
7.32562 753
7.34573 763
7.36584 723
7.38596 728
7.40607 731
7.42618 748
7.4463 695
7.46641 734
7.48653 758
7.50664 776
7.52675 731
7.54687 770
7.56698 733
7.58709 697
7.60721 697
7.62732 786
7.64743 739
7.66755 740
7.68766 715
7.70778 770
7.72789 744
7.748 706
7.76812 751
7.78823 751
7.80834 744
7.82846 737
7.84857 749
7.86869 766
7.8888 698
7.90891 714
7.92903 722
7.94914 763
7.96925 712
7.98937 752
8.00948 761
8.0296 750
8.04971 720
8.06982 819
8.08994 735
8.11005 725
8.13016 737
8.15028 723
8.17039 711
8.1905 750
8.21062 787
8.23073 717
8.25085 774
8.27096 690
8.29107 742
8.31119 767
8.3313 754
8.35141 737
8.37153 694
8.39164 724
8.41176 735
8.43187 722
8.45198 733
8.4721 708
8.49221 708
8.51232 734
8.53244 713
8.55255 680
8.57266 761
8.59278 753
8.61289 690
8.63301 771
8.65312 777
8.67323 728
8.69335 750
8.71346 738
8.73357 751
8.75369 766
8.7738 736
8.79392 739
8.81403 756
8.83414 691
8.85426 761
8.87437 778
8.89448 677
8.9146 758
8.93471 734
8.95483 778
8.97494 729
8.99505 765
9.01517 758
9.03528 719
9.05539 746
9.07551 832
9.09562 721
9.11573 686
9.13585 737
9.15596 709
9.17608 735
9.19619 731
9.2163 716
9.23642 749
9.25653 758
9.27664 731
9.29676 786
9.31687 766
9.33699 740
9.3571 756
9.37721 707
9.39733 678
9.41744 754
9.43755 685
9.45767 707
9.47778 786
9.4979 758
9.51801 700
9.53812 782
9.55824 766
9.57835 746
9.59846 723
9.61858 728
9.63869 749
9.6588 729
9.67892 687
9.69903 782
9.71915 711
9.73926 711
9.75937 749
9.77949 757
9.7996 693
9.81971 660
9.83983 708
9.85994 718
9.88006 686
9.90017 730
9.92028 708
9.9404 740
9.96051 756
9.98062 732
10.00074 743
10.02085 780
10.04097 743
10.06108 767
10.08119 756
10.10131 771
10.12142 706
10.14153 719
10.16165 741
10.18176 720
10.20187 699
10.22199 718
10.2421 743
10.26222 705
10.28233 721
10.30244 710
10.32256 737
10.34267 708
10.36278 754
10.3829 722
10.40301 740
10.42313 771
10.44324 729
10.46335 747
10.48347 708
10.50358 746
10.52369 726
10.54381 736
10.56392 729
10.58403 771
10.60415 715
10.62426 714
10.64438 737
10.66449 749
10.6846 779
10.70472 710
10.72483 707
10.74494 664
10.76506 751
10.78517 794
10.80529 757
10.8254 727
10.84551 775
10.86563 761
10.88574 686
10.90585 785
10.92597 759
10.94608 733
10.9662 768
10.98631 713
11.00642 749
11.02654 710
11.04665 697
11.06676 696
11.08688 757
11.10699 750
11.1271 690
11.14722 748
11.16733 721
11.18745 728
11.20756 717
11.22767 700
11.24779 697
11.2679 736
11.28801 746
11.30813 685
11.32824 727
11.34836 695
11.36847 751
11.38858 817
11.4087 693
11.42881 760
11.44892 703
11.46904 730
11.48915 742
11.50927 730
11.52938 696
11.54949 727
11.56961 760
11.58972 777
11.60983 757
11.62995 765
11.65006 778
11.67017 718
11.69029 729
11.7104 745
11.73052 769
11.75063 744
11.77074 777
11.79086 754
11.81097 733
11.83108 750
11.8512 792
11.87131 757
11.89143 743
11.91154 740
11.93165 771
11.95177 820
11.97188 710
11.99199 745
12.01211 790
12.03222 801
12.05234 754
12.07245 810
12.09256 802
12.11268 779
12.13279 829
12.1529 786
12.17302 823
12.19313 805
12.21324 881
12.23336 780
12.25347 816
12.27359 837
12.2937 866
12.31381 843
12.33393 824
12.35404 836
12.37415 809
12.39427 882
12.41438 793
12.4345 811
12.45461 793
12.47472 778
12.49484 769
12.51495 790
12.53506 740
12.55518 765
12.57529 759
12.5954 784
12.61552 719
12.63563 741
12.65575 707
12.67586 777
12.69597 732
12.71609 729
12.7362 717
12.75631 705
12.77643 709
12.79654 732
12.81666 745
12.83677 818
12.85688 758
12.877 721
12.89711 728
12.91722 737
12.93734 756
12.95745 747
12.97757 699
12.99768 732
13.01779 744
13.03791 756
13.05802 751
13.07813 768
13.09825 705
13.11836 758
13.13847 721
13.15859 741
13.1787 699
13.19882 743
13.21893 746
13.23904 743
13.25916 717
13.27927 735
13.29938 681
13.3195 799
13.33961 746
13.35973 764
13.37984 721
13.39995 739
13.42007 751
13.44018 695
13.46029 758
13.48041 673
13.50052 729
13.52064 712
13.54075 750
13.56086 744
13.58098 713
13.60109 727
13.6212 705
13.64132 744
13.66143 726
13.68154 721
13.70166 724
13.72177 723
13.74189 749
13.762 717
13.78211 727
13.80223 724
13.82234 731
13.84245 797
13.86257 724
13.88268 762
13.9028 739
13.92291 710
13.94302 715
13.96314 734
13.98325 751
14.00336 731
14.02348 759
14.04359 679
14.06371 747
14.08382 795
14.10393 714
14.12405 762
14.14416 750
14.16427 776
14.18439 772
14.2045 784
14.22461 772
14.24473 700
14.26484 786
14.28496 739
14.30507 716
14.32518 720
14.3453 714
14.36541 753
14.38552 715
14.40564 759
14.42575 728
14.44587 738
14.46598 698
14.48609 814
14.50621 803
14.52632 750
14.54643 685
14.56655 723
14.58666 713
14.60677 727
14.62689 746
14.647 735
14.66712 718
14.68723 720
14.70734 737
14.72746 729
14.74757 716
14.76768 736
14.7878 741
14.80791 749
14.82803 715
14.84814 733
14.86825 771
14.88837 749
14.90848 737
14.92859 740
14.94871 711
14.96882 751
14.98894 727
15.00905 742
15.02916 745
15.04928 742
15.06939 756
15.0895 743
15.10962 743
15.12973 770
15.14984 732
15.16996 751
15.19007 677
15.21019 751
15.2303 721
15.25041 699
15.27053 812
15.29064 723
15.31075 755
15.33087 746
15.35098 635
15.3711 729
15.39121 737
15.41132 772
15.43144 718
15.45155 770
15.47166 794
15.49178 765
15.51189 709
15.53201 758
15.55212 742
15.57223 782
15.59235 714
15.61246 727
15.63257 730
15.65269 753
15.6728 763
15.69291 692
15.71303 727
15.73314 740
15.75326 771
15.77337 754
15.79348 769
15.8136 734
15.83371 766
15.85382 726
15.87394 728
15.89405 744
15.91417 748
15.93428 698
15.95439 711
15.97451 720
15.99462 771
16.01473 750
16.03485 741
16.05496 736
16.07508 707
16.09519 751
16.1153 763
16.13542 757
16.15553 754
16.17564 754
16.19576 775
16.21587 751
16.23598 736
16.2561 761
16.27621 779
16.29633 759
16.31644 733
16.33655 772
16.35667 741
16.37678 745
16.39689 755
16.41701 714
16.43712 791
16.45724 717
16.47735 746
16.49746 779
16.51758 766
16.53769 725
16.5578 769
16.57792 760
16.59803 715
16.61814 727
16.63826 711
16.65837 806
16.67849 737
16.6986 757
16.71871 742
16.73883 717
16.75894 722
16.77905 764
16.79917 723
16.81928 707
16.8394 749
16.85951 743
16.87962 684
16.89974 754
16.91985 739
16.93996 778
16.96008 799
16.98019 813
17.00031 723
17.02042 759
17.04053 754
17.06065 774
17.08076 777
17.10087 768
17.12099 760
17.1411 763
17.16121 778
17.18133 727
17.20144 758
17.22156 768
17.24167 813
17.26178 743
17.2819 735
17.30201 738
17.32212 772
17.34224 774
17.36235 770
17.38247 782
17.40258 781
17.42269 712
17.44281 783
17.46292 746
17.48303 776
17.50315 782
17.52326 779
17.54338 775
17.56349 767
17.5836 813
17.60372 793
17.62383 788
17.64394 852
17.66406 878
17.68417 841
17.70428 790
17.7244 828
17.74451 854
17.76463 851
17.78474 860
17.80485 849
17.82497 749
17.84508 843
17.86519 873
17.88531 817
17.90542 814
17.92554 827
17.94565 847
17.96576 886
17.98588 908
18.00599 895
18.0261 875
18.04622 1003
18.06633 936
18.08645 971
18.10656 1081
18.12667 1177
18.14679 1328
18.1669 1655
18.18701 1898
18.20713 2488
18.22724 3109
18.24735 3611
18.26747 4021
18.28758 4280
18.3077 3968
18.32781 3364
18.34792 2742
18.36804 2088
18.38815 1628
18.40826 1221
18.42838 1138
18.44849 1015
18.46861 961
18.48872 923
18.50883 876
18.52895 866
18.54906 854
18.56917 875
18.58929 851
18.6094 839
18.62951 816
18.64963 837
18.66974 802
18.68986 776
18.70997 813
18.73008 827
18.7502 845
18.77031 808
18.79042 820
18.81054 829
18.83065 766
18.85077 774
18.87088 788
18.89099 771
18.91111 794
18.93122 772
18.95133 919
18.97145 810
18.99156 772
19.01168 792
19.03179 789
19.0519 773
19.07202 778
19.09213 786
19.11224 754
19.13236 813
19.15247 749
19.17258 842
19.1927 796
19.21281 761
19.23293 750
19.25304 819
19.27315 751
19.29327 764
19.31338 760
19.33349 773
19.35361 770
19.37372 784
19.39384 755
19.41395 803
19.43406 769
19.45418 769
19.47429 777
19.4944 772
19.51452 785
19.53463 799
19.55475 828
19.57486 806
19.59497 803
19.61509 794
19.6352 805
19.65531 798
19.67543 800
19.69554 816
19.71565 803
19.73577 866
19.75588 837
19.776 852
19.79611 861
19.81622 861
19.83634 856
19.85645 849
19.87656 910
19.89668 883
19.91679 875
19.93691 901
19.95702 882
19.97713 897
19.99725 884
20.01736 879
20.03747 892
20.05759 897
20.0777 956
20.09782 919
20.11793 1023
20.13804 1092
20.15816 1259
20.17827 1295
20.19838 1544
20.2185 1686
20.23861 1894
20.25872 1840
20.27884 1902
20.29895 1697
20.31907 1595
20.33918 1477
20.35929 1345
20.37941 1181
20.39952 1222
20.41963 1184
20.43975 1258
20.45986 1325
20.47998 1382
20.50009 1366
20.5202 1323
20.54032 1200
20.56043 1260
20.58054 1187
20.60066 1126
20.62077 1025
20.64088 1018
20.661 965
20.68111 950
20.70123 966
20.72134 1020
20.74145 985
20.76157 1021
20.78168 1052
20.80179 1013
20.82191 1051
20.84202 1163
20.86214 1073
20.88225 1132
20.90236 1014
20.92248 1093
20.94259 1014
20.9627 1019
20.98282 1061
21.00293 1006
21.02305 984
21.04316 1023
21.06327 993
21.08339 1022
21.1035 1036
21.12361 1049
21.14373 1170
21.16384 1099
21.18395 1221
21.20407 1179
21.22418 1198
21.2443 1236
21.26441 1193
21.28452 1210
21.30464 1241
21.32475 1243
21.34486 1210
21.36498 1197
21.38509 1225
21.40521 1220
21.42532 1194
21.44543 1134
21.46555 1175
21.48566 1162
21.50577 1059
21.52589 1120
21.546 1034
21.56612 1103
21.58623 999
21.60634 1017
21.62646 1048
21.64657 976
21.66668 952
21.6868 982
21.70691 1003
21.72702 988
21.74714 939
21.76725 987
21.78737 899
21.80748 889
21.82759 876
21.84771 949
21.86782 863
21.88793 876
21.90805 953
21.92816 911
21.94828 894
21.96839 855
21.9885 883
22.00862 863
22.02873 826
22.04884 859
22.06896 871
22.08907 808
22.10919 806
22.1293 860
22.14941 866
22.16953 849
22.18964 805
22.20975 820
22.22987 809
22.24998 767
22.27009 832
22.29021 804
22.31032 822
22.33044 809
22.35055 866
22.37066 799
22.39078 786
22.41089 792
22.431 830
22.45112 794
22.47123 824
22.49135 787
22.51146 788
22.53157 784
22.55169 770
22.5718 780
22.59191 778
22.61203 832
22.63214 806
22.65225 792
22.67237 793
22.69248 838
22.7126 823
22.73271 779
22.75282 824
22.77294 787
22.79305 760
22.81316 794
22.83328 797
22.85339 831
22.87351 807
22.89362 783
22.91373 774
22.93385 790
22.95396 775
22.97407 816
22.99419 838
23.0143 760
23.03442 798
23.05453 806
23.07464 796
23.09476 807
23.11487 792
23.13498 804
23.1551 814
23.17521 811
23.19532 794
23.21544 767
23.23555 745
23.25567 765
23.27578 801
23.29589 767
23.31601 724
23.33612 790
23.35623 765
23.37635 824
23.39646 738
23.41658 759
23.43669 803
23.4568 851
23.47692 789
23.49703 822
23.51714 795
23.53726 738
23.55737 808
23.57749 800
23.5976 826
23.61771 767
23.63783 808
23.65794 781
23.67805 787
23.69817 840
23.71828 856
23.73839 834
23.75851 804
23.77862 858
23.79874 809
23.81885 913
23.83896 888
23.85908 907
23.87919 874
23.8993 877
23.91942 836
23.93953 843
23.95965 815
23.97976 815
23.99987 821
24.01999 869
24.0401 835
24.06021 846
24.08033 842
24.10044 829
24.12056 898
24.14067 848
24.16078 798
24.1809 843
24.20101 861
24.22112 860
24.24124 842
24.26135 826
24.28146 834
24.30158 835
24.32169 878
24.34181 772
24.36192 791
24.38203 784
24.40215 815
24.42226 817
24.44237 769
24.46249 827
24.4826 846
24.50272 764
24.52283 849
24.54294 815
24.56306 786
24.58317 847
24.60328 874
24.6234 797
24.64351 845
24.66362 880
24.68374 844
24.70385 837
24.72397 851
24.74408 879
24.76419 826
24.78431 835
24.80442 848
24.82453 857
24.84465 868
24.86476 862
24.88488 865
24.90499 886
24.9251 824
24.94522 873
24.96533 895
24.98544 851
25.00556 844
25.02567 826
25.04579 826
25.0659 856
25.08601 867
25.10613 856
25.12624 792
25.14635 832
25.16647 791
25.18658 797
25.20669 827
25.22681 787
25.24692 832
25.26704 842
25.28715 816
25.30726 852
25.32738 806
25.34749 767
25.3676 756
25.38772 835
25.40783 790
25.42795 812
25.44806 788
25.46817 797
25.48829 773
25.5084 769
25.52851 825
25.54863 751
25.56874 804
25.58886 800
25.60897 824
25.62908 793
25.6492 808
25.66931 794
25.68942 765
25.70954 822
25.72965 825
25.74976 797
25.76988 786
25.78999 787
25.81011 801
25.83022 755
25.85033 790
25.87045 774
25.89056 820
25.91067 818
25.93079 805
25.9509 774
25.97102 784
25.99113 771
26.01124 794
26.03136 803
26.05147 809
26.07158 804
26.0917 815
26.11181 872
26.13193 810
26.15204 817
26.17215 791
26.19227 817
26.21238 824
26.23249 830
26.25261 844
26.27272 809
26.29283 814
26.31295 884
26.33306 941
26.35318 861
26.37329 921
26.3934 949
26.41352 943
26.43363 1000
26.45374 1019
26.47386 996
26.49397 1068
26.51409 1151
26.5342 1257
26.55431 1308
26.57443 1554
26.59454 1572
26.61465 1578
26.63477 1545
26.65488 1418
26.67499 1289
26.69511 1152
26.71522 1078
26.73534 1010
26.75545 974
26.77556 961
26.79568 971
26.81579 1018
26.8359 997
26.85602 1055
26.87613 1010
26.89625 1018
26.91636 1001
26.93647 891
26.95659 942
26.9767 947
26.99681 844
27.01693 912
27.03704 909
27.05716 881
27.07727 843
27.09738 812
27.1175 788
27.13761 813
27.15772 773
27.17784 776
27.19795 845
27.21806 762
27.23818 811
27.25829 777
27.27841 777
27.29852 818
27.31863 779
27.33875 771
27.35886 777
27.37897 760
27.39909 823
27.4192 821
27.43932 764
27.45943 787
27.47954 774
27.49966 789
27.51977 740
27.53988 770
27.56 789
27.58011 787
27.60023 750
27.62034 797
27.64045 790
27.66057 790
27.68068 806
27.70079 811
27.72091 784
27.74102 843
27.76113 889
27.78125 818
27.80136 801
27.82148 837
27.84159 836
27.8617 817
27.88182 887
27.90193 869
27.92204 887
27.94216 887
27.96227 959
27.98239 938
28.0025 914
28.02261 847
28.04273 881
28.06284 877
28.08295 850
28.10307 840
28.12318 782
28.1433 816
28.16341 792
28.18352 762
28.20364 770
28.22375 765
28.24386 802
28.26398 765
28.28409 723
28.3042 813
28.32432 762
28.34443 786
28.36455 838
28.38466 785
28.40477 751
28.42489 760
28.445 741
28.46511 757
28.48523 738
28.50534 786
28.52546 826
28.54557 809
28.56568 787
28.5858 778
28.60591 777
28.62602 811
28.64614 860
28.66625 846
28.68636 846
28.70648 855
28.72659 834
28.74671 834
28.76682 816
28.78693 839
28.80705 807
28.82716 784
28.84727 757
28.86739 781
28.8875 769
28.90762 806
28.92773 787
28.94784 777
28.96796 740
28.98807 745
29.00818 729
29.0283 729
29.04841 726
29.06853 713
29.08864 778
29.10875 709
29.12887 766
29.14898 806
29.16909 747
29.18921 769
29.20932 764
29.22943 812
29.24955 747
29.26966 755
29.28978 801
29.30989 714
29.33 759
29.35012 752
29.37023 762
29.39034 750
29.41046 742
29.43057 773
29.45069 728
29.4708 788
29.49091 763
29.51103 795
29.53114 810
29.55125 764
29.57137 834
29.59148 743
29.6116 772
29.63171 822
29.65182 720
29.67194 791
29.69205 776
29.71216 767
29.73228 762
29.75239 716
29.7725 789
29.79262 772
29.81273 777
29.83285 745
29.85296 799
29.87307 792
29.89319 739
29.9133 797
29.93341 799
29.95353 824
29.97364 788
29.99376 785
30.01387 793
30.03398 840
30.0541 782
30.07421 830
30.09432 859
30.11444 794
30.13455 831
30.15467 754
30.17478 767
30.19489 818
30.21501 802
30.23512 757
30.25523 775
30.27535 769
30.29546 765
30.31557 761
30.33569 763
30.3558 797
30.37592 746
30.39603 792
30.41614 814
30.43626 785
30.45637 794
30.47648 806
30.4966 753
30.51671 757
30.53683 764
30.55694 733
30.57705 767
30.59717 734
30.61728 741
30.63739 788
30.65751 747
30.67762 767
30.69773 750
30.71785 733
30.73796 818
30.75808 779
30.77819 776
30.7983 793
30.81842 830
30.83853 772
30.85864 725
30.87876 795
30.89887 770
30.91899 756
30.9391 777
30.95921 738
30.97933 771
30.99944 758
31.01955 777
31.03967 743
31.05978 726
31.0799 735
31.10001 757
31.12012 711
31.14024 740
31.16035 739
31.18046 787
31.20058 769
31.22069 771
31.2408 777
31.26092 771
31.28103 824
31.30115 779
31.32126 771
31.34137 746
31.36149 767
31.3816 803
31.40171 797
31.42183 749
31.44194 805
31.46206 729
31.48217 787
31.50228 752
31.5224 778
31.54251 806
31.56262 712
31.58274 769
31.60285 793
31.62297 826
31.64308 784
31.66319 751
31.68331 739
31.70342 812
31.72353 750
31.74365 782
31.76376 830
31.78387 767
31.80399 745
31.8241 760
31.84422 743
31.86433 763
31.88444 791
31.90456 804
31.92467 807
31.94478 742
31.9649 765
31.98501 756
32.00513 751
32.02524 724
32.04535 773
32.06547 819
32.08558 757
32.10569 824
32.12581 799
32.14592 805
32.16604 810
32.18615 817
32.20626 796
32.22638 826
32.24649 828
32.2666 787
32.28672 830
32.30683 828
32.32694 845
32.34706 818
32.36717 754
32.38729 851
32.4074 853
32.42751 912
32.44763 917
32.46774 887
32.48785 942
32.50797 1001
32.52808 982
32.5482 904
32.56831 950
32.58842 971
32.60854 938
32.62865 974
32.64876 992
32.66888 942
32.68899 977
32.7091 898
32.72922 925
32.74933 931
32.76945 919
32.78956 932
32.80967 887
32.82979 835
32.8499 890
32.87001 854
32.89013 905
32.91024 893
32.93036 957
32.95047 872
32.97058 954
32.9907 934
33.01081 999
33.03092 1048
33.05104 1021
33.07115 1048
33.09127 1090
33.11138 1071
33.13149 1073
33.15161 1025
33.17172 1036
33.19183 1023
33.21195 1029
33.23206 1026
33.25217 994
33.27229 958
33.2924 977
33.31252 932
33.33263 928
33.35274 943
33.37286 1000
33.39297 967
33.41308 930
33.4332 899
33.45331 962
33.47343 909
33.49354 903
33.51365 902
33.53377 937
33.55388 892
33.57399 929
33.59411 948
33.61422 899
33.63434 920
33.65445 893
33.67456 917
33.69468 856
33.71479 910
33.7349 853
33.75502 943
33.77513 876
33.79524 941
33.81536 893
33.83547 903
33.85559 873
33.8757 903
33.89581 933
33.91593 840
33.93604 829
33.95615 806
33.97627 858
33.99638 821
34.0165 877
34.03661 828
34.05672 838
34.07684 810
34.09695 884
34.11706 870
34.13718 789
34.15729 805
34.17741 781
34.19752 816
34.21763 822
34.23775 842
34.25786 831
34.27797 848
34.29809 906
34.3182 845
34.33831 842
34.35843 819
34.37854 723
34.39866 849
34.41877 865
34.43888 794
34.459 827
34.47911 806
34.49922 799
34.51934 846
34.53945 822
34.55957 810
34.57968 798
34.59979 849
34.61991 839
34.64002 841
34.66013 843
34.68025 844
34.70036 835
34.72047 811
34.74059 810
34.7607 903
34.78082 842
34.80093 835
34.82104 915
34.84116 860
34.86127 891
34.88138 938
34.9015 902
34.92161 875
34.94173 906
34.96184 923
34.98195 895
35.00207 895
35.02218 892
35.04229 935
35.06241 994
35.08252 920
35.10264 941
35.12275 945
35.14286 963
35.16298 953
35.18309 1014
35.2032 1033
35.22332 1083
35.24343 1063
35.26354 1093
35.28366 1142
35.30377 1086
35.32389 1177
35.344 1162
35.36411 1105
35.38423 1167
35.40434 1173
35.42445 1145
35.44457 1123
35.46468 1127
35.4848 1117
35.50491 1147
35.52502 1121
35.54514 1128
35.56525 1056
35.58536 1096
35.60548 1099
35.62559 1064
35.64571 1085
35.66582 1052
35.68593 1011
35.70605 1060
35.72616 992
35.74627 1031
35.76639 1013
35.7865 968
35.80661 958
35.82673 924
35.84684 946
35.86696 983
35.88707 910
35.90718 967
35.9273 866
35.94741 893
35.96752 943
35.98764 983
36.00775 919
36.02787 916
36.04798 873
36.06809 898
36.08821 906
36.10832 889
36.12843 894
36.14855 856
36.16866 935
36.18878 902
36.20889 940
36.229 940
36.24912 943
36.26923 1027
36.28934 1057
36.30946 1068
36.32957 1059
36.34968 1093
36.3698 1107
36.38991 1118
36.41003 1106
36.43014 1076
36.45025 1098
36.47037 1233
36.49048 1254
36.51059 1148
36.53071 1188
36.55082 1233
36.57094 1217
36.59105 1292
36.61116 1239
36.63128 1233
36.65139 1153
36.6715 1182
36.69162 1203
36.71173 1142
36.73184 1085
36.75196 1057
36.77207 1025
36.79219 1021
36.8123 1063
36.83241 1071
36.85253 1068
36.87264 1044
36.89275 1042
36.91287 1072
36.93298 1139
36.9531 1106
36.97321 1136
36.99332 1188
37.01344 1214
37.03355 1188
37.05366 1205
37.07378 1186
37.09389 1132
37.11401 1219
37.13412 1121
37.15423 1150
37.17435 1155
37.19446 1115
37.21457 1157
37.23469 1029
37.2548 1063
37.27491 1034
37.29503 1025
37.31514 1022
37.33526 1008
37.35537 1065
37.37548 976
37.3956 1008
37.41571 982
37.43582 1039
37.45594 1055
37.47605 1027
37.49617 1014
37.51628 1076
37.53639 1166
37.55651 1208
37.57662 1192
37.59673 1212
37.61685 1253
37.63696 1212
37.65708 1193
37.67719 1139
37.6973 1142
37.71742 1088
37.73753 1067
37.75764 953
37.77776 979
37.79787 1043
37.81798 945
37.8381 914
37.85821 892
37.87833 939
37.89844 886
37.91855 910
37.93867 845
37.95878 816
37.97889 852
37.99901 858
38.01912 897
38.03924 837
38.05935 858
38.07946 845
38.09958 844
38.11969 816
38.1398 861
38.15992 835
38.18003 881
38.20015 843
38.22026 876
38.24037 824
38.26049 901
38.2806 824
38.30071 786
38.32083 809
38.34094 869
38.36105 866
38.38117 830
38.40128 852
38.4214 791
38.44151 904
38.46162 858
38.48174 866
38.50185 870
38.52196 872
38.54208 829
38.56219 802
38.58231 822
38.60242 813
38.62253 815
38.64265 889
38.66276 861
38.68287 763
38.70299 786
38.7231 867
38.74321 812
38.76333 858
38.78344 783
38.80356 833
38.82367 809
38.84378 848
38.8639 813
38.88401 848
38.90412 791
38.92424 807
38.94435 806
38.96447 797
38.98458 830
39.00469 870
39.02481 829
39.04492 878
39.06503 806
39.08515 784
39.10526 852
39.12538 804
39.14549 861
39.1656 948
39.18572 915
39.20583 867
39.22594 888
39.24606 920
39.26617 902
39.28628 868
39.3064 913
39.32651 844
39.34663 909
39.36674 868
39.38685 906
39.40697 956
39.42708 882
39.44719 898
39.46731 872
39.48742 801
39.50754 852
39.52765 863
39.54776 815
39.56788 846
39.58799 820
39.6081 831
39.62822 803
39.64833 859
39.66845 816
39.68856 800
39.70867 805
39.72879 859
39.7489 851
39.76901 822
39.78913 883
39.80924 838
39.82935 836
39.84947 800
39.86958 850
39.8897 877
39.90981 869
39.92992 830
39.95004 925
39.97015 898
39.99026 890
40.01038 892
40.03049 911
40.05061 943
40.07072 1006
40.09083 968
40.11095 923
40.13106 930
40.15117 948
40.17129 989
40.1914 947
40.21152 978
40.23163 956
40.25174 942
40.27186 991
40.29197 975
40.31208 952
40.3322 933
40.35231 936
40.37242 919
40.39254 955
40.41265 933
40.43277 958
40.45288 927
40.47299 947
40.49311 903
40.51322 918
40.53333 890
40.55345 929
40.57356 916
40.59368 925
40.61379 909
40.6339 948
40.65402 877
40.67413 884
40.69424 924
40.71436 920
40.73447 880
40.75458 898
40.7747 868
40.79481 860
40.81493 882
40.83504 892
40.85515 897
40.87527 844
40.89538 931
40.91549 847
40.93561 838
40.95572 916
40.97584 930
40.99595 848
41.01606 888
41.03618 848
41.05629 876
41.0764 883
41.09652 894
41.11663 863
41.13675 878
41.15686 837
41.17697 872
41.19709 894
41.2172 881
41.23731 843
41.25743 850
41.27754 863
41.29765 913
41.31777 884
41.33788 895
41.358 936
41.37811 900
41.39822 874
41.41834 889
41.43845 946
41.45856 967
41.47868 934
41.49879 931
41.51891 980
41.53902 957
41.55913 935
41.57925 992
41.59936 1001
41.61947 997
41.63959 1036
41.6597 1049
41.67982 948
41.69993 968
41.72004 926
41.74016 968
41.76027 947
41.78038 957
41.8005 926
41.82061 972
41.84072 922
41.86084 867
41.88095 856
41.90107 919
41.92118 860
41.94129 872
41.96141 855
41.98152 876
42.00163 806
42.02175 853
42.04186 871
42.06198 839
42.08209 828
42.1022 852
42.12232 806
42.14243 773
42.16254 811
42.18266 787
42.20277 782
42.22289 858
42.243 786
42.26311 834
42.28323 820
42.30334 823
42.32345 778
42.34357 831
42.36368 834
42.38379 798
42.40391 842
42.42402 809
42.44414 833
42.46425 853
42.48436 835
42.50448 786
42.52459 812
42.5447 833
42.56482 791
42.58493 780
42.60505 807
42.62516 770
42.64527 756
42.66539 708
42.6855 771
42.70561 819
42.72573 789
42.74584 825
42.76595 815
42.78607 768
42.80618 787
42.8263 784
42.84641 806
42.86652 788
42.88664 776
42.90675 770
42.92686 792
42.94698 842
42.96709 816
42.98721 783
43.00732 840
43.02743 828
43.04755 801
43.06766 747
43.08777 797
43.10789 799
43.128 824
43.14812 841
43.16823 758
43.18834 806
43.20846 809
43.22857 840
43.24868 751
43.2688 752
43.28891 808
43.30902 771
43.32914 805
43.34925 804
43.36937 841
43.38948 824
43.40959 820
43.42971 760
43.44982 839
43.46993 793
43.49005 820
43.51016 824
43.53028 815
43.55039 751
43.5705 795
43.59062 827
43.61073 753
43.63084 823
43.65096 805
43.67107 759
43.69119 785
43.7113 790
43.73141 828
43.75153 804
43.77164 802
43.79175 803
43.81187 836
43.83198 790
43.85209 795
43.87221 844
43.89232 832
43.91244 856
43.93255 834
43.95266 887
43.97278 874
43.99289 882
44.013 867
44.03312 966
44.05323 983
44.07335 920
44.09346 1019
44.11357 961
44.13369 999
44.1538 999
44.17391 973
44.19403 990
44.21414 940
44.23426 950
44.25437 941
44.27448 914
44.2946 858
44.31471 849
44.33482 841
44.35494 880
44.37505 846
44.39516 833
44.41528 866
44.43539 852
44.45551 812
44.47562 775
44.49573 789
44.51585 832
44.53596 824
44.55607 798
44.57619 838
44.5963 777
44.61642 777
44.63653 791
44.65664 808
44.67676 787
44.69687 813
44.71698 835
44.7371 800
44.75721 814
44.77732 767
44.79744 777
44.81755 797
44.83767 761
44.85778 776
44.87789 781
44.89801 772
44.91812 783
44.93823 820
44.95835 845
44.97846 777
44.99858 769
45.01869 804
45.0388 788
45.05892 812
45.07903 772
45.09914 807
45.11926 764
45.13937 804
45.15949 864
45.1796 827
45.19971 794
45.21983 836
45.23994 891
45.26005 905
45.28017 908
45.30028 918
45.32039 910
45.34051 943
45.36062 919
45.38074 903
45.40085 990
45.42096 914
45.44108 954
45.46119 952
45.4813 880
45.50142 906
45.52153 922
45.54165 848
45.56176 811
45.58187 875
45.60199 873
45.6221 855
45.64221 812
45.66233 861
45.68244 801
45.70256 779
45.72267 818
45.74278 837
45.7629 800
45.78301 775
45.80312 757
45.82324 826
45.84335 787
45.86346 844
45.88358 789
45.90369 788
45.92381 803
45.94392 782
45.96403 835
45.98415 777
46.00426 775
46.02437 797
46.04449 841
46.0646 816
46.08472 835
46.10483 801
46.12494 802
46.14506 779
46.16517 797
46.18528 772
46.2054 772
46.22551 798
46.24563 772
46.26574 788
46.28585 783
46.30597 747
46.32608 744
46.34619 750
46.36631 786
46.38642 804
46.40653 710
46.42665 787
46.44676 740
46.46688 800
46.48699 790
46.5071 736
46.52722 739
46.54733 762
46.56744 772
46.58756 740
46.60767 787
46.62779 752
46.6479 761
46.66801 755
46.68813 762
46.70824 794
46.72835 763
46.74847 740
46.76858 769
46.78869 773
46.80881 744
46.82892 837
46.84904 770
46.86915 813
46.88926 789
46.90938 753
46.92949 801
46.9496 783
46.96972 801
46.98983 789
47.00995 755
47.03006 721
47.05017 771
47.07029 825
47.0904 809
47.11051 843
47.13063 843
47.15074 766
47.17086 827
47.19097 797
47.21108 856
47.2312 870
47.25131 808
47.27142 940
47.29154 870
47.31165 854
47.33176 891
47.35188 874
47.37199 932
47.39211 893
47.41222 823
47.43233 892
47.45245 880
47.47256 885
47.49267 846
47.51279 827
47.5329 792
47.55302 810
47.57313 826
47.59324 776
47.61336 798
47.63347 818
47.65358 804
47.6737 804
47.69381 767
47.71393 830
47.73404 778
47.75415 846
47.77427 810
47.79438 791
47.81449 810
47.83461 798
47.85472 761
47.87483 802
47.89495 780
47.91506 815
47.93518 805
47.95529 769
47.9754 747
47.99552 775
48.01563 796
48.03574 753
48.05586 760
48.07597 774
48.09609 811
48.1162 790
48.13631 752
48.15643 778
48.17654 734
48.19665 751
48.21677 801
48.23688 796
48.257 790
48.27711 764
48.29722 770
48.31734 761
48.33745 720
48.35756 775
48.37768 813
48.39779 763
48.4179 768
48.43802 781
48.45813 784
48.47825 761
48.49836 793
48.51847 758
48.53859 756
48.5587 769
48.57881 811
48.59893 760
48.61904 820
48.63916 818
48.65927 765
48.67938 761
48.6995 797
48.71961 788
48.73972 817
48.75984 788
48.77995 798
48.80006 822
48.82018 803
48.84029 822
48.86041 812
48.88052 777
48.90063 752
48.92075 780
48.94086 739
48.96097 780
48.98109 767
49.0012 749
49.02132 798
49.04143 837
49.06154 753
49.08166 814
49.10177 796
49.12188 810
49.142 791
49.16211 791
49.18223 773
49.20234 746
49.22245 796
49.24257 790
49.26268 739
49.28279 798
49.30291 797
49.32302 777
49.34313 828
49.36325 802
49.38336 916
49.40348 834
49.42359 828
49.4437 816
49.46382 838
49.48393 811
49.50404 786
49.52416 828
49.54427 801
49.56439 826
49.5845 783
49.60461 817
49.62473 764
49.64484 747
49.66495 767
49.68507 796
49.70518 774
49.7253 787
49.74541 772
49.76552 750
49.78564 716
49.80575 817
49.82586 761
49.84598 764
49.86609 781
49.8862 780
49.90632 783
49.92643 777
49.94655 783
49.96666 828
49.98677 816
50.00689 812
50.027 824
50.04711 841
50.06723 831
50.08734 883
50.10746 865
50.12757 809
50.14768 837
50.1678 781
50.18791 800
50.20802 829
50.22814 777
50.24825 818
50.26837 832
50.28848 822
50.30859 833
50.32871 865
50.34882 837
50.36893 874
50.38905 892
50.40916 919
50.42927 892
50.44939 893
50.4695 939
50.48962 944
50.50973 973
50.52984 942
50.54996 896
50.57007 921
50.59018 897
50.6103 917
50.63041 882
50.65053 925
50.67064 878
50.69075 838
50.71087 830
50.73098 850
50.75109 860
50.77121 858
50.79132 876
50.81143 877
50.83155 826
50.85166 817
50.87178 793
50.89189 791
50.912 819
50.93212 784
50.95223 767
50.97234 821
50.99246 834
51.01257 785
51.03269 836
51.0528 849
51.07291 793
51.09303 786
51.11314 799
51.13325 779
51.15337 794
51.17348 870
51.1936 779
51.21371 800
51.23382 790
51.25394 759
51.27405 816
51.29416 807
51.31428 770
51.33439 762
51.3545 785
51.37462 771
51.39473 796
51.41485 799
51.43496 747
51.45507 758
51.47519 794
51.4953 778
51.51541 793
51.53553 755
51.55564 782
51.57576 760
51.59587 773
51.61598 773
51.6361 810
51.65621 752
51.67632 799
51.69644 786
51.71655 750
51.73667 768
51.75678 780
51.77689 801
51.79701 766
51.81712 800
51.83723 803
51.85735 736
51.87746 827
51.89757 783
51.91769 848
51.9378 814
51.95792 845
51.97803 849
51.99814 862
52.01826 860
52.03837 918
52.05848 870
52.0786 863
52.09871 864
52.11883 961
52.13894 891
52.15905 908
52.17917 887
52.19928 854
52.21939 843
52.23951 888
52.25962 850
52.27974 831
52.29985 798
52.31996 823
52.34008 802
52.36019 833
52.3803 851
52.40042 829
52.42053 797
52.44064 836
52.46076 776
52.48087 820
52.50099 782
52.5211 794
52.54121 782
52.56133 720
52.58144 855
52.60155 834
52.62167 751
52.64178 825
52.6619 789
52.68201 837
52.70212 753
52.72224 816
52.74235 765
52.76246 800
52.78258 854
52.80269 777
52.8228 833
52.84292 848
52.86303 837
52.88315 759
52.90326 848
52.92337 830
52.94349 796
52.9636 837
52.98371 862
53.00383 835
53.02394 805
53.04406 843
53.06417 843
53.08428 886
53.1044 842
53.12451 853
53.14462 872
53.16474 872
53.18485 863
53.20497 843
53.22508 860
53.24519 849
53.26531 882
53.28542 849
53.30553 874
53.32565 891
53.34576 903
53.36587 868
53.38599 875
53.4061 899
53.42622 914
53.44633 828
53.46644 872
53.48656 915
53.50667 917
53.52678 899
53.5469 851
53.56701 897
53.58713 923
53.60724 901
53.62735 935
53.64747 899
53.66758 910
53.68769 901
53.70781 930
53.72792 943
53.74804 902
53.76815 978
53.78826 942
53.80838 964
53.82849 946
53.8486 953
53.86872 953
53.88883 975
53.90894 973
53.92906 1022
53.94917 988
53.96929 945
53.9894 1013
54.00951 991
54.02963 955
54.04974 958
54.06985 928
54.08997 1005
54.11008 926
54.1302 968
54.15031 1019
54.17042 952
54.19054 920
54.21065 978
54.23076 980
54.25088 952
54.27099 988
54.29111 983
54.31122 1038
54.33133 943
54.35145 1008
54.37156 978
54.39167 972
54.41179 914
54.4319 1029
54.45201 947
54.47213 1003
54.49224 990
54.51236 884
54.53247 920
54.55258 892
54.5727 885
54.59281 940
54.61292 855
54.63304 863
54.65315 886
54.67327 917
54.69338 876
54.71349 884
54.73361 872
54.75372 835
54.77383 851
54.79395 847
54.81406 862
54.83417 835
54.85429 845
54.8744 827
54.89452 820
54.91463 817
54.93474 821
54.95486 799
54.97497 811
54.99508 788
55.0152 816
55.03531 813
55.05543 769
55.07554 872
55.09565 776
55.11577 791
55.13588 810
55.15599 808
55.17611 768
55.19622 746
55.21634 770
55.23645 780
55.25656 770
55.27668 785
55.29679 825
55.3169 793
55.33702 803
55.35713 794
55.37724 770
55.39736 837
55.41747 812
55.43759 818
55.4577 760
55.47781 807
55.49793 805
55.51804 779
55.53815 797
55.55827 796
55.57838 807
55.5985 764
55.61861 767
55.63872 787
55.65884 776
55.67895 808
55.69906 800
55.71918 778
55.73929 759
55.75941 781
55.77952 827
55.79963 792
55.81975 770
55.83986 777
55.85997 750
55.88009 800
55.9002 809
55.92031 792
55.94043 765
55.96054 751
55.98066 792
56.00077 770
56.02088 750
56.041 790
56.06111 781
56.08122 719
56.10134 762
56.12145 757
56.14157 757
56.16168 780
56.18179 745
56.20191 792
56.22202 808
56.24213 716
56.26225 788
56.28236 732
56.30248 805
56.32259 763
56.3427 783
56.36282 753
56.38293 757
56.40304 759
56.42316 765
56.44327 724
56.46338 836
56.4835 770
56.50361 718
56.52373 707
56.54384 737
56.56395 764
56.58407 748
56.60418 780
56.62429 699
56.64441 742
56.66452 795
56.68464 747
56.70475 761
56.72486 783
56.74498 717
56.76509 756
56.7852 813
56.80532 726
56.82543 766
56.84554 776
56.86566 736
56.88577 738
56.90589 713
56.926 778
56.94611 764
56.96623 760
56.98634 768
57.00645 832
57.02657 776
57.04668 812
57.0668 780
57.08691 727
57.10702 773
57.12714 711
57.14725 731
57.16736 755
57.18748 756
57.20759 773
57.22771 755
57.24782 795
57.26793 768
57.28805 807
57.30816 799
57.32827 714
57.34839 757
57.3685 748
57.38861 800
57.40873 786
57.42884 765
57.44896 746
57.46907 804
57.48918 767
57.5093 737
57.52941 749
57.54952 780
57.56964 758
57.58975 774
57.60987 783
57.62998 755
57.65009 766
57.67021 794
57.69032 762
57.71043 791
57.73055 751
57.75066 803
57.77078 794
57.79089 799
57.811 783
57.83112 812
57.85123 803
57.87134 792
57.89146 819
57.91157 776
57.93168 765
57.9518 785
57.97191 807
57.99203 792
58.01214 774
58.03225 837
58.05237 802
58.07248 800
58.09259 749
58.11271 798
58.13282 770
58.15294 752
58.17305 785
58.19316 763
58.21328 772
58.23339 811
58.2535 815
58.27362 774
58.29373 738
58.31385 717
58.33396 754
58.35407 763
58.37419 796
58.3943 744
58.41441 767
58.43453 804
58.45464 798
58.47475 712
58.49487 796
58.51498 751
58.5351 787
58.55521 733
58.57532 775
58.59544 804
58.61555 775
58.63566 747
58.65578 791
58.67589 700
58.69601 778
58.71612 772
58.73623 763
58.75635 816
58.77646 697
58.79657 749
58.81669 777
58.8368 748
58.85691 711
58.87703 698
58.89714 702
58.91726 724
58.93737 735
58.95748 736
58.9776 692
58.99771 721
59.01782 765
59.03794 754
59.05805 760
59.07817 756
59.09828 807
59.11839 750
59.13851 755
59.15862 704
59.17873 736
59.19885 735
59.21896 744
59.23908 815
59.25919 757
59.2793 755
59.29942 759
59.31953 786
59.33964 755
59.35976 785
59.37987 753
59.39998 773
59.4201 779
59.44021 777
59.46033 771
59.48044 757
59.50055 770
59.52067 742
59.54078 811
59.56089 768
59.58101 748
59.60112 797
59.62124 779
59.64135 802
59.66146 745
59.68158 823
59.70169 773
59.7218 807
59.74192 772
59.76203 808
59.78215 803
59.80226 774
59.82237 768
59.84249 797
59.8626 785
59.88271 790
59.90283 779
59.92294 759
59.94305 775
59.96317 822
59.98328 773
60.0034 775
60.02351 774
60.04362 744
60.06374 820
60.08385 745
60.10396 771
60.12408 776
60.14419 761
60.16431 743
60.18442 759
60.20453 768
60.22465 722
60.24476 727
60.26487 756
60.28499 759
60.3051 748
60.32522 743
60.34533 747
60.36544 754
60.38556 711
60.40567 745
60.42578 750
60.4459 759
60.46601 736
60.48612 737
60.50624 704
60.52635 724
60.54647 687
60.56658 723
60.58669 785
60.60681 674
60.62692 695
60.64703 710
60.66715 708
60.68726 745
60.70738 726
60.72749 719
60.7476 720
60.76772 753
60.78783 704
60.80794 700
60.82806 748
60.84817 694
60.86828 722
60.8884 713
60.90851 733
60.92863 722
60.94874 789
60.96885 757
60.98897 747
61.00908 752
61.02919 688
61.04931 741
61.06942 724
61.08954 715
61.10965 738
61.12976 769
61.14988 737
61.16999 686
61.1901 692
61.21022 704
61.23033 709
61.25045 692
61.27056 663
61.29067 734
61.31079 735
61.3309 768
61.35101 748
61.37113 737
61.39124 747
61.41135 763
61.43147 740
61.45158 752
61.4717 763
61.49181 750
61.51192 801
61.53204 790
61.55215 788
61.57226 775
61.59238 771
61.61249 777
61.63261 778
61.65272 806
61.67283 764
61.69295 802
61.71306 824
61.73317 805
61.75329 745
61.7734 776
61.79352 742
61.81363 769
61.83374 765
61.85386 794
61.87397 800
61.89408 715
61.9142 801
61.93431 768
61.95442 790
61.97454 801
61.99465 821
62.01477 742
62.03488 812
62.05499 792
62.07511 838
62.09522 768
62.11533 799
62.13545 799
62.15556 821
62.17568 836
62.19579 829
62.2159 750
62.23602 840
62.25613 829
62.27624 831
62.29636 823
62.31647 843
62.33659 809
62.3567 801
62.37681 825
62.39693 797
62.41704 865
62.43715 851
62.45727 875
62.47738 817
62.49749 859
62.51761 860
62.53772 790
62.55784 815
62.57795 797
62.59806 859
62.61818 750
62.63829 815
62.6584 768
62.67852 818
62.69863 783
62.71875 813
62.73886 768
62.75897 785
62.77909 747
62.7992 758
62.81931 758
62.83943 744
62.85954 786
62.87965 768
62.89977 749
62.91988 728
62.94 731
62.96011 745
62.98022 776
63.00034 725
63.02045 761
63.04056 709
63.06068 736
63.08079 740
63.10091 724
63.12102 720
63.14113 735
63.16125 730
63.18136 745
63.20147 758
63.22159 728
63.2417 715
63.26182 752
63.28193 728
63.30204 751
63.32216 792
63.34227 791
63.36238 764
63.3825 814
63.40261 768
63.42272 756
63.44284 718
63.46295 792
63.48307 800
63.50318 771
63.52329 800
63.54341 773
63.56352 811
63.58363 839
63.60375 779
63.62386 835
63.64398 813
63.66409 850
63.6842 828
63.70432 818
63.72443 839
63.74454 841
63.76466 829
63.78477 816
63.80489 784
63.825 881
63.84511 848
63.86523 861
63.88534 843
63.90545 860
63.92557 801
63.94568 837
63.96579 793
63.98591 804
64.00602 825
64.02614 789
64.04625 800
64.06636 753
64.08648 793
64.10659 782
64.1267 773
64.14682 783
64.16693 771
64.18705 770
64.20716 795
64.22727 769
64.24739 770
64.2675 779
64.28761 741
64.30773 782
64.32784 749
64.34796 731
64.36807 755
64.38818 764
64.4083 782
64.42841 791
64.44852 774
64.46864 704
64.48875 747
64.50886 773
64.52898 758
64.54909 758
64.56921 780
64.58932 783
64.60943 753
64.62955 752
64.64966 763
64.66977 773
64.68989 791
64.71 766
64.73012 757
64.75023 756
64.77034 712
64.79046 760
64.81057 744
64.83068 757
64.8508 751
64.87091 739
64.89102 706
64.91114 722
64.93125 759
64.95137 699
64.97148 709
64.99159 699
65.01171 742
65.03182 723
65.05193 693
65.07205 703
65.09216 699
65.11228 706
65.13239 757
65.1525 706
65.17262 716
65.19273 690
65.21284 700
65.23296 724
65.25307 750
65.27319 748
65.2933 754
65.31341 662
65.33353 667
65.35364 727
65.37375 714
65.39387 688
65.41398 672
65.43409 721
65.45421 705
65.47432 680
65.49444 729
65.51455 655
65.53466 725
65.55478 699
65.57489 721
65.595 703
65.61512 695
65.63523 684
65.65535 681
65.67546 720
65.69557 667
65.71569 752
65.7358 680
65.75591 708
65.77603 696
65.79614 723
65.81626 707
65.83637 695
65.85648 721
65.8766 724
65.89671 737
65.91682 733
65.93694 748
65.95705 717
65.97716 724
65.99728 752
66.01739 740
66.03751 727
66.05762 719
66.07773 760
66.09785 765
66.11796 779
66.13807 746
66.15819 785
66.1783 746
66.19842 724
66.21853 776
66.23864 698
66.25876 733
66.27887 751
66.29898 719
66.3191 738
66.33921 687
66.35933 675
66.37944 722
66.39955 739
66.41967 740
66.43978 723
66.45989 708
66.48001 744
66.50012 696
66.52023 719
66.54035 697
66.56046 728
66.58058 691
66.60069 798
66.6208 756
66.64092 744
66.66103 760
66.68114 720
66.70126 703
66.72137 704
66.74149 746
66.7616 737
66.78171 722
66.80183 707
66.82194 690
66.84205 702
66.86217 742
66.88228 738
66.90239 691
66.92251 747
66.94262 726
66.96274 713
66.98285 687
67.00296 691
67.02308 722
67.04319 666
67.0633 679
67.08342 707
67.10353 683
67.12365 689
67.14376 728
67.16387 696
67.18399 686
67.2041 698
67.22421 650
67.24433 678
67.26444 696
67.28456 692
67.30467 676
67.32478 671
67.3449 688
67.36501 699
67.38512 664
67.40524 672
67.42535 695
67.44546 697
67.46558 700
67.48569 649
67.50581 691
67.52592 697
67.54603 699
67.56615 705
67.58626 700
67.60637 715
67.62649 714
67.6466 697
67.66672 747
67.68683 707
67.70694 709
67.72706 666
67.74717 691
67.76728 731
67.7874 715
67.80751 703
67.82763 721
67.84774 685
67.86785 690
67.88797 713
67.90808 703
67.92819 662
67.94831 702
67.96842 669
67.98853 678
68.00865 660
68.02876 709
68.04888 704
68.06899 737
68.0891 688
68.10922 695
68.12933 705
68.14944 686
68.16956 728
68.18967 681
68.20979 727
68.2299 671
68.25001 732
68.27013 762
68.29024 717
68.31035 666
68.33047 669
68.35058 664
68.3707 647
68.39081 679
68.41092 703
68.43104 645
68.45115 638
68.47126 676
68.49138 682
68.51149 718
68.5316 654
68.55172 680
68.57183 648
68.59195 740
68.61206 635
68.63217 652
68.65229 698
68.6724 672
68.69251 648
68.71263 710
68.73274 670
68.75286 658
68.77297 698
68.79308 728
68.8132 700
68.83331 697
68.85342 693
68.87354 701
68.89365 701
68.91376 726
68.93388 700
68.95399 712
68.97411 726
68.99422 684
69.01433 698
69.03445 666
69.05456 702
69.07467 691
69.09479 734
69.1149 710
69.13502 690
69.15513 707
69.17524 696
69.19536 691
69.21547 701
69.23558 649
69.2557 681
69.27581 675
69.29593 683
69.31604 712
69.33615 679
69.35627 715
69.37638 664
69.39649 666
69.41661 630
69.43672 677
69.45683 705
69.47695 707
69.49706 655
69.51718 664
69.53729 670
69.5574 683
69.57752 694
69.59763 696
69.61774 630
69.63786 705
69.65797 686
69.67809 658
69.6982 661
69.71831 644
69.73843 707
69.75854 676
69.77865 657
69.79877 696
69.81888 646
69.839 647
69.85911 657
69.87922 669
69.89934 663
69.91945 640
69.93956 675
69.95968 689
69.97979 712
69.9999 635
70.02002 692
70.04013 713
70.06025 657
70.08036 700
70.10047 689
70.12059 660
70.1407 645
70.16081 653
70.18093 682
70.20104 692
70.22116 680
70.24127 615
70.26138 676
70.2815 659
70.30161 701
70.32172 658
70.34184 708
70.36195 630
70.38207 664
70.40218 667
70.42229 667
70.44241 680
70.46252 645
70.48263 652
70.50275 689
70.52286 675
70.54297 678
70.56309 686
70.5832 721
70.60332 677
70.62343 689
70.64354 685
70.66366 678
70.68377 692
70.70388 642
70.724 676
70.74411 656
70.76423 686
70.78434 628
70.80445 652
70.82457 671
70.84468 668
70.86479 691
70.88491 700
70.90502 687
70.92513 681
70.94525 662
70.96536 677
70.98548 662
71.00559 688
71.0257 674
71.04582 634
71.06593 724
71.08604 641
71.10616 645
71.12627 646
71.14639 696
71.1665 621
71.18661 647
71.20673 638
71.22684 652
71.24695 684
71.26707 646
71.28718 651
71.3073 658
71.32741 655
71.34752 676
71.36764 649
71.38775 658
71.40786 656
71.42798 678
71.44809 676
71.4682 685
71.48832 650
71.50843 679
71.52855 647
71.54866 673
71.56877 685
71.58889 693
71.609 669
71.62911 665
71.64923 692
71.66934 632
71.68946 694
71.70957 682
71.72968 693
71.7498 661
71.76991 699
71.79002 637
71.81014 653
71.83025 724
71.85037 656
71.87048 639
71.89059 666
71.91071 647
71.93082 638
71.95093 683
71.97105 675
71.99116 651
72.01127 673
72.03139 647
72.0515 643
72.07162 696
72.09173 666
72.11184 655
72.13196 673
72.15207 661
72.17218 666
72.1923 684
72.21241 645
72.23253 661
72.25264 659
72.27275 641
72.29287 639
72.31298 646
72.33309 671
72.35321 644
72.37332 619
72.39344 630
72.41355 661
72.43366 699
72.45378 611
72.47389 645
72.494 634
72.51412 703
72.53423 640
72.55434 638
72.57446 642
72.59457 599
72.61469 660
72.6348 641
72.65491 654
72.67503 625
72.69514 630
72.71525 622
72.73537 617
72.75548 643
72.7756 630
72.79571 666
72.81582 666
72.83594 658
72.85605 620
72.87616 636
72.89628 690
72.91639 636
72.9365 628
72.95662 623
72.97673 607
72.99685 622
73.01696 611
73.03707 629
73.05719 622
73.0773 704
73.09741 613
73.11753 671
73.13764 638
73.15776 620
73.17787 674
73.19798 645
73.2181 615
73.23821 673
73.25832 588
73.27844 652
73.29855 655
73.31867 611
73.33878 588
73.35889 659
73.37901 643
73.39912 657
73.41923 644
73.43935 634
73.45946 578
73.47957 631
73.49969 634
73.5198 597
73.53992 619
73.56003 620
73.58014 619
73.60026 638
73.62037 595
73.64048 642
73.6606 616
73.68071 600
73.70083 633
73.72094 628
73.74105 626
73.76117 609
73.78128 599
73.80139 620
73.82151 593
73.84162 693
73.86174 615
73.88185 585
73.90196 606
73.92208 617
73.94219 601
73.9623 608
73.98242 630
74.00253 596
74.02264 600
74.04276 620
74.06287 604
74.08299 594
74.1031 619
74.12321 628
74.14333 638
74.16344 618
74.18355 610
74.20367 662
74.22378 626
74.2439 623
74.26401 599
74.28412 640
74.30424 614
74.32435 619
74.34446 612
74.36458 619
74.38469 614
74.40481 602
74.42492 642
74.44503 620
74.46515 630
74.48526 615
74.50537 625
74.52549 638
74.5456 583
74.56571 577
74.58583 596
74.60594 593
74.62606 611
74.64617 604
74.66628 641
74.6864 647
74.70651 673
74.72662 614
74.74674 592
74.76685 644
74.78697 646
74.80708 643
74.82719 625
74.84731 626
74.86742 616
74.88753 658
74.90765 632
74.92776 629
74.94787 594
74.96799 590
74.9881 640
75.00822 659
