3.00117 20725
3.02128 19671
3.0414 19794
3.06151 18584
3.08162 18378
3.10174 17566
3.12185 17301
3.14197 17038
3.16208 16084
3.18219 16025
3.20231 15313
3.22242 14879
3.24253 14504
3.26265 13783
3.28276 13794
3.30288 13506
3.32299 12628
3.3431 12576
3.36322 11956
3.38333 11680
3.40344 11130
3.42356 11015
3.44367 10652
3.46379 9978
3.4839 9553
3.50401 9744
3.52413 9164
3.54424 9209
3.56435 8264
3.58447 8540
3.60458 7918
3.62469 7699
3.64481 7412
3.66492 6981
3.68504 6828
3.70515 6479
3.72526 6214
3.74538 6147
3.76549 5659
3.7856 5535
3.80572 5524
3.82583 5232
3.84595 5052
3.86606 4598
3.88617 4542
3.90629 4346
3.9264 4104
3.94651 4024
3.96663 3701
3.98674 3651
4.00686 3572
4.02697 3399
4.04708 3271
4.0672 2871
4.08731 2906
4.10742 2804
4.12754 2748
4.14765 2712
4.16776 2396
4.18788 2492
4.20799 2342
4.22811 2190
4.24822 2202
4.26833 1949
4.28845 1939
4.30856 1909
4.32867 1872
4.34879 1891
4.3689 1718
4.38902 1728
4.40913 1705
4.42924 1634
4.44936 1607
4.46947 1503
4.48958 1466
4.5097 1517
4.52981 1475
4.54992 1468
4.57004 1325
4.59015 1345
4.61027 1309
4.63038 1339
4.65049 1369
4.67061 1219
4.69072 1222
4.71083 1310
4.73095 1257
4.75106 1180
4.77118 1096
4.79129 1098
4.8114 1035
4.83152 1108
4.85163 988
4.87174 1010
4.89186 910
4.91197 957
4.93209 973
4.9522 850
4.97231 892
4.99243 846
5.01254 879
5.03265 891
5.05277 826
5.07288 850
5.09299 791
5.11311 810
5.13322 796
5.15334 809
5.17345 831
5.19356 747
5.21368 709
5.23379 742
5.2539 666
5.27402 795
5.29413 656
5.31425 652
5.33436 728
5.35447 608
5.37459 614
5.3947 647
5.41481 603
5.43493 613
5.45504 577
5.47516 600
5.49527 564
5.51538 504
5.5355 505
5.55561 513
5.57572 545
5.59584 566
5.61595 520
5.63606 557
5.65618 499
5.67629 543
5.69641 509
5.71652 507
5.73663 543
5.75675 486
5.77686 441
5.79697 469
5.81709 464
5.8372 437
5.85732 480
5.87743 462
5.89754 461
5.91766 462
5.93777 439
5.95788 434
5.978 437
5.99811 436
6.01823 399
6.03834 433
6.05845 415
6.07857 394
6.09868 406
6.11879 398
6.13891 428
6.15902 394
6.17913 481
6.19925 412
6.21936 423
6.23948 429
6.25959 409
6.2797 406
6.29982 421
6.31993 447
6.34004 405
6.36016 440
6.38027 392
6.40039 407
6.4205 378
6.44061 390
6.46073 416
6.48084 414
6.50095 398
6.52107 367
6.54118 387
6.56129 342
6.58141 401
6.60152 385
6.62164 388
6.64175 374
6.66186 396
6.68198 413
6.70209 372
6.7222 405
6.74232 416
6.76243 402
6.78255 395
6.80266 404
6.82277 336
6.84289 390
6.863 362
6.88311 404
6.90323 388
6.92334 385
6.94346 384
6.96357 392
6.98368 371
7.0038 395
7.02391 363
7.04402 376
7.06414 346
7.08425 405
7.10436 351
7.12448 348
7.14459 397
7.16471 377
7.18482 399
7.20493 381
7.22505 369
7.24516 386
7.26527 356
7.28539 394
7.3055 381
7.32562 353
7.34573 381
7.36584 365
7.38596 390
7.40607 386
7.42618 399
7.4463 351
7.46641 345
7.48653 393
7.50664 361
7.52675 336
7.54687 347
7.56698 381
7.58709 355
7.60721 387
7.62732 388
7.64743 397
7.66755 359
7.68766 355
7.70778 340
7.72789 371
7.748 375
7.76812 346
7.78823 356
7.80834 407
7.82846 381
7.84857 379
7.86869 408
7.8888 392
7.90891 362
7.92903 399
7.94914 364
7.96925 382
7.98937 389
8.00948 341
8.0296 386
8.04971 383
8.06982 347
8.08994 376
8.11005 399
8.13016 332
8.15028 377
8.17039 364
8.1905 398
8.21062 363
8.23073 378
8.25085 364
8.27096 410
8.29107 371
8.31119 369
8.3313 363
8.35141 389
8.37153 358
8.39164 398
8.41176 382
8.43187 395
8.45198 387
8.4721 448
8.49221 392
8.51232 389
8.53244 371
8.55255 355
8.57266 403
8.59278 378
8.61289 414
8.63301 398
8.65312 365
8.67323 404
8.69335 394
8.71346 397
8.73357 374
8.75369 375
8.7738 383
8.79392 393
8.81403 397
8.83414 405
8.85426 449
8.87437 392
8.89448 379
8.9146 403
8.93471 395
8.95483 410
8.97494 370
8.99505 429
9.01517 414
9.03528 401
9.05539 399
9.07551 353
9.09562 347
9.11573 359
9.13585 384
9.15596 395
9.17608 360
9.19619 392
9.2163 382
9.23642 386
9.25653 396
9.27664 376
9.29676 401
9.31687 378
9.33699 392
9.3571 384
9.37721 370
9.39733 378
9.41744 361
9.43755 351
9.45767 389
9.47778 372
9.4979 432
9.51801 381
9.53812 367
9.55824 351
9.57835 391
9.59846 402
9.61858 401
9.63869 330
9.6588 376
9.67892 329
9.69903 372
9.71915 389
9.73926 367
9.75937 385
9.77949 398
9.7996 385
9.81971 379
9.83983 392
9.85994 371
9.88006 401
9.90017 401
9.92028 398
9.9404 396
9.96051 352
9.98062 341
10.00074 388
10.02085 398
10.04097 355
10.06108 370
10.08119 389
10.10131 374
10.12142 347
10.14153 399
10.16165 359
10.18176 351
10.20187 361
10.22199 402
10.2421 409
10.26222 394
10.28233 362
10.30244 396
10.32256 389
10.34267 373
10.36278 373
10.3829 378
10.40301 382
10.42313 370
10.44324 372
10.46335 391
10.48347 360
10.50358 402
10.52369 360
10.54381 362
10.56392 358
10.58403 380
10.60415 423
10.62426 350
10.64438 376
10.66449 370
10.6846 378
10.70472 368
10.72483 376
10.74494 374
10.76506 401
10.78517 394
10.80529 381
10.8254 366
10.84551 369
10.86563 386
10.88574 359
10.90585 356
10.92597 396
10.94608 375
10.9662 377
10.98631 370
11.00642 373
11.02654 394
11.04665 389
11.06676 404
11.08688 447
11.10699 397
11.1271 348
11.14722 372
11.16733 395
11.18745 366
11.20756 387
11.22767 367
11.24779 381
11.2679 409
11.28801 374
11.30813 407
11.32824 361
11.34836 374
11.36847 398
11.38858 417
11.4087 403
11.42881 381
11.44892 379
11.46904 380
11.48915 414
11.50927 410
11.52938 426
11.54949 373
11.56961 394
11.58972 411
11.60983 370
11.62995 421
11.65006 380
11.67017 422
11.69029 409
11.7104 389
11.73052 469
11.75063 444
11.77074 417
11.79086 425
11.81097 423
11.83108 436
11.8512 459
11.87131 406
11.89143 439
11.91154 446
11.93165 408
11.95177 495
11.97188 473
11.99199 478
12.01211 522
12.03222 490
12.05234 547
12.07245 540
12.09256 566
12.11268 526
12.13279 568
12.1529 557
12.17302 532
12.19313 575
12.21324 612
12.23336 640
12.25347 691
12.27359 699
12.2937 639
12.31381 629
12.33393 621
12.35404 631
12.37415 605
12.39427 590
12.41438 559
12.4345 536
12.45461 549
12.47472 509
12.49484 547
12.51495 514
12.53506 485
12.55518 480
12.57529 470
12.5954 461
12.61552 472
12.63563 445
12.65575 441
12.67586 423
12.69597 433
12.71609 461
12.7362 414
12.75631 438
12.77643 388
12.79654 370
12.81666 353
12.83677 369
12.85688 371
12.877 378
12.89711 412
12.91722 411
12.93734 395
12.95745 370
12.97757 345
12.99768 369
13.01779 361
13.03791 369
13.05802 345
13.07813 356
13.09825 341
13.11836 369
13.13847 388
13.15859 392
13.1787 404
13.19882 365
13.21893 392
13.23904 367
13.25916 413
13.27927 348
13.29938 369
13.3195 353
13.33961 411
13.35973 347
13.37984 376
13.39995 353
13.42007 347
13.44018 386
13.46029 318
13.48041 352
13.50052 351
13.52064 338
13.54075 366
13.56086 363
13.58098 358
13.60109 354
13.6212 337
13.64132 347
13.66143 321
13.68154 333
13.70166 345
13.72177 301
13.74189 335
13.762 348
13.78211 318
13.80223 391
13.82234 383
13.84245 347
13.86257 322
13.88268 376
13.9028 384
13.92291 361
13.94302 336
13.96314 314
13.98325 327
14.00336 324
14.02348 349
14.04359 350
14.06371 351
14.08382 363
14.10393 368
14.12405 369
14.14416 340
14.16427 322
14.18439 361
14.2045 365
14.22461 322
14.24473 367
14.26484 357
14.28496 331
14.30507 319
14.32518 326
14.3453 334
14.36541 359
14.38552 333
14.40564 378
14.42575 347
14.44587 354
14.46598 383
14.48609 329
14.50621 342
14.52632 367
14.54643 363
14.56655 356
14.58666 356
14.60677 364
14.62689 347
14.647 336
14.66712 361
14.68723 332
14.70734 363
14.72746 377
14.74757 325
14.76768 353
14.7878 350
14.80791 339
14.82803 338
14.84814 331
14.86825 349
14.88837 328
14.90848 299
14.92859 310
14.94871 324
14.96882 328
14.98894 331
15.00905 295
15.02916 321
15.04928 333
15.06939 374
15.0895 352
15.10962 329
15.12973 348
15.14984 352
15.16996 332
15.19007 333
15.21019 338
15.2303 325
15.25041 312
15.27053 332
15.29064 309
15.31075 347
15.33087 336
15.35098 358
15.3711 368
15.39121 316
15.41132 360
15.43144 347
15.45155 338
15.47166 334
15.49178 320
15.51189 348
15.53201 344
15.55212 343
15.57223 355
15.59235 364
15.61246 350
15.63257 360
15.65269 334
15.6728 346
15.69291 303
15.71303 330
15.73314 354
15.75326 328
15.77337 302
15.79348 308
15.8136 373
15.83371 336
15.85382 306
15.87394 326
15.89405 366
15.91417 342
15.93428 327
15.95439 361
15.97451 335
15.99462 342
16.01473 309
16.03485 345
16.05496 364
16.07508 321
16.09519 360
16.1153 327
16.13542 343
16.15553 325
16.17564 308
16.19576 304
16.21587 355
16.23598 330
16.2561 317
16.27621 359
16.29633 341
16.31644 312
16.33655 321
16.35667 331
16.37678 363
16.39689 330
16.41701 350
16.43712 350
16.45724 369
16.47735 321
16.49746 319
16.51758 335
16.53769 340
16.5578 352
16.57792 315
16.59803 349
16.61814 318
16.63826 354
16.65837 353
16.67849 335
16.6986 342
16.71871 344
16.73883 366
16.75894 344
16.77905 327
16.79917 375
16.81928 339
16.8394 361
16.85951 386
16.87962 357
16.89974 341
16.91985 349
16.93996 330
16.96008 350
16.98019 356
17.00031 339
17.02042 337
17.04053 356
17.06065 384
17.08076 314
17.10087 369
17.12099 300
17.1411 347
17.16121 392
17.18133 354
17.20144 339
17.22156 356
17.24167 370
17.26178 338
17.2819 335
17.30201 346
17.32212 338
17.34224 333
17.36235 352
17.38247 346
17.40258 331
17.42269 353
17.44281 350
17.46292 342
17.48303 332
17.50315 385
17.52326 349
17.54338 348
17.56349 341
17.5836 354
17.60372 327
17.62383 367
17.64394 359
17.66406 338
17.68417 356
17.70428 368
17.7244 409
17.74451 405
17.76463 382
17.78474 391
17.80485 390
17.82497 405
17.84508 384
17.86519 365
17.88531 393
17.90542 374
17.92554 384
17.94565 421
17.96576 381
17.98588 379
18.00599 392
18.0261 376
18.04622 391
18.06633 380
18.08645 332
18.10656 383
18.12667 367
18.14679 384
18.1669 418
18.18701 444
18.20713 428
18.22724 477
18.24735 493
18.26747 470
18.28758 498
18.3077 432
18.32781 470
18.34792 456
18.36804 432
18.38815 450
18.40826 404
18.42838 392
18.44849 387
18.46861 369
18.48872 363
18.50883 370
18.52895 353
18.54906 413
18.56917 390
18.58929 343
18.6094 356
18.62951 378
18.64963 347
18.66974 362
18.68986 367
18.70997 367
18.73008 344
18.7502 386
18.77031 367
18.79042 352
18.81054 355
18.83065 356
18.85077 370
18.87088 369
18.89099 356
18.91111 344
18.93122 351
18.95133 335
18.97145 327
18.99156 350
19.01168 351
19.03179 350
19.0519 325
19.07202 317
19.09213 365
19.11224 340
19.13236 341
19.15247 341
19.17258 347
19.1927 360
19.21281 314
19.23293 353
19.25304 349
19.27315 347
19.29327 389
19.31338 330
19.33349 371
19.35361 346
19.37372 373
19.39384 372
19.41395 354
19.43406 396
19.45418 353
19.47429 366
19.4944 389
19.51452 387
19.53463 376
19.55475 380
19.57486 390
19.59497 404
19.61509 426
19.6352 419
19.65531 426
19.67543 467
19.69554 477
19.71565 446
19.73577 555
19.75588 537
19.776 519
19.79611 598
19.81622 574
19.83634 640
19.85645 619
19.87656 615
19.89668 592
19.91679 634
19.93691 581
19.95702 558
19.97713 541
19.99725 600
20.01736 536
20.03747 568
20.05759 545
20.0777 574
20.09782 568
20.11793 526
20.13804 563
20.15816 605
20.17827 574
20.19838 597
20.2185 614
20.23861 568
20.25872 651
20.27884 601
20.29895 589
20.31907 642
20.33918 630
20.35929 620
20.37941 613
20.39952 588
20.41963 616
20.43975 665
20.45986 629
20.47998 667
20.50009 601
20.5202 648
20.54032 635
20.56043 637
20.58054 686
20.60066 698
20.62077 692
20.64088 778
20.661 871
20.68111 1031
20.70123 1249
20.72134 1575
20.74145 2037
20.76157 2516
20.78168 3173
20.80179 3855
20.82191 4426
20.84202 4560
20.86214 4128
20.88225 3462
20.90236 2599
20.92248 1829
20.94259 1360
20.9627 995
20.98282 739
21.00293 755
21.02305 700
21.04316 689
21.06327 667
21.08339 684
21.1035 702
21.12361 741
21.14373 684
21.16384 722
21.18395 697
21.20407 719
21.22418 701
21.2443 843
21.26441 750
21.28452 750
21.30464 771
21.32475 687
21.34486 773
21.36498 803
21.38509 719
21.40521 747
21.42532 689
21.44543 665
21.46555 681
21.48566 607
21.50577 640
21.52589 626
21.546 609
21.56612 593
21.58623 613
21.60634 600
21.62646 566
21.64657 568
21.66668 522
21.6868 514
21.70691 562
21.72702 514
21.74714 545
21.76725 469
21.78737 491
21.80748 507
21.82759 524
21.84771 488
21.86782 462
21.88793 490
21.90805 474
21.92816 478
21.94828 467
21.96839 466
21.9885 480
22.00862 488
22.02873 456
22.04884 447
22.06896 487
22.08907 470
22.10919 453
22.1293 448
22.14941 416
22.16953 512
22.18964 464
22.20975 437
22.22987 438
22.24998 437
22.27009 462
22.29021 484
22.31032 462
22.33044 423
22.35055 481
22.37066 456
22.39078 456
22.41089 403
22.431 468
22.45112 448
22.47123 451
22.49135 447
22.51146 416
22.53157 483
22.55169 447
22.5718 437
22.59191 434
22.61203 446
22.63214 433
22.65225 399
22.67237 417
22.69248 397
22.7126 433
22.73271 426
22.75282 443
22.77294 420
22.79305 432
22.81316 421
22.83328 398
22.85339 460
22.87351 433
22.89362 462
22.91373 430
22.93385 464
22.95396 466
22.97407 381
22.99419 419
23.0143 404
23.03442 401
23.05453 418
23.07464 415
23.09476 422
23.11487 399
23.13498 431
23.1551 379
23.17521 439
23.19532 425
23.21544 418
23.23555 429
23.25567 400
23.27578 407
23.29589 415
23.31601 423
23.33612 395
23.35623 425
23.37635 409
23.39646 427
23.41658 436
23.43669 463
23.4568 410
23.47692 392
23.49703 415
23.51714 388
23.53726 417
23.55737 398
23.57749 446
23.5976 380
23.61771 413
23.63783 415
23.65794 434
23.67805 424
23.69817 445
23.71828 437
23.73839 477
23.75851 436
23.77862 449
23.79874 420
23.81885 423
23.83896 440
23.85908 498
23.87919 462
23.8993 439
23.91942 444
23.93953 480
23.95965 449
23.97976 511
23.99987 445
24.01999 455
24.0401 441
24.06021 493
24.08033 429
24.10044 425
24.12056 448
24.14067 455
24.16078 449
24.1809 462
24.20101 463
24.22112 450
24.24124 436
24.26135 447
24.28146 460
24.30158 453
24.32169 497
24.34181 477
24.36192 462
24.38203 480
24.40215 449
24.42226 483
24.44237 449
24.46249 457
24.4826 454
24.50272 462
24.52283 518
24.54294 468
24.56306 445
24.58317 490
24.60328 492
24.6234 498
24.64351 533
24.66362 505
24.68374 541
24.70385 561
24.72397 541
24.74408 593
24.76419 580
24.78431 568
24.80442 630
24.82453 562
24.84465 588
24.86476 646
24.88488 577
24.90499 654
24.9251 600
24.94522 583
24.96533 605
24.98544 568
25.00556 541
25.02567 536
25.04579 508
25.0659 485
25.08601 535
25.10613 533
25.12624 483
25.14635 490
25.16647 498
25.18658 503
25.20669 538
25.22681 513
25.24692 492
25.26704 514
25.28715 460
25.30726 529
25.32738 501
25.34749 493
25.3676 449
25.38772 439
25.40783 486
25.42795 433
25.44806 459
25.46817 480
25.48829 449
25.5084 472
25.52851 436
25.54863 453
25.56874 446
25.58886 438
25.60897 447
25.62908 456
25.6492 472
25.66931 464
25.68942 508
25.70954 525
25.72965 527
25.74976 553
25.76988 487
25.78999 587
25.81011 535
25.83022 516
25.85033 516
25.87045 543
25.89056 533
25.91067 568
25.93079 563
25.9509 515
25.97102 537
25.99113 533
26.01124 594
26.03136 568
26.05147 600
26.07158 670
26.0917 616
26.11181 661
26.13193 632
26.15204 662
26.17215 736
26.19227 809
26.21238 762
26.23249 797
26.25261 877
26.27272 892
26.29283 950
26.31295 1033
26.33306 1115
26.35318 1249
26.37329 1285
26.3934 1608
26.41352 1861
26.43363 2433
26.45374 3199
26.47386 4242
26.49397 5820
26.51409 7924
26.5342 10538
26.55431 13292
26.57443 16312
26.59454 18519
26.61465 19254
26.63477 18245
26.65488 15181
26.67499 11756
26.69511 8818
26.71522 6187
26.73534 3781
26.75545 2421
26.77556 1693
26.79568 1368
26.81579 1197
26.8359 1109
26.85602 1020
26.87613 911
26.89625 911
26.91636 899
26.93647 887
26.95659 1023
26.9767 950
26.99681 777
27.01693 793
27.03704 741
27.05716 683
27.07727 580
27.09738 593
27.1175 522
27.13761 517
27.15772 538
27.17784 505
27.19795 503
27.21806 489
27.23818 508
27.25829 477
27.27841 472
27.29852 542
27.31863 520
27.33875 493
27.35886 506
27.37897 532
27.39909 517
27.4192 490
27.43932 523
27.45943 489
27.47954 490
27.49966 485
27.51977 467
27.53988 482
27.56 440
27.58011 437
27.60023 458
27.62034 466
27.64045 428
27.66057 461
27.68068 422
27.70079 465
27.72091 446
27.74102 467
27.76113 427
27.78125 407
27.80136 434
27.82148 466
27.84159 450
27.8617 430
27.88182 437
27.90193 464
27.92204 449
27.94216 435
27.96227 417
27.98239 443
28.0025 425
28.02261 407
28.04273 444
28.06284 417
28.08295 445
28.10307 447
28.12318 462
28.1433 434
28.16341 420
28.18352 455
28.20364 433
28.22375 454
28.24386 382
28.26398 430
28.28409 416
28.3042 352
28.32432 413
28.34443 416
28.36455 450
28.38466 379
28.40477 403
28.42489 395
28.445 386
28.46511 409
28.48523 389
28.50534 421
28.52546 411
28.54557 405
28.56568 413
28.5858 435
28.60591 349
28.62602 430
28.64614 419
28.66625 387
28.68636 406
28.70648 428
28.72659 402
28.74671 393
28.76682 394
28.78693 426
28.80705 375
28.82716 424
28.84727 421
28.86739 380
28.8875 402
28.90762 411
28.92773 394
28.94784 361
28.96796 429
28.98807 450
29.00818 414
29.0283 404
29.04841 426
29.06853 376
29.08864 393
29.10875 394
29.12887 396
29.14898 425
29.16909 384
29.18921 413
29.20932 421
29.22943 388
29.24955 392
29.26966 447
29.28978 413
29.30989 403
29.33 415
29.35012 397
29.37023 421
29.39034 400
29.41046 415
29.43057 426
29.45069 426
29.4708 375
29.49091 405
29.51103 418
29.53114 382
29.55125 401
29.57137 389
29.59148 371
29.6116 402
29.63171 397
29.65182 410
29.67194 395
29.69205 392
29.71216 351
29.73228 442
29.75239 355
29.7725 401
29.79262 367
29.81273 381
29.83285 372
29.85296 392
29.87307 395
29.89319 373
29.9133 402
29.93341 416
29.95353 384
29.97364 379
29.99376 383
30.01387 397
30.03398 380
30.0541 389
30.07421 361
30.09432 372
30.11444 377
30.13455 335
30.15467 373
30.17478 374
30.19489 401
30.21501 371
30.23512 414
30.25523 352
30.27535 370
30.29546 385
30.31557 370
30.33569 358
30.3558 386
30.37592 381
30.39603 426
30.41614 401
30.43626 358
30.45637 401
30.47648 386
30.4966 364
30.51671 350
30.53683 367
30.55694 397
30.57705 366
30.59717 379
30.61728 337
30.63739 415
30.65751 369
30.67762 380
30.69773 391
30.71785 365
30.73796 406
30.75808 391
30.77819 391
30.7983 427
30.81842 370
30.83853 369
30.85864 374
30.87876 370
30.89887 408
30.91899 352
30.9391 358
30.95921 367
30.97933 375
30.99944 416
31.01955 387
31.03967 389
31.05978 342
31.0799 381
31.10001 390
31.12012 407
31.14024 367
31.16035 356
31.18046 336
31.20058 344
31.22069 346
31.2408 381
31.26092 391
31.28103 381
31.30115 386
31.32126 353
31.34137 415
31.36149 385
31.3816 363
31.40171 398
31.42183 390
31.44194 358
31.46206 345
31.48217 366
31.50228 382
31.5224 348
31.54251 350
31.56262 366
31.58274 341
31.60285 361
31.62297 350
31.64308 391
31.66319 394
31.68331 381
31.70342 387
31.72353 364
31.74365 365
31.76376 349
31.78387 370
31.80399 390
31.8241 358
31.84422 373
31.86433 349
31.88444 358
31.90456 363
31.92467 367
31.94478 354
31.9649 381
31.98501 431
32.00513 333
32.02524 372
32.04535 379
32.06547 381
32.08558 373
32.10569 352
32.12581 366
32.14592 376
32.16604 393
32.18615 378
32.20626 363
32.22638 381
32.24649 379
32.2666 392
32.28672 402
32.30683 392
32.32694 423
32.34706 393
32.36717 404
32.38729 411
32.4074 423
32.42751 433
32.44763 436
32.46774 455
32.48785 439
32.50797 449
32.52808 456
32.5482 436
32.56831 433
32.58842 428
32.60854 428
32.62865 422
32.64876 411
32.66888 429
32.68899 416
32.7091 376
32.72922 389
32.74933 414
32.76945 357
32.78956 375
32.80967 416
32.82979 423
32.8499 378
32.87001 402
32.89013 426
32.91024 419
32.93036 422
32.95047 424
32.97058 415
32.9907 438
33.01081 446
33.03092 429
33.05104 437
33.07115 438
33.09127 422
33.11138 457
33.13149 484
33.15161 479
33.17172 454
33.19183 479
33.21195 464
33.23206 468
33.25217 487
33.27229 514
33.2924 437
33.31252 438
33.33263 475
33.35274 469
33.37286 480
33.39297 508
33.41308 466
33.4332 447
33.45331 480
33.47343 475
33.49354 508
33.51365 473
33.53377 487
33.55388 463
33.57399 495
33.59411 446
33.61422 435
33.63434 427
33.65445 407
33.67456 398
33.69468 426
33.71479 429
33.7349 473
33.75502 422
33.77513 432
33.79524 448
33.81536 449
33.83547 405
33.85559 399
33.8757 399
33.89581 415
33.91593 393
33.93604 396
33.95615 384
33.97627 415
33.99638 371
34.0165 407
34.03661 365
34.05672 428
34.07684 422
34.09695 375
34.11706 406
34.13718 421
34.15729 371
34.17741 383
34.19752 392
34.21763 373
34.23775 415
34.25786 381
34.27797 382
34.29809 351
34.3182 386
34.33831 412
34.35843 392
34.37854 419
34.39866 431
34.41877 398
34.43888 417
34.459 405
34.47911 382
34.49922 431
34.51934 372
34.53945 416
34.55957 411
34.57968 454
34.59979 427
34.61991 428
34.64002 426
34.66013 444
34.68025 419
34.70036 451
34.72047 481
34.74059 516
34.7607 468
34.78082 475
34.80093 483
34.82104 549
34.84116 535
34.86127 524
34.88138 548
34.9015 527
34.92161 523
34.94173 559
34.96184 569
34.98195 546
35.00207 627
35.02218 564
35.04229 552
35.06241 558
35.08252 547
35.10264 514
35.12275 522
35.14286 507
35.16298 516
35.18309 547
35.2032 521
35.22332 568
35.24343 524
35.26354 523
35.28366 514
35.30377 502
35.32389 547
35.344 519
35.36411 496
35.38423 526
35.40434 500
35.42445 495
35.44457 543
35.46468 543
35.4848 492
35.50491 493
35.52502 526
35.54514 530
35.56525 546
35.58536 486
35.60548 523
35.62559 514
35.64571 534
35.66582 532
35.68593 565
35.70605 531
35.72616 552
35.74627 571
35.76639 578
35.7865 566
35.80661 552
35.82673 519
35.84684 527
35.86696 510
35.88707 558
35.90718 559
35.9273 545
35.94741 585
35.96752 552
35.98764 528
36.00775 572
36.02787 590
36.04798 500
36.06809 513
36.08821 499
36.10832 495
36.12843 513
36.14855 496
36.16866 503
36.18878 508
36.20889 510
36.229 494
36.24912 562
36.26923 525
36.28934 544
36.30946 613
36.32957 727
36.34968 690
36.3698 768
36.38991 893
36.41003 1093
36.43014 1179
36.45025 1431
36.47037 1497
36.49048 1599
36.51059 1687
36.53071 1674
36.55082 1431
36.57094 1265
36.59105 1112
36.61116 1043
36.63128 890
36.65139 865
36.6715 732
36.69162 602
36.71173 596
36.73184 583
36.75196 559
36.77207 519
36.79219 601
36.8123 566
36.83241 601
36.85253 566
36.87264 549
36.89275 589
36.91287 606
36.93298 563
36.9531 600
36.97321 588
36.99332 550
37.01344 567
37.03355 563
37.05366 514
37.07378 549
37.09389 500
37.11401 490
37.13412 508
37.15423 432
37.17435 473
37.19446 485
37.21457 452
37.23469 472
37.2548 485
37.27491 476
37.29503 489
37.31514 465
37.33526 474
37.35537 440
37.37548 415
37.3956 472
37.41571 457
37.43582 470
37.45594 464
37.47605 445
37.49617 466
37.51628 475
37.53639 440
37.55651 470
37.57662 498
37.59673 481
37.61685 434
37.63696 450
37.65708 477
37.67719 450
37.6973 443
37.71742 424
37.73753 464
37.75764 418
37.77776 444
37.79787 456
37.81798 449
37.8381 429
37.85821 422
37.87833 441
37.89844 449
37.91855 447
37.93867 432
37.95878 431
37.97889 425
37.99901 440
38.01912 443
38.03924 433
38.05935 431
38.07946 461
38.09958 460
38.11969 446
38.1398 476
38.15992 462
38.18003 499
38.20015 495
38.22026 475
38.24037 451
38.26049 469
38.2806 479
38.30071 475
38.32083 496
38.34094 487
38.36105 472
38.38117 500
38.40128 515
38.4214 515
38.44151 465
38.46162 494
38.48174 461
38.50185 465
38.52196 476
38.54208 497
38.56219 470
38.58231 454
38.60242 497
38.62253 429
38.64265 462
38.66276 473
38.68287 450
38.70299 458
38.7231 490
38.74321 449
38.76333 416
38.78344 411
38.80356 408
38.82367 383
38.84378 459
38.8639 454
38.88401 464
38.90412 458
38.92424 431
38.94435 448
38.96447 453
38.98458 420
39.00469 466
39.02481 466
39.04492 476
39.06503 480
39.08515 480
39.10526 476
39.12538 484
39.14549 518
39.1656 527
39.18572 470
39.20583 481
39.22594 560
39.24606 574
39.26617 657
39.28628 717
39.3064 771
39.32651 903
39.34663 1043
39.36674 1180
39.38685 1292
39.40697 1518
39.42708 1502
39.44719 1553
39.46731 1358
39.48742 1171
39.50754 1054
39.52765 986
39.54776 883
39.56788 794
39.58799 592
39.6081 554
39.62822 499
39.64833 429
39.66845 451
39.68856 461
39.70867 440
39.72879 460
39.7489 428
39.76901 411
39.78913 397
39.80924 455
39.82935 449
39.84947 442
39.86958 386
39.8897 435
39.90981 442
39.92992 450
39.95004 466
39.97015 458
39.99026 457
40.01038 440
40.03049 469
40.05061 478
40.07072 510
40.09083 537
40.11095 577
40.13106 618
40.15117 713
40.17129 750
40.1914 766
40.21152 943
40.23163 953
40.25174 1002
40.27186 938
40.29197 923
40.31208 810
40.3322 693
40.35231 698
40.37242 694
40.39254 636
40.41265 551
40.43277 509
40.45288 501
40.47299 444
40.49311 484
40.51322 446
40.53333 451
40.55345 407
40.57356 424
40.59368 443
40.61379 429
40.6339 407
40.65402 437
40.67413 414
40.69424 440
40.71436 437
40.73447 410
40.75458 395
40.7747 428
40.79481 476
40.81493 443
40.83504 416
40.85515 430
40.87527 438
40.89538 436
40.91549 424
40.93561 426
40.95572 433
40.97584 437
40.99595 425
41.01606 435
41.03618 425
41.05629 435
41.0764 420
41.09652 433
41.11663 418
41.13675 427
41.15686 444
41.17697 431
41.19709 429
41.2172 430
41.23731 414
41.25743 435
41.27754 419
41.29765 442
41.31777 447
41.33788 444
41.358 410
41.37811 429
41.39822 436
41.41834 402
41.43845 437
41.45856 419
41.47868 438
41.49879 410
41.51891 438
41.53902 407
41.55913 411
41.57925 408
41.59936 391
41.61947 440
41.63959 408
41.6597 413
41.67982 399
41.69993 414
41.72004 397
41.74016 425
41.76027 380
41.78038 403
41.8005 408
41.82061 374
41.84072 356
41.86084 419
41.88095 362
41.90107 377
41.92118 441
41.94129 401
41.96141 394
41.98152 403
42.00163 402
42.02175 430
42.04186 408
42.06198 393
42.08209 369
42.1022 416
42.12232 370
42.14243 439
42.16254 451
42.18266 443
42.20277 458
42.22289 523
42.243 507
42.26311 565
42.28323 630
42.30334 777
42.32345 811
42.34357 893
42.36368 1037
42.38379 1082
42.40391 1168
42.42402 1061
42.44414 1126
42.46425 941
42.48436 846
42.50448 834
42.52459 729
42.5447 702
42.56482 588
42.58493 513
42.60505 428
42.62516 396
42.64527 425
42.66539 365
42.6855 415
42.70561 358
42.72573 394
42.74584 354
42.76595 351
42.78607 376
42.80618 365
42.8263 354
42.84641 355
42.86652 355
42.88664 340
42.90675 375
42.92686 365
42.94698 340
42.96709 352
42.98721 360
43.00732 364
43.02743 372
43.04755 337
43.06766 331
43.08777 370
43.10789 373
43.128 351
43.14812 338
43.16823 346
43.18834 366
43.20846 332
43.22857 358
43.24868 353
43.2688 349
43.28891 341
43.30902 392
43.32914 353
43.34925 404
43.36937 348
43.38948 382
43.40959 379
43.42971 311
43.44982 334
43.46993 372
43.49005 370
43.51016 358
43.53028 361
43.55039 393
43.5705 368
43.59062 347
43.61073 350
43.63084 362
43.65096 361
43.67107 364
43.69119 351
43.7113 342
43.73141 354
43.75153 345
43.77164 316
43.79175 381
43.81187 340
43.83198 358
43.85209 350
43.87221 344
43.89232 342
43.91244 333
43.93255 358
43.95266 402
43.97278 380
43.99289 378
44.013 394
44.03312 367
44.05323 356
44.07335 358
44.09346 350
44.11357 315
44.13369 387
44.1538 401
44.17391 359
44.19403 350
44.21414 356
44.23426 352
44.25437 362
44.27448 367
44.2946 377
44.31471 361
44.33482 356
44.35494 356
44.37505 359
44.39516 360
44.41528 365
44.43539 353
44.45551 361
44.47562 344
44.49573 366
44.51585 331
44.53596 333
44.55607 329
44.57619 359
44.5963 326
44.61642 356
44.63653 347
44.65664 381
44.67676 372
44.69687 359
44.71698 353
44.7371 348
44.75721 343
44.77732 351
44.79744 354
44.81755 335
44.83767 390
44.85778 368
44.87789 380
44.89801 363
44.91812 370
44.93823 383
44.95835 373
44.97846 354
44.99858 334
45.01869 363
45.0388 364
45.05892 365
45.07903 319
45.09914 368
45.11926 353
45.13937 343
45.15949 378
45.1796 376
45.19971 371
45.21983 380
45.23994 405
45.26005 399
45.28017 417
45.30028 379
45.32039 388
45.34051 417
45.36062 376
45.38074 370
45.40085 401
45.42096 410
45.44108 450
45.46119 444
45.4813 449
45.50142 438
45.52153 444
45.54165 391
45.56176 484
45.58187 472
45.60199 519
45.6221 554
45.64221 646
45.66233 717
45.68244 750
45.70256 837
45.72267 819
45.74278 937
45.7629 936
45.78301 808
45.80312 788
45.82324 735
45.84335 661
45.86346 617
45.88358 589
45.90369 610
45.92381 509
45.94392 444
45.96403 453
45.98415 412
46.00426 393
46.02437 395
46.04449 388
46.0646 380
46.08472 371
46.10483 373
46.12494 364
46.14506 368
46.16517 386
46.18528 371
46.2054 349
46.22551 352
46.24563 374
46.26574 393
46.28585 326
46.30597 371
46.32608 361
46.34619 374
46.36631 356
46.38642 360
46.40653 354
46.42665 361
46.44676 344
46.46688 332
46.48699 349
46.5071 368
46.52722 330
46.54733 346
46.56744 361
46.58756 347
46.60767 369
46.62779 363
46.6479 383
46.66801 388
46.68813 361
46.70824 361
46.72835 313
46.74847 362
46.76858 397
46.78869 358
46.80881 366
46.82892 344
46.84904 358
46.86915 352
46.88926 369
46.90938 355
46.92949 352
46.9496 331
46.96972 372
46.98983 387
47.00995 337
47.03006 353
47.05017 346
47.07029 376
47.0904 337
47.11051 366
47.13063 343
47.15074 357
47.17086 370
47.19097 366
47.21108 347
47.2312 337
47.25131 386
47.27142 374
47.29154 356
47.31165 362
47.33176 393
47.35188 405
47.37199 356
47.39211 393
47.41222 367
47.43233 388
47.45245 373
47.47256 364
47.49267 386
47.51279 372
47.5329 374
47.55302 365
47.57313 372
47.59324 341
47.61336 347
47.63347 380
47.65358 379
47.6737 353
47.69381 369
47.71393 414
47.73404 360
47.75415 363
47.77427 371
47.79438 370
47.81449 371
47.83461 374
47.85472 376
47.87483 384
47.89495 342
47.91506 400
47.93518 357
47.95529 370
47.9754 381
47.99552 348
48.01563 365
48.03574 378
48.05586 349
48.07597 358
48.09609 375
48.1162 371
48.13631 370
48.15643 359
48.17654 345
48.19665 376
48.21677 347
48.23688 378
48.257 383
48.27711 355
48.29722 365
48.31734 368
48.33745 337
48.35756 366
48.37768 377
48.39779 358
48.4179 390
48.43802 351
48.45813 373
48.47825 368
48.49836 355
48.51847 387
48.53859 398
48.5587 415
48.57881 340
48.59893 355
48.61904 385
48.63916 374
48.65927 391
48.67938 415
48.6995 365
48.71961 396
48.73972 377
48.75984 374
48.77995 344
48.80006 356
48.82018 367
48.84029 363
48.86041 370
48.88052 384
48.90063 329
48.92075 368
48.94086 387
48.96097 358
48.98109 357
49.0012 380
49.02132 359
49.04143 355
49.06154 365
49.08166 354
49.10177 358
49.12188 360
49.142 384
49.16211 376
49.18223 350
49.20234 374
49.22245 361
49.24257 441
49.26268 363
49.28279 370
49.30291 371
49.32302 365
49.34313 352
49.36325 343
49.38336 406
49.40348 424
49.42359 424
49.4437 376
49.46382 389
49.48393 383
49.50404 380
49.52416 436
49.54427 415
49.56439 359
49.5845 393
49.60461 417
49.62473 397
49.64484 419
49.66495 434
49.68507 421
49.70518 417
49.7253 393
49.74541 480
49.76552 449
49.78564 491
49.80575 524
49.82586 503
49.84598 553
49.86609 582
49.8862 607
49.90632 664
49.92643 756
49.94655 880
49.96666 1021
49.98677 1236
50.00689 1428
50.027 1710
50.04711 1933
50.06723 2132
50.08734 2234
50.10746 2113
50.12757 2020
50.14768 1832
50.1678 1603
50.18791 1393
50.20802 1300
50.22814 1297
50.24825 1152
50.26837 1031
50.28848 812
50.30859 640
50.32871 517
50.34882 465
50.36893 455
50.38905 491
50.40916 471
50.42927 461
50.44939 418
50.4695 439
50.48962 456
50.50973 467
50.52984 469
50.54996 414
50.57007 411
50.59018 432
50.6103 420
50.63041 416
50.65053 395
50.67064 384
50.69075 461
50.71087 423
50.73098 379
50.75109 386
50.77121 395
50.79132 407
50.81143 379
50.83155 364
50.85166 414
50.87178 393
50.89189 363
50.912 377
50.93212 365
50.95223 396
50.97234 378
50.99246 378
51.01257 373
51.03269 370
51.0528 405
51.07291 367
51.09303 349
51.11314 369
51.13325 344
51.15337 366
51.17348 368
51.1936 331
51.21371 373
51.23382 357
51.25394 354
51.27405 348
51.29416 340
51.31428 344
51.33439 368
51.3545 366
51.37462 341
51.39473 335
51.41485 339
51.43496 338
51.45507 365
51.47519 336
51.4953 362
51.51541 385
51.53553 327
51.55564 321
51.57576 349
51.59587 329
51.61598 347
51.6361 346
51.65621 356
51.67632 360
51.69644 358
51.71655 374
51.73667 348
51.75678 361
51.77689 347
51.79701 357
51.81712 339
51.83723 321
51.85735 331
51.87746 341
51.89757 358
51.91769 360
51.9378 379
51.95792 342
51.97803 369
51.99814 360
52.01826 353
52.03837 355
52.05848 383
52.0786 361
52.09871 397
52.11883 351
52.13894 358
52.15905 348
52.17917 334
52.19928 369
52.21939 310
52.23951 341
52.25962 359
52.27974 379
52.29985 341
52.31996 343
52.34008 354
52.36019 335
52.3803 344
52.40042 322
52.42053 351
52.44064 356
52.46076 346
52.48087 327
52.50099 398
52.5211 339
52.54121 355
52.56133 386
52.58144 339
52.60155 370
52.62167 376
52.64178 381
52.6619 365
52.68201 344
52.70212 343
52.72224 373
52.74235 356
52.76246 409
52.78258 356
52.80269 375
52.8228 358
52.84292 350
52.86303 349
52.88315 381
52.90326 384
52.92337 369
52.94349 368
52.9636 362
52.98371 386
53.00383 424
53.02394 399
53.04406 399
53.06417 370
53.08428 427
53.1044 357
53.12451 423
53.14462 423
53.16474 401
53.18485 405
53.20497 422
53.22508 433
53.24519 429
53.26531 390
53.28542 413
53.30553 428
53.32565 390
53.34576 436
53.36587 422
53.38599 423
53.4061 417
53.42622 436
53.44633 438
53.46644 410
53.48656 411
53.50667 456
53.52678 487
53.5469 439
53.56701 444
53.58713 448
53.60724 438
53.62735 487
53.64747 428
53.66758 483
53.68769 461
53.70781 461
53.72792 439
53.74804 460
53.76815 449
53.78826 423
53.80838 451
53.82849 435
53.8486 462
53.86872 441
53.88883 444
53.90894 414
53.92906 481
53.94917 456
53.96929 447
53.9894 439
54.00951 456
54.02963 459
54.04974 444
54.06985 439
54.08997 448
54.11008 452
54.1302 466
54.15031 404
54.17042 485
54.19054 452
54.21065 435
54.23076 433
54.25088 467
54.27099 498
54.29111 509
54.31122 485
54.33133 484
54.35145 464
54.37156 469
54.39167 452
54.41179 456
54.4319 458
54.45201 450
54.47213 478
54.49224 483
54.51236 452
54.53247 444
54.55258 461
54.5727 473
54.59281 470
54.61292 516
54.63304 537
54.65315 577
54.67327 541
54.69338 630
54.71349 683
54.73361 732
54.75372 798
54.77383 856
54.79395 876
54.81406 928
54.83417 976
54.85429 939
54.8744 850
54.89452 743
54.91463 711
54.93474 725
54.95486 745
54.97497 756
54.99508 699
55.0152 673
55.03531 590
55.05543 522
55.07554 510
55.09565 523
55.11577 512
55.13588 491
55.15599 561
55.17611 528
55.19622 565
55.21634 563
55.23645 611
55.25656 669
55.27668 652
55.29679 656
55.3169 600
55.33702 561
55.35713 542
55.37724 531
55.39736 523
55.41747 538
55.43759 536
55.4577 528
55.47781 497
55.49793 409
55.51804 426
55.53815 406
55.55827 407
55.57838 387
55.5985 431
55.61861 438
55.63872 433
55.65884 431
55.67895 408
55.69906 398
55.71918 388
55.73929 415
55.75941 382
55.77952 407
55.79963 394
55.81975 427
55.83986 404
55.85997 432
55.88009 389
55.9002 385
55.92031 400
55.94043 349
55.96054 371
55.98066 410
56.00077 369
56.02088 410
56.041 377
56.06111 351
56.08122 360
56.10134 386
56.12145 384
56.14157 393
56.16168 371
56.18179 382
56.20191 391
56.22202 389
56.24213 375
56.26225 378
56.28236 406
56.30248 373
56.32259 361
56.3427 380
56.36282 376
56.38293 407
56.40304 393
56.42316 368
56.44327 388
56.46338 377
56.4835 357
56.50361 353
56.52373 365
56.54384 353
56.56395 368
56.58407 356
56.60418 334
56.62429 358
56.64441 392
56.66452 371
56.68464 354
56.70475 371
56.72486 370
56.74498 362
56.76509 372
56.7852 341
56.80532 380
56.82543 389
56.84554 368
56.86566 364
56.88577 366
56.90589 338
56.926 311
56.94611 366
56.96623 367
56.98634 353
57.00645 373
57.02657 338
57.04668 360
57.0668 401
57.08691 371
57.10702 343
57.12714 365
57.14725 401
57.16736 393
57.18748 388
57.20759 387
57.22771 376
57.24782 385
57.26793 379
57.28805 351
57.30816 377
57.32827 369
57.34839 389
57.3685 368
57.38861 359
57.40873 358
57.42884 361
57.44896 381
57.46907 367
57.48918 338
57.5093 352
57.52941 371
57.54952 377
57.56964 377
57.58975 365
57.60987 358
57.62998 354
57.65009 375
57.67021 380
57.69032 374
57.71043 394
57.73055 334
57.75066 396
57.77078 347
57.79089 399
57.811 376
57.83112 405
57.85123 339
57.87134 391
57.89146 393
57.91157 376
57.93168 356
57.9518 372
57.97191 356
57.99203 351
58.01214 370
58.03225 373
58.05237 369
58.07248 390
58.09259 344
58.11271 368
58.13282 322
58.15294 386
58.17305 382
58.19316 374
58.21328 360
58.23339 351
58.2535 367
58.27362 351
58.29373 372
58.31385 368
58.33396 365
58.35407 343
58.37419 367
58.3943 332
58.41441 375
58.43453 377
58.45464 347
58.47475 378
58.49487 391
58.51498 354
58.5351 386
58.55521 377
58.57532 337
58.59544 372
58.61555 381
58.63566 383
58.65578 349
58.67589 366
58.69601 337
58.71612 370
58.73623 358
58.75635 379
58.77646 358
58.79657 345
58.81669 346
58.8368 315
58.85691 353
58.87703 317
58.89714 368
58.91726 370
58.93737 356
58.95748 364
58.9776 375
58.99771 343
59.01782 360
59.03794 382
59.05805 384
59.07817 348
59.09828 372
59.11839 383
59.13851 356
59.15862 378
59.17873 376
59.19885 357
59.21896 357
59.23908 366
59.25919 411
59.2793 376
59.29942 382
59.31953 400
59.33964 413
59.35976 395
59.37987 416
59.39998 425
59.4201 420
59.44021 404
59.46033 413
59.48044 433
59.50055 408
59.52067 419
59.54078 477
59.56089 443
59.58101 444
59.60112 461
59.62124 513
59.64135 507
59.66146 534
59.68158 535
59.70169 590
59.7218 619
59.74192 718
59.76203 823
59.78215 920
59.80226 1018
59.82237 1170
59.84249 1330
59.8626 1418
59.88271 1577
59.90283 1578
59.92294 1542
59.94305 1451
59.96317 1275
59.98328 1096
60.0034 958
60.02351 981
60.04362 959
60.06374 970
60.08385 927
60.10396 876
60.12408 762
60.14419 623
60.16431 534
60.18442 468
60.20453 432
60.22465 406
60.24476 406
60.26487 404
60.28499 401
60.3051 391
60.32522 417
60.34533 411
60.36544 397
60.38556 346
60.40567 415
60.42578 376
60.4459 361
60.46601 423
60.48612 356
60.50624 376
60.52635 359
60.54647 350
60.56658 355
60.58669 328
60.60681 362
60.62692 367
60.64703 377
60.66715 348
60.68726 355
60.70738 398
60.72749 370
60.7476 332
60.76772 367
60.78783 332
60.80794 371
60.82806 356
60.84817 366
60.86828 362
60.8884 368
60.90851 361
60.92863 380
60.94874 359
60.96885 369
60.98897 343
61.00908 382
61.02919 375
61.04931 373
61.06942 359
61.08954 349
61.10965 357
61.12976 348
61.14988 357
61.16999 351
61.1901 392
61.21022 355
61.23033 339
61.25045 346
61.27056 336
61.29067 373
61.31079 358
61.3309 369
61.35101 351
61.37113 400
61.39124 359
61.41135 392
61.43147 363
61.45158 380
61.4717 375
61.49181 364
61.51192 387
61.53204 386
61.55215 378
61.57226 377
61.59238 402
61.61249 379
61.63261 401
61.65272 417
61.67283 426
61.69295 387
61.71306 415
61.73317 423
61.75329 414
61.7734 445
61.79352 424
61.81363 429
61.83374 431
61.85386 436
61.87397 421
61.89408 414
61.9142 417
61.93431 423
61.95442 486
61.97454 454
61.99465 433
62.01477 451
62.03488 429
62.05499 433
62.07511 420
62.09522 456
62.11533 417
62.13545 448
62.15556 484
62.17568 452
62.19579 493
62.2159 500
62.23602 463
62.25613 460
62.27624 473
62.29636 437
62.31647 440
62.33659 465
62.3567 433
62.37681 444
62.39693 439
62.41704 437
62.43715 407
62.45727 461
62.47738 426
62.49749 455
62.51761 445
62.53772 422
62.55784 425
62.57795 457
62.59806 426
62.61818 383
62.63829 379
62.6584 392
62.67852 399
62.69863 371
62.71875 417
62.73886 356
62.75897 342
62.77909 403
62.7992 369
62.81931 377
62.83943 315
62.85954 373
62.87965 385
62.89977 372
62.91988 351
62.94 396
62.96011 382
62.98022 350
63.00034 345
63.02045 412
63.04056 391
63.06068 366
63.08079 379
63.10091 371
63.12102 386
63.14113 376
63.16125 386
63.18136 365
63.20147 369
63.22159 409
63.2417 421
63.26182 372
63.28193 367
63.30204 341
63.32216 384
63.34227 341
63.36238 373
63.3825 372
63.40261 392
63.42272 381
63.44284 376
63.46295 369
63.48307 387
63.50318 430
63.52329 380
63.54341 396
63.56352 371
63.58363 380
63.60375 367
63.62386 362
63.64398 372
63.66409 373
63.6842 387
63.70432 405
63.72443 397
63.74454 400
63.76466 436
63.78477 393
63.80489 430
63.825 454
63.84511 477
63.86523 456
63.88534 479
63.90545 531
63.92557 509
63.94568 563
63.96579 558
63.98591 582
64.00602 600
64.02614 550
64.04625 519
64.06636 532
64.08648 517
64.10659 487
64.1267 525
64.14682 486
64.16693 496
64.18705 510
64.20716 467
64.22727 453
64.24739 414
64.2675 399
64.28761 433
64.30773 399
64.32784 437
64.34796 404
64.36807 353
64.38818 369
64.4083 394
64.42841 394
64.44852 378
64.46864 414
64.48875 384
64.50886 392
64.52898 373
64.54909 383
64.56921 357
64.58932 325
64.60943 348
64.62955 359
64.64966 384
64.66977 377
64.68989 341
64.71 365
64.73012 360
64.75023 374
64.77034 343
64.79046 356
64.81057 373
64.83068 336
64.8508 387
64.87091 341
64.89102 336
64.91114 337
64.93125 365
64.95137 355
64.97148 370
64.99159 335
65.01171 345
65.03182 360
65.05193 338
65.07205 368
65.09216 345
65.11228 330
65.13239 352
65.1525 350
65.17262 339
65.19273 339
65.21284 380
65.23296 368
65.25307 380
65.27319 347
65.2933 301
65.31341 335
65.33353 335
65.35364 313
65.37375 330
65.39387 359
65.41398 335
65.43409 350
65.45421 364
65.47432 401
65.49444 314
65.51455 349
65.53466 339
65.55478 337
65.57489 344
65.595 370
65.61512 345
65.63523 386
65.65535 400
65.67546 357
65.69557 367
65.71569 392
65.7358 390
65.75591 391
65.77603 410
65.79614 399
65.81626 377
65.83637 384
65.85648 353
65.8766 354
65.89671 354
65.91682 359
65.93694 345
65.95705 376
65.97716 350
65.99728 343
66.01739 335
66.03751 330
66.05762 360
66.07773 345
66.09785 375
66.11796 382
66.13807 340
66.15819 345
66.1783 384
66.19842 350
66.21853 351
66.23864 352
66.25876 306
66.27887 376
66.29898 361
66.3191 360
66.33921 305
66.35933 360
66.37944 368
66.39955 362
66.41967 347
66.43978 322
66.45989 351
66.48001 355
66.50012 367
66.52023 366
66.54035 313
66.56046 359
66.58058 343
66.60069 354
66.6208 343
66.64092 369
66.66103 359
66.68114 357
66.70126 367
66.72137 332
66.74149 355
66.7616 350
66.78171 357
66.80183 322
66.82194 337
66.84205 346
66.86217 370
66.88228 350
66.90239 326
66.92251 343
66.94262 301
66.96274 351
66.98285 352
67.00296 357
67.02308 347
67.04319 361
67.0633 383
67.08342 371
67.10353 381
67.12365 363
67.14376 364
67.16387 339
67.18399 359
67.2041 390
67.22421 384
67.24433 364
67.26444 390
67.28456 349
67.30467 419
67.32478 402
67.3449 376
67.36501 431
67.38512 415
67.40524 447
67.42535 447
67.44546 466
67.46558 471
67.48569 466
67.50581 530
67.52592 538
67.54603 574
67.56615 708
67.58626 743
67.60637 832
67.62649 919
67.6466 931
67.66672 1008
67.68683 1008
67.70694 1023
67.72706 933
67.74717 924
67.76728 793
67.7874 764
67.80751 719
67.82763 777
67.84774 803
67.86785 812
67.88797 819
67.90808 913
67.92819 812
67.94831 861
67.96842 896
67.98853 926
68.00865 980
68.02876 1099
68.04888 1199
68.06899 1238
68.0891 1357
68.10922 1357
68.12933 1286
68.14944 1216
68.16956 1176
68.18967 1042
68.20979 1186
68.2299 1221
68.25001 1217
68.27013 1210
68.29024 1225
68.31035 1142
68.33047 919
68.35058 810
68.3707 714
68.39081 634
68.41092 643
68.43104 654
68.45115 638
68.47126 640
68.49138 568
68.51149 541
68.5316 499
68.55172 435
68.57183 416
68.59195 393
68.61206 382
68.63217 410
68.65229 398
68.6724 418
68.69251 372
68.71263 384
68.73274 382
68.75286 401
68.77297 334
68.79308 379
68.8132 384
68.83331 360
68.85342 375
68.87354 386
68.89365 347
68.91376 338
68.93388 363
68.95399 346
68.97411 339
68.99422 377
69.01433 364
69.03445 346
69.05456 374
69.07467 345
69.09479 340
69.1149 353
69.13502 364
69.15513 360
69.17524 377
69.19536 359
69.21547 344
69.23558 355
69.2557 349
69.27581 377
69.29593 336
69.31604 365
69.33615 360
69.35627 333
69.37638 364
69.39649 348
69.41661 350
69.43672 348
69.45683 374
69.47695 314
69.49706 315
69.51718 340
69.53729 366
69.5574 352
69.57752 363
69.59763 359
69.61774 411
69.63786 353
69.65797 333
69.67809 369
69.6982 340
69.71831 344
69.73843 384
69.75854 344
69.77865 346
69.79877 343
69.81888 341
69.839 324
69.85911 334
69.87922 343
69.89934 350
69.91945 324
69.93956 355
69.95968 338
69.97979 360
69.9999 355
70.02002 362
70.04013 316
70.06025 316
70.08036 346
70.10047 345
70.12059 346
70.1407 351
70.16081 356
70.18093 342
70.20104 361
70.22116 356
70.24127 356
70.26138 335
70.2815 366
70.30161 328
70.32172 315
70.34184 324
70.36195 324
70.38207 338
70.40218 354
70.42229 311
70.44241 328
70.46252 359
70.48263 367
70.50275 362
70.52286 313
70.54297 360
70.56309 363
70.5832 310
70.60332 315
70.62343 387
70.64354 314
70.66366 354
70.68377 347
70.70388 336
70.724 330
70.74411 334
70.76423 366
70.78434 348
70.80445 329
70.82457 366
70.84468 297
70.86479 354
70.88491 349
70.90502 349
70.92513 316
70.94525 324
70.96536 346
70.98548 371
71.00559 327
71.0257 369
71.04582 320
71.06593 316
71.08604 353
71.10616 332
71.12627 321
71.14639 348
71.1665 333
71.18661 341
71.20673 347
71.22684 332
71.24695 326
71.26707 356
71.28718 325
71.3073 289
71.32741 371
71.34752 331
71.36764 355
71.38775 334
71.40786 316
71.42798 335
71.44809 314
71.4682 354
71.48832 366
71.50843 316
71.52855 352
71.54866 302
71.56877 337
71.58889 353
71.609 328
71.62911 365
71.64923 356
71.66934 326
71.68946 333
71.70957 323
71.72968 325
71.7498 363
71.76991 330
71.79002 322
71.81014 364
71.83025 316
71.85037 338
71.87048 362
71.89059 341
71.91071 353
71.93082 342
71.95093 344
71.97105 358
71.99116 378
72.01127 354
72.03139 352
72.0515 352
72.07162 330
72.09173 308
72.11184 384
72.13196 343
72.15207 347
72.17218 327
72.1923 355
72.21241 311
72.23253 355
72.25264 363
72.27275 327
72.29287 342
72.31298 343
72.33309 341
72.35321 339
72.37332 368
72.39344 380
72.41355 328
72.43366 346
72.45378 371
72.47389 299
72.494 375
72.51412 324
72.53423 325
72.55434 348
72.57446 336
72.59457 332
72.61469 329
72.6348 365
72.65491 334
72.67503 330
72.69514 333
72.71525 350
72.73537 355
72.75548 317
72.7756 346
72.79571 367
72.81582 369
72.83594 355
72.85605 364
72.87616 329
72.89628 352
72.91639 359
72.9365 367
72.95662 320
72.97673 348
72.99685 380
73.01696 366
73.03707 366
73.05719 352
73.0773 357
73.09741 347
73.11753 383
73.13764 367
73.15776 351
73.17787 360
73.19798 383
73.2181 392
73.23821 420
73.25832 441
73.27844 446
73.29855 517
73.31867 501
73.33878 531
73.35889 523
73.37901 591
73.39912 572
73.41923 563
73.43935 570
73.45946 520
73.47957 510
73.49969 449
73.5198 478
73.53992 451
73.56003 457
73.58014 454
73.60026 478
73.62037 451
73.64048 493
73.6606 441
73.68071 443
73.70083 376
73.72094 394
73.74105 342
73.76117 340
73.78128 354
73.80139 347
73.82151 379
73.84162 330
73.86174 344
73.88185 333
73.90196 348
73.92208 331
73.94219 351
73.9623 353
73.98242 345
74.00253 325
74.02264 316
74.04276 347
74.06287 356
74.08299 324
74.1031 367
74.12321 328
74.14333 354
74.16344 319
74.18355 345
74.20367 327
74.22378 314
74.2439 325
74.26401 338
74.28412 328
74.30424 330
74.32435 351
74.34446 322
74.36458 343
74.38469 323
74.40481 359
74.42492 327
74.44503 321
74.46515 319
74.48526 355
74.50537 330
74.52549 323
74.5456 319
74.56571 303
74.58583 289
74.60594 318
74.62606 334
74.64617 313
74.66628 304
74.6864 299
74.70651 355
74.72662 340
74.74674 303
74.76685 339
74.78697 331
74.80708 327
74.82719 328
74.84731 347
74.86742 312
74.88753 321
74.90765 370
74.92776 343
74.94787 335
74.96799 349
74.9881 322
75.00822 333
