3.00117 21130
3.02128 20499
3.0414 20110
3.06151 19272
3.08162 18970
3.10174 18441
3.12185 17986
3.14197 17489
3.16208 16713
3.18219 16723
3.20231 16122
3.22242 15705
3.24253 15389
3.26265 14638
3.28276 13989
3.30288 13746
3.32299 13483
3.3431 12766
3.36322 12301
3.38333 12112
3.40344 11903
3.42356 11331
3.44367 11107
3.46379 10384
3.4839 10408
3.50401 9753
3.52413 9676
3.54424 9327
3.56435 8800
3.58447 8654
3.60458 8293
3.62469 8052
3.64481 7816
3.66492 7409
3.68504 7246
3.70515 6609
3.72526 6803
3.74538 6193
3.76549 6125
3.7856 5757
3.80572 5609
3.82583 5348
3.84595 5292
3.86606 4828
3.88617 4949
3.90629 4501
3.9264 4459
3.94651 4230
3.96663 4020
3.98674 3789
4.00686 3781
4.02697 3522
4.04708 3402
4.0672 3119
4.08731 3229
4.10742 3117
4.12754 2890
4.14765 2733
4.16776 2573
4.18788 2549
4.20799 2559
4.22811 2377
4.24822 2405
4.26833 2077
4.28845 2251
4.30856 2124
4.32867 2031
4.34879 2024
4.3689 1934
4.38902 1844
4.40913 1844
4.42924 1692
4.44936 1691
4.46947 1626
4.48958 1625
4.5097 1612
4.52981 1478
4.54992 1453
4.57004 1479
4.59015 1442
4.61027 1412
4.63038 1338
4.65049 1330
4.67061 1265
4.69072 1279
4.71083 1310
4.73095 1243
4.75106 1191
4.77118 1151
4.79129 1195
4.8114 1155
4.83152 1113
4.85163 1138
4.87174 1087
4.89186 1033
4.91197 1058
4.93209 982
4.9522 1018
4.97231 952
4.99243 1000
5.01254 924
5.03265 920
5.05277 902
5.07288 893
5.09299 817
5.11311 880
5.13322 813
5.15334 853
5.17345 785
5.19356 898
5.21368 818
5.23379 784
5.2539 762
5.27402 781
5.29413 767
5.31425 741
5.33436 707
5.35447 757
5.37459 710
5.3947 720
5.41481 696
5.43493 656
5.45504 671
5.47516 706
5.49527 630
5.51538 661
5.5355 625
5.55561 577
5.57572 604
5.59584 604
5.61595 645
5.63606 566
5.65618 572
5.67629 630
5.69641 549
5.71652 568
5.73663 577
5.75675 531
5.77686 558
5.79697 532
5.81709 531
5.8372 542
5.85732 489
5.87743 519
5.89754 534
5.91766 515
5.93777 507
5.95788 548
5.978 558
5.99811 586
6.01823 513
6.03834 571
6.05845 571
6.07857 570
6.09868 547
6.11879 622
6.13891 595
6.15902 641
6.17913 621
6.19925 633
6.21936 593
6.23948 642
6.25959 659
6.2797 658
6.29982 625
6.31993 617
6.34004 600
6.36016 550
6.38027 554
6.40039 550
6.4205 529
6.44061 506
6.46073 549
6.48084 477
6.50095 530
6.52107 463
6.54118 475
6.56129 472
6.58141 421
6.60152 466
6.62164 478
6.64175 478
6.66186 499
6.68198 499
6.70209 442
6.7222 470
6.74232 469
6.76243 445
6.78255 455
6.80266 468
6.82277 506
6.84289 469
6.863 406
6.88311 499
6.90323 503
6.92334 422
6.94346 415
6.96357 430
6.98368 455
7.0038 420
7.02391 439
7.04402 481
7.06414 430
7.08425 431
7.10436 459
7.12448 484
7.14459 456
7.16471 472
7.18482 451
7.20493 473
7.22505 448
7.24516 494
7.26527 417
7.28539 496
7.3055 515
7.32562 517
7.34573 454
7.36584 527
7.38596 501
7.40607 510
7.42618 536
7.4463 514
7.46641 477
7.48653 528
7.50664 538
7.52675 461
7.54687 546
7.56698 458
7.58709 496
7.60721 558
7.62732 528
7.64743 499
7.66755 544
7.68766 541
7.70778 546
7.72789 532
7.748 543
7.76812 586
7.78823 583
7.80834 613
7.82846 536
7.84857 597
7.86869 540
7.8888 562
7.90891 629
7.92903 607
7.94914 590
7.96925 622
7.98937 635
8.00948 646
8.0296 650
8.04971 658
8.06982 674
8.08994 633
8.11005 686
8.13016 679
8.15028 655
8.17039 748
8.1905 713
8.21062 656
8.23073 691
8.25085 654
8.27096 699
8.29107 670
8.31119 680
8.3313 666
8.35141 739
8.37153 693
8.39164 698
8.41176 721
8.43187 694
8.45198 780
8.4721 744
8.49221 690
8.51232 716
8.53244 731
8.55255 720
8.57266 735
8.59278 717
8.61289 680
8.63301 712
8.65312 797
8.67323 756
8.69335 824
8.71346 854
8.73357 860
8.75369 905
8.7738 947
8.79392 1011
8.81403 1188
8.83414 1096
8.85426 1224
8.87437 1333
8.89448 1316
8.9146 1230
8.93471 1100
8.95483 958
8.97494 821
8.99505 703
9.01517 645
9.03528 674
9.05539 639
9.07551 594
9.09562 582
9.11573 556
9.13585 505
9.15596 550
9.17608 569
9.19619 508
9.2163 541
9.23642 540
9.25653 494
9.27664 486
9.29676 518
9.31687 497
9.33699 494
9.3571 463
9.37721 498
9.39733 480
9.41744 494
9.43755 444
9.45767 480
9.47778 440
9.4979 445
9.51801 481
9.53812 517
9.55824 427
9.57835 477
9.59846 481
9.61858 517
9.63869 488
9.6588 433
9.67892 426
9.69903 452
9.71915 466
9.73926 434
9.75937 418
9.77949 435
9.7996 467
9.81971 455
9.83983 461
9.85994 415
9.88006 407
9.90017 428
9.92028 429
9.9404 448
9.96051 447
9.98062 440
10.00074 433
10.02085 395
10.04097 455
10.06108 432
10.08119 457
10.10131 425
10.12142 396
10.14153 420
10.16165 415
10.18176 436
10.20187 417
10.22199 424
10.2421 485
10.26222 431
10.28233 415
10.30244 397
10.32256 428
10.34267 404
10.36278 407
10.3829 404
10.40301 392
10.42313 463
10.44324 417
10.46335 393
10.48347 447
10.50358 453
10.52369 428
10.54381 344
10.56392 448
10.58403 434
10.60415 407
10.62426 398
10.64438 392
10.66449 394
10.6846 441
10.70472 403
10.72483 383
10.74494 427
10.76506 420
10.78517 398
10.80529 412
10.8254 395
10.84551 423
10.86563 406
10.88574 402
10.90585 388
10.92597 408
10.94608 430
10.9662 439
10.98631 393
11.00642 388
11.02654 416
11.04665 381
11.06676 383
11.08688 425
11.10699 392
11.1271 434
11.14722 406
11.16733 406
11.18745 369
11.20756 391
11.22767 431
11.24779 403
11.2679 381
11.28801 384
11.30813 441
11.32824 432
11.34836 432
11.36847 414
11.38858 412
11.4087 418
11.42881 407
11.44892 356
11.46904 441
11.48915 447
11.50927 423
11.52938 451
11.54949 454
11.56961 423
11.58972 422
11.60983 438
11.62995 397
11.65006 423
11.67017 391
11.69029 384
11.7104 404
11.73052 440
11.75063 424
11.77074 442
11.79086 390
11.81097 433
11.83108 474
11.8512 429
11.87131 420
11.89143 463
11.91154 440
11.93165 421
11.95177 416
11.97188 450
11.99199 464
12.01211 454
12.03222 449
12.05234 448
12.07245 451
12.09256 510
12.11268 530
12.13279 475
12.1529 517
12.17302 548
12.19313 488
12.21324 504
12.23336 558
12.25347 515
12.27359 542
12.2937 529
12.31381 542
12.33393 549
12.35404 567
12.37415 553
12.39427 542
12.41438 554
12.4345 579
12.45461 521
12.47472 552
12.49484 558
12.51495 513
12.53506 493
12.55518 484
12.57529 449
12.5954 438
12.61552 448
12.63563 425
12.65575 418
12.67586 438
12.69597 426
12.71609 453
12.7362 436
12.75631 417
12.77643 405
12.79654 409
12.81666 416
12.83677 418
12.85688 364
12.877 381
12.89711 418
12.91722 370
12.93734 381
12.95745 412
12.97757 394
12.99768 362
13.01779 413
13.03791 398
13.05802 361
13.07813 380
13.09825 426
13.11836 343
13.13847 354
13.15859 382
13.1787 350
13.19882 447
13.21893 400
13.23904 353
13.25916 385
13.27927 379
13.29938 370
13.3195 437
13.33961 366
13.35973 395
13.37984 360
13.39995 353
13.42007 370
13.44018 362
13.46029 348
13.48041 396
13.50052 357
13.52064 366
13.54075 311
13.56086 378
13.58098 378
13.60109 383
13.6212 370
13.64132 348
13.66143 379
13.68154 366
13.70166 360
13.72177 333
13.74189 405
13.762 366
13.78211 378
13.80223 408
13.82234 395
13.84245 441
13.86257 395
13.88268 376
13.9028 408
13.92291 353
13.94302 371
13.96314 358
13.98325 357
14.00336 367
14.02348 364
14.04359 370
14.06371 353
14.08382 361
14.10393 352
14.12405 384
14.14416 393
14.16427 320
14.18439 358
14.2045 345
14.22461 390
14.24473 370
14.26484 402
14.28496 403
14.30507 365
14.32518 349
14.3453 368
14.36541 375
14.38552 378
14.40564 380
14.42575 350
14.44587 354
14.46598 406
14.48609 360
14.50621 407
14.52632 354
14.54643 345
14.56655 390
14.58666 383
14.60677 359
14.62689 362
14.647 391
14.66712 355
14.68723 361
14.70734 335
14.72746 384
14.74757 423
14.76768 344
14.7878 350
14.80791 365
14.82803 360
14.84814 373
14.86825 357
14.88837 374
14.90848 378
14.92859 371
14.94871 352
14.96882 378
14.98894 364
15.00905 388
15.02916 354
15.04928 369
15.06939 423
15.0895 366
15.10962 404
15.12973 392
15.14984 353
15.16996 379
15.19007 347
15.21019 362
15.2303 396
15.25041 392
15.27053 399
15.29064 380
15.31075 366
15.33087 367
15.35098 360
15.3711 332
15.39121 383
15.41132 377
15.43144 370
15.45155 369
15.47166 332
15.49178 387
15.51189 339
15.53201 373
15.55212 389
15.57223 352
15.59235 374
15.61246 356
15.63257 364
15.65269 368
15.6728 337
15.69291 413
15.71303 379
15.73314 385
15.75326 356
15.77337 381
15.79348 372
15.8136 319
15.83371 372
15.85382 347
15.87394 381
15.89405 335
15.91417 373
15.93428 361
15.95439 373
15.97451 342
15.99462 334
16.01473 350
16.03485 358
16.05496 422
16.07508 344
16.09519 363
16.1153 394
16.13542 408
16.15553 362
16.17564 352
16.19576 347
16.21587 385
16.23598 385
16.2561 381
16.27621 328
16.29633 358
16.31644 374
16.33655 349
16.35667 383
16.37678 368
16.39689 374
16.41701 375
16.43712 344
16.45724 364
16.47735 377
16.49746 357
16.51758 375
16.53769 365
16.5578 374
16.57792 373
16.59803 369
16.61814 318
16.63826 362
16.65837 323
16.67849 374
16.6986 364
16.71871 360
16.73883 346
16.75894 371
16.77905 393
16.79917 360
16.81928 360
16.8394 365
16.85951 374
16.87962 333
16.89974 326
16.91985 384
16.93996 385
16.96008 368
16.98019 364
17.00031 381
17.02042 357
17.04053 343
17.06065 346
17.08076 353
17.10087 338
17.12099 405
17.1411 354
17.16121 350
17.18133 369
17.20144 359
17.22156 382
17.24167 365
17.26178 356
17.2819 369
17.30201 405
17.32212 391
17.34224 348
17.36235 356
17.38247 373
17.40258 417
17.42269 388
17.44281 356
17.46292 357
17.48303 359
17.50315 377
17.52326 387
17.54338 380
17.56349 392
17.5836 432
17.60372 401
17.62383 364
17.64394 368
17.66406 414
17.68417 425
17.70428 444
17.7244 520
17.74451 559
17.76463 545
17.78474 593
17.80485 627
17.82497 618
17.84508 575
17.86519 559
17.88531 465
17.90542 457
17.92554 453
17.94565 387
17.96576 390
17.98588 389
18.00599 369
18.0261 421
18.04622 405
18.06633 345
18.08645 404
18.10656 384
18.12667 368
18.14679 367
18.1669 335
18.18701 385
18.20713 372
18.22724 351
18.24735 341
18.26747 337
18.28758 396
18.3077 379
18.32781 400
18.34792 381
18.36804 366
18.38815 374
18.40826 403
18.42838 352
18.44849 378
18.46861 393
18.48872 394
18.50883 364
18.52895 354
18.54906 389
18.56917 358
18.58929 425
18.6094 377
18.62951 391
18.64963 401
18.66974 426
18.68986 382
18.70997 429
18.73008 396
18.7502 447
18.77031 423
18.79042 443
18.81054 425
18.83065 377
18.85077 379
18.87088 408
18.89099 390
18.91111 406
18.93122 405
18.95133 406
18.97145 397
18.99156 384
19.01168 384
19.03179 382
19.0519 405
19.07202 385
19.09213 379
19.11224 378
19.13236 408
19.15247 392
19.17258 441
19.1927 488
19.21281 457
19.23293 497
19.25304 540
19.27315 545
19.29327 580
19.31338 544
19.33349 564
19.35361 521
19.37372 496
19.39384 546
19.41395 546
19.43406 509
19.45418 477
19.47429 506
19.4944 497
19.51452 503
19.53463 482
19.55475 464
19.57486 496
19.59497 492
19.61509 473
19.6352 524
19.65531 546
19.67543 471
19.69554 523
19.71565 570
19.73577 641
19.75588 615
19.776 658
19.79611 688
19.81622 758
19.83634 806
19.85645 772
19.87656 793
19.89668 832
19.91679 858
19.93691 875
19.95702 744
19.97713 719
19.99725 682
20.01736 629
20.03747 592
20.05759 581
20.0777 546
20.09782 557
20.11793 561
20.13804 531
20.15816 496
20.17827 509
20.19838 589
20.2185 523
20.23861 562
20.25872 537
20.27884 548
20.29895 522
20.31907 510
20.33918 491
20.35929 569
20.37941 522
20.39952 496
20.41963 531
20.43975 555
20.45986 542
20.47998 540
20.50009 583
20.5202 561
20.54032 553
20.56043 593
20.58054 589
20.60066 631
20.62077 625
20.64088 696
20.661 716
20.68111 795
20.70123 863
20.72134 1043
20.74145 1225
20.76157 1499
20.78168 2051
20.80179 2459
20.82191 2713
20.84202 2803
20.86214 2741
20.88225 2348
20.90236 1810
20.92248 1373
20.94259 952
20.9627 742
20.98282 644
21.00293 561
21.02305 580
21.04316 580
21.06327 558
21.08339 550
21.1035 562
21.12361 517
21.14373 583
21.16384 546
21.18395 544
21.20407 519
21.22418 565
21.2443 561
21.26441 537
21.28452 495
21.30464 547
21.32475 521
21.34486 499
21.36498 502
21.38509 513
21.40521 515
21.42532 504
21.44543 521
21.46555 539
21.48566 477
21.50577 477
21.52589 511
21.546 502
21.56612 534
21.58623 556
21.60634 530
21.62646 560
21.64657 499
21.66668 572
21.6868 571
21.70691 527
21.72702 510
21.74714 501
21.76725 525
21.78737 479
21.80748 507
21.82759 425
21.84771 512
21.86782 491
21.88793 487
21.90805 546
21.92816 521
21.94828 545
21.96839 529
21.9885 543
22.00862 507
22.02873 526
22.04884 472
22.06896 447
22.08907 449
22.10919 434
22.1293 426
22.14941 449
22.16953 446
22.18964 452
22.20975 447
22.22987 434
22.24998 435
22.27009 455
22.29021 515
22.31032 468
22.33044 502
22.35055 457
22.37066 474
22.39078 460
22.41089 482
22.431 463
22.45112 461
22.47123 451
22.49135 471
22.51146 499
22.53157 435
22.55169 491
22.5718 484
22.59191 482
22.61203 454
22.63214 473
22.65225 468
22.67237 436
22.69248 448
22.7126 457
22.73271 454
22.75282 473
22.77294 445
22.79305 479
22.81316 471
22.83328 532
22.85339 544
22.87351 566
22.89362 557
22.91373 628
22.93385 591
22.95396 605
22.97407 638
22.99419 575
23.0143 573
23.03442 580
23.05453 487
23.07464 480
23.09476 446
23.11487 459
23.13498 488
23.1551 435
23.17521 455
23.19532 452
23.21544 463
23.23555 418
23.25567 462
23.27578 432
23.29589 444
23.31601 436
23.33612 450
23.35623 418
23.37635 428
23.39646 462
23.41658 455
23.43669 430
23.4568 455
23.47692 477
23.49703 468
23.51714 440
23.53726 464
23.55737 485
23.57749 498
23.5976 491
23.61771 539
23.63783 521
23.65794 527
23.67805 535
23.69817 523
23.71828 545
23.73839 586
23.75851 575
23.77862 585
23.79874 609
23.81885 608
23.83896 659
23.85908 625
23.87919 639
23.8993 664
23.91942 641
23.93953 576
23.95965 586
23.97976 585
23.99987 528
24.01999 520
24.0401 510
24.06021 530
24.08033 467
24.10044 498
24.12056 478
24.14067 508
24.16078 492
24.1809 531
24.20101 487
24.22112 554
24.24124 571
24.26135 532
24.28146 525
24.30158 544
24.32169 518
24.34181 529
24.36192 528
24.38203 507
24.40215 537
24.42226 532
24.44237 531
24.46249 536
24.4826 522
24.50272 513
24.52283 442
24.54294 504
24.56306 525
24.58317 517
24.60328 510
24.6234 516
24.64351 492
24.66362 523
24.68374 512
24.70385 504
24.72397 538
24.74408 505
24.76419 540
24.78431 526
24.80442 521
24.82453 470
24.84465 509
24.86476 515
24.88488 548
24.90499 550
24.9251 551
24.94522 580
24.96533 527
24.98544 557
25.00556 546
25.02567 561
25.04579 534
25.0659 569
25.08601 579
25.10613 627
25.12624 581
25.14635 544
25.16647 569
25.18658 548
25.20669 521
25.22681 576
25.24692 578
25.26704 514
25.28715 540
25.30726 520
25.32738 533
25.34749 558
25.3676 536
25.38772 570
25.40783 604
25.42795 611
25.44806 631
25.46817 642
25.48829 697
25.5084 720
25.52851 748
25.54863 748
25.56874 760
25.58886 728
25.60897 672
25.62908 642
25.6492 681
25.66931 672
25.68942 618
25.70954 606
25.72965 601
25.74976 614
25.76988 610
25.78999 595
25.81011 618
25.83022 582
25.85033 590
25.87045 635
25.89056 641
25.91067 596
25.93079 611
25.9509 621
25.97102 659
25.99113 628
26.01124 674
26.03136 668
26.05147 689
26.07158 716
26.0917 720
26.11181 802
26.13193 769
26.15204 835
26.17215 832
26.19227 844
26.21238 904
26.23249 907
26.25261 952
26.27272 1032
26.29283 975
26.31295 994
26.33306 1084
26.35318 1121
26.37329 1242
26.3934 1293
26.41352 1532
26.43363 1737
26.45374 2110
26.47386 2624
26.49397 3262
26.51409 4361
26.5342 5793
26.55431 7611
26.57443 9294
26.59454 10668
26.61465 11266
26.63477 10997
26.65488 9396
26.67499 7288
26.69511 5845
26.71522 4256
26.73534 3089
26.75545 2200
26.77556 1699
26.79568 1483
26.81579 1382
26.8359 1360
26.85602 1355
26.87613 1240
26.89625 1079
26.91636 982
26.93647 886
26.95659 822
26.9767 743
26.99681 734
27.01693 648
27.03704 566
27.05716 626
27.07727 644
27.09738 617
27.1175 517
27.13761 577
27.15772 561
27.17784 548
27.19795 537
27.21806 592
27.23818 544
27.25829 512
27.27841 506
27.29852 527
27.31863 530
27.33875 519
27.35886 541
27.37897 540
27.39909 555
27.4192 566
27.43932 523
27.45943 524
27.47954 503
27.49966 494
27.51977 474
27.53988 538
27.56 510
27.58011 552
27.60023 540
27.62034 517
27.64045 521
27.66057 587
27.68068 584
27.70079 633
27.72091 606
27.74102 696
27.76113 702
27.78125 740
27.80136 761
27.82148 786
27.84159 811
27.8617 747
27.88182 819
27.90193 821
27.92204 857
27.94216 855
27.96227 790
27.98239 784
28.0025 672
28.02261 671
28.04273 633
28.06284 611
28.08295 569
28.10307 515
28.12318 509
28.1433 544
28.16341 500
28.18352 513
28.20364 491
28.22375 543
28.24386 533
28.26398 546
28.28409 566
28.3042 596
28.32432 531
28.34443 505
28.36455 565
28.38466 520
28.40477 496
28.42489 521
28.445 496
28.46511 483
28.48523 490
28.50534 510
28.52546 465
28.54557 503
28.56568 473
28.5858 469
28.60591 470
28.62602 444
28.64614 500
28.66625 459
28.68636 450
28.70648 436
28.72659 478
28.74671 460
28.76682 454
28.78693 449
28.80705 465
28.82716 433
28.84727 453
28.86739 452
28.8875 472
28.90762 454
28.92773 451
28.94784 433
28.96796 455
28.98807 455
29.00818 416
29.0283 465
29.04841 459
29.06853 444
29.08864 471
29.10875 441
29.12887 423
29.14898 438
29.16909 441
29.18921 465
29.20932 435
29.22943 450
29.24955 394
29.26966 413
29.28978 462
29.30989 476
29.33 448
29.35012 423
29.37023 476
29.39034 442
29.41046 433
29.43057 429
29.45069 448
29.4708 400
29.49091 394
29.51103 438
29.53114 446
29.55125 438
29.57137 427
29.59148 444
29.6116 441
29.63171 461
29.65182 461
29.67194 452
29.69205 472
29.71216 499
29.73228 470
29.75239 501
29.7725 503
29.79262 551
29.81273 554
29.83285 602
29.85296 600
29.87307 594
29.89319 637
29.9133 695
29.93341 620
29.95353 636
29.97364 619
29.99376 601
30.01387 559
30.03398 574
30.0541 543
30.07421 514
30.09432 483
30.11444 512
30.13455 458
30.15467 453
30.17478 452
30.19489 468
30.21501 415
30.23512 459
30.25523 488
30.27535 421
30.29546 480
30.31557 499
30.33569 464
30.3558 506
30.37592 449
30.39603 470
30.41614 474
30.43626 470
30.45637 479
30.47648 466
30.4966 501
30.51671 498
30.53683 463
30.55694 461
30.57705 442
30.59717 427
30.61728 444
30.63739 465
30.65751 471
30.67762 448
30.69773 470
30.71785 494
30.73796 488
30.75808 461
30.77819 439
30.7983 542
30.81842 550
30.83853 579
30.85864 582
30.87876 630
30.89887 592
30.91899 530
30.9391 508
30.95921 487
30.97933 486
30.99944 472
31.01955 428
31.03967 454
31.05978 472
31.0799 486
31.10001 440
31.12012 511
31.14024 486
31.16035 497
31.18046 469
31.20058 509
31.22069 495
31.2408 541
31.26092 556
31.28103 533
31.30115 601
31.32126 588
31.34137 595
31.36149 567
31.3816 541
31.40171 516
31.42183 493
31.44194 470
31.46206 454
31.48217 428
31.50228 448
31.5224 408
31.54251 443
31.56262 422
31.58274 424
31.60285 425
31.62297 464
31.64308 431
31.66319 406
31.68331 412
31.70342 399
31.72353 427
31.74365 370
31.76376 412
31.78387 422
31.80399 416
31.8241 409
31.84422 428
31.86433 430
31.88444 421
31.90456 380
31.92467 420
31.94478 427
31.9649 416
31.98501 492
32.00513 458
32.02524 496
32.04535 471
32.06547 514
32.08558 531
32.10569 522
32.12581 534
32.14592 495
32.16604 522
32.18615 454
32.20626 469
32.22638 437
32.24649 485
32.2666 463
32.28672 472
32.30683 428
32.32694 470
32.34706 435
32.36717 441
32.38729 425
32.4074 399
32.42751 392
32.44763 453
32.46774 508
32.48785 477
32.50797 511
32.52808 465
32.5482 458
32.56831 466
32.58842 452
32.60854 428
32.62865 438
32.64876 447
32.66888 420
32.68899 418
32.7091 401
32.72922 422
32.74933 384
32.76945 412
32.78956 395
32.80967 401
32.82979 376
32.8499 403
32.87001 423
32.89013 396
32.91024 381
32.93036 445
32.95047 420
32.97058 412
32.9907 447
33.01081 433
33.03092 412
33.05104 420
33.07115 408
33.09127 402
33.11138 440
33.13149 385
33.15161 383
33.17172 435
33.19183 429
33.21195 420
33.23206 396
33.25217 427
33.27229 443
33.2924 408
33.31252 414
33.33263 369
33.35274 448
33.37286 428
33.39297 440
33.41308 390
33.4332 423
33.45331 397
33.47343 407
33.49354 428
33.51365 446
33.53377 410
33.55388 402
33.57399 403
33.59411 411
33.61422 408
33.63434 414
33.65445 462
33.67456 443
33.69468 454
33.71479 468
33.7349 464
33.75502 445
33.77513 448
33.79524 486
33.81536 479
33.83547 488
33.85559 504
33.8757 447
33.89581 523
33.91593 489
33.93604 488
33.95615 571
33.97627 562
33.99638 532
34.0165 555
34.03661 595
34.05672 632
34.07684 606
34.09695 660
34.11706 660
34.13718 692
34.15729 778
34.17741 789
34.19752 835
34.21763 831
34.23775 892
34.25786 835
34.27797 827
34.29809 785
34.3182 730
34.33831 768
34.35843 719
34.37854 651
34.39866 632
34.41877 677
34.43888 647
34.459 673
34.47911 654
34.49922 694
34.51934 765
34.53945 826
34.55957 885
34.57968 931
34.59979 994
34.61991 1035
34.64002 1075
34.66013 1018
34.68025 936
34.70036 858
34.72047 889
34.74059 842
34.7607 784
34.78082 750
34.80093 653
34.82104 653
34.84116 674
34.86127 617
34.88138 664
34.9015 730
34.92161 721
34.94173 726
34.96184 763
34.98195 784
35.00207 861
35.02218 806
35.04229 887
35.06241 843
35.08252 838
35.10264 847
35.12275 838
35.14286 787
35.16298 732
35.18309 714
35.2032 634
35.22332 676
35.24343 598
35.26354 611
35.28366 596
35.30377 575
35.32389 556
35.344 553
35.36411 575
35.38423 509
35.40434 495
35.42445 510
35.44457 497
35.46468 502
35.4848 497
35.50491 521
35.52502 496
35.54514 542
35.56525 532
35.58536 481
35.60548 511
35.62559 514
35.64571 506
35.66582 519
35.68593 499
35.70605 482
35.72616 522
35.74627 475
35.76639 497
35.7865 497
35.80661 537
35.82673 520
35.84684 500
35.86696 524
35.88707 494
35.90718 545
35.9273 540
35.94741 508
35.96752 484
35.98764 513
36.00775 533
36.02787 506
36.04798 516
36.06809 518
36.08821 509
36.10832 475
36.12843 536
36.14855 534
36.16866 526
36.18878 485
36.20889 493
36.229 506
36.24912 515
36.26923 522
36.28934 548
36.30946 526
36.32957 597
36.34968 591
36.3698 668
36.38991 680
36.41003 807
36.43014 876
36.45025 947
36.47037 1083
36.49048 1213
36.51059 1196
36.53071 1193
36.55082 1131
36.57094 1005
36.59105 902
36.61116 915
36.63128 837
36.65139 759
36.6715 646
36.69162 585
36.71173 626
36.73184 610
36.75196 556
36.77207 582
36.79219 629
36.8123 617
36.83241 585
36.85253 586
36.87264 609
36.89275 591
36.91287 601
36.93298 669
36.9531 590
36.97321 596
36.99332 639
37.01344 591
37.03355 592
37.05366 605
37.07378 567
37.09389 588
37.11401 592
37.13412 562
37.15423 549
37.17435 545
37.19446 557
37.21457 546
37.23469 515
37.2548 528
37.27491 513
37.29503 505
37.31514 535
37.33526 512
37.35537 548
37.37548 501
37.3956 499
37.41571 498
37.43582 505
37.45594 491
37.47605 488
37.49617 510
37.51628 511
37.53639 476
37.55651 499
37.57662 490
37.59673 471
37.61685 569
37.63696 506
37.65708 517
37.67719 490
37.6973 515
37.71742 538
37.73753 498
37.75764 504
37.77776 538
37.79787 510
37.81798 543
37.8381 506
37.85821 517
37.87833 533
37.89844 497
37.91855 497
37.93867 487
37.95878 533
37.97889 481
37.99901 466
38.01912 488
38.03924 523
38.05935 508
38.07946 518
38.09958 507
38.11969 491
38.1398 498
38.15992 466
38.18003 487
38.20015 477
38.22026 421
38.24037 422
38.26049 438
38.2806 446
38.30071 449
38.32083 449
38.34094 425
38.36105 445
38.38117 442
38.40128 486
38.4214 477
38.44151 453
38.46162 410
38.48174 425
38.50185 398
38.52196 448
38.54208 391
38.56219 468
38.58231 398
38.60242 413
38.62253 457
38.64265 420
38.66276 402
38.68287 382
38.70299 441
38.7231 390
38.74321 436
38.76333 399
38.78344 412
38.80356 405
38.82367 431
38.84378 408
38.8639 415
38.88401 428
38.90412 422
38.92424 421
38.94435 448
38.96447 436
38.98458 462
39.00469 448
39.02481 418
39.04492 438
39.06503 429
39.08515 425
39.10526 447
39.12538 479
39.14549 462
39.1656 489
39.18572 464
39.20583 512
39.22594 496
39.24606 497
39.26617 541
39.28628 575
39.3064 607
39.32651 660
39.34663 794
39.36674 852
39.38685 923
39.40697 982
39.42708 994
39.44719 1111
39.46731 959
39.48742 858
39.50754 789
39.52765 743
39.54776 660
39.56788 690
39.58799 580
39.6081 551
39.62822 556
39.64833 517
39.66845 540
39.68856 484
39.70867 539
39.72879 469
39.7489 469
39.76901 480
39.78913 443
39.80924 525
39.82935 490
39.84947 478
39.86958 500
39.8897 425
39.90981 476
39.92992 460
39.95004 437
39.97015 469
39.99026 485
40.01038 490
40.03049 499
40.05061 479
40.07072 490
40.09083 510
40.11095 524
40.13106 550
40.15117 590
40.17129 604
40.1914 686
40.21152 707
40.23163 757
40.25174 736
40.27186 813
40.29197 732
40.31208 668
40.3322 621
40.35231 582
40.37242 612
40.39254 581
40.41265 504
40.43277 490
40.45288 484
40.47299 436
40.49311 457
40.51322 474
40.53333 441
40.55345 442
40.57356 463
40.59368 421
40.61379 450
40.6339 431
40.65402 421
40.67413 414
40.69424 426
40.71436 413
40.73447 433
40.75458 416
40.7747 414
40.79481 432
40.81493 442
40.83504 454
40.85515 441
40.87527 432
40.89538 447
40.91549 479
40.93561 461
40.95572 450
40.97584 463
40.99595 446
41.01606 455
41.03618 435
41.05629 447
41.0764 473
41.09652 434
41.11663 405
41.13675 437
41.15686 423
41.17697 435
41.19709 496
41.2172 484
41.23731 465
41.25743 462
41.27754 470
41.29765 474
41.31777 480
41.33788 478
41.358 476
41.37811 500
41.39822 544
41.41834 551
41.43845 528
41.45856 545
41.47868 491
41.49879 487
41.51891 532
41.53902 554
41.55913 513
41.57925 484
41.59936 494
41.61947 468
41.63959 470
41.6597 506
41.67982 451
41.69993 431
41.72004 428
41.74016 448
41.76027 473
41.78038 476
41.8005 420
41.82061 406
41.84072 431
41.86084 420
41.88095 389
41.90107 422
41.92118 413
41.94129 472
41.96141 433
41.98152 439
42.00163 428
42.02175 454
42.04186 478
42.06198 454
42.08209 451
42.1022 477
42.12232 455
42.14243 454
42.16254 482
42.18266 459
42.20277 445
42.22289 523
42.243 510
42.26311 533
42.28323 558
42.30334 646
42.32345 646
42.34357 683
42.36368 825
42.38379 879
42.40391 890
42.42402 890
42.44414 882
42.46425 795
42.48436 717
42.50448 677
42.52459 700
42.5447 637
42.56482 616
42.58493 531
42.60505 540
42.62516 445
42.64527 468
42.66539 483
42.6855 492
42.70561 448
42.72573 427
42.74584 478
42.76595 466
42.78607 444
42.80618 426
42.8263 425
42.84641 404
42.86652 419
42.88664 414
42.90675 410
42.92686 442
42.94698 401
42.96709 363
42.98721 399
43.00732 396
43.02743 367
43.04755 396
43.06766 389
43.08777 384
43.10789 352
43.128 358
43.14812 375
43.16823 381
43.18834 363
43.20846 370
43.22857 371
43.24868 364
43.2688 396
43.28891 368
43.30902 367
43.32914 418
43.34925 366
43.36937 390
43.38948 329
43.40959 364
43.42971 373
43.44982 400
43.46993 358
43.49005 358
43.51016 362
43.53028 384
43.55039 372
43.5705 365
43.59062 361
43.61073 394
43.63084 387
43.65096 365
43.67107 364
43.69119 324
43.7113 373
43.73141 384
43.75153 357
43.77164 392
43.79175 383
43.81187 383
43.83198 365
43.85209 361
43.87221 370
43.89232 366
43.91244 368
43.93255 387
43.95266 357
43.97278 363
43.99289 403
44.013 388
44.03312 382
44.05323 365
44.07335 401
44.09346 386
44.11357 428
44.13369 384
44.1538 416
44.17391 402
44.19403 401
44.21414 395
44.23426 392
44.25437 427
44.27448 403
44.2946 392
44.31471 380
44.33482 387
44.35494 384
44.37505 390
44.39516 384
44.41528 383
44.43539 369
44.45551 380
44.47562 381
44.49573 406
44.51585 391
44.53596 405
44.55607 384
44.57619 422
44.5963 413
44.61642 422
44.63653 458
44.65664 415
44.67676 416
44.69687 392
44.71698 413
44.7371 412
44.75721 443
44.77732 390
44.79744 404
44.81755 449
44.83767 444
44.85778 438
44.87789 448
44.89801 431
44.91812 442
44.93823 433
44.95835 452
44.97846 445
44.99858 449
45.01869 453
45.0388 440
45.05892 459
45.07903 442
45.09914 449
45.11926 470
45.13937 403
45.15949 446
45.1796 462
45.19971 441
45.21983 452
45.23994 424
45.26005 469
45.28017 468
45.30028 487
45.32039 477
45.34051 456
45.36062 459
45.38074 518
45.40085 514
45.42096 545
45.44108 532
45.46119 524
45.4813 594
45.50142 530
45.52153 547
45.54165 568
45.56176 597
45.58187 555
45.60199 506
45.6221 555
45.64221 604
45.66233 579
45.68244 605
45.70256 714
45.72267 652
45.74278 713
45.7629 739
45.78301 721
45.80312 618
45.82324 557
45.84335 566
45.86346 551
45.88358 501
45.90369 507
45.92381 452
45.94392 487
45.96403 400
45.98415 432
46.00426 416
46.02437 427
46.04449 417
46.0646 413
46.08472 406
46.10483 443
46.12494 399
46.14506 404
46.16517 405
46.18528 416
46.2054 390
46.22551 388
46.24563 366
46.26574 383
46.28585 396
46.30597 379
46.32608 407
46.34619 382
46.36631 368
46.38642 373
46.40653 398
46.42665 373
46.44676 398
46.46688 389
46.48699 357
46.5071 378
46.52722 376
46.54733 396
46.56744 368
46.58756 373
46.60767 390
46.62779 427
46.6479 378
46.66801 396
46.68813 359
46.70824 399
46.72835 358
46.74847 389
46.76858 338
46.78869 372
46.80881 429
46.82892 376
46.84904 362
46.86915 345
46.88926 376
46.90938 341
46.92949 368
46.9496 360
46.96972 372
46.98983 372
47.00995 356
47.03006 331
47.05017 384
47.07029 374
47.0904 350
47.11051 354
47.13063 363
47.15074 366
47.17086 361
47.19097 378
47.21108 381
47.2312 356
47.25131 352
47.27142 364
47.29154 372
47.31165 397
47.33176 332
47.35188 388
47.37199 386
47.39211 359
47.41222 399
47.43233 385
47.45245 343
47.47256 365
47.49267 366
47.51279 396
47.5329 372
47.55302 329
47.57313 385
47.59324 366
47.61336 355
47.63347 364
47.65358 362
47.6737 380
47.69381 351
47.71393 367
47.73404 392
47.75415 336
47.77427 371
47.79438 341
47.81449 350
47.83461 340
47.85472 349
47.87483 369
47.89495 355
47.91506 390
47.93518 366
47.95529 362
47.9754 374
47.99552 354
48.01563 377
48.03574 331
48.05586 349
48.07597 352
48.09609 326
48.1162 369
48.13631 408
48.15643 357
48.17654 329
48.19665 404
48.21677 415
48.23688 386
48.257 415
48.27711 395
48.29722 388
48.31734 353
48.33745 381
48.35756 364
48.37768 440
48.39779 436
48.4179 397
48.43802 454
48.45813 449
48.47825 420
48.49836 443
48.51847 418
48.53859 420
48.5587 372
48.57881 400
48.59893 419
48.61904 436
48.63916 419
48.65927 429
48.67938 401
48.6995 361
48.71961 410
48.73972 379
48.75984 369
48.77995 340
48.80006 386
48.82018 401
48.84029 345
48.86041 403
48.88052 384
48.90063 361
48.92075 398
48.94086 345
48.96097 352
48.98109 384
49.0012 339
49.02132 346
49.04143 385
49.06154 347
49.08166 343
49.10177 397
49.12188 377
49.142 378
49.16211 332
49.18223 381
49.20234 373
49.22245 341
49.24257 366
49.26268 365
49.28279 364
49.30291 376
49.32302 373
49.34313 348
49.36325 377
49.38336 367
49.40348 386
49.42359 341
49.4437 390
49.46382 397
49.48393 368
49.50404 355
49.52416 396
49.54427 378
49.56439 360
49.5845 389
49.60461 351
49.62473 370
49.64484 389
49.66495 387
49.68507 373
49.70518 413
49.7253 385
49.74541 418
49.76552 433
49.78564 452
49.80575 443
49.82586 478
49.84598 473
49.86609 465
49.8862 471
49.90632 537
49.92643 581
49.94655 653
49.96666 671
49.98677 798
50.00689 859
50.027 1004
50.04711 1176
50.06723 1260
50.08734 1315
50.10746 1294
50.12757 1209
50.14768 1049
50.1678 952
50.18791 867
50.20802 883
50.22814 865
50.24825 813
50.26837 723
50.28848 600
50.30859 488
50.32871 454
50.34882 401
50.36893 388
50.38905 399
50.40916 395
50.42927 381
50.44939 371
50.4695 375
50.48962 378
50.50973 385
50.52984 345
50.54996 376
50.57007 376
50.59018 366
50.6103 346
50.63041 366
50.65053 355
50.67064 353
50.69075 396
50.71087 365
50.73098 375
50.75109 374
50.77121 366
50.79132 353
50.81143 332
50.83155 337
50.85166 356
50.87178 352
50.89189 378
50.912 338
50.93212 348
50.95223 321
50.97234 346
50.99246 359
51.01257 330
51.03269 360
51.0528 344
51.07291 345
51.09303 334
51.11314 350
51.13325 352
51.15337 328
51.17348 342
51.1936 327
51.21371 353
51.23382 384
51.25394 346
51.27405 346
51.29416 355
51.31428 333
51.33439 359
51.3545 338
51.37462 329
51.39473 343
51.41485 308
51.43496 329
51.45507 335
51.47519 343
51.4953 365
51.51541 332
51.53553 355
51.55564 362
51.57576 339
51.59587 362
51.61598 342
51.6361 342
51.65621 324
51.67632 342
51.69644 317
51.71655 347
51.73667 364
51.75678 368
51.77689 348
51.79701 330
51.81712 357
51.83723 355
51.85735 350
51.87746 331
51.89757 346
51.91769 381
51.9378 319
51.95792 328
51.97803 359
51.99814 368
52.01826 354
52.03837 341
52.05848 339
52.0786 336
52.09871 336
52.11883 328
52.13894 347
52.15905 315
52.17917 343
52.19928 350
52.21939 307
52.23951 343
52.25962 340
52.27974 361
52.29985 324
52.31996 350
52.34008 343
52.36019 336
52.3803 345
52.40042 365
52.42053 355
52.44064 325
52.46076 369
52.48087 368
52.50099 363
52.5211 389
52.54121 395
52.56133 377
52.58144 374
52.60155 332
52.62167 348
52.64178 366
52.6619 360
52.68201 382
52.70212 377
52.72224 390
52.74235 369
52.76246 392
52.78258 367
52.80269 407
52.8228 390
52.84292 394
52.86303 407
52.88315 395
52.90326 394
52.92337 436
52.94349 425
52.9636 400
52.98371 427
53.00383 452
53.02394 424
53.04406 432
53.06417 413
53.08428 406
53.1044 409
53.12451 404
53.14462 406
53.16474 397
53.18485 396
53.20497 385
53.22508 439
53.24519 369
53.26531 344
53.28542 394
53.30553 367
53.32565 386
53.34576 387
53.36587 359
53.38599 366
53.4061 349
53.42622 410
53.44633 393
53.46644 377
53.48656 384
53.50667 405
53.52678 411
53.5469 389
53.56701 414
53.58713 382
53.60724 366
53.62735 385
53.64747 375
53.66758 400
53.68769 372
53.70781 385
53.72792 372
53.74804 368
53.76815 413
53.78826 364
53.80838 354
53.82849 396
53.8486 383
53.86872 366
53.88883 406
53.90894 436
53.92906 401
53.94917 413
53.96929 436
53.9894 388
54.00951 385
54.02963 397
54.04974 394
54.06985 372
54.08997 406
54.11008 399
54.1302 355
54.15031 382
54.17042 415
54.19054 407
54.21065 413
54.23076 442
54.25088 454
54.27099 414
54.29111 417
54.31122 399
54.33133 400
54.35145 429
54.37156 431
54.39167 410
54.41179 430
54.4319 443
54.45201 403
54.47213 405
54.49224 467
54.51236 470
54.53247 439
54.55258 452
54.5727 470
54.59281 449
54.61292 470
54.63304 539
54.65315 489
54.67327 503
54.69338 558
54.71349 594
54.73361 621
54.75372 618
54.77383 724
54.79395 733
54.81406 732
54.83417 805
54.85429 780
54.8744 667
54.89452 669
54.91463 673
54.93474 667
54.95486 762
54.97497 678
54.99508 595
55.0152 564
55.03531 594
55.05543 557
55.07554 509
55.09565 530
55.11577 514
55.13588 493
55.15599 489
55.17611 500
55.19622 546
55.21634 519
55.23645 559
55.25656 524
55.27668 586
55.29679 542
55.3169 504
55.33702 465
55.35713 490
55.37724 507
55.39736 486
55.41747 508
55.43759 461
55.4577 469
55.47781 491
55.49793 437
55.51804 428
55.53815 394
55.55827 400
55.57838 438
55.5985 384
55.61861 435
55.63872 417
55.65884 433
55.67895 393
55.69906 421
55.71918 396
55.73929 418
55.75941 384
55.77952 422
55.79963 400
55.81975 461
55.83986 456
55.85997 439
55.88009 419
55.9002 438
55.92031 445
55.94043 439
55.96054 433
55.98066 490
56.00077 453
56.02088 417
56.041 416
56.06111 455
56.08122 438
56.10134 402
56.12145 427
56.14157 400
56.16168 375
56.18179 399
56.20191 387
56.22202 367
56.24213 361
56.26225 399
56.28236 363
56.30248 389
56.32259 357
56.3427 362
56.36282 370
56.38293 332
56.40304 404
56.42316 366
56.44327 381
56.46338 354
56.4835 382
56.50361 410
56.52373 349
56.54384 395
56.56395 407
56.58407 384
56.60418 403
56.62429 384
56.64441 382
56.66452 374
56.68464 386
56.70475 397
56.72486 396
56.74498 392
56.76509 362
56.7852 385
56.80532 352
56.82543 375
56.84554 406
56.86566 385
56.88577 374
56.90589 357
56.926 386
56.94611 359
56.96623 350
56.98634 362
57.00645 401
57.02657 372
57.04668 390
57.0668 416
57.08691 392
57.10702 408
57.12714 402
57.14725 427
57.16736 387
57.18748 385
57.20759 393
57.22771 410
57.24782 398
57.26793 430
57.28805 415
57.30816 413
57.32827 457
57.34839 435
57.3685 434
57.38861 474
57.40873 429
57.42884 461
57.44896 454
57.46907 437
57.48918 416
57.5093 388
57.52941 401
57.54952 399
57.56964 409
57.58975 403
57.60987 384
57.62998 402
57.65009 440
57.67021 383
57.69032 344
57.71043 379
57.73055 385
57.75066 382
57.77078 347
57.79089 359
57.811 384
57.83112 348
57.85123 347
57.87134 331
57.89146 368
57.91157 371
57.93168 326
57.9518 316
57.97191 379
57.99203 340
58.01214 369
58.03225 358
58.05237 305
58.07248 345
58.09259 297
58.11271 350
58.13282 334
58.15294 316
58.17305 339
58.19316 365
58.21328 353
58.23339 379
58.2535 345
58.27362 337
58.29373 330
58.31385 348
58.33396 346
58.35407 341
58.37419 371
58.3943 326
58.41441 355
58.43453 360
58.45464 318
58.47475 370
58.49487 350
58.51498 361
58.5351 358
58.55521 355
58.57532 378
58.59544 327
58.61555 349
58.63566 346
58.65578 330
58.67589 350
58.69601 353
58.71612 357
58.73623 340
58.75635 344
58.77646 341
58.79657 373
58.81669 338
58.8368 326
58.85691 376
58.87703 364
58.89714 363
58.91726 342
58.93737 376
58.95748 370
58.9776 378
58.99771 350
59.01782 349
59.03794 358
59.05805 347
59.07817 341
59.09828 365
59.11839 346
59.13851 353
59.15862 365
59.17873 354
59.19885 332
59.21896 389
59.23908 318
59.25919 358
59.2793 362
59.29942 406
59.31953 392
59.33964 381
59.35976 400
59.37987 375
59.39998 411
59.4201 401
59.44021 436
59.46033 412
59.48044 412
59.50055 404
59.52067 446
59.54078 451
59.56089 489
59.58101 470
59.60112 458
59.62124 467
59.64135 530
59.66146 518
59.68158 550
59.70169 586
59.7218 588
59.74192 655
59.76203 676
59.78215 751
59.80226 767
59.82237 844
59.84249 911
59.8626 959
59.88271 1029
59.90283 1067
59.92294 1033
59.94305 1006
59.96317 880
59.98328 807
60.0034 754
60.02351 723
60.04362 742
60.06374 708
60.08385 759
60.10396 666
60.12408 652
60.14419 576
60.16431 566
60.18442 585
60.20453 556
60.22465 534
60.24476 532
60.26487 572
60.28499 524
60.3051 543
60.32522 553
60.34533 578
60.36544 549
60.38556 506
60.40567 560
60.42578 536
60.4459 552
60.46601 502
60.48612 488
60.50624 508
60.52635 459
60.54647 455
60.56658 440
60.58669 446
60.60681 421
60.62692 415
60.64703 400
60.66715 412
60.68726 389
60.70738 404
60.72749 433
60.7476 428
60.76772 401
60.78783 439
60.80794 419
60.82806 395
60.84817 418
60.86828 417
60.8884 433
60.90851 396
60.92863 405
60.94874 388
60.96885 409
60.98897 426
61.00908 419
61.02919 399
61.04931 397
61.06942 389
61.08954 394
61.10965 453
61.12976 376
61.14988 393
61.16999 349
61.1901 366
61.21022 382
61.23033 380
61.25045 381
61.27056 415
61.29067 374
61.31079 378
61.3309 405
61.35101 414
61.37113 404
61.39124 388
61.41135 386
61.43147 362
61.45158 385
61.4717 396
61.49181 422
61.51192 383
61.53204 385
61.55215 390
61.57226 408
61.59238 383
61.61249 435
61.63261 407
61.65272 394
61.67283 373
61.69295 450
61.71306 403
61.73317 405
61.75329 408
61.7734 446
61.79352 474
61.81363 463
61.83374 477
61.85386 439
61.87397 453
61.89408 451
61.9142 451
61.93431 423
61.95442 454
61.97454 461
61.99465 417
62.01477 460
62.03488 384
62.05499 442
62.07511 379
62.09522 390
62.11533 427
62.13545 414
62.15556 399
62.17568 388
62.19579 428
62.2159 399
62.23602 406
62.25613 336
62.27624 375
62.29636 379
62.31647 333
62.33659 384
62.3567 367
62.37681 387
62.39693 369
62.41704 370
62.43715 374
62.45727 366
62.47738 371
62.49749 347
62.51761 372
62.53772 349
62.55784 356
62.57795 354
62.59806 373
62.61818 357
62.63829 367
62.6584 343
62.67852 407
62.69863 336
62.71875 366
62.73886 341
62.75897 370
62.77909 348
62.7992 353
62.81931 353
62.83943 339
62.85954 316
62.87965 315
62.89977 344
62.91988 328
62.94 358
62.96011 319
62.98022 341
63.00034 344
63.02045 361
63.04056 344
63.06068 343
63.08079 328
63.10091 345
63.12102 319
63.14113 370
63.16125 349
63.18136 334
63.20147 359
63.22159 317
63.2417 369
63.26182 358
63.28193 338
63.30204 323
63.32216 349
63.34227 344
63.36238 355
63.3825 335
63.40261 355
63.42272 313
63.44284 358
63.46295 304
63.48307 337
63.50318 340
63.52329 350
63.54341 333
63.56352 339
63.58363 366
63.60375 311
63.62386 349
63.64398 344
63.66409 315
63.6842 327
63.70432 341
63.72443 336
63.74454 345
63.76466 371
63.78477 372
63.80489 345
63.825 359
63.84511 377
63.86523 386
63.88534 396
63.90545 376
63.92557 392
63.94568 407
63.96579 456
63.98591 491
64.00602 454
64.02614 407
64.04625 379
64.06636 405
64.08648 403
64.10659 366
64.1267 378
64.14682 393
64.16693 404
64.18705 358
64.20716 371
64.22727 370
64.24739 354
64.2675 392
64.28761 357
64.30773 335
64.32784 372
64.34796 327
64.36807 335
64.38818 340
64.4083 320
64.42841 342
64.44852 352
64.46864 329
64.48875 312
64.50886 298
64.52898 335
64.54909 341
64.56921 322
64.58932 360
64.60943 324
64.62955 312
64.64966 315
64.66977 336
64.68989 336
64.71 286
64.73012 362
64.75023 311
64.77034 315
64.79046 328
64.81057 347
64.83068 330
64.8508 292
64.87091 327
64.89102 363
64.91114 330
64.93125 333
64.95137 341
64.97148 322
64.99159 310
65.01171 333
65.03182 320
65.05193 295
65.07205 308
65.09216 301
65.11228 325
65.13239 296
65.1525 343
65.17262 361
65.19273 311
65.21284 320
65.23296 295
65.25307 341
65.27319 322
65.2933 335
65.31341 339
65.33353 316
65.35364 352
65.37375 338
65.39387 330
65.41398 348
65.43409 324
65.45421 345
65.47432 298
65.49444 326
65.51455 308
65.53466 289
65.55478 325
65.57489 313
65.595 329
65.61512 311
65.63523 326
65.65535 338
65.67546 331
65.69557 352
65.71569 341
65.7358 360
65.75591 324
65.77603 337
65.79614 332
65.81626 335
65.83637 318
65.85648 335
65.8766 327
65.89671 346
65.91682 316
65.93694 318
65.95705 308
65.97716 342
65.99728 318
66.01739 337
66.03751 327
66.05762 297
66.07773 305
66.09785 307
66.11796 341
66.13807 351
66.15819 327
66.1783 334
66.19842 320
66.21853 322
66.23864 336
66.25876 323
66.27887 307
66.29898 339
66.3191 320
66.33921 325
66.35933 287
66.37944 310
66.39955 305
66.41967 336
66.43978 315
66.45989 284
66.48001 324
66.50012 303
66.52023 327
66.54035 325
66.56046 319
66.58058 345
66.60069 331
66.6208 297
66.64092 309
66.66103 317
66.68114 350
66.70126 307
66.72137 288
66.74149 334
66.7616 316
66.78171 324
66.80183 328
66.82194 327
66.84205 326
66.86217 321
66.88228 310
66.90239 298
66.92251 304
66.94262 326
66.96274 338
66.98285 291
67.00296 320
67.02308 309
67.04319 327
67.0633 330
67.08342 352
67.10353 337
67.12365 322
67.14376 327
67.16387 325
67.18399 332
67.2041 306
67.22421 349
67.24433 315
67.26444 329
67.28456 359
67.30467 349
67.32478 372
67.3449 315
67.36501 340
67.38512 359
67.40524 349
67.42535 359
67.44546 338
67.46558 376
67.48569 421
67.50581 400
67.52592 406
67.54603 431
67.56615 488
67.58626 485
67.60637 572
67.62649 608
67.6466 595
67.66672 646
67.68683 671
67.70694 646
67.72706 640
67.74717 587
67.76728 533
67.7874 488
67.80751 510
67.82763 531
67.84774 561
67.86785 540
67.88797 568
67.90808 557
67.92819 550
67.94831 552
67.96842 588
67.98853 587
68.00865 616
68.02876 638
68.04888 677
68.06899 740
68.0891 778
68.10922 816
68.12933 771
68.14944 702
68.16956 689
68.18967 662
68.20979 690
68.2299 732
68.25001 796
68.27013 748
68.29024 731
68.31035 661
68.33047 585
68.35058 557
68.3707 512
68.39081 496
68.41092 463
68.43104 493
68.45115 437
68.47126 432
68.49138 447
68.51149 386
68.5316 388
68.55172 357
68.57183 326
68.59195 358
68.61206 366
68.63217 321
68.65229 359
68.6724 352
68.69251 361
68.71263 344
68.73274 356
68.75286 348
68.77297 323
68.79308 335
68.8132 323
68.83331 345
68.85342 340
68.87354 355
68.89365 345
68.91376 335
68.93388 318
68.95399 301
68.97411 353
68.99422 355
69.01433 316
69.03445 310
69.05456 343
69.07467 316
69.09479 320
69.1149 314
69.13502 324
69.15513 340
69.17524 326
69.19536 324
69.21547 342
69.23558 340
69.2557 337
69.27581 331
69.29593 362
69.31604 328
69.33615 340
69.35627 327
69.37638 330
69.39649 324
69.41661 340
69.43672 374
69.45683 343
69.47695 357
69.49706 328
69.51718 321
69.53729 353
69.5574 372
69.57752 356
69.59763 345
69.61774 351
69.63786 361
69.65797 341
69.67809 341
69.6982 350
69.71831 362
69.73843 325
69.75854 334
69.77865 333
69.79877 314
69.81888 297
69.839 363
69.85911 336
69.87922 353
69.89934 321
69.91945 318
69.93956 319
69.95968 335
69.97979 322
69.9999 333
70.02002 292
70.04013 355
70.06025 308
70.08036 318
70.10047 321
70.12059 359
70.1407 317
70.16081 319
70.18093 297
70.20104 318
70.22116 319
70.24127 332
70.26138 326
70.2815 362
70.30161 329
70.32172 297
70.34184 295
70.36195 343
70.38207 327
70.40218 332
70.42229 343
70.44241 331
70.46252 350
70.48263 333
70.50275 329
70.52286 352
70.54297 314
70.56309 342
70.5832 298
70.60332 331
70.62343 328
70.64354 287
70.66366 286
70.68377 318
70.70388 305
70.724 301
70.74411 297
70.76423 295
70.78434 303
70.80445 284
70.82457 305
70.84468 319
70.86479 321
70.88491 336
70.90502 288
70.92513 327
70.94525 325
70.96536 307
70.98548 315
71.00559 315
71.0257 333
71.04582 328
71.06593 334
71.08604 309
71.10616 303
71.12627 305
71.14639 337
71.1665 313
71.18661 335
71.20673 325
71.22684 325
71.24695 347
71.26707 346
71.28718 328
71.3073 348
71.32741 327
71.34752 323
71.36764 339
71.38775 358
71.40786 317
71.42798 317
71.44809 342
71.4682 328
71.48832 329
71.50843 311
71.52855 329
71.54866 327
71.56877 325
71.58889 306
71.609 331
71.62911 328
71.64923 349
71.66934 325
71.68946 312
71.70957 298
71.72968 292
71.7498 314
71.76991 317
71.79002 355
71.81014 297
71.83025 317
71.85037 318
71.87048 329
71.89059 324
71.91071 306
71.93082 307
71.95093 325
71.97105 328
71.99116 326
72.01127 301
72.03139 330
72.0515 302
72.07162 291
72.09173 333
72.11184 281
72.13196 311
72.15207 304
72.17218 332
72.1923 299
72.21241 315
72.23253 295
72.25264 314
72.27275 343
72.29287 325
72.31298 307
72.33309 309
72.35321 320
72.37332 310
72.39344 318
72.41355 285
72.43366 308
72.45378 330
72.47389 306
72.494 311
72.51412 306
72.53423 305
72.55434 302
72.57446 328
72.59457 333
72.61469 306
72.6348 300
72.65491 301
72.67503 292
72.69514 334
72.71525 313
72.73537 286
72.75548 323
72.7756 318
72.79571 344
72.81582 319
72.83594 329
72.85605 364
72.87616 340
72.89628 318
72.91639 361
72.9365 373
72.95662 351
72.97673 339
72.99685 337
73.01696 375
73.03707 356
73.05719 368
73.0773 332
73.09741 371
73.11753 359
73.13764 349
73.15776 348
73.17787 354
73.19798 350
73.2181 332
73.23821 363
73.25832 387
73.27844 377
73.29855 389
73.31867 429
73.33878 382
73.35889 405
73.37901 412
73.39912 412
73.41923 412
73.43935 373
73.45946 398
73.47957 379
73.49969 366
73.5198 350
73.53992 344
73.56003 344
73.58014 329
73.60026 399
73.62037 357
73.64048 356
73.6606 309
73.68071 329
73.70083 311
73.72094 306
73.74105 324
73.76117 299
73.78128 316
73.80139 289
73.82151 273
73.84162 311
73.86174 300
73.88185 305
73.90196 281
73.92208 305
73.94219 284
73.9623 301
73.98242 325
74.00253 282
74.02264 298
74.04276 273
74.06287 286
74.08299 301
74.1031 306
74.12321 321
74.14333 304
74.16344 309
74.18355 286
74.20367 302
74.22378 318
74.2439 329
74.26401 304
74.28412 319
74.30424 293
74.32435 313
74.34446 335
74.36458 311
74.38469 282
74.40481 287
74.42492 297
74.44503 291
74.46515 283
74.48526 308
74.50537 308
74.52549 304
74.5456 302
74.56571 322
74.58583 270
74.60594 301
74.62606 318
74.64617 301
74.66628 295
74.6864 354
74.70651 297
74.72662 277
74.74674 283
74.76685 310
74.78697 340
74.80708 319
74.82719 339
74.84731 315
74.86742 305
74.88753 289
74.90765 313
74.92776 332
74.94787 290
74.96799 300
74.9881 329
75.00822 327
