3.00117 21095
3.02128 20990
3.0414 20036
3.06151 19955
3.08162 18913
3.10174 18261
3.12185 18220
3.14197 17439
3.16208 17122
3.18219 16789
3.20231 15841
3.22242 15637
3.24253 14813
3.26265 14471
3.28276 14318
3.30288 13490
3.32299 13245
3.3431 12707
3.36322 12522
3.38333 11902
3.40344 11604
3.42356 11187
3.44367 10831
3.46379 10656
3.4839 10087
3.50401 9510
3.52413 9626
3.54424 8837
3.56435 8883
3.58447 8344
3.60458 8164
3.62469 7925
3.64481 7250
3.66492 7360
3.68504 7003
3.70515 6525
3.72526 6350
3.74538 6069
3.76549 5835
3.7856 5907
3.80572 5436
3.82583 5241
3.84595 4988
3.86606 4807
3.88617 4705
3.90629 4311
3.9264 4328
3.94651 3966
3.96663 3843
3.98674 3716
4.00686 3377
4.02697 3300
4.04708 3027
4.0672 3166
4.08731 2983
4.10742 2709
4.12754 2772
4.14765 2644
4.16776 2533
4.18788 2485
4.20799 2155
4.22811 2228
4.24822 2189
4.26833 2079
4.28845 2084
4.30856 1865
4.32867 1888
4.34879 1854
4.3689 1857
4.38902 1817
4.40913 1624
4.42924 1577
4.44936 1666
4.46947 1547
4.48958 1645
4.5097 1408
4.52981 1416
4.54992 1549
4.57004 1485
4.59015 1425
4.61027 1322
4.63038 1364
4.65049 1324
4.67061 1287
4.69072 1319
4.71083 1194
4.73095 1192
4.75106 1107
4.77118 1163
4.79129 1179
4.8114 1037
4.83152 1052
4.85163 1075
4.87174 1007
4.89186 994
4.91197 951
4.93209 1008
4.9522 958
4.97231 938
4.99243 970
5.01254 903
5.03265 942
5.05277 866
5.07288 867
5.09299 828
5.11311 752
5.13322 731
5.15334 754
5.17345 786
5.19356 751
5.21368 703
5.23379 729
5.2539 720
5.27402 720
5.29413 763
5.31425 641
5.33436 614
5.35447 672
5.37459 648
5.3947 634
5.41481 630
5.43493 631
5.45504 636
5.47516 607
5.49527 575
5.51538 594
5.5355 541
5.55561 591
5.57572 616
5.59584 547
5.61595 544
5.63606 514
5.65618 517
5.67629 524
5.69641 496
5.71652 496
5.73663 470
5.75675 512
5.77686 478
5.79697 469
5.81709 509
5.8372 466
5.85732 445
5.87743 486
5.89754 439
5.91766 460
5.93777 476
5.95788 483
5.978 451
5.99811 433
6.01823 445
6.03834 455
6.05845 466
6.07857 446
6.09868 438
6.11879 445
6.13891 447
6.15902 433
6.17913 412
6.19925 457
6.21936 466
6.23948 432
6.25959 399
6.2797 444
6.29982 437
6.31993 411
6.34004 483
6.36016 416
6.38027 444
6.40039 391
6.4205 426
6.44061 384
6.46073 425
6.48084 409
6.50095 396
6.52107 406
6.54118 354
6.56129 391
6.58141 353
6.60152 420
6.62164 385
6.64175 398
6.66186 384
6.68198 390
6.70209 338
6.7222 339
6.74232 382
6.76243 364
6.78255 338
6.80266 376
6.82277 389
6.84289 384
6.863 403
6.88311 358
6.90323 402
6.92334 341
6.94346 386
6.96357 306
6.98368 338
7.0038 365
7.02391 399
7.04402 357
7.06414 328
7.08425 304
7.10436 369
7.12448 335
7.14459 351
7.16471 364
7.18482 334
7.20493 334
7.22505 351
7.24516 397
7.26527 353
7.28539 360
7.3055 340
7.32562 378
7.34573 338
7.36584 342
7.38596 323
7.40607 353
7.42618 307
7.4463 320
7.46641 356
7.48653 359
7.50664 354
7.52675 358
7.54687 355
7.56698 333
7.58709 406
7.60721 357
7.62732 371
7.64743 366
7.66755 371
7.68766 338
7.70778 377
7.72789 329
7.748 326
7.76812 358
7.78823 394
7.80834 355
7.82846 323
7.84857 350
7.86869 376
7.8888 335
7.90891 339
7.92903 312
7.94914 378
7.96925 342
7.98937 330
8.00948 315
8.0296 332
8.04971 373
8.06982 334
8.08994 368
8.11005 303
8.13016 337
8.15028 351
8.17039 376
8.1905 313
8.21062 400
8.23073 377
8.25085 375
8.27096 334
8.29107 361
8.31119 338
8.3313 359
8.35141 327
8.37153 340
8.39164 384
8.41176 318
8.43187 354
8.45198 339
8.4721 362
8.49221 384
8.51232 366
8.53244 397
8.55255 366
8.57266 412
8.59278 372
8.61289 395
8.63301 424
8.65312 389
8.67323 412
8.69335 409
8.71346 420
8.73357 465
8.75369 454
8.7738 495
8.79392 456
8.81403 522
8.83414 559
8.85426 548
8.87437 572
8.89448 512
8.9146 518
8.93471 511
8.95483 438
8.97494 426
8.99505 462
9.01517 403
9.03528 371
9.05539 412
9.07551 375
9.09562 397
9.11573 338
9.13585 367
9.15596 328
9.17608 350
9.19619 355
9.2163 323
9.23642 329
9.25653 360
9.27664 313
9.29676 284
9.31687 303
9.33699 334
9.3571 345
9.37721 325
9.39733 290
9.41744 294
9.43755 315
9.45767 310
9.47778 307
9.4979 328
9.51801 319
9.53812 318
9.55824 339
9.57835 325
9.59846 352
9.61858 320
9.63869 282
9.6588 348
9.67892 307
9.69903 313
9.71915 285
9.73926 322
9.75937 320
9.77949 334
9.7996 310
9.81971 311
9.83983 330
9.85994 283
9.88006 288
9.90017 318
9.92028 306
9.9404 308
9.96051 307
9.98062 301
10.00074 304
10.02085 300
10.04097 294
10.06108 308
10.08119 303
10.10131 333
10.12142 295
10.14153 309
10.16165 312
10.18176 334
10.20187 303
10.22199 311
10.2421 304
10.26222 304
10.28233 304
10.30244 295
10.32256 339
10.34267 304
10.36278 297
10.3829 334
10.40301 300
10.42313 300
10.44324 329
10.46335 342
10.48347 292
10.50358 307
10.52369 299
10.54381 307
10.56392 337
10.58403 312
10.60415 321
10.62426 290
10.64438 307
10.66449 326
10.6846 322
10.70472 336
10.72483 322
10.74494 309
10.76506 297
10.78517 326
10.80529 341
10.8254 333
10.84551 320
10.86563 301
10.88574 292
10.90585 312
10.92597 306
10.94608 322
10.9662 322
10.98631 324
11.00642 343
11.02654 359
11.04665 309
11.06676 296
11.08688 353
11.10699 311
11.1271 338
11.14722 346
11.16733 310
11.18745 318
11.20756 327
11.22767 291
11.24779 344
11.2679 334
11.28801 317
11.30813 307
11.32824 303
11.34836 344
11.36847 324
11.38858 322
11.4087 298
11.42881 332
11.44892 330
11.46904 317
11.48915 303
11.50927 323
11.52938 329
11.54949 323
11.56961 297
11.58972 340
11.60983 328
11.62995 342
11.65006 296
11.67017 313
11.69029 283
11.7104 336
11.73052 321
11.75063 334
11.77074 311
11.79086 372
11.81097 358
11.83108 344
11.8512 333
11.87131 327
11.89143 338
11.91154 356
11.93165 320
11.95177 341
11.97188 310
11.99199 341
12.01211 316
12.03222 334
12.05234 337
12.07245 359
12.09256 316
12.11268 313
12.13279 318
12.1529 387
12.17302 368
12.19313 366
12.21324 323
12.23336 347
12.25347 342
12.27359 331
12.2937 333
12.31381 326
12.33393 357
12.35404 336
12.37415 291
12.39427 362
12.41438 350
12.4345 312
12.45461 354
12.47472 341
12.49484 353
12.51495 335
12.53506 347
12.55518 327
12.57529 336
12.5954 331
12.61552 308
12.63563 307
12.65575 290
12.67586 317
12.69597 305
12.71609 305
12.7362 301
12.75631 299
12.77643 328
12.79654 307
12.81666 260
12.83677 314
12.85688 317
12.877 321
12.89711 274
12.91722 290
12.93734 270
12.95745 304
12.97757 308
12.99768 305
13.01779 283
13.03791 317
13.05802 291
13.07813 275
13.09825 271
13.11836 307
13.13847 283
13.15859 267
13.1787 287
13.19882 280
13.21893 283
13.23904 268
13.25916 254
13.27927 320
13.29938 275
13.3195 307
13.33961 286
13.35973 285
13.37984 267
13.39995 271
13.42007 271
13.44018 308
13.46029 318
13.48041 294
13.50052 286
13.52064 295
13.54075 286
13.56086 277
13.58098 243
13.60109 273
13.6212 312
13.64132 252
13.66143 274
13.68154 307
13.70166 316
13.72177 266
13.74189 270
13.762 260
13.78211 265
13.80223 301
13.82234 367
13.84245 335
13.86257 357
13.88268 316
13.9028 353
13.92291 314
13.94302 272
13.96314 283
13.98325 269
14.00336 285
14.02348 290
14.04359 249
14.06371 291
14.08382 296
14.10393 300
14.12405 295
14.14416 272
14.16427 256
14.18439 261
14.2045 280
14.22461 236
14.24473 256
14.26484 273
14.28496 293
14.30507 284
14.32518 305
14.3453 290
14.36541 272
14.38552 264
14.40564 256
14.42575 297
14.44587 257
14.46598 255
14.48609 263
14.50621 270
14.52632 275
14.54643 244
14.56655 272
14.58666 278
14.60677 252
14.62689 282
14.647 265
14.66712 264
14.68723 245
14.70734 282
14.72746 235
14.74757 252
14.76768 287
14.7878 275
14.80791 289
14.82803 275
14.84814 255
14.86825 266
14.88837 288
14.90848 285
14.92859 255
14.94871 257
14.96882 267
14.98894 277
15.00905 296
15.02916 278
15.04928 277
15.06939 257
15.0895 252
15.10962 230
15.12973 269
15.14984 294
15.16996 244
15.19007 262
15.21019 261
15.2303 261
15.25041 273
15.27053 254
15.29064 276
15.31075 252
15.33087 272
15.35098 274
15.3711 263
15.39121 264
15.41132 227
15.43144 261
15.45155 280
15.47166 265
15.49178 255
15.51189 247
15.53201 239
15.55212 284
15.57223 271
15.59235 271
15.61246 258
15.63257 266
15.65269 275
15.6728 263
15.69291 245
15.71303 258
15.73314 270
15.75326 263
15.77337 273
15.79348 257
15.8136 267
15.83371 312
15.85382 272
15.87394 246
15.89405 287
15.91417 277
15.93428 261
15.95439 263
15.97451 265
15.99462 264
16.01473 271
16.03485 275
16.05496 234
16.07508 236
16.09519 223
16.1153 246
16.13542 274
16.15553 266
16.17564 222
16.19576 217
16.21587 256
16.23598 248
16.2561 249
16.27621 268
16.29633 222
16.31644 242
16.33655 286
16.35667 251
16.37678 272
16.39689 250
16.41701 269
16.43712 251
16.45724 254
16.47735 277
16.49746 267
16.51758 275
16.53769 242
16.5578 275
16.57792 244
16.59803 235
16.61814 276
16.63826 264
16.65837 261
16.67849 254
16.6986 269
16.71871 264
16.73883 278
16.75894 271
16.77905 259
16.79917 267
16.81928 261
16.8394 265
16.85951 269
16.87962 276
16.89974 249
16.91985 265
16.93996 266
16.96008 237
16.98019 278
17.00031 266
17.02042 242
17.04053 256
17.06065 256
17.08076 253
17.10087 275
17.12099 272
17.1411 270
17.16121 298
17.18133 262
17.20144 276
17.22156 248
17.24167 258
17.26178 257
17.2819 260
17.30201 265
17.32212 277
17.34224 258
17.36235 260
17.38247 272
17.40258 246
17.42269 279
17.44281 313
17.46292 244
17.48303 274
17.50315 296
17.52326 277
17.54338 256
17.56349 261
17.5836 291
17.60372 266
17.62383 305
17.64394 312
17.66406 314
17.68417 316
17.70428 339
17.7244 346
17.74451 355
17.76463 350
17.78474 341
17.80485 392
17.82497 363
17.84508 367
17.86519 337
17.88531 345
17.90542 339
17.92554 318
17.94565 319
17.96576 317
17.98588 281
18.00599 279
18.0261 276
18.04622 261
18.06633 282
18.08645 290
18.10656 286
18.12667 253
18.14679 284
18.1669 282
18.18701 297
18.20713 274
18.22724 287
18.24735 261
18.26747 272
18.28758 307
18.3077 291
18.32781 262
18.34792 320
18.36804 300
18.38815 266
18.40826 294
18.42838 266
18.44849 290
18.46861 278
18.48872 248
18.50883 258
18.52895 269
18.54906 301
18.56917 275
18.58929 313
18.6094 284
18.62951 256
18.64963 280
18.66974 267
18.68986 285
18.70997 276
18.73008 276
18.7502 295
18.77031 278
18.79042 301
18.81054 275
18.83065 316
18.85077 293
18.87088 263
18.89099 296
18.91111 279
18.93122 262
18.95133 291
18.97145 280
18.99156 283
19.01168 265
19.03179 274
19.0519 290
19.07202 284
19.09213 294
19.11224 277
19.13236 285
19.15247 304
19.17258 289
19.1927 343
19.21281 312
19.23293 295
19.25304 335
19.27315 337
19.29327 293
19.31338 359
19.33349 333
19.35361 349
19.37372 313
19.39384 328
19.41395 340
19.43406 345
19.45418 324
19.47429 340
19.4944 366
19.51452 364
19.53463 403
19.55475 370
19.57486 405
19.59497 484
19.61509 452
19.6352 522
19.65531 593
19.67543 572
19.69554 595
19.71565 628
19.73577 712
19.75588 702
19.776 733
19.79611 718
19.81622 765
19.83634 813
19.85645 693
19.87656 752
19.89668 699
19.91679 663
19.93691 602
19.95702 592
19.97713 544
19.99725 509
20.01736 541
20.03747 511
20.05759 475
20.0777 472
20.09782 486
20.11793 503
20.13804 479
20.15816 486
20.17827 470
20.19838 477
20.2185 468
20.23861 454
20.25872 446
20.27884 458
20.29895 484
20.31907 459
20.33918 490
20.35929 467
20.37941 488
20.39952 496
20.41963 481
20.43975 514
20.45986 510
20.47998 511
20.50009 529
20.5202 539
20.54032 560
20.56043 584
20.58054 648
20.60066 618
20.62077 673
20.64088 733
20.661 864
20.68111 1013
20.70123 1184
20.72134 1524
20.74145 2002
20.76157 2542
20.78168 3280
20.80179 4011
20.82191 4754
20.84202 5178
20.86214 5064
20.88225 4674
20.90236 3642
20.92248 2634
20.94259 1713
20.9627 1239
20.98282 860
21.00293 686
21.02305 614
21.04316 564
21.06327 605
21.08339 543
21.1035 539
21.12361 485
21.14373 511
21.16384 525
21.18395 541
21.20407 496
21.22418 473
21.2443 528
21.26441 492
21.28452 468
21.30464 452
21.32475 468
21.34486 469
21.36498 448
21.38509 478
21.40521 461
21.42532 461
21.44543 462
21.46555 455
21.48566 433
21.50577 447
21.52589 480
21.546 473
21.56612 438
21.58623 442
21.60634 442
21.62646 416
21.64657 439
21.66668 422
21.6868 405
21.70691 464
21.72702 383
21.74714 409
21.76725 395
21.78737 379
21.80748 366
21.82759 377
21.84771 384
21.86782 376
21.88793 436
21.90805 434
21.92816 448
21.94828 469
21.96839 504
21.9885 525
22.00862 621
22.02873 621
22.04884 539
22.06896 556
22.08907 492
22.10919 418
22.1293 434
22.14941 407
22.16953 379
22.18964 378
22.20975 384
22.22987 396
22.24998 371
22.27009 391
22.29021 368
22.31032 399
22.33044 392
22.35055 368
22.37066 387
22.39078 348
22.41089 373
22.431 386
22.45112 368
22.47123 369
22.49135 389
22.51146 349
22.53157 386
22.55169 365
22.5718 403
22.59191 401
22.61203 383
22.63214 397
22.65225 341
22.67237 365
22.69248 398
22.7126 376
22.73271 397
22.75282 393
22.77294 409
22.79305 428
22.81316 400
22.83328 431
22.85339 486
22.87351 487
22.89362 439
22.91373 434
22.93385 452
22.95396 472
22.97407 433
22.99419 454
23.0143 374
23.03442 399
23.05453 421
23.07464 403
23.09476 414
23.11487 374
23.13498 371
23.1551 387
23.17521 362
23.19532 367
23.21544 380
23.23555 361
23.25567 334
23.27578 364
23.29589 345
23.31601 343
23.33612 360
23.35623 406
23.37635 383
23.39646 356
23.41658 393
23.43669 377
23.4568 418
23.47692 446
23.49703 432
23.51714 482
23.53726 469
23.55737 465
23.57749 458
23.5976 414
23.61771 421
23.63783 428
23.65794 445
23.67805 399
23.69817 451
23.71828 449
23.73839 434
23.75851 402
23.77862 500
23.79874 430
23.81885 432
23.83896 439
23.85908 417
23.87919 386
23.8993 396
23.91942 422
23.93953 404
23.95965 415
23.97976 445
23.99987 426
24.01999 445
24.0401 400
24.06021 469
24.08033 447
24.10044 417
24.12056 404
24.14067 477
24.16078 494
24.1809 480
24.20101 463
24.22112 462
24.24124 522
24.26135 520
24.28146 482
24.30158 422
24.32169 476
24.34181 412
24.36192 406
24.38203 371
24.40215 398
24.42226 373
24.44237 391
24.46249 329
24.4826 391
24.50272 369
24.52283 383
24.54294 369
24.56306 374
24.58317 354
24.60328 360
24.6234 359
24.64351 418
24.66362 396
24.68374 364
24.70385 384
24.72397 368
24.74408 375
24.76419 376
24.78431 418
24.80442 415
24.82453 366
24.84465 369
24.86476 415
24.88488 404
24.90499 402
24.9251 392
24.94522 413
24.96533 387
24.98544 406
25.00556 353
25.02567 390
25.04579 436
25.0659 406
25.08601 423
25.10613 435
25.12624 426
25.14635 424
25.16647 433
25.18658 403
25.20669 426
25.22681 443
25.24692 464
25.26704 455
25.28715 447
25.30726 505
25.32738 460
25.34749 485
25.3676 520
25.38772 534
25.40783 543
25.42795 553
25.44806 566
25.46817 581
25.48829 560
25.5084 552
25.52851 539
25.54863 544
25.56874 528
25.58886 479
25.60897 501
25.62908 470
25.6492 547
25.66931 496
25.68942 528
25.70954 545
25.72965 559
25.74976 527
25.76988 531
25.78999 543
25.81011 532
25.83022 571
25.85033 549
25.87045 549
25.89056 605
25.91067 592
25.93079 562
25.9509 529
25.97102 558
25.99113 561
26.01124 602
26.03136 585
26.05147 572
26.07158 627
26.0917 653
26.11181 676
26.13193 704
26.15204 721
26.17215 730
26.19227 837
26.21238 819
26.23249 900
26.25261 958
26.27272 1052
26.29283 1058
26.31295 1137
26.33306 1324
26.35318 1434
26.37329 1683
26.3934 2025
26.41352 2413
26.43363 3025
26.45374 3850
26.47386 4928
26.49397 6607
26.51409 8944
26.5342 11621
26.55431 14834
26.57443 17928
26.59454 21340
26.61465 23216
26.63477 23103
26.65488 20441
26.67499 16391
26.69511 12325
26.71522 9079
26.73534 6165
26.75545 3890
26.77556 2480
26.79568 1784
26.81579 1600
26.8359 1385
26.85602 1210
26.87613 1215
26.89625 1050
26.91636 1026
26.93647 945
26.95659 820
26.9767 771
26.99681 719
27.01693 666
27.03704 641
27.05716 644
27.07727 572
27.09738 606
27.1175 615
27.13761 607
27.15772 555
27.17784 539
27.19795 543
27.21806 509
27.23818 592
27.25829 521
27.27841 574
27.29852 524
27.31863 534
27.33875 598
27.35886 606
27.37897 603
27.39909 633
27.4192 637
27.43932 580
27.45943 601
27.47954 564
27.49966 583
27.51977 539
27.53988 556
27.56 576
27.58011 538
27.60023 543
27.62034 573
27.64045 543
27.66057 634
27.68068 658
27.70079 661
27.72091 699
27.74102 710
27.76113 695
27.78125 711
27.80136 707
27.82148 775
27.84159 836
27.8617 827
27.88182 852
27.90193 878
27.92204 862
27.94216 793
27.96227 791
27.98239 689
28.0025 633
28.02261 582
28.04273 578
28.06284 570
28.08295 493
28.10307 501
28.12318 500
28.1433 475
28.16341 489
28.18352 479
28.20364 469
28.22375 459
28.24386 457
28.26398 465
28.28409 464
28.3042 446
28.32432 420
28.34443 389
28.36455 409
28.38466 402
28.40477 400
28.42489 407
28.445 383
28.46511 368
28.48523 363
28.50534 375
28.52546 352
28.54557 378
28.56568 385
28.5858 379
28.60591 383
28.62602 357
28.64614 366
28.66625 379
28.68636 328
28.70648 328
28.72659 301
28.74671 359
28.76682 365
28.78693 327
28.80705 360
28.82716 388
28.84727 366
28.86739 364
28.8875 356
28.90762 356
28.92773 362
28.94784 323
28.96796 371
28.98807 354
29.00818 354
29.0283 345
29.04841 345
29.06853 335
29.08864 337
29.10875 322
29.12887 368
29.14898 323
29.16909 368
29.18921 356
29.20932 353
29.22943 386
29.24955 325
29.26966 363
29.28978 329
29.30989 346
29.33 323
29.35012 346
29.37023 347
29.39034 391
29.41046 392
29.43057 390
29.45069 359
29.4708 346
29.49091 357
29.51103 380
29.53114 373
29.55125 365
29.57137 355
29.59148 374
29.6116 397
29.63171 390
29.65182 385
29.67194 408
29.69205 388
29.71216 407
29.73228 399
29.75239 391
29.7725 413
29.79262 493
29.81273 485
29.83285 470
29.85296 487
29.87307 489
29.89319 457
29.9133 510
29.93341 440
29.95353 439
29.97364 420
29.99376 428
30.01387 429
30.03398 394
30.0541 401
30.07421 417
30.09432 401
30.11444 439
30.13455 400
30.15467 445
30.17478 408
30.19489 390
30.21501 404
30.23512 359
30.25523 376
30.27535 378
30.29546 350
30.31557 358
30.33569 345
30.3558 369
30.37592 360
30.39603 366
30.41614 366
30.43626 375
30.45637 390
30.47648 419
30.4966 388
30.51671 405
30.53683 375
30.55694 352
30.57705 356
30.59717 330
30.61728 351
30.63739 330
30.65751 343
30.67762 327
30.69773 323
30.71785 311
30.73796 339
30.75808 307
30.77819 314
30.7983 310
30.81842 327
30.83853 338
30.85864 338
30.87876 321
30.89887 331
30.91899 330
30.9391 340
30.95921 340
30.97933 324
30.99944 351
31.01955 330
31.03967 343
31.05978 389
31.0799 357
31.10001 376
31.12012 363
31.14024 364
31.16035 422
31.18046 437
31.20058 447
31.22069 442
31.2408 445
31.26092 412
31.28103 378
31.30115 387
31.32126 401
31.34137 360
31.36149 365
31.3816 324
31.40171 345
31.42183 354
31.44194 350
31.46206 305
31.48217 314
31.50228 316
31.5224 343
31.54251 314
31.56262 358
31.58274 307
31.60285 301
31.62297 294
31.64308 291
31.66319 300
31.68331 309
31.70342 328
31.72353 305
31.74365 312
31.76376 287
31.78387 360
31.80399 320
31.8241 306
31.84422 308
31.86433 325
31.88444 323
31.90456 335
31.92467 337
31.94478 331
31.9649 364
31.98501 360
32.00513 357
32.02524 376
32.04535 394
32.06547 366
32.08558 355
32.10569 344
32.12581 340
32.14592 344
32.16604 331
32.18615 306
32.20626 312
32.22638 306
32.24649 320
32.2666 312
32.28672 299
32.30683 322
32.32694 301
32.34706 302
32.36717 301
32.38729 295
32.4074 263
32.42751 277
32.44763 280
32.46774 281
32.48785 275
32.50797 301
32.52808 303
32.5482 301
32.56831 294
32.58842 283
32.60854 300
32.62865 286
32.64876 296
32.66888 279
32.68899 321
32.7091 325
32.72922 263
32.74933 301
32.76945 265
32.78956 291
32.80967 296
32.82979 306
32.8499 296
32.87001 264
32.89013 320
32.91024 314
32.93036 313
32.95047 297
32.97058 311
32.9907 321
33.01081 291
33.03092 320
33.05104 275
33.07115 330
33.09127 298
33.11138 302
33.13149 341
33.15161 304
33.17172 273
33.19183 262
33.21195 287
33.23206 326
33.25217 280
33.27229 325
33.2924 320
33.31252 316
33.33263 307
33.35274 321
33.37286 337
33.39297 288
33.41308 350
33.4332 307
33.45331 331
33.47343 288
33.49354 293
33.51365 284
33.53377 297
33.55388 329
33.57399 322
33.59411 304
33.61422 301
33.63434 263
33.65445 313
33.67456 325
33.69468 322
33.71479 303
33.7349 317
33.75502 300
33.77513 264
33.79524 279
33.81536 284
33.83547 287
33.85559 303
33.8757 333
33.89581 312
33.91593 324
33.93604 320
33.95615 349
33.97627 360
33.99638 339
34.0165 361
34.03661 314
34.05672 309
34.07684 312
34.09695 307
34.11706 315
34.13718 321
34.15729 300
34.17741 303
34.19752 357
34.21763 366
34.23775 328
34.25786 365
34.27797 344
34.29809 382
34.3182 411
34.33831 413
34.35843 423
34.37854 448
34.39866 458
34.41877 498
34.43888 472
34.459 473
34.47911 479
34.49922 502
34.51934 523
34.53945 488
34.55957 497
34.57968 545
34.59979 453
34.61991 497
34.64002 524
34.66013 520
34.68025 540
34.70036 552
34.72047 565
34.74059 578
34.7607 591
34.78082 606
34.80093 623
34.82104 707
34.84116 686
34.86127 749
34.88138 745
34.9015 765
34.92161 743
34.94173 679
34.96184 687
34.98195 617
35.00207 641
35.02218 591
35.04229 556
35.06241 559
35.08252 538
35.10264 477
35.12275 511
35.14286 500
35.16298 416
35.18309 415
35.2032 405
35.22332 392
35.24343 403
35.26354 367
35.28366 433
35.30377 393
35.32389 413
35.344 381
35.36411 389
35.38423 369
35.40434 397
35.42445 381
35.44457 435
35.46468 397
35.4848 416
35.50491 339
35.52502 375
35.54514 364
35.56525 406
35.58536 321
35.60548 384
35.62559 378
35.64571 363
35.66582 356
35.68593 360
35.70605 393
35.72616 374
35.74627 378
35.76639 364
35.7865 386
35.80661 399
35.82673 334
35.84684 393
35.86696 393
35.88707 390
35.90718 445
35.9273 377
35.94741 391
35.96752 397
35.98764 419
36.00775 442
36.02787 441
36.04798 450
36.06809 433
36.08821 428
36.10832 409
36.12843 423
36.14855 421
36.16866 433
36.18878 433
36.20889 454
36.229 505
36.24912 426
36.26923 522
36.28934 544
36.30946 563
36.32957 648
36.34968 712
36.3698 709
36.38991 868
36.41003 1020
36.43014 1178
36.45025 1341
36.47037 1530
36.49048 1682
36.51059 1872
36.53071 1816
36.55082 1664
36.57094 1388
36.59105 1240
36.61116 1078
36.63128 1017
36.65139 843
36.6715 686
36.69162 573
36.71173 527
36.73184 446
36.75196 467
36.77207 475
36.79219 436
36.8123 435
36.83241 424
36.85253 415
36.87264 430
36.89275 417
36.91287 430
36.93298 405
36.9531 375
36.97321 421
36.99332 394
37.01344 370
37.03355 430
37.05366 365
37.07378 384
37.09389 358
37.11401 368
37.13412 381
37.15423 362
37.17435 349
37.19446 366
37.21457 388
37.23469 375
37.2548 366
37.27491 376
37.29503 378
37.31514 410
37.33526 376
37.35537 378
37.37548 408
37.3956 411
37.41571 391
37.43582 424
37.45594 402
37.47605 380
37.49617 429
37.51628 387
37.53639 397
37.55651 440
37.57662 406
37.59673 427
37.61685 443
37.63696 431
37.65708 424
37.67719 416
37.6973 414
37.71742 442
37.73753 415
37.75764 389
37.77776 360
37.79787 392
37.81798 405
37.8381 380
37.85821 368
37.87833 364
37.89844 349
37.91855 354
37.93867 328
37.95878 362
37.97889 352
37.99901 311
38.01912 320
38.03924 322
38.05935 344
38.07946 296
38.09958 318
38.11969 374
38.1398 335
38.15992 345
38.18003 310
38.20015 319
38.22026 327
38.24037 341
38.26049 331
38.2806 354
38.30071 330
38.32083 305
38.34094 365
38.36105 312
38.38117 369
38.40128 333
38.4214 337
38.44151 314
38.46162 310
38.48174 315
38.50185 343
38.52196 320
38.54208 351
38.56219 310
38.58231 304
38.60242 309
38.62253 347
38.64265 331
38.66276 289
38.68287 340
38.70299 331
38.7231 331
38.74321 326
38.76333 315
38.78344 361
38.80356 298
38.82367 308
38.84378 326
38.8639 338
38.88401 320
38.90412 322
38.92424 365
38.94435 296
38.96447 343
38.98458 334
39.00469 329
39.02481 330
39.04492 314
39.06503 380
39.08515 349
39.10526 346
39.12538 355
39.14549 368
39.1656 376
39.18572 389
39.20583 440
39.22594 513
39.24606 532
39.26617 587
39.28628 648
39.3064 763
39.32651 946
39.34663 1020
39.36674 1218
39.38685 1395
39.40697 1470
39.42708 1629
39.44719 1647
39.46731 1526
39.48742 1294
39.50754 1134
39.52765 1000
39.54776 944
39.56788 808
39.58799 672
39.6081 529
39.62822 465
39.64833 408
39.66845 379
39.68856 392
39.70867 365
39.72879 370
39.7489 371
39.76901 307
39.78913 381
39.80924 351
39.82935 357
39.84947 372
39.86958 371
39.8897 359
39.90981 369
39.92992 354
39.95004 382
39.97015 351
39.99026 409
40.01038 417
40.03049 386
40.05061 445
40.07072 455
40.09083 517
40.11095 517
40.13106 564
40.15117 624
40.17129 693
40.1914 772
40.21152 846
40.23163 941
40.25174 980
40.27186 956
40.29197 896
40.31208 826
40.3322 711
40.35231 699
40.37242 633
40.39254 565
40.41265 503
40.43277 421
40.45288 417
40.47299 364
40.49311 342
40.51322 347
40.53333 343
40.55345 350
40.57356 301
40.59368 339
40.61379 317
40.6339 371
40.65402 350
40.67413 363
40.69424 344
40.71436 331
40.73447 327
40.75458 332
40.7747 375
40.79481 342
40.81493 343
40.83504 340
40.85515 320
40.87527 358
40.89538 354
40.91549 370
40.93561 323
40.95572 359
40.97584 351
40.99595 349
41.01606 353
41.03618 364
41.05629 352
41.0764 341
41.09652 389
41.11663 355
41.13675 338
41.15686 388
41.17697 379
41.19709 338
41.2172 328
41.23731 365
41.25743 341
41.27754 367
41.29765 330
41.31777 302
41.33788 321
41.358 329
41.37811 331
41.39822 325
41.41834 279
41.43845 313
41.45856 327
41.47868 323
41.49879 291
41.51891 277
41.53902 297
41.55913 312
41.57925 326
41.59936 321
41.61947 314
41.63959 304
41.6597 316
41.67982 313
41.69993 333
41.72004 305
41.74016 324
41.76027 344
41.78038 329
41.8005 327
41.82061 366
41.84072 366
41.86084 346
41.88095 346
41.90107 340
41.92118 381
41.94129 369
41.96141 353
41.98152 372
42.00163 347
42.02175 381
42.04186 383
42.06198 354
42.08209 349
42.1022 382
42.12232 380
42.14243 411
42.16254 433
42.18266 463
42.20277 473
42.22289 499
42.243 583
42.26311 601
42.28323 665
42.30334 795
42.32345 900
42.34357 1004
42.36368 1131
42.38379 1235
42.40391 1243
42.42402 1260
42.44414 1283
42.46425 1048
42.48436 975
42.50448 832
42.52459 836
42.5447 732
42.56482 631
42.58493 558
42.60505 418
42.62516 401
42.64527 356
42.66539 342
42.6855 318
42.70561 347
42.72573 368
42.74584 348
42.76595 312
42.78607 298
42.80618 288
42.8263 288
42.84641 269
42.86652 295
42.88664 262
42.90675 305
42.92686 273
42.94698 271
42.96709 295
42.98721 286
43.00732 290
43.02743 300
43.04755 272
43.06766 268
43.08777 299
43.10789 290
43.128 282
43.14812 296
43.16823 285
43.18834 270
43.20846 281
43.22857 273
43.24868 269
43.2688 267
43.28891 262
43.30902 282
43.32914 288
43.34925 269
43.36937 256
43.38948 292
43.40959 282
43.42971 283
43.44982 292
43.46993 274
43.49005 268
43.51016 306
43.53028 284
43.55039 294
43.5705 290
43.59062 283
43.61073 274
43.63084 273
43.65096 290
43.67107 280
43.69119 267
43.7113 280
43.73141 269
43.75153 269
43.77164 292
43.79175 271
43.81187 256
43.83198 259
43.85209 278
43.87221 270
43.89232 291
43.91244 294
43.93255 274
43.95266 322
43.97278 285
43.99289 326
44.013 321
44.03312 282
44.05323 283
44.07335 287
44.09346 277
44.11357 255
44.13369 272
44.1538 284
44.17391 269
44.19403 282
44.21414 274
44.23426 264
44.25437 255
44.27448 287
44.2946 260
44.31471 289
44.33482 274
44.35494 244
44.37505 285
44.39516 289
44.41528 275
44.43539 274
44.45551 265
44.47562 285
44.49573 271
44.51585 256
44.53596 265
44.55607 263
44.57619 283
44.5963 278
44.61642 290
44.63653 279
44.65664 292
44.67676 250
44.69687 270
44.71698 286
44.7371 281
44.75721 329
44.77732 280
44.79744 308
44.81755 305
44.83767 258
44.85778 309
44.87789 268
44.89801 292
44.91812 294
44.93823 303
44.95835 282
44.97846 305
44.99858 318
45.01869 282
45.0388 319
45.05892 298
45.07903 327
45.09914 309
45.11926 344
45.13937 329
45.15949 303
45.1796 309
45.19971 314
45.21983 327
45.23994 341
45.26005 351
45.28017 337
45.30028 367
45.32039 387
45.34051 383
45.36062 344
45.38074 381
45.40085 381
45.42096 337
45.44108 385
45.46119 390
45.4813 377
45.50142 386
45.52153 433
45.54165 384
45.56176 437
45.58187 492
45.60199 479
45.6221 558
45.64221 584
45.66233 677
45.68244 735
45.70256 796
45.72267 855
45.74278 858
45.7629 861
45.78301 895
45.80312 819
45.82324 707
45.84335 633
45.86346 628
45.88358 596
45.90369 600
45.92381 498
45.94392 448
45.96403 407
45.98415 349
46.00426 368
46.02437 344
46.04449 286
46.0646 312
46.08472 334
46.10483 295
46.12494 300
46.14506 307
46.16517 311
46.18528 295
46.2054 263
46.22551 273
46.24563 280
46.26574 300
46.28585 268
46.30597 277
46.32608 260
46.34619 274
46.36631 307
46.38642 257
46.40653 298
46.42665 300
46.44676 308
46.46688 250
46.48699 255
46.5071 311
46.52722 288
46.54733 277
46.56744 273
46.58756 269
46.60767 311
46.62779 275
46.6479 300
46.66801 276
46.68813 287
46.70824 277
46.72835 272
46.74847 270
46.76858 260
46.78869 282
46.80881 242
46.82892 261
46.84904 257
46.86915 233
46.88926 282
46.90938 247
46.92949 257
46.9496 270
46.96972 248
46.98983 239
47.00995 276
47.03006 251
47.05017 273
47.07029 294
47.0904 247
47.11051 277
47.13063 277
47.15074 274
47.17086 238
47.19097 265
47.21108 247
47.2312 268
47.25131 263
47.27142 263
47.29154 244
47.31165 267
47.33176 263
47.35188 265
47.37199 254
47.39211 252
47.41222 250
47.43233 260
47.45245 274
47.47256 241
47.49267 263
47.51279 270
47.5329 269
47.55302 248
47.57313 287
47.59324 256
47.61336 261
47.63347 285
47.65358 238
47.6737 248
47.69381 286
47.71393 265
47.73404 264
47.75415 244
47.77427 303
47.79438 275
47.81449 261
47.83461 228
47.85472 246
47.87483 281
47.89495 263
47.91506 222
47.93518 263
47.95529 282
47.9754 258
47.99552 248
48.01563 271
48.03574 298
48.05586 293
48.07597 272
48.09609 259
48.1162 283
48.13631 285
48.15643 277
48.17654 279
48.19665 240
48.21677 259
48.23688 313
48.257 288
48.27711 313
48.29722 274
48.31734 273
48.33745 283
48.35756 226
48.37768 242
48.39779 277
48.4179 260
48.43802 298
48.45813 274
48.47825 270
48.49836 272
48.51847 281
48.53859 277
48.5587 266
48.57881 271
48.59893 290
48.61904 262
48.63916 264
48.65927 283
48.67938 288
48.6995 251
48.71961 257
48.73972 266
48.75984 263
48.77995 281
48.80006 248
48.82018 285
48.84029 275
48.86041 242
48.88052 266
48.90063 283
48.92075 279
48.94086 254
48.96097 271
48.98109 267
49.0012 295
49.02132 274
49.04143 243
49.06154 275
49.08166 312
49.10177 292
49.12188 306
49.142 286
49.16211 305
49.18223 285
49.20234 310
49.22245 277
49.24257 298
49.26268 281
49.28279 303
49.30291 290
49.32302 304
49.34313 319
49.36325 305
49.38336 299
49.40348 287
49.42359 277
49.4437 293
49.46382 271
49.48393 290
49.50404 315
49.52416 271
49.54427 309
49.56439 298
49.5845 348
49.60461 308
49.62473 296
49.64484 318
49.66495 318
49.68507 359
49.70518 348
49.7253 386
49.74541 410
49.76552 417
49.78564 453
49.80575 470
49.82586 491
49.84598 578
49.86609 618
49.8862 628
49.90632 743
49.92643 902
49.94655 981
49.96666 1124
49.98677 1336
50.00689 1543
50.027 1882
50.04711 2036
50.06723 2272
50.08734 2504
50.10746 2503
50.12757 2347
50.14768 2021
50.1678 1739
50.18791 1442
50.20802 1375
50.22814 1315
50.24825 1234
50.26837 1046
50.28848 927
50.30859 650
50.32871 511
50.34882 465
50.36893 410
50.38905 394
50.40916 363
50.42927 364
50.44939 353
50.4695 384
50.48962 347
50.50973 386
50.52984 334
50.54996 338
50.57007 358
50.59018 345
50.6103 346
50.63041 329
50.65053 345
50.67064 295
50.69075 326
50.71087 340
50.73098 293
50.75109 292
50.77121 277
50.79132 274
50.81143 279
50.83155 278
50.85166 269
50.87178 248
50.89189 295
50.912 303
50.93212 285
50.95223 274
50.97234 287
50.99246 289
51.01257 296
51.03269 266
51.0528 306
51.07291 295
51.09303 269
51.11314 273
51.13325 289
51.15337 283
51.17348 307
51.1936 288
51.21371 271
51.23382 275
51.25394 277
51.27405 263
51.29416 288
51.31428 230
51.33439 259
51.3545 247
51.37462 278
51.39473 269
51.41485 260
51.43496 245
51.45507 256
51.47519 227
51.4953 237
51.51541 283
51.53553 261
51.55564 278
51.57576 230
51.59587 259
51.61598 249
51.6361 267
51.65621 246
51.67632 245
51.69644 259
51.71655 263
51.73667 254
51.75678 269
51.77689 243
51.79701 276
51.81712 240
51.83723 226
51.85735 239
51.87746 239
51.89757 259
51.91769 290
51.9378 256
51.95792 243
51.97803 273
51.99814 268
52.01826 283
52.03837 246
52.05848 221
52.0786 253
52.09871 276
52.11883 254
52.13894 278
52.15905 252
52.17917 258
52.19928 252
52.21939 278
52.23951 245
52.25962 258
52.27974 277
52.29985 238
52.31996 226
52.34008 240
52.36019 257
52.3803 254
52.40042 251
52.42053 262
52.44064 239
52.46076 261
52.48087 248
52.50099 287
52.5211 283
52.54121 263
52.56133 266
52.58144 264
52.60155 291
52.62167 270
52.64178 276
52.6619 261
52.68201 256
52.70212 301
52.72224 260
52.74235 252
52.76246 264
52.78258 277
52.80269 305
52.8228 276
52.84292 266
52.86303 282
52.88315 284
52.90326 287
52.92337 294
52.94349 254
52.9636 259
52.98371 279
53.00383 281
53.02394 283
53.04406 270
53.06417 296
53.08428 295
53.1044 303
53.12451 281
53.14462 261
53.16474 287
53.18485 286
53.20497 288
53.22508 304
53.24519 282
53.26531 283
53.28542 318
53.30553 294
53.32565 290
53.34576 313
53.36587 301
53.38599 289
53.4061 289
53.42622 316
53.44633 346
53.46644 300
53.48656 315
53.50667 309
53.52678 307
53.5469 314
53.56701 293
53.58713 326
53.60724 300
53.62735 313
53.64747 313
53.66758 312
53.68769 327
53.70781 337
53.72792 345
53.74804 319
53.76815 344
53.78826 312
53.80838 347
53.82849 328
53.8486 324
53.86872 306
53.88883 287
53.90894 312
53.92906 350
53.94917 288
53.96929 286
53.9894 290
54.00951 315
54.02963 324
54.04974 306
54.06985 311
54.08997 321
54.11008 309
54.1302 307
54.15031 336
54.17042 367
54.19054 356
54.21065 349
54.23076 368
54.25088 362
54.27099 356
54.29111 376
54.31122 361
54.33133 359
54.35145 319
54.37156 355
54.39167 321
54.41179 343
54.4319 369
54.45201 360
54.47213 371
54.49224 383
54.51236 349
54.53247 352
54.55258 380
54.5727 378
54.59281 401
54.61292 417
54.63304 437
54.65315 432
54.67327 461
54.69338 531
54.71349 634
54.73361 648
54.75372 718
54.77383 842
54.79395 858
54.81406 938
54.83417 919
54.85429 872
54.8744 901
54.89452 682
54.91463 713
54.93474 661
54.95486 594
54.97497 719
54.99508 629
55.0152 568
55.03531 554
55.05543 475
55.07554 422
55.09565 411
55.11577 468
55.13588 451
55.15599 479
55.17611 459
55.19622 534
55.21634 518
55.23645 598
55.25656 586
55.27668 605
55.29679 590
55.3169 542
55.33702 551
55.35713 463
55.37724 472
55.39736 446
55.41747 455
55.43759 436
55.4577 465
55.47781 390
55.49793 352
55.51804 347
55.53815 347
55.55827 348
55.57838 334
55.5985 349
55.61861 345
55.63872 368
55.65884 350
55.67895 352
55.69906 363
55.71918 362
55.73929 384
55.75941 337
55.77952 351
55.79963 358
55.81975 334
55.83986 338
55.85997 361
55.88009 341
55.9002 346
55.92031 321
55.94043 302
55.96054 335
55.98066 327
56.00077 308
56.02088 311
56.041 289
56.06111 312
56.08122 287
56.10134 277
56.12145 288
56.14157 268
56.16168 282
56.18179 273
56.20191 255
56.22202 299
56.24213 315
56.26225 297
56.28236 268
56.30248 265
56.32259 308
56.3427 279
56.36282 330
56.38293 288
56.40304 297
56.42316 294
56.44327 285
56.46338 325
56.4835 306
56.50361 287
56.52373 298
56.54384 309
56.56395 301
56.58407 313
56.60418 296
56.62429 273
56.64441 264
56.66452 302
56.68464 320
56.70475 262
56.72486 287
56.74498 280
56.76509 323
56.7852 312
56.80532 275
56.82543 310
56.84554 289
56.86566 320
56.88577 287
56.90589 265
56.926 286
56.94611 320
56.96623 290
56.98634 288
57.00645 288
57.02657 285
57.04668 287
57.0668 275
57.08691 295
57.10702 293
57.12714 299
57.14725 332
57.16736 277
57.18748 294
57.20759 291
57.22771 313
57.24782 336
57.26793 294
57.28805 294
57.30816 317
57.32827 298
57.34839 291
57.3685 298
57.38861 295
57.40873 291
57.42884 305
57.44896 263
57.46907 305
57.48918 298
57.5093 294
57.52941 259
57.54952 286
57.56964 275
57.58975 276
57.60987 286
57.62998 272
57.65009 276
57.67021 270
57.69032 261
57.71043 241
57.73055 281
57.75066 271
57.77078 288
57.79089 256
57.811 271
57.83112 273
57.85123 292
57.87134 275
57.89146 262
57.91157 271
57.93168 268
57.9518 276
57.97191 257
57.99203 312
58.01214 272
58.03225 251
58.05237 284
58.07248 265
58.09259 269
58.11271 240
58.13282 265
58.15294 273
58.17305 280
58.19316 242
58.21328 271
58.23339 291
58.2535 250
58.27362 279
58.29373 255
58.31385 260
58.33396 265
58.35407 270
58.37419 285
58.3943 253
58.41441 240
58.43453 241
58.45464 260
58.47475 276
58.49487 262
58.51498 260
58.5351 290
58.55521 246
58.57532 260
58.59544 290
58.61555 288
58.63566 273
58.65578 284
58.67589 274
58.69601 282
58.71612 258
58.73623 279
58.75635 278
58.77646 278
58.79657 255
58.81669 275
58.8368 276
58.85691 270
58.87703 286
58.89714 273
58.91726 284
58.93737 268
58.95748 274
58.9776 285
58.99771 296
59.01782 297
59.03794 275
59.05805 295
59.07817 283
59.09828 295
59.11839 288
59.13851 304
59.15862 289
59.17873 294
59.19885 283
59.21896 268
59.23908 311
59.25919 305
59.2793 310
59.29942 339
59.31953 296
59.33964 280
59.35976 330
59.37987 302
59.39998 294
59.4201 298
59.44021 295
59.46033 308
59.48044 353
59.50055 352
59.52067 349
59.54078 364
59.56089 388
59.58101 387
59.60112 397
59.62124 412
59.64135 453
59.66146 508
59.68158 524
59.70169 516
59.7218 656
59.74192 744
59.76203 769
59.78215 942
59.80226 1038
59.82237 1134
59.84249 1352
59.8626 1450
59.88271 1516
59.90283 1618
59.92294 1601
59.94305 1547
59.96317 1365
59.98328 1197
60.0034 1081
60.02351 1020
60.04362 1006
60.06374 963
60.08385 913
60.10396 929
60.12408 756
60.14419 630
60.16431 525
60.18442 472
60.20453 400
60.22465 353
60.24476 360
60.26487 365
60.28499 343
60.3051 366
60.32522 332
60.34533 351
60.36544 325
60.38556 307
60.40567 328
60.42578 324
60.4459 305
60.46601 312
60.48612 268
60.50624 323
60.52635 308
60.54647 286
60.56658 308
60.58669 289
60.60681 331
60.62692 336
60.64703 274
60.66715 297
60.68726 299
60.70738 326
60.72749 303
60.7476 272
60.76772 302
60.78783 286
60.80794 291
60.82806 308
60.84817 293
60.86828 316
60.8884 297
60.90851 309
60.92863 280
60.94874 289
60.96885 292
60.98897 275
61.00908 319
61.02919 249
61.04931 314
61.06942 305
61.08954 287
61.10965 300
61.12976 321
61.14988 314
61.16999 304
61.1901 310
61.21022 353
61.23033 316
61.25045 354
61.27056 338
61.29067 345
61.31079 326
61.3309 358
61.35101 379
61.37113 357
61.39124 343
61.41135 402
61.43147 381
61.45158 404
61.4717 392
61.49181 410
61.51192 383
61.53204 411
61.55215 436
61.57226 409
61.59238 374
61.61249 417
61.63261 388
61.65272 413
61.67283 436
61.69295 395
61.71306 379
61.73317 386
61.75329 409
61.7734 341
61.79352 392
61.81363 375
61.83374 323
61.85386 339
61.87397 338
61.89408 324
61.9142 317
61.93431 302
61.95442 318
61.97454 346
61.99465 340
62.01477 311
62.03488 290
62.05499 326
62.07511 313
62.09522 318
62.11533 326
62.13545 332
62.15556 316
62.17568 314
62.19579 348
62.2159 310
62.23602 305
62.25613 309
62.27624 322
62.29636 311
62.31647 343
62.33659 304
62.3567 314
62.37681 287
62.39693 285
62.41704 289
62.43715 265
62.45727 281
62.47738 242
62.49749 286
62.51761 284
62.53772 260
62.55784 267
62.57795 300
62.59806 294
62.61818 295
62.63829 279
62.6584 285
62.67852 276
62.69863 280
62.71875 288
62.73886 278
62.75897 300
62.77909 252
62.7992 270
62.81931 273
62.83943 256
62.85954 277
62.87965 263
62.89977 268
62.91988 297
62.94 256
62.96011 283
62.98022 246
63.00034 257
63.02045 258
63.04056 260
63.06068 264
63.08079 243
63.10091 265
63.12102 276
63.14113 259
63.16125 258
63.18136 288
63.20147 266
63.22159 263
63.2417 255
63.26182 288
63.28193 267
63.30204 250
63.32216 261
63.34227 276
63.36238 276
63.3825 283
63.40261 265
63.42272 292
63.44284 283
63.46295 298
63.48307 250
63.50318 274
63.52329 298
63.54341 237
63.56352 264
63.58363 260
63.60375 273
63.62386 297
63.64398 271
63.66409 298
63.6842 293
63.70432 306
63.72443 317
63.74454 337
63.76466 288
63.78477 315
63.80489 367
63.825 358
63.84511 368
63.86523 375
63.88534 410
63.90545 455
63.92557 452
63.94568 461
63.96579 512
63.98591 535
64.00602 551
64.02614 513
64.04625 432
64.06636 424
64.08648 425
64.10659 401
64.1267 415
64.14682 385
64.16693 361
64.18705 356
64.20716 344
64.22727 309
64.24739 314
64.2675 296
64.28761 277
64.30773 299
64.32784 285
64.34796 275
64.36807 269
64.38818 273
64.4083 267
64.42841 300
64.44852 259
64.46864 238
64.48875 249
64.50886 273
64.52898 264
64.54909 270
64.56921 260
64.58932 260
64.60943 259
64.62955 244
64.64966 278
64.66977 253
64.68989 238
64.71 270
64.73012 237
64.75023 248
64.77034 224
64.79046 226
64.81057 278
64.83068 275
64.8508 258
64.87091 270
64.89102 268
64.91114 257
64.93125 271
64.95137 290
64.97148 243
64.99159 262
65.01171 250
65.03182 259
65.05193 271
65.07205 265
65.09216 252
65.11228 288
65.13239 251
65.1525 279
65.17262 282
65.19273 259
65.21284 269
65.23296 254
65.25307 269
65.27319 283
65.2933 268
65.31341 252
65.33353 266
65.35364 288
65.37375 252
65.39387 264
65.41398 284
65.43409 274
65.45421 262
65.47432 278
65.49444 292
65.51455 257
65.53466 271
65.55478 314
65.57489 294
65.595 280
65.61512 265
65.63523 285
65.65535 319
65.67546 282
65.69557 294
65.71569 310
65.7358 340
65.75591 324
65.77603 329
65.79614 276
65.81626 300
65.83637 284
65.85648 268
65.8766 284
65.89671 303
65.91682 279
65.93694 296
65.95705 282
65.97716 286
65.99728 286
66.01739 233
66.03751 257
66.05762 265
66.07773 257
66.09785 251
66.11796 238
66.13807 233
66.15819 296
66.1783 268
66.19842 260
66.21853 289
66.23864 235
66.25876 257
66.27887 238
66.29898 244
66.3191 258
66.33921 264
66.35933 250
66.37944 238
66.39955 270
66.41967 261
66.43978 263
66.45989 255
66.48001 239
66.50012 263
66.52023 242
66.54035 244
66.56046 239
66.58058 268
66.60069 243
66.6208 234
66.64092 269
66.66103 254
66.68114 249
66.70126 255
66.72137 273
66.74149 247
66.7616 277
66.78171 267
66.80183 243
66.82194 257
66.84205 269
66.86217 236
66.88228 235
66.90239 256
66.92251 245
66.94262 264
66.96274 272
66.98285 270
67.00296 278
67.02308 286
67.04319 263
67.0633 277
67.08342 289
67.10353 255
67.12365 266
67.14376 276
67.16387 313
67.18399 286
67.2041 290
67.22421 315
67.24433 287
67.26444 311
67.28456 320
67.30467 312
67.32478 349
67.3449 362
67.36501 335
67.38512 360
67.40524 365
67.42535 376
67.44546 404
67.46558 378
67.48569 453
67.50581 524
67.52592 540
67.54603 587
67.56615 667
67.58626 802
67.60637 793
67.62649 875
67.6466 982
67.66672 1037
67.68683 1066
67.70694 1041
67.72706 1004
67.74717 978
67.76728 842
67.7874 761
67.80751 827
67.82763 822
67.84774 832
67.86785 845
67.88797 853
67.90808 891
67.92819 987
67.94831 895
67.96842 985
67.98853 964
68.00865 1075
68.02876 1193
68.04888 1219
68.06899 1375
68.0891 1430
68.10922 1415
68.12933 1392
68.14944 1381
68.16956 1243
68.18967 1172
68.20979 1249
68.2299 1233
68.25001 1327
68.27013 1301
68.29024 1236
68.31035 1145
68.33047 980
68.35058 839
68.3707 752
68.39081 659
68.41092 626
68.43104 649
68.45115 568
68.47126 562
68.49138 488
68.51149 452
68.5316 437
68.55172 371
68.57183 308
68.59195 369
68.61206 314
68.63217 322
68.65229 346
68.6724 288
68.69251 295
68.71263 301
68.73274 295
68.75286 294
68.77297 301
68.79308 284
68.8132 279
68.83331 265
68.85342 285
68.87354 296
68.89365 286
68.91376 287
68.93388 307
68.95399 270
68.97411 271
68.99422 279
69.01433 288
69.03445 297
69.05456 301
69.07467 309
69.09479 270
69.1149 280
69.13502 287
69.15513 295
69.17524 267
69.19536 264
69.21547 275
69.23558 317
69.2557 292
69.27581 307
69.29593 278
69.31604 278
69.33615 283
69.35627 340
69.37638 291
69.39649 309
69.41661 288
69.43672 294
69.45683 300
69.47695 303
69.49706 293
69.51718 293
69.53729 272
69.5574 281
69.57752 256
69.59763 280
69.61774 302
69.63786 288
69.65797 274
69.67809 290
69.6982 284
69.71831 285
69.73843 272
69.75854 287
69.77865 279
69.79877 286
69.81888 260
69.839 283
69.85911 281
69.87922 259
69.89934 298
69.91945 282
69.93956 253
69.95968 293
69.97979 290
69.9999 232
70.02002 261
70.04013 248
70.06025 273
70.08036 302
70.10047 275
70.12059 255
70.1407 251
70.16081 286
70.18093 259
70.20104 252
70.22116 263
70.24127 276
70.26138 251
70.2815 256
70.30161 264
70.32172 222
70.34184 248
70.36195 269
70.38207 286
70.40218 277
70.42229 283
70.44241 241
70.46252 244
70.48263 251
70.50275 264
70.52286 273
70.54297 248
70.56309 268
70.5832 253
70.60332 239
70.62343 251
70.64354 249
70.66366 238
70.68377 258
70.70388 269
70.724 255
70.74411 271
70.76423 226
70.78434 238
70.80445 265
70.82457 253
70.84468 256
70.86479 251
70.88491 258
70.90502 267
70.92513 272
70.94525 252
70.96536 276
70.98548 260
71.00559 261
71.0257 259
71.04582 224
71.06593 273
71.08604 264
71.10616 261
71.12627 258
71.14639 236
71.1665 228
71.18661 261
71.20673 255
71.22684 244
71.24695 268
71.26707 228
71.28718 243
71.3073 270
71.32741 273
71.34752 286
71.36764 245
71.38775 252
71.40786 252
71.42798 242
71.44809 250
71.4682 246
71.48832 263
71.50843 265
71.52855 266
71.54866 266
71.56877 255
71.58889 256
71.609 235
71.62911 245
71.64923 229
71.66934 244
71.68946 270
71.70957 240
71.72968 249
71.7498 221
71.76991 257
71.79002 235
71.81014 223
71.83025 252
71.85037 249
71.87048 279
71.89059 265
71.91071 231
71.93082 258
71.95093 234
71.97105 263
71.99116 232
72.01127 255
72.03139 241
72.0515 242
72.07162 240
72.09173 257
72.11184 237
72.13196 253
72.15207 246
72.17218 258
72.1923 264
72.21241 257
72.23253 244
72.25264 256
72.27275 282
72.29287 277
72.31298 267
72.33309 263
72.35321 281
72.37332 258
72.39344 258
72.41355 269
72.43366 306
72.45378 278
72.47389 303
72.494 291
72.51412 266
72.53423 286
72.55434 285
72.57446 301
72.59457 270
72.61469 293
72.6348 308
72.65491 286
72.67503 275
72.69514 296
72.71525 288
72.73537 302
72.75548 279
72.7756 285
72.79571 289
72.81582 268
72.83594 310
72.85605 306
72.87616 309
72.89628 293
72.91639 282
72.9365 297
72.95662 269
72.97673 312
72.99685 299
73.01696 276
73.03707 290
73.05719 286
73.0773 296
73.09741 295
73.11753 334
73.13764 312
73.15776 302
73.17787 320
73.19798 334
73.2181 296
73.23821 336
73.25832 355
73.27844 386
73.29855 423
73.31867 445
73.33878 511
73.35889 468
73.37901 502
73.39912 540
73.41923 519
73.43935 534
73.45946 496
73.47957 473
73.49969 441
73.5198 413
73.53992 392
73.56003 405
73.58014 430
73.60026 430
73.62037 419
73.64048 404
73.6606 364
73.68071 362
73.70083 335
73.72094 322
73.74105 298
73.76117 294
73.78128 269
73.80139 271
73.82151 293
73.84162 289
73.86174 280
73.88185 239
73.90196 256
73.92208 259
73.94219 275
73.9623 237
73.98242 243
74.00253 247
74.02264 250
74.04276 237
74.06287 277
74.08299 249
74.1031 247
74.12321 242
74.14333 251
74.16344 289
74.18355 273
74.20367 284
74.22378 261
74.2439 262
74.26401 250
74.28412 269
74.30424 251
74.32435 249
74.34446 271
74.36458 258
74.38469 245
74.40481 232
74.42492 256
74.44503 254
74.46515 243
74.48526 244
74.50537 249
74.52549 262
74.5456 233
74.56571 286
74.58583 246
74.60594 252
74.62606 252
74.64617 240
74.66628 245
74.6864 250
74.70651 269
74.72662 239
74.74674 263
74.76685 260
74.78697 242
74.80708 232
74.82719 227
74.84731 276
74.86742 232
74.88753 241
74.90765 256
74.92776 236
74.94787 253
74.96799 259
74.9881 223
75.00822 227
