3.00117 20373
3.02128 19517
3.0414 18708
3.06151 18508
3.08162 17606
3.10174 17439
3.12185 16511
3.14197 16582
3.16208 16113
3.18219 15403
3.20231 15277
3.22242 14200
3.24253 14043
3.26265 13748
3.28276 13350
3.30288 13095
3.32299 12414
3.3431 12132
3.36322 11698
3.38333 11245
3.40344 10982
3.42356 10231
3.44367 10438
3.46379 9766
3.4839 9436
3.50401 9125
3.52413 8810
3.54424 8408
3.56435 8324
3.58447 7757
3.60458 7749
3.62469 7196
3.64481 7122
3.66492 6727
3.68504 6458
3.70515 6367
3.72526 5870
3.74538 5684
3.76549 5631
3.7856 4967
3.80572 5126
3.82583 4765
3.84595 4540
3.86606 4323
3.88617 4208
3.90629 4113
3.9264 3773
3.94651 3494
3.96663 3571
3.98674 3332
4.00686 3180
4.02697 2914
4.04708 2867
4.0672 2901
4.08731 2542
4.10742 2628
4.12754 2347
4.14765 2214
4.16776 2250
4.18788 2214
4.20799 2103
4.22811 1844
4.24822 1754
4.26833 1752
4.28845 1688
4.30856 1800
4.32867 1565
4.34879 1575
4.3689 1609
4.38902 1571
4.40913 1484
4.42924 1384
4.44936 1369
4.46947 1357
4.48958 1242
4.5097 1305
4.52981 1164
4.54992 1100
4.57004 1161
4.59015 1104
4.61027 1068
4.63038 1029
4.65049 1056
4.67061 1116
4.69072 1000
4.71083 1052
4.73095 958
4.75106 881
4.77118 860
4.79129 868
4.8114 846
4.83152 773
4.85163 851
4.87174 796
4.89186 739
4.91197 718
4.93209 712
4.9522 715
4.97231 718
4.99243 717
5.01254 691
5.03265 625
5.05277 627
5.07288 620
5.09299 610
5.11311 551
5.13322 575
5.15334 547
5.17345 543
5.19356 636
5.21368 475
5.23379 510
5.2539 472
5.27402 448
5.29413 469
5.31425 436
5.33436 443
5.35447 481
5.37459 443
5.3947 388
5.41481 425
5.43493 366
5.45504 340
5.47516 381
5.49527 391
5.51538 375
5.5355 354
5.55561 340
5.57572 309
5.59584 329
5.61595 299
5.63606 318
5.65618 314
5.67629 319
5.69641 335
5.71652 294
5.73663 279
5.75675 277
5.77686 270
5.79697 254
5.81709 254
5.8372 255
5.85732 277
5.87743 254
5.89754 265
5.91766 251
5.93777 207
5.95788 236
5.978 212
5.99811 219
6.01823 224
6.03834 201
6.05845 227
6.07857 214
6.09868 199
6.11879 214
6.13891 196
6.15902 213
6.17913 217
6.19925 195
6.21936 199
6.23948 207
6.25959 217
6.2797 222
6.29982 219
6.31993 203
6.34004 204
6.36016 210
6.38027 227
6.40039 201
6.4205 170
6.44061 208
6.46073 215
6.48084 204
6.50095 181
6.52107 197
6.54118 188
6.56129 172
6.58141 198
6.60152 196
6.62164 200
6.64175 146
6.66186 196
6.68198 164
6.70209 162
6.7222 186
6.74232 180
6.76243 180
6.78255 200
6.80266 209
6.82277 220
6.84289 194
6.863 180
6.88311 183
6.90323 170
6.92334 198
6.94346 175
6.96357 204
6.98368 169
7.0038 168
7.02391 179
7.04402 197
7.06414 191
7.08425 173
7.10436 175
7.12448 174
7.14459 194
7.16471 175
7.18482 236
7.20493 191
7.22505 192
7.24516 194
7.26527 184
7.28539 214
7.3055 181
7.32562 172
7.34573 193
7.36584 178
7.38596 182
7.40607 202
7.42618 175
7.4463 181
7.46641 193
7.48653 195
7.50664 176
7.52675 207
7.54687 177
7.56698 167
7.58709 219
7.60721 203
7.62732 209
7.64743 209
7.66755 200
7.68766 166
7.70778 198
7.72789 231
7.748 199
7.76812 209
7.78823 182
7.80834 204
7.82846 220
7.84857 207
7.86869 219
7.8888 201
7.90891 200
7.92903 183
7.94914 179
7.96925 202
7.98937 212
8.00948 190
8.0296 190
8.04971 208
8.06982 208
8.08994 175
8.11005 198
8.13016 201
8.15028 231
8.17039 220
8.1905 201
8.21062 198
8.23073 215
8.25085 207
8.27096 187
8.29107 183
8.31119 242
8.3313 209
8.35141 195
8.37153 201
8.39164 183
8.41176 239
8.43187 212
8.45198 188
8.4721 224
8.49221 218
8.51232 209
8.53244 212
8.55255 184
8.57266 204
8.59278 191
8.61289 235
8.63301 234
8.65312 226
8.67323 227
8.69335 212
8.71346 226
8.73357 258
8.75369 223
8.7738 200
8.79392 236
8.81403 209
8.83414 219
8.85426 213
8.87437 231
8.89448 225
8.9146 225
8.93471 230
8.95483 244
8.97494 209
8.99505 193
9.01517 202
9.03528 239
9.05539 202
9.07551 245
9.09562 226
9.11573 227
9.13585 229
9.15596 234
9.17608 224
9.19619 220
9.2163 228
9.23642 233
9.25653 228
9.27664 216
9.29676 219
9.31687 244
9.33699 185
9.3571 219
9.37721 232
9.39733 201
9.41744 207
9.43755 226
9.45767 234
9.47778 225
9.4979 206
9.51801 222
9.53812 241
9.55824 241
9.57835 234
9.59846 210
9.61858 203
9.63869 218
9.6588 214
9.67892 212
9.69903 220
9.71915 206
9.73926 192
9.75937 243
9.77949 209
9.7996 205
9.81971 200
9.83983 217
9.85994 202
9.88006 194
9.90017 206
9.92028 217
9.9404 215
9.96051 229
9.98062 207
10.00074 211
10.02085 229
10.04097 219
10.06108 185
10.08119 221
10.10131 231
10.12142 251
10.14153 237
10.16165 258
10.18176 254
10.20187 235
10.22199 216
10.2421 227
10.26222 196
10.28233 229
10.30244 219
10.32256 217
10.34267 239
10.36278 223
10.3829 220
10.40301 224
10.42313 251
10.44324 205
10.46335 212
10.48347 213
10.50358 226
10.52369 198
10.54381 213
10.56392 205
10.58403 224
10.60415 238
10.62426 216
10.64438 213
10.66449 198
10.6846 221
10.70472 228
10.72483 233
10.74494 233
10.76506 223
10.78517 237
10.80529 242
10.8254 218
10.84551 212
10.86563 250
10.88574 226
10.90585 242
10.92597 216
10.94608 252
10.9662 193
10.98631 236
11.00642 247
11.02654 242
11.04665 231
11.06676 217
11.08688 212
11.10699 247
11.1271 206
11.14722 210
11.16733 219
11.18745 208
11.20756 238
11.22767 231
11.24779 194
11.2679 210
11.28801 231
11.30813 185
11.32824 225
11.34836 216
11.36847 215
11.38858 190
11.4087 200
11.42881 228
11.44892 222
11.46904 195
11.48915 189
11.50927 181
11.52938 173
11.54949 206
11.56961 220
11.58972 228
11.60983 213
11.62995 260
11.65006 218
11.67017 229
11.69029 223
11.7104 238
11.73052 233
11.75063 214
11.77074 183
11.79086 241
11.81097 216
11.83108 248
11.8512 207
11.87131 226
11.89143 249
11.91154 204
11.93165 232
11.95177 247
11.97188 219
11.99199 224
12.01211 228
12.03222 247
12.05234 207
12.07245 213
12.09256 214
12.11268 257
12.13279 201
12.1529 253
12.17302 239
12.19313 237
12.21324 245
12.23336 274
12.25347 235
12.27359 273
12.2937 225
12.31381 235
12.33393 234
12.35404 227
12.37415 221
12.39427 227
12.41438 213
12.4345 220
12.45461 263
12.47472 223
12.49484 249
12.51495 221
12.53506 220
12.55518 224
12.57529 220
12.5954 202
12.61552 219
12.63563 211
12.65575 234
12.67586 208
12.69597 225
12.71609 205
12.7362 206
12.75631 212
12.77643 205
12.79654 196
12.81666 212
12.83677 221
12.85688 193
12.877 203
12.89711 193
12.91722 197
12.93734 197
12.95745 211
12.97757 237
12.99768 229
13.01779 192
13.03791 215
13.05802 179
13.07813 189
13.09825 182
13.11836 206
13.13847 216
13.15859 181
13.1787 202
13.19882 183
13.21893 194
13.23904 199
13.25916 210
13.27927 176
13.29938 210
13.3195 181
13.33961 201
13.35973 192
13.37984 197
13.39995 176
13.42007 172
13.44018 206
13.46029 195
13.48041 204
13.50052 196
13.52064 185
13.54075 219
13.56086 185
13.58098 146
13.60109 220
13.6212 176
13.64132 213
13.66143 200
13.68154 210
13.70166 200
13.72177 182
13.74189 164
13.762 200
13.78211 199
13.80223 177
13.82234 193
13.84245 187
13.86257 186
13.88268 200
13.9028 189
13.92291 162
13.94302 179
13.96314 183
13.98325 198
14.00336 186
14.02348 206
14.04359 170
14.06371 171
14.08382 212
14.10393 168
14.12405 188
14.14416 182
14.16427 213
14.18439 191
14.2045 186
14.22461 170
14.24473 182
14.26484 166
14.28496 185
14.30507 176
14.32518 149
14.3453 173
14.36541 184
14.38552 181
14.40564 185
14.42575 184
14.44587 170
14.46598 165
14.48609 170
14.50621 152
14.52632 166
14.54643 170
14.56655 177
14.58666 165
14.60677 181
14.62689 176
14.647 169
14.66712 200
14.68723 183
14.70734 168
14.72746 171
14.74757 165
14.76768 170
14.7878 181
14.80791 178
14.82803 178
14.84814 182
14.86825 180
14.88837 178
14.90848 185
14.92859 185
14.94871 192
14.96882 176
14.98894 190
15.00905 162
15.02916 188
15.04928 170
15.06939 154
15.0895 139
15.10962 195
15.12973 168
15.14984 174
15.16996 153
15.19007 179
15.21019 174
15.2303 177
15.25041 158
15.27053 169
15.29064 187
15.31075 175
15.33087 160
15.35098 170
15.3711 165
15.39121 181
15.41132 163
15.43144 158
15.45155 199
15.47166 178
15.49178 178
15.51189 154
15.53201 177
15.55212 202
15.57223 167
15.59235 163
15.61246 169
15.63257 147
15.65269 140
15.6728 162
15.69291 168
15.71303 176
15.73314 169
15.75326 149
15.77337 164
15.79348 185
15.8136 151
15.83371 168
15.85382 153
15.87394 155
15.89405 144
15.91417 165
15.93428 155
15.95439 151
15.97451 169
15.99462 163
16.01473 164
16.03485 162
16.05496 158
16.07508 125
16.09519 152
16.1153 188
16.13542 162
16.15553 170
16.17564 157
16.19576 163
16.21587 166
16.23598 158
16.2561 176
16.27621 154
16.29633 179
16.31644 169
16.33655 159
16.35667 172
16.37678 177
16.39689 175
16.41701 157
16.43712 166
16.45724 165
16.47735 168
16.49746 170
16.51758 135
16.53769 172
16.5578 171
16.57792 157
16.59803 161
16.61814 157
16.63826 171
16.65837 141
16.67849 154
16.6986 160
16.71871 156
16.73883 142
16.75894 158
16.77905 158
16.79917 170
16.81928 159
16.8394 152
16.85951 166
16.87962 170
16.89974 169
16.91985 141
16.93996 141
16.96008 162
16.98019 155
17.00031 173
17.02042 158
17.04053 166
17.06065 169
17.08076 155
17.10087 175
17.12099 150
17.1411 146
17.16121 164
17.18133 181
17.20144 170
17.22156 186
17.24167 152
17.26178 177
17.2819 149
17.30201 158
17.32212 152
17.34224 167
17.36235 169
17.38247 150
17.40258 154
17.42269 129
17.44281 179
17.46292 160
17.48303 176
17.50315 163
17.52326 162
17.54338 161
17.56349 144
17.5836 141
17.60372 163
17.62383 154
17.64394 165
17.66406 164
17.68417 114
17.70428 158
17.7244 173
17.74451 156
17.76463 153
17.78474 167
17.80485 158
17.82497 174
17.84508 152
17.86519 155
17.88531 168
17.90542 161
17.92554 140
17.94565 154
17.96576 144
17.98588 158
18.00599 187
18.0261 145
18.04622 160
18.06633 147
18.08645 157
18.10656 154
18.12667 171
18.14679 160
18.1669 142
18.18701 177
18.20713 162
18.22724 172
18.24735 166
18.26747 168
18.28758 153
18.3077 155
18.32781 170
18.34792 163
18.36804 141
18.38815 170
18.40826 158
18.42838 164
18.44849 148
18.46861 167
18.48872 169
18.50883 184
18.52895 155
18.54906 149
18.56917 154
18.58929 147
18.6094 155
18.62951 163
18.64963 151
18.66974 146
18.68986 169
18.70997 173
18.73008 167
18.7502 155
18.77031 182
18.79042 185
18.81054 187
18.83065 186
18.85077 158
18.87088 160
18.89099 184
18.91111 176
18.93122 138
18.95133 180
18.97145 178
18.99156 159
19.01168 170
19.03179 168
19.0519 133
19.07202 175
19.09213 168
19.11224 166
19.13236 178
19.15247 154
19.17258 194
19.1927 165
19.21281 156
19.23293 171
19.25304 148
19.27315 158
19.29327 151
19.31338 162
19.33349 170
19.35361 204
19.37372 167
19.39384 184
19.41395 165
19.43406 152
19.45418 157
19.47429 182
19.4944 179
19.51452 177
19.53463 168
19.55475 162
19.57486 193
19.59497 207
19.61509 176
19.6352 196
19.65531 185
19.67543 191
19.69554 200
19.71565 193
19.73577 211
19.75588 234
19.776 213
19.79611 240
19.81622 243
19.83634 252
19.85645 262
19.87656 224
19.89668 230
19.91679 260
19.93691 242
19.95702 228
19.97713 269
19.99725 246
20.01736 235
20.03747 209
20.05759 252
20.0777 252
20.09782 256
20.11793 262
20.13804 275
20.15816 278
20.17827 279
20.19838 280
20.2185 310
20.23861 263
20.25872 310
20.27884 290
20.29895 305
20.31907 286
20.33918 303
20.35929 297
20.37941 313
20.39952 329
20.41963 353
20.43975 357
20.45986 353
20.47998 364
20.50009 367
20.5202 382
20.54032 386
20.56043 438
20.58054 453
20.60066 493
20.62077 584
20.64088 682
20.661 794
20.68111 1053
20.70123 1508
20.72134 2130
20.74145 2989
20.76157 4236
20.78168 5722
20.80179 7045
20.82191 8039
20.84202 8410
20.86214 8079
20.88225 6690
20.90236 4832
20.92248 3283
20.94259 2140
20.9627 1250
20.98282 859
21.00293 669
21.02305 565
21.04316 501
21.06327 511
21.08339 466
21.1035 400
21.12361 394
21.14373 383
21.16384 345
21.18395 317
21.20407 292
21.22418 273
21.2443 264
21.26441 276
21.28452 234
21.30464 335
21.32475 244
21.34486 261
21.36498 264
21.38509 275
21.40521 253
21.42532 237
21.44543 250
21.46555 199
21.48566 243
21.50577 225
21.52589 237
21.546 240
21.56612 215
21.58623 239
21.60634 240
21.62646 232
21.64657 218
21.66668 192
21.6868 220
21.70691 230
21.72702 221
21.74714 259
21.76725 253
21.78737 195
21.80748 211
21.82759 223
21.84771 195
21.86782 255
21.88793 215
21.90805 227
21.92816 216
21.94828 200
21.96839 221
21.9885 261
22.00862 209
22.02873 192
22.04884 236
22.06896 199
22.08907 234
22.10919 240
22.1293 263
22.14941 212
22.16953 224
22.18964 204
22.20975 238
22.22987 182
22.24998 216
22.27009 222
22.29021 211
22.31032 245
22.33044 212
22.35055 211
22.37066 201
22.39078 202
22.41089 219
22.431 201
22.45112 206
22.47123 192
22.49135 225
22.51146 204
22.53157 220
22.55169 190
22.5718 191
22.59191 174
22.61203 212
22.63214 208
22.65225 165
22.67237 200
22.69248 195
22.7126 202
22.73271 185
22.75282 207
22.77294 228
22.79305 212
22.81316 188
22.83328 201
22.85339 192
22.87351 205
22.89362 185
22.91373 215
22.93385 182
22.95396 194
22.97407 170
22.99419 207
23.0143 213
23.03442 216
23.05453 210
23.07464 233
23.09476 229
23.11487 198
23.13498 203
23.1551 231
23.17521 241
23.19532 224
23.21544 216
23.23555 232
23.25567 212
23.27578 217
23.29589 204
23.31601 202
23.33612 184
23.35623 192
23.37635 201
23.39646 200
23.41658 215
23.43669 180
23.4568 208
23.47692 215
23.49703 222
23.51714 195
23.53726 184
23.55737 174
23.57749 212
23.5976 188
23.61771 178
23.63783 189
23.65794 194
23.67805 212
23.69817 200
23.71828 204
23.73839 211
23.75851 189
23.77862 211
23.79874 226
23.81885 222
23.83896 221
23.85908 214
23.87919 223
23.8993 254
23.91942 265
23.93953 272
23.95965 291
23.97976 352
23.99987 297
24.01999 281
24.0401 276
24.06021 258
24.08033 208
24.10044 219
24.12056 212
24.14067 202
24.16078 205
24.1809 185
24.20101 221
24.22112 203
24.24124 212
24.26135 205
24.28146 227
24.30158 228
24.32169 212
24.34181 214
24.36192 220
24.38203 213
24.40215 184
24.42226 204
24.44237 199
24.46249 203
24.4826 184
24.50272 225
24.52283 184
24.54294 203
24.56306 186
24.58317 204
24.60328 210
24.6234 215
24.64351 209
24.66362 193
24.68374 235
24.70385 222
24.72397 228
24.74408 215
24.76419 215
24.78431 211
24.80442 215
24.82453 244
24.84465 224
24.86476 224
24.88488 223
24.90499 221
24.9251 247
24.94522 197
24.96533 217
24.98544 201
25.00556 263
25.02567 213
25.04579 186
25.0659 230
25.08601 218
25.10613 225
25.12624 202
25.14635 223
25.16647 194
25.18658 225
25.20669 217
25.22681 233
25.24692 231
25.26704 234
25.28715 206
25.30726 233
25.32738 210
25.34749 232
25.3676 212
25.38772 236
25.40783 247
25.42795 206
25.44806 246
25.46817 263
25.48829 264
25.5084 286
25.52851 258
25.54863 276
25.56874 299
25.58886 320
25.60897 311
25.62908 353
25.6492 357
25.66931 365
25.68942 354
25.70954 376
25.72965 400
25.74976 441
25.76988 388
25.78999 409
25.81011 432
25.83022 398
25.85033 463
25.87045 450
25.89056 457
25.91067 445
25.93079 458
25.9509 438
25.97102 454
25.99113 474
26.01124 513
26.03136 527
26.05147 545
26.07158 580
26.0917 597
26.11181 599
26.13193 642
26.15204 642
26.17215 722
26.19227 867
26.21238 839
26.23249 963
26.25261 1003
26.27272 1034
26.29283 1099
26.31295 1260
26.33306 1459
26.35318 1633
26.37329 1834
26.3934 2372
26.41352 2965
26.43363 3734
26.45374 5181
26.47386 7130
26.49397 10010
26.51409 14173
26.5342 19531
26.55431 25453
26.57443 32132
26.59454 37084
26.61465 39531
26.63477 38278
26.65488 32862
26.67499 25850
26.69511 18811
26.71522 13294
26.73534 8549
26.75545 4730
26.77556 2821
26.79568 2103
26.81579 1766
26.8359 1554
26.85602 1340
26.87613 1285
26.89625 1167
26.91636 1015
26.93647 869
26.95659 854
26.9767 809
26.99681 757
27.01693 659
27.03704 598
27.05716 597
27.07727 566
27.09738 540
27.1175 481
27.13761 483
27.15772 459
27.17784 432
27.19795 451
27.21806 430
27.23818 377
27.25829 421
27.27841 415
27.29852 426
27.31863 448
27.33875 422
27.35886 465
27.37897 496
27.39909 525
27.4192 516
27.43932 485
27.45943 439
27.47954 470
27.49966 450
27.51977 405
27.53988 395
27.56 370
27.58011 332
27.60023 314
27.62034 320
27.64045 337
27.66057 302
27.68068 309
27.70079 276
27.72091 305
27.74102 312
27.76113 301
27.78125 300
27.80136 309
27.82148 259
27.84159 264
27.8617 282
27.88182 331
27.90193 316
27.92204 279
27.94216 258
27.96227 266
27.98239 248
28.0025 290
28.02261 267
28.04273 241
28.06284 282
28.08295 234
28.10307 234
28.12318 280
28.1433 253
28.16341 218
28.18352 229
28.20364 265
28.22375 270
28.24386 258
28.26398 263
28.28409 257
28.3042 257
28.32432 224
28.34443 253
28.36455 241
28.38466 249
28.40477 246
28.42489 213
28.445 251
28.46511 236
28.48523 255
28.50534 232
28.52546 237
28.54557 220
28.56568 230
28.5858 218
28.60591 222
28.62602 242
28.64614 238
28.66625 215
28.68636 255
28.70648 250
28.72659 203
28.74671 226
28.76682 229
28.78693 229
28.80705 211
28.82716 214
28.84727 215
28.86739 222
28.8875 231
28.90762 200
28.92773 234
28.94784 222
28.96796 212
28.98807 220
29.00818 210
29.0283 204
29.04841 257
29.06853 245
29.08864 244
29.10875 232
29.12887 218
29.14898 242
29.16909 244
29.18921 198
29.20932 225
29.22943 220
29.24955 222
29.26966 209
29.28978 222
29.30989 211
29.33 243
29.35012 232
29.37023 235
29.39034 241
29.41046 231
29.43057 247
29.45069 237
29.4708 231
29.49091 228
29.51103 219
29.53114 227
29.55125 207
29.57137 206
29.59148 223
29.6116 235
29.63171 237
29.65182 211
29.67194 232
29.69205 241
29.71216 189
29.73228 220
29.75239 191
29.7725 213
29.79262 211
29.81273 214
29.83285 212
29.85296 195
29.87307 236
29.89319 194
29.9133 198
29.93341 212
29.95353 199
29.97364 177
29.99376 193
30.01387 216
30.03398 218
30.0541 230
30.07421 221
30.09432 196
30.11444 227
30.13455 240
30.15467 221
30.17478 213
30.19489 245
30.21501 244
30.23512 195
30.25523 250
30.27535 192
30.29546 190
30.31557 203
30.33569 177
30.3558 193
30.37592 187
30.39603 223
30.41614 202
30.43626 175
30.45637 183
30.47648 197
30.4966 199
30.51671 193
30.53683 195
30.55694 180
30.57705 183
30.59717 190
30.61728 189
30.63739 179
30.65751 197
30.67762 225
30.69773 227
30.71785 202
30.73796 229
30.75808 227
30.77819 211
30.7983 231
30.81842 218
30.83853 211
30.85864 200
30.87876 233
30.89887 215
30.91899 190
30.9391 202
30.95921 190
30.97933 199
30.99944 196
31.01955 176
31.03967 184
31.05978 183
31.0799 166
31.10001 171
31.12012 185
31.14024 180
31.16035 192
31.18046 169
31.20058 182
31.22069 188
31.2408 173
31.26092 171
31.28103 185
31.30115 176
31.32126 160
31.34137 169
31.36149 196
31.3816 193
31.40171 189
31.42183 173
31.44194 178
31.46206 174
31.48217 161
31.50228 178
31.5224 178
31.54251 165
31.56262 176
31.58274 183
31.60285 163
31.62297 155
31.64308 129
31.66319 180
31.68331 182
31.70342 168
31.72353 160
31.74365 149
31.76376 145
31.78387 171
31.80399 164
31.8241 185
31.84422 160
31.86433 134
31.88444 156
31.90456 151
31.92467 144
31.94478 161
31.9649 162
31.98501 169
32.00513 166
32.02524 170
32.04535 175
32.06547 163
32.08558 150
32.10569 168
32.12581 177
32.14592 175
32.16604 179
32.18615 149
32.20626 154
32.22638 162
32.24649 153
32.2666 155
32.28672 146
32.30683 151
32.32694 176
32.34706 182
32.36717 195
32.38729 153
32.4074 179
32.42751 168
32.44763 178
32.46774 186
32.48785 141
32.50797 165
32.52808 153
32.5482 162
32.56831 162
32.58842 166
32.60854 153
32.62865 156
32.64876 147
32.66888 151
32.68899 136
32.7091 136
32.72922 157
32.74933 161
32.76945 148
32.78956 142
32.80967 153
32.82979 144
32.8499 132
32.87001 155
32.89013 166
32.91024 141
32.93036 166
32.95047 184
32.97058 170
32.9907 158
33.01081 140
33.03092 153
33.05104 172
33.07115 160
33.09127 148
33.11138 161
33.13149 144
33.15161 164
33.17172 148
33.19183 140
33.21195 166
33.23206 131
33.25217 177
33.27229 162
33.2924 148
33.31252 150
33.33263 180
33.35274 153
33.37286 130
33.39297 163
33.41308 147
33.4332 152
33.45331 149
33.47343 156
33.49354 127
33.51365 161
33.53377 169
33.55388 143
33.57399 145
33.59411 134
33.61422 162
33.63434 163
33.65445 135
33.67456 151
33.69468 129
33.71479 140
33.7349 124
33.75502 163
33.77513 119
33.79524 138
33.81536 149
33.83547 136
33.85559 153
33.8757 129
33.89581 126
33.91593 104
33.93604 144
33.95615 147
33.97627 147
33.99638 138
34.0165 150
34.03661 163
34.05672 159
34.07684 174
34.09695 153
34.11706 170
34.13718 154
34.15729 142
34.17741 146
34.19752 184
34.21763 150
34.23775 164
34.25786 143
34.27797 164
34.29809 166
34.3182 125
34.33831 147
34.35843 152
34.37854 161
34.39866 154
34.41877 154
34.43888 174
34.459 147
34.47911 157
34.49922 173
34.51934 167
34.53945 162
34.55957 149
34.57968 143
34.59979 163
34.61991 187
34.64002 181
34.66013 167
34.68025 187
34.70036 170
34.72047 175
34.74059 180
34.7607 168
34.78082 184
34.80093 182
34.82104 185
34.84116 166
34.86127 213
34.88138 190
34.9015 180
34.92161 200
34.94173 199
34.96184 188
34.98195 166
35.00207 188
35.02218 187
35.04229 206
35.06241 180
35.08252 185
35.10264 156
35.12275 198
35.14286 189
35.16298 155
35.18309 164
35.2032 164
35.22332 176
35.24343 176
35.26354 196
35.28366 197
35.30377 190
35.32389 182
35.344 185
35.36411 184
35.38423 188
35.40434 213
35.42445 205
35.44457 186
35.46468 194
35.4848 178
35.50491 196
35.52502 201
35.54514 186
35.56525 181
35.58536 196
35.60548 211
35.62559 204
35.64571 192
35.66582 208
35.68593 208
35.70605 172
35.72616 196
35.74627 189
35.76639 196
35.7865 178
35.80661 187
35.82673 191
35.84684 181
35.86696 177
35.88707 176
35.90718 166
35.9273 184
35.94741 191
35.96752 199
35.98764 192
36.00775 185
36.02787 180
36.04798 211
36.06809 183
36.08821 176
36.10832 207
36.12843 198
36.14855 238
36.16866 240
36.18878 262
36.20889 245
36.229 277
36.24912 282
36.26923 339
36.28934 339
36.30946 417
36.32957 493
36.34968 592
36.3698 761
36.38991 900
36.41003 1220
36.43014 1558
36.45025 1872
36.47037 2316
36.49048 2579
36.51059 2650
36.53071 2559
36.55082 2362
36.57094 1907
36.59105 1512
36.61116 1363
36.63128 1161
36.65139 851
36.6715 607
36.69162 387
36.71173 323
36.73184 280
36.75196 257
36.77207 246
36.79219 213
36.8123 206
36.83241 240
36.85253 238
36.87264 233
36.89275 199
36.91287 191
36.93298 230
36.9531 197
36.97321 205
36.99332 198
37.01344 190
37.03355 165
37.05366 170
37.07378 198
37.09389 179
37.11401 181
37.13412 173
37.15423 195
37.17435 166
37.19446 172
37.21457 175
37.23469 174
37.2548 198
37.27491 183
37.29503 164
37.31514 170
37.33526 178
37.35537 154
37.37548 162
37.3956 156
37.41571 153
37.43582 169
37.45594 173
37.47605 159
37.49617 170
37.51628 171
37.53639 153
37.55651 161
37.57662 167
37.59673 171
37.61685 144
37.63696 175
37.65708 173
37.67719 156
37.6973 152
37.71742 168
37.73753 189
37.75764 148
37.77776 181
37.79787 180
37.81798 145
37.8381 159
37.85821 143
37.87833 172
37.89844 172
37.91855 196
37.93867 169
37.95878 192
37.97889 188
37.99901 162
38.01912 177
38.03924 185
38.05935 172
38.07946 173
38.09958 182
38.11969 173
38.1398 175
38.15992 179
38.18003 161
38.20015 174
38.22026 173
38.24037 190
38.26049 185
38.2806 187
38.30071 163
38.32083 179
38.34094 183
38.36105 186
38.38117 156
38.40128 172
38.4214 161
38.44151 182
38.46162 192
38.48174 165
38.50185 184
38.52196 163
38.54208 176
38.56219 188
38.58231 184
38.60242 170
38.62253 199
38.64265 161
38.66276 175
38.68287 164
38.70299 168
38.7231 163
38.74321 165
38.76333 178
38.78344 166
38.80356 195
38.82367 183
38.84378 167
38.8639 151
38.88401 189
38.90412 191
38.92424 178
38.94435 180
38.96447 158
38.98458 211
39.00469 181
39.02481 175
39.04492 219
39.06503 209
39.08515 234
39.10526 237
39.12538 245
39.14549 255
39.1656 297
39.18572 321
39.20583 334
39.22594 369
39.24606 471
39.26617 536
39.28628 674
39.3064 861
39.32651 1038
39.34663 1354
39.36674 1650
39.38685 1963
39.40697 2239
39.42708 2446
39.44719 2491
39.46731 2242
39.48742 1803
39.50754 1529
39.52765 1268
39.54776 1184
39.56788 979
39.58799 741
39.6081 463
39.62822 318
39.64833 256
39.66845 270
39.68856 261
39.70867 239
39.72879 223
39.7489 233
39.76901 204
39.78913 208
39.80924 203
39.82935 211
39.84947 213
39.86958 218
39.8897 200
39.90981 173
39.92992 210
39.95004 208
39.97015 223
39.99026 220
40.01038 227
40.03049 261
40.05061 282
40.07072 342
40.09083 383
40.11095 459
40.13106 489
40.15117 660
40.17129 760
40.1914 910
40.21152 1102
40.23163 1176
40.25174 1301
40.27186 1266
40.29197 1122
40.31208 929
40.3322 772
40.35231 751
40.37242 678
40.39254 559
40.41265 442
40.43277 346
40.45288 248
40.47299 199
40.49311 204
40.51322 228
40.53333 205
40.55345 191
40.57356 179
40.59368 189
40.61379 190
40.6339 179
40.65402 161
40.67413 150
40.69424 162
40.71436 167
40.73447 156
40.75458 138
40.7747 160
40.79481 200
40.81493 159
40.83504 193
40.85515 163
40.87527 161
40.89538 164
40.91549 172
40.93561 164
40.95572 156
40.97584 152
40.99595 149
41.01606 141
41.03618 174
41.05629 181
41.0764 159
41.09652 139
41.11663 186
41.13675 155
41.15686 170
41.17697 144
41.19709 176
41.2172 160
41.23731 153
41.25743 154
41.27754 152
41.29765 163
41.31777 172
41.33788 163
41.358 154
41.37811 152
41.39822 164
41.41834 145
41.43845 152
41.45856 177
41.47868 170
41.49879 156
41.51891 143
41.53902 157
41.55913 174
41.57925 164
41.59936 179
41.61947 150
41.63959 160
41.6597 170
41.67982 200
41.69993 190
41.72004 184
41.74016 177
41.76027 178
41.78038 171
41.8005 198
41.82061 169
41.84072 205
41.86084 180
41.88095 192
41.90107 174
41.92118 199
41.94129 197
41.96141 186
41.98152 185
42.00163 174
42.02175 177
42.04186 179
42.06198 184
42.08209 222
42.1022 214
42.12232 235
42.14243 266
42.16254 241
42.18266 276
42.20277 319
42.22289 383
42.243 431
42.26311 497
42.28323 621
42.30334 789
42.32345 1036
42.34357 1153
42.36368 1388
42.38379 1623
42.40391 1797
42.42402 1761
42.44414 1682
42.46425 1429
42.48436 1114
42.50448 1035
42.52459 892
42.5447 810
42.56482 683
42.58493 490
42.60505 364
42.62516 274
42.64527 232
42.66539 244
42.6855 205
42.70561 197
42.72573 188
42.74584 192
42.76595 167
42.78607 175
42.80618 174
42.8263 169
42.84641 160
42.86652 153
42.88664 159
42.90675 146
42.92686 140
42.94698 150
42.96709 162
42.98721 159
43.00732 136
43.02743 175
43.04755 180
43.06766 124
43.08777 161
43.10789 173
43.128 160
43.14812 150
43.16823 140
43.18834 144
43.20846 140
43.22857 161
43.24868 183
43.2688 126
43.28891 157
43.30902 161
43.32914 155
43.34925 156
43.36937 139
43.38948 138
43.40959 157
43.42971 154
43.44982 144
43.46993 133
43.49005 130
43.51016 139
43.53028 140
43.55039 134
43.5705 132
43.59062 144
43.61073 132
43.63084 143
43.65096 138
43.67107 148
43.69119 138
43.7113 135
43.73141 129
43.75153 135
43.77164 156
43.79175 144
43.81187 143
43.83198 163
43.85209 143
43.87221 123
43.89232 138
43.91244 134
43.93255 137
43.95266 133
43.97278 148
43.99289 144
44.013 136
44.03312 136
44.05323 142
44.07335 145
44.09346 157
44.11357 142
44.13369 153
44.1538 139
44.17391 132
44.19403 126
44.21414 144
44.23426 145
44.25437 145
44.27448 136
44.2946 150
44.31471 142
44.33482 127
44.35494 141
44.37505 146
44.39516 145
44.41528 140
44.43539 120
44.45551 142
44.47562 142
44.49573 143
44.51585 148
44.53596 155
44.55607 164
44.57619 154
44.5963 169
44.61642 139
44.63653 144
44.65664 129
44.67676 142
44.69687 136
44.71698 158
44.7371 146
44.75721 147
44.77732 157
44.79744 141
44.81755 152
44.83767 130
44.85778 144
44.87789 163
44.89801 144
44.91812 154
44.93823 131
44.95835 148
44.97846 158
44.99858 146
45.01869 155
45.0388 159
45.05892 141
45.07903 151
45.09914 135
45.11926 116
45.13937 136
45.15949 157
45.1796 152
45.19971 156
45.21983 156
45.23994 167
45.26005 160
45.28017 155
45.30028 151
45.32039 143
45.34051 167
45.36062 166
45.38074 165
45.40085 192
45.42096 181
45.44108 202
45.46119 203
45.4813 201
45.50142 239
45.52153 226
45.54165 270
45.56176 301
45.58187 371
45.60199 418
45.6221 453
45.64221 596
45.66233 658
45.68244 808
45.70256 929
45.72267 1094
45.74278 1165
45.7629 1278
45.78301 1152
45.80312 994
45.82324 860
45.84335 724
45.86346 661
45.88358 620
45.90369 603
45.92381 455
45.94392 315
45.96403 260
45.98415 206
46.00426 177
46.02437 156
46.04449 167
46.0646 164
46.08472 159
46.10483 157
46.12494 162
46.14506 153
46.16517 145
46.18528 148
46.2054 156
46.22551 131
46.24563 137
46.26574 154
46.28585 143
46.30597 135
46.32608 159
46.34619 140
46.36631 164
46.38642 160
46.40653 168
46.42665 124
46.44676 128
46.46688 121
46.48699 161
46.5071 134
46.52722 110
46.54733 133
46.56744 144
46.58756 151
46.60767 154
46.62779 142
46.6479 127
46.66801 143
46.68813 135
46.70824 145
46.72835 142
46.74847 128
46.76858 126
46.78869 132
46.80881 129
46.82892 135
46.84904 135
46.86915 128
46.88926 146
46.90938 156
46.92949 138
46.9496 137
46.96972 148
46.98983 149
47.00995 145
47.03006 162
47.05017 139
47.07029 169
47.0904 143
47.11051 161
47.13063 152
47.15074 128
47.17086 141
47.19097 137
47.21108 145
47.2312 143
47.25131 154
47.27142 135
47.29154 141
47.31165 140
47.33176 133
47.35188 146
47.37199 143
47.39211 147
47.41222 153
47.43233 142
47.45245 131
47.47256 137
47.49267 138
47.51279 147
47.5329 139
47.55302 125
47.57313 113
47.59324 148
47.61336 132
47.63347 141
47.65358 138
47.6737 117
47.69381 136
47.71393 136
47.73404 148
47.75415 127
47.77427 144
47.79438 131
47.81449 146
47.83461 130
47.85472 147
47.87483 136
47.89495 132
47.91506 130
47.93518 135
47.95529 126
47.9754 157
47.99552 147
48.01563 129
48.03574 133
48.05586 104
48.07597 133
48.09609 128
48.1162 149
48.13631 122
48.15643 124
48.17654 148
48.19665 154
48.21677 114
48.23688 127
48.257 113
48.27711 130
48.29722 134
48.31734 154
48.33745 138
48.35756 139
48.37768 137
48.39779 142
48.4179 141
48.43802 141
48.45813 164
48.47825 150
48.49836 154
48.51847 133
48.53859 139
48.5587 139
48.57881 159
48.59893 130
48.61904 152
48.63916 156
48.65927 142
48.67938 132
48.6995 140
48.71961 152
48.73972 137
48.75984 130
48.77995 168
48.80006 147
48.82018 160
48.84029 162
48.86041 169
48.88052 132
48.90063 157
48.92075 166
48.94086 150
48.96097 144
48.98109 152
49.0012 149
49.02132 157
49.04143 166
49.06154 153
49.08166 169
49.10177 164
49.12188 165
49.142 150
49.16211 140
49.18223 137
49.20234 157
49.22245 138
49.24257 129
49.26268 149
49.28279 138
49.30291 147
49.32302 163
49.34313 141
49.36325 155
49.38336 146
49.40348 175
49.42359 166
49.4437 141
49.46382 175
49.48393 175
49.50404 173
49.52416 182
49.54427 175
49.56439 169
49.5845 174
49.60461 187
49.62473 217
49.64484 204
49.66495 229
49.68507 229
49.70518 239
49.7253 265
49.74541 304
49.76552 309
49.78564 327
49.80575 384
49.82586 432
49.84598 460
49.86609 542
49.8862 640
49.90632 688
49.92643 880
49.94655 1118
49.96666 1462
49.98677 1783
50.00689 2109
50.027 2523
50.04711 3021
50.06723 3488
50.08734 3881
50.10746 3954
50.12757 3569
50.14768 3114
50.1678 2504
50.18791 2189
50.20802 2092
50.22814 1961
50.24825 1879
50.26837 1493
50.28848 1163
50.30859 716
50.32871 514
50.34882 403
50.36893 362
50.38905 313
50.40916 299
50.42927 309
50.44939 276
50.4695 292
50.48962 276
50.50973 273
50.52984 269
50.54996 275
50.57007 275
50.59018 277
50.6103 222
50.63041 237
50.65053 218
50.67064 213
50.69075 204
50.71087 228
50.73098 211
50.75109 204
50.77121 192
50.79132 155
50.81143 149
50.83155 167
50.85166 146
50.87178 168
50.89189 153
50.912 164
50.93212 157
50.95223 148
50.97234 133
50.99246 142
51.01257 140
51.03269 155
51.0528 147
51.07291 158
51.09303 142
51.11314 162
51.13325 133
51.15337 147
51.17348 126
51.1936 139
51.21371 134
51.23382 152
51.25394 154
51.27405 142
51.29416 133
51.31428 123
51.33439 113
51.3545 123
51.37462 118
51.39473 161
51.41485 115
51.43496 136
51.45507 119
51.47519 136
51.4953 119
51.51541 136
51.53553 109
51.55564 136
51.57576 131
51.59587 112
51.61598 127
51.6361 119
51.65621 141
51.67632 132
51.69644 129
51.71655 129
51.73667 134
51.75678 118
51.77689 134
51.79701 134
51.81712 125
51.83723 123
51.85735 115
51.87746 113
51.89757 120
51.91769 113
51.9378 144
51.95792 124
51.97803 133
51.99814 125
52.01826 114
52.03837 112
52.05848 146
52.0786 131
52.09871 111
52.11883 108
52.13894 136
52.15905 116
52.17917 112
52.19928 140
52.21939 108
52.23951 131
52.25962 119
52.27974 118
52.29985 122
52.31996 117
52.34008 127
52.36019 127
52.3803 127
52.40042 129
52.42053 145
52.44064 154
52.46076 105
52.48087 126
52.50099 126
52.5211 142
52.54121 129
52.56133 126
52.58144 140
52.60155 132
52.62167 124
52.64178 123
52.6619 153
52.68201 137
52.70212 116
52.72224 138
52.74235 130
52.76246 133
52.78258 133
52.80269 132
52.8228 133
52.84292 132
52.86303 130
52.88315 129
52.90326 148
52.92337 132
52.94349 133
52.9636 123
52.98371 122
53.00383 126
53.02394 138
53.04406 137
53.06417 121
53.08428 130
53.1044 149
53.12451 113
53.14462 165
53.16474 150
53.18485 144
53.20497 162
53.22508 134
53.24519 122
53.26531 145
53.28542 164
53.30553 146
53.32565 150
53.34576 151
53.36587 126
53.38599 129
53.4061 142
53.42622 160
53.44633 135
53.46644 135
53.48656 147
53.50667 148
53.52678 147
53.5469 138
53.56701 158
53.58713 146
53.60724 144
53.62735 124
53.64747 164
53.66758 156
53.68769 145
53.70781 150
53.72792 142
53.74804 124
53.76815 122
53.78826 155
53.80838 131
53.82849 142
53.8486 150
53.86872 140
53.88883 154
53.90894 131
53.92906 152
53.94917 143
53.96929 139
53.9894 135
54.00951 143
54.02963 127
54.04974 137
54.06985 124
54.08997 158
54.11008 157
54.1302 169
54.15031 147
54.17042 154
54.19054 142
54.21065 149
54.23076 137
54.25088 166
54.27099 150
54.29111 161
54.31122 162
54.33133 146
54.35145 152
54.37156 177
54.39167 172
54.41179 190
54.4319 189
54.45201 172
54.47213 198
54.49224 187
54.51236 189
54.53247 171
54.55258 240
54.5727 266
54.59281 263
54.61292 303
54.63304 295
54.65315 339
54.67327 437
54.69338 528
54.71349 565
54.73361 722
54.75372 819
54.77383 994
54.79395 1077
54.81406 1158
54.83417 1204
54.85429 1151
54.8744 962
54.89452 831
54.91463 786
54.93474 717
54.95486 700
54.97497 659
54.99508 660
55.0152 572
55.03531 480
55.05543 381
55.07554 318
55.09565 306
55.11577 291
55.13588 314
55.15599 335
55.17611 380
55.19622 426
55.21634 461
55.23645 524
55.25656 566
55.27668 594
55.29679 536
55.3169 523
55.33702 463
55.35713 411
55.37724 359
55.39736 386
55.41747 340
55.43759 360
55.4577 338
55.47781 271
55.49793 227
55.51804 210
55.53815 170
55.55827 182
55.57838 165
55.5985 145
55.61861 141
55.63872 164
55.65884 145
55.67895 152
55.69906 145
55.71918 135
55.73929 138
55.75941 149
55.77952 140
55.79963 155
55.81975 148
55.83986 127
55.85997 130
55.88009 141
55.9002 128
55.92031 150
55.94043 129
55.96054 112
55.98066 106
56.00077 151
56.02088 117
56.041 126
56.06111 154
56.08122 122
56.10134 146
56.12145 113
56.14157 132
56.16168 114
56.18179 116
56.20191 133
56.22202 151
56.24213 119
56.26225 141
56.28236 143
56.30248 124
56.32259 141
56.3427 115
56.36282 132
56.38293 126
56.40304 135
56.42316 138
56.44327 142
56.46338 136
56.4835 102
56.50361 155
56.52373 125
56.54384 151
56.56395 139
56.58407 125
56.60418 127
56.62429 130
56.64441 118
56.66452 122
56.68464 128
56.70475 130
56.72486 122
56.74498 119
56.76509 134
56.7852 133
56.80532 121
56.82543 136
56.84554 109
56.86566 135
56.88577 117
56.90589 123
56.926 145
56.94611 126
56.96623 121
56.98634 117
57.00645 155
57.02657 124
57.04668 150
57.0668 155
57.08691 141
57.10702 173
57.12714 162
57.14725 199
57.16736 165
57.18748 180
57.20759 203
57.22771 177
57.24782 170
57.26793 151
57.28805 130
57.30816 172
57.32827 162
57.34839 163
57.3685 151
57.38861 152
57.40873 123
57.42884 122
57.44896 134
57.46907 129
57.48918 110
57.5093 123
57.52941 108
57.54952 128
57.56964 118
57.58975 130
57.60987 120
57.62998 145
57.65009 141
57.67021 146
57.69032 139
57.71043 132
57.73055 120
57.75066 111
57.77078 121
57.79089 138
57.811 133
57.83112 101
57.85123 136
57.87134 128
57.89146 141
57.91157 120
57.93168 125
57.9518 136
57.97191 129
57.99203 117
58.01214 132
58.03225 132
58.05237 146
58.07248 133
58.09259 136
58.11271 133
58.13282 133
58.15294 132
58.17305 114
58.19316 169
58.21328 145
58.23339 135
58.2535 119
58.27362 143
58.29373 117
58.31385 138
58.33396 127
58.35407 134
58.37419 132
58.3943 114
58.41441 140
58.43453 130
58.45464 152
58.47475 123
58.49487 115
58.51498 141
58.5351 139
58.55521 112
58.57532 136
58.59544 140
58.61555 137
58.63566 120
58.65578 124
58.67589 129
58.69601 140
58.71612 165
58.73623 141
58.75635 137
58.77646 151
58.79657 135
58.81669 126
58.8368 133
58.85691 148
58.87703 126
58.89714 128
58.91726 123
58.93737 135
58.95748 147
58.9776 145
58.99771 135
59.01782 151
59.03794 136
59.05805 139
59.07817 135
59.09828 165
59.11839 133
59.13851 128
59.15862 139
59.17873 147
59.19885 139
59.21896 145
59.23908 159
59.25919 156
59.2793 148
59.29942 167
59.31953 168
59.33964 175
59.35976 173
59.37987 167
59.39998 178
59.4201 185
59.44021 174
59.46033 181
59.48044 197
59.50055 218
59.52067 249
59.54078 223
59.56089 240
59.58101 268
59.60112 285
59.62124 303
59.64135 334
59.66146 384
59.68158 450
59.70169 549
59.7218 624
59.74192 720
59.76203 897
59.78215 1056
59.80226 1291
59.82237 1648
59.84249 1888
59.8626 2238
59.88271 2356
59.90283 2528
59.92294 2468
59.94305 2234
59.96317 1930
59.98328 1606
60.0034 1352
60.02351 1318
60.04362 1315
60.06374 1332
60.08385 1265
60.10396 1052
60.12408 930
60.14419 671
60.16431 488
60.18442 359
60.20453 295
60.22465 258
60.24476 214
60.26487 185
60.28499 208
60.3051 220
60.32522 194
60.34533 184
60.36544 153
60.38556 191
60.40567 147
60.42578 155
60.4459 155
60.46601 154
60.48612 169
60.50624 146
60.52635 146
60.54647 145
60.56658 144
60.58669 140
60.60681 147
60.62692 133
60.64703 138
60.66715 156
60.68726 124
60.70738 161
60.72749 119
60.7476 124
60.76772 136
60.78783 142
60.80794 130
60.82806 148
60.84817 153
60.86828 119
60.8884 129
60.90851 151
60.92863 151
60.94874 133
60.96885 145
60.98897 155
61.00908 156
61.02919 129
61.04931 129
61.06942 138
61.08954 118
61.10965 123
61.12976 128
61.14988 131
61.16999 123
61.1901 123
61.21022 160
61.23033 136
61.25045 143
61.27056 136
61.29067 146
61.31079 133
61.3309 129
61.35101 115
61.37113 128
61.39124 144
61.41135 117
61.43147 134
61.45158 148
61.4717 130
61.49181 157
61.51192 128
61.53204 141
61.55215 169
61.57226 156
61.59238 135
61.61249 145
61.63261 130
61.65272 141
61.67283 117
61.69295 172
61.71306 135
61.73317 135
61.75329 133
61.7734 128
61.79352 153
61.81363 124
61.83374 132
61.85386 140
61.87397 125
61.89408 132
61.9142 124
61.93431 143
61.95442 144
61.97454 160
61.99465 138
62.01477 162
62.03488 129
62.05499 138
62.07511 140
62.09522 153
62.11533 152
62.13545 146
62.15556 161
62.17568 125
62.19579 130
62.2159 150
62.23602 123
62.25613 156
62.27624 159
62.29636 140
62.31647 125
62.33659 130
62.3567 125
62.37681 144
62.39693 108
62.41704 129
62.43715 141
62.45727 135
62.47738 142
62.49749 140
62.51761 128
62.53772 135
62.55784 130
62.57795 120
62.59806 122
62.61818 131
62.63829 131
62.6584 127
62.67852 131
62.69863 137
62.71875 129
62.73886 112
62.75897 110
62.77909 132
62.7992 124
62.81931 129
62.83943 139
62.85954 119
62.87965 121
62.89977 100
62.91988 150
62.94 112
62.96011 114
62.98022 113
63.00034 127
63.02045 144
63.04056 130
63.06068 148
63.08079 123
63.10091 117
63.12102 138
63.14113 135
63.16125 114
63.18136 133
63.20147 117
63.22159 120
63.2417 127
63.26182 125
63.28193 132
63.30204 121
63.32216 125
63.34227 129
63.36238 145
63.3825 130
63.40261 129
63.42272 126
63.44284 122
63.46295 123
63.48307 120
63.50318 132
63.52329 106
63.54341 152
63.56352 137
63.58363 139
63.60375 133
63.62386 161
63.64398 133
63.66409 151
63.6842 175
63.70432 172
63.72443 155
63.74454 193
63.76466 172
63.78477 217
63.80489 219
63.825 238
63.84511 272
63.86523 309
63.88534 350
63.90545 388
63.92557 425
63.94568 519
63.96579 557
63.98591 535
64.00602 532
64.02614 474
64.04625 416
64.06636 382
64.08648 355
64.10659 337
64.1267 331
64.14682 356
64.16693 291
64.18705 339
64.20716 299
64.22727 239
64.24739 193
64.2675 180
64.28761 143
64.30773 139
64.32784 134
64.34796 113
64.36807 122
64.38818 129
64.4083 138
64.42841 123
64.44852 117
64.46864 122
64.48875 126
64.50886 121
64.52898 134
64.54909 93
64.56921 145
64.58932 128
64.60943 127
64.62955 146
64.64966 106
64.66977 123
64.68989 124
64.71 117
64.73012 116
64.75023 111
64.77034 126
64.79046 96
64.81057 95
64.83068 114
64.8508 104
64.87091 106
64.89102 111
64.91114 119
64.93125 122
64.95137 112
64.97148 109
64.99159 117
65.01171 141
65.03182 136
65.05193 134
65.07205 134
65.09216 125
65.11228 130
65.13239 128
65.1525 141
65.17262 133
65.19273 121
65.21284 130
65.23296 124
65.25307 124
65.27319 144
65.2933 118
65.31341 114
65.33353 128
65.35364 126
65.37375 132
65.39387 117
65.41398 139
65.43409 132
65.45421 147
65.47432 131
65.49444 145
65.51455 132
65.53466 142
65.55478 152
65.57489 156
65.595 165
65.61512 154
65.63523 193
65.65535 216
65.67546 188
65.69557 246
65.71569 225
65.7358 231
65.75591 239
65.77603 220
65.79614 191
65.81626 180
65.83637 181
65.85648 193
65.8766 191
65.89671 194
65.91682 177
65.93694 196
65.95705 182
65.97716 167
65.99728 151
66.01739 145
66.03751 151
66.05762 140
66.07773 130
66.09785 137
66.11796 132
66.13807 130
66.15819 136
66.1783 135
66.19842 128
66.21853 152
66.23864 136
66.25876 121
66.27887 116
66.29898 123
66.3191 144
66.33921 138
66.35933 136
66.37944 143
66.39955 134
66.41967 167
66.43978 145
66.45989 126
66.48001 135
66.50012 134
66.52023 134
66.54035 146
66.56046 126
66.58058 128
66.60069 142
66.6208 131
66.64092 148
66.66103 111
66.68114 145
66.70126 123
66.72137 145
66.74149 133
66.7616 131
66.78171 126
66.80183 157
66.82194 140
66.84205 145
66.86217 118
66.88228 144
66.90239 125
66.92251 132
66.94262 163
66.96274 162
66.98285 136
67.00296 140
67.02308 147
67.04319 150
67.0633 149
67.08342 147
67.10353 157
67.12365 154
67.14376 162
67.16387 156
67.18399 166
67.2041 151
67.22421 181
67.24433 178
67.26444 188
67.28456 182
67.30467 195
67.32478 238
67.3449 236
67.36501 229
67.38512 244
67.40524 287
67.42535 284
67.44546 318
67.46558 336
67.48569 399
67.50581 436
67.52592 529
67.54603 617
67.56615 761
67.58626 809
67.60637 962
67.62649 1149
67.6466 1291
67.66672 1427
67.68683 1532
67.70694 1461
67.72706 1398
67.74717 1212
67.76728 1049
67.7874 917
67.80751 945
67.82763 924
67.84774 963
67.86785 1016
67.88797 1112
67.90808 1139
67.92819 1106
67.94831 1107
67.96842 1100
67.98853 1197
68.00865 1286
68.02876 1534
68.04888 1692
68.06899 1876
68.0891 2017
68.10922 1992
68.12933 1920
68.14944 1764
68.16956 1614
68.18967 1598
68.20979 1646
68.2299 1762
68.25001 1786
68.27013 1864
68.29024 1811
68.31035 1553
68.33047 1355
68.35058 1075
68.3707 844
68.39081 798
68.41092 735
68.43104 683
68.45115 707
68.47126 648
68.49138 569
68.51149 464
68.5316 354
68.55172 280
68.57183 263
68.59195 226
68.61206 204
68.63217 207
68.65229 197
68.6724 191
68.69251 179
68.71263 154
68.73274 173
68.75286 153
68.77297 150
68.79308 168
68.8132 152
68.83331 151
68.85342 138
68.87354 159
68.89365 145
68.91376 144
68.93388 160
68.95399 140
68.97411 142
68.99422 136
69.01433 138
69.03445 135
69.05456 132
69.07467 153
69.09479 133
69.1149 116
69.13502 136
69.15513 134
69.17524 116
69.19536 131
69.21547 131
69.23558 135
69.2557 126
69.27581 142
69.29593 133
69.31604 139
69.33615 143
69.35627 134
69.37638 128
69.39649 108
69.41661 123
69.43672 115
69.45683 135
69.47695 135
69.49706 131
69.51718 129
69.53729 119
69.5574 128
69.57752 106
69.59763 117
69.61774 139
69.63786 132
69.65797 129
69.67809 138
69.6982 125
69.71831 138
69.73843 129
69.75854 124
69.77865 105
69.79877 106
69.81888 132
69.839 133
69.85911 131
69.87922 116
69.89934 117
69.91945 115
69.93956 113
69.95968 138
69.97979 117
69.9999 126
70.02002 99
70.04013 120
70.06025 119
70.08036 111
70.10047 129
70.12059 113
70.1407 117
70.16081 133
70.18093 122
70.20104 116
70.22116 118
70.24127 120
70.26138 109
70.2815 126
70.30161 117
70.32172 121
70.34184 84
70.36195 114
70.38207 111
70.40218 100
70.42229 104
70.44241 129
70.46252 106
70.48263 137
70.50275 141
70.52286 114
70.54297 110
70.56309 130
70.5832 120
70.60332 116
70.62343 107
70.64354 113
70.66366 128
70.68377 119
70.70388 119
70.724 135
70.74411 97
70.76423 128
70.78434 118
70.80445 122
70.82457 129
70.84468 126
70.86479 124
70.88491 130
70.90502 112
70.92513 119
70.94525 109
70.96536 108
70.98548 125
71.00559 104
71.0257 115
71.04582 119
71.06593 112
71.08604 105
71.10616 108
71.12627 113
71.14639 125
71.1665 116
71.18661 98
71.20673 121
71.22684 113
71.24695 113
71.26707 113
71.28718 127
71.3073 106
71.32741 126
71.34752 125
71.36764 111
71.38775 113
71.40786 116
71.42798 121
71.44809 118
71.4682 116
71.48832 110
71.50843 125
71.52855 132
71.54866 120
71.56877 120
71.58889 128
71.609 101
71.62911 113
71.64923 124
71.66934 107
71.68946 106
71.70957 138
71.72968 127
71.7498 105
71.76991 102
71.79002 118
71.81014 124
71.83025 124
71.85037 110
71.87048 115
71.89059 119
71.91071 129
71.93082 122
71.95093 122
71.97105 136
71.99116 121
72.01127 117
72.03139 139
72.0515 113
72.07162 125
72.09173 120
72.11184 111
72.13196 132
72.15207 122
72.17218 117
72.1923 130
72.21241 125
72.23253 111
72.25264 95
72.27275 123
72.29287 118
72.31298 114
72.33309 118
72.35321 143
72.37332 113
72.39344 132
72.41355 99
72.43366 109
72.45378 125
72.47389 106
72.494 116
72.51412 127
72.53423 111
72.55434 112
72.57446 118
72.59457 98
72.61469 114
72.6348 114
72.65491 106
72.67503 126
72.69514 113
72.71525 125
72.73537 115
72.75548 111
72.7756 122
72.79571 123
72.81582 130
72.83594 134
72.85605 111
72.87616 121
72.89628 126
72.91639 121
72.9365 119
72.95662 115
72.97673 132
72.99685 140
73.01696 134
73.03707 152
73.05719 159
73.0773 137
73.09741 162
73.11753 164
73.13764 172
73.15776 158
73.17787 203
73.19798 202
73.2181 215
73.23821 230
73.25832 263
73.27844 280
73.29855 350
73.31867 373
73.33878 435
73.35889 441
73.37901 509
73.39912 537
73.41923 574
73.43935 589
73.45946 499
73.47957 466
73.49969 362
73.5198 345
73.53992 304
73.56003 311
73.58014 315
73.60026 359
73.62037 376
73.64048 302
73.6606 301
73.68071 296
73.70083 241
73.72094 199
73.74105 166
73.76117 156
73.78128 141
73.80139 140
73.82151 141
73.84162 137
73.86174 116
73.88185 123
73.90196 129
73.92208 135
73.94219 133
73.9623 108
73.98242 133
74.00253 121
74.02264 119
74.04276 114
74.06287 121
74.08299 107
74.1031 116
74.12321 102
74.14333 116
74.16344 115
74.18355 118
74.20367 123
74.22378 116
74.2439 109
74.26401 100
74.28412 118
74.30424 124
74.32435 126
74.34446 125
74.36458 126
74.38469 108
74.40481 109
74.42492 111
74.44503 122
74.46515 103
74.48526 117
74.50537 120
74.52549 107
74.5456 129
74.56571 141
74.58583 119
74.60594 104
74.62606 119
74.64617 109
74.66628 110
74.6864 111
74.70651 113
74.72662 107
74.74674 122
74.76685 117
74.78697 120
74.80708 110
74.82719 133
74.84731 103
74.86742 130
74.88753 131
74.90765 118
74.92776 121
74.94787 127
74.96799 132
74.9881 125
75.00822 120
