3.00117 19913
3.02128 19374
3.0414 18776
3.06151 18540
3.08162 17834
3.10174 17188
3.12185 17201
3.14197 16147
3.16208 15794
3.18219 15245
3.20231 15137
3.22242 14783
3.24253 14075
3.26265 13553
3.28276 13131
3.30288 12861
3.32299 12528
3.3431 11806
3.36322 11644
3.38333 11293
3.40344 10807
3.42356 10602
3.44367 9999
3.46379 9963
3.4839 9254
3.50401 9163
3.52413 8882
3.54424 8280
3.56435 8198
3.58447 7774
3.60458 7615
3.62469 7361
3.64481 6734
3.66492 6892
3.68504 6263
3.70515 6290
3.72526 6057
3.74538 5482
3.76549 5436
3.7856 5307
3.80572 4975
3.82583 4960
3.84595 4586
3.86606 4361
3.88617 4117
3.90629 4111
3.9264 3885
3.94651 3503
3.96663 3482
3.98674 3238
4.00686 3243
4.02697 3172
4.04708 2786
4.0672 2680
4.08731 2590
4.10742 2453
4.12754 2603
4.14765 2283
4.16776 2209
4.18788 2159
4.20799 2120
4.22811 1978
4.24822 1749
4.26833 1792
4.28845 1750
4.30856 1680
4.32867 1764
4.34879 1562
4.3689 1568
4.38902 1514
4.40913 1464
4.42924 1524
4.44936 1258
4.46947 1373
4.48958 1310
4.5097 1308
4.52981 1300
4.54992 1188
4.57004 1166
4.59015 1129
4.61027 1123
4.63038 1166
4.65049 992
4.67061 1012
4.69072 1068
4.71083 982
4.73095 987
4.75106 848
4.77118 912
4.79129 913
4.8114 952
4.83152 849
4.85163 753
4.87174 791
4.89186 833
4.91197 790
4.93209 777
4.9522 735
4.97231 731
4.99243 657
5.01254 684
5.03265 687
5.05277 653
5.07288 630
5.09299 633
5.11311 593
5.13322 572
5.15334 582
5.17345 549
5.19356 551
5.21368 554
5.23379 534
5.2539 525
5.27402 461
5.29413 508
5.31425 452
5.33436 451
5.35447 468
5.37459 462
5.3947 436
5.41481 412
5.43493 417
5.45504 414
5.47516 391
5.49527 386
5.51538 423
5.5355 364
5.55561 393
5.57572 334
5.59584 381
5.61595 353
5.63606 313
5.65618 330
5.67629 320
5.69641 331
5.71652 285
5.73663 312
5.75675 326
5.77686 313
5.79697 312
5.81709 272
5.8372 299
5.85732 329
5.87743 350
5.89754 284
5.91766 262
5.93777 267
5.95788 272
5.978 265
5.99811 262
6.01823 256
6.03834 256
6.05845 278
6.07857 265
6.09868 283
6.11879 258
6.13891 281
6.15902 250
6.17913 273
6.19925 238
6.21936 244
6.23948 228
6.25959 230
6.2797 247
6.29982 224
6.31993 280
6.34004 257
6.36016 229
6.38027 221
6.40039 256
6.4205 239
6.44061 230
6.46073 261
6.48084 232
6.50095 243
6.52107 243
6.54118 229
6.56129 209
6.58141 225
6.60152 218
6.62164 208
6.64175 243
6.66186 243
6.68198 222
6.70209 239
6.7222 234
6.74232 252
6.76243 199
6.78255 234
6.80266 195
6.82277 224
6.84289 240
6.863 226
6.88311 217
6.90323 206
6.92334 254
6.94346 236
6.96357 187
6.98368 200
7.0038 234
7.02391 199
7.04402 209
7.06414 234
7.08425 238
7.10436 239
7.12448 214
7.14459 219
7.16471 244
7.18482 198
7.20493 228
7.22505 247
7.24516 222
7.26527 212
7.28539 214
7.3055 217
7.32562 235
7.34573 239
7.36584 212
7.38596 253
7.40607 211
7.42618 218
7.4463 226
7.46641 249
7.48653 219
7.50664 270
7.52675 233
7.54687 217
7.56698 255
7.58709 237
7.60721 228
7.62732 214
7.64743 232
7.66755 207
7.68766 194
7.70778 209
7.72789 234
7.748 225
7.76812 232
7.78823 252
7.80834 201
7.82846 259
7.84857 245
7.86869 212
7.8888 255
7.90891 230
7.92903 213
7.94914 251
7.96925 249
7.98937 200
8.00948 243
8.0296 235
8.04971 235
8.06982 239
8.08994 213
8.11005 246
8.13016 227
8.15028 246
8.17039 267
8.1905 256
8.21062 251
8.23073 251
8.25085 211
8.27096 225
8.29107 250
8.31119 254
8.3313 248
8.35141 242
8.37153 221
8.39164 252
8.41176 244
8.43187 241
8.45198 246
8.4721 273
8.49221 262
8.51232 256
8.53244 231
8.55255 220
8.57266 231
8.59278 260
8.61289 259
8.63301 250
8.65312 218
8.67323 234
8.69335 275
8.71346 233
8.73357 250
8.75369 218
8.7738 244
8.79392 269
8.81403 280
8.83414 258
8.85426 245
8.87437 279
8.89448 241
8.9146 271
8.93471 260
8.95483 277
8.97494 255
8.99505 232
9.01517 223
9.03528 244
9.05539 227
9.07551 270
9.09562 231
9.11573 223
9.13585 287
9.15596 230
9.17608 275
9.19619 281
9.2163 246
9.23642 240
9.25653 256
9.27664 244
9.29676 258
9.31687 263
9.33699 244
9.3571 272
9.37721 267
9.39733 280
9.41744 276
9.43755 257
9.45767 252
9.47778 265
9.4979 256
9.51801 258
9.53812 244
9.55824 250
9.57835 210
9.59846 236
9.61858 221
9.63869 257
9.6588 254
9.67892 248
9.69903 245
9.71915 274
9.73926 243
9.75937 271
9.77949 257
9.7996 242
9.81971 264
9.83983 252
9.85994 264
9.88006 240
9.90017 265
9.92028 241
9.9404 247
9.96051 222
9.98062 286
10.00074 223
10.02085 251
10.04097 272
10.06108 257
10.08119 244
10.10131 228
10.12142 244
10.14153 265
10.16165 277
10.18176 239
10.20187 233
10.22199 233
10.2421 258
10.26222 246
10.28233 228
10.30244 272
10.32256 253
10.34267 225
10.36278 211
10.3829 243
10.40301 235
10.42313 258
10.44324 224
10.46335 286
10.48347 248
10.50358 263
10.52369 240
10.54381 250
10.56392 229
10.58403 243
10.60415 265
10.62426 240
10.64438 244
10.66449 252
10.6846 271
10.70472 249
10.72483 230
10.74494 242
10.76506 232
10.78517 266
10.80529 250
10.8254 260
10.84551 235
10.86563 250
10.88574 249
10.90585 278
10.92597 265
10.94608 260
10.9662 271
10.98631 232
11.00642 259
11.02654 259
11.04665 248
11.06676 264
11.08688 259
11.10699 273
11.1271 228
11.14722 257
11.16733 233
11.18745 261
11.20756 229
11.22767 268
11.24779 259
11.2679 263
11.28801 258
11.30813 231
11.32824 214
11.34836 254
11.36847 255
11.38858 291
11.4087 258
11.42881 228
11.44892 235
11.46904 252
11.48915 273
11.50927 254
11.52938 254
11.54949 235
11.56961 255
11.58972 250
11.60983 229
11.62995 261
11.65006 246
11.67017 247
11.69029 263
11.7104 272
11.73052 257
11.75063 282
11.77074 279
11.79086 245
11.81097 239
11.83108 287
11.8512 249
11.87131 262
11.89143 272
11.91154 282
11.93165 304
11.95177 293
11.97188 275
11.99199 311
12.01211 272
12.03222 296
12.05234 313
12.07245 301
12.09256 318
12.11268 298
12.13279 353
12.1529 355
12.17302 367
12.19313 436
12.21324 430
12.23336 446
12.25347 403
12.27359 485
12.2937 504
12.31381 511
12.33393 561
12.35404 543
12.37415 554
12.39427 480
12.41438 492
12.4345 367
12.45461 405
12.47472 411
12.49484 361
12.51495 345
12.53506 305
12.55518 302
12.57529 309
12.5954 310
12.61552 293
12.63563 279
12.65575 284
12.67586 265
12.69597 283
12.71609 248
12.7362 237
12.75631 257
12.77643 248
12.79654 230
12.81666 243
12.83677 230
12.85688 213
12.877 237
12.89711 287
12.91722 221
12.93734 228
12.95745 251
12.97757 222
12.99768 236
13.01779 233
13.03791 254
13.05802 228
13.07813 247
13.09825 242
13.11836 224
13.13847 241
13.15859 212
13.1787 245
13.19882 209
13.21893 229
13.23904 204
13.25916 227
13.27927 233
13.29938 217
13.3195 224
13.33961 221
13.35973 225
13.37984 233
13.39995 228
13.42007 214
13.44018 223
13.46029 244
13.48041 219
13.50052 210
13.52064 218
13.54075 225
13.56086 212
13.58098 234
13.60109 233
13.6212 212
13.64132 225
13.66143 232
13.68154 201
13.70166 205
13.72177 232
13.74189 232
13.762 217
13.78211 228
13.80223 224
13.82234 221
13.84245 243
13.86257 207
13.88268 214
13.9028 223
13.92291 208
13.94302 208
13.96314 234
13.98325 190
14.00336 210
14.02348 265
14.04359 202
14.06371 235
14.08382 216
14.10393 232
14.12405 253
14.14416 237
14.16427 227
14.18439 217
14.2045 233
14.22461 220
14.24473 211
14.26484 257
14.28496 235
14.30507 204
14.32518 252
14.3453 234
14.36541 221
14.38552 210
14.40564 234
14.42575 202
14.44587 180
14.46598 193
14.48609 224
14.50621 210
14.52632 245
14.54643 247
14.56655 214
14.58666 203
14.60677 205
14.62689 215
14.647 216
14.66712 234
14.68723 230
14.70734 244
14.72746 232
14.74757 242
14.76768 219
14.7878 233
14.80791 205
14.82803 230
14.84814 215
14.86825 207
14.88837 180
14.90848 219
14.92859 196
14.94871 229
14.96882 222
14.98894 206
15.00905 206
15.02916 239
15.04928 200
15.06939 215
15.0895 213
15.10962 222
15.12973 197
15.14984 239
15.16996 210
15.19007 238
15.21019 234
15.2303 208
15.25041 215
15.27053 182
15.29064 242
15.31075 206
15.33087 214
15.35098 196
15.3711 215
15.39121 211
15.41132 232
15.43144 216
15.45155 200
15.47166 223
15.49178 197
15.51189 182
15.53201 212
15.55212 199
15.57223 237
15.59235 207
15.61246 218
15.63257 201
15.65269 182
15.6728 214
15.69291 189
15.71303 235
15.73314 193
15.75326 215
15.77337 202
15.79348 232
15.8136 194
15.83371 231
15.85382 218
15.87394 193
15.89405 206
15.91417 198
15.93428 185
15.95439 200
15.97451 185
15.99462 209
16.01473 212
16.03485 228
16.05496 200
16.07508 202
16.09519 214
16.1153 245
16.13542 207
16.15553 180
16.17564 209
16.19576 191
16.21587 201
16.23598 237
16.2561 215
16.27621 199
16.29633 202
16.31644 193
16.33655 212
16.35667 176
16.37678 172
16.39689 194
16.41701 199
16.43712 183
16.45724 189
16.47735 200
16.49746 198
16.51758 222
16.53769 214
16.5578 189
16.57792 202
16.59803 192
16.61814 185
16.63826 208
16.65837 230
16.67849 175
16.6986 202
16.71871 239
16.73883 219
16.75894 188
16.77905 203
16.79917 189
16.81928 187
16.8394 213
16.85951 211
16.87962 203
16.89974 202
16.91985 178
16.93996 188
16.96008 218
16.98019 194
17.00031 191
17.02042 217
17.04053 237
17.06065 193
17.08076 205
17.10087 224
17.12099 204
17.1411 240
17.16121 197
17.18133 209
17.20144 217
17.22156 231
17.24167 219
17.26178 211
17.2819 202
17.30201 225
17.32212 188
17.34224 190
17.36235 219
17.38247 186
17.40258 240
17.42269 192
17.44281 199
17.46292 211
17.48303 193
17.50315 182
17.52326 204
17.54338 171
17.56349 203
17.5836 219
17.60372 193
17.62383 196
17.64394 203
17.66406 192
17.68417 208
17.70428 212
17.7244 201
17.74451 243
17.76463 214
17.78474 208
17.80485 226
17.82497 237
17.84508 214
17.86519 226
17.88531 211
17.90542 226
17.92554 220
17.94565 209
17.96576 240
17.98588 211
18.00599 191
18.0261 224
18.04622 189
18.06633 178
18.08645 241
18.10656 209
18.12667 205
18.14679 219
18.1669 187
18.18701 187
18.20713 215
18.22724 228
18.24735 221
18.26747 210
18.28758 183
18.3077 197
18.32781 200
18.34792 182
18.36804 205
18.38815 194
18.40826 201
18.42838 198
18.44849 209
18.46861 234
18.48872 220
18.50883 204
18.52895 218
18.54906 190
18.56917 219
18.58929 233
18.6094 188
18.62951 212
18.64963 202
18.66974 216
18.68986 193
18.70997 193
18.73008 207
18.7502 220
18.77031 222
18.79042 200
18.81054 222
18.83065 230
18.85077 204
18.87088 218
18.89099 198
18.91111 208
18.93122 186
18.95133 209
18.97145 222
18.99156 206
19.01168 201
19.03179 199
19.0519 218
19.07202 243
19.09213 198
19.11224 200
19.13236 204
19.15247 192
19.17258 205
19.1927 205
19.21281 226
19.23293 174
19.25304 199
19.27315 234
19.29327 221
19.31338 203
19.33349 205
19.35361 214
19.37372 209
19.39384 177
19.41395 219
19.43406 229
19.45418 194
19.47429 219
19.4944 235
19.51452 199
19.53463 211
19.55475 229
19.57486 208
19.59497 211
19.61509 229
19.6352 257
19.65531 244
19.67543 243
19.69554 247
19.71565 265
19.73577 278
19.75588 296
19.776 314
19.79611 311
19.81622 355
19.83634 342
19.85645 411
19.87656 394
19.89668 347
19.91679 416
19.93691 419
19.95702 359
19.97713 360
19.99725 382
20.01736 383
20.03747 367
20.05759 390
20.0777 379
20.09782 393
20.11793 378
20.13804 353
20.15816 360
20.17827 368
20.19838 378
20.2185 394
20.23861 379
20.25872 384
20.27884 388
20.29895 344
20.31907 414
20.33918 423
20.35929 350
20.37941 372
20.39952 427
20.41963 436
20.43975 429
20.45986 484
20.47998 392
20.50009 459
20.5202 449
20.54032 462
20.56043 449
20.58054 494
20.60066 512
20.62077 522
20.64088 594
20.661 632
20.68111 743
20.70123 923
20.72134 1284
20.74145 1725
20.76157 2506
20.78168 3649
20.80179 5007
20.82191 6568
20.84202 7955
20.86214 8326
20.88225 7468
20.90236 5838
20.92248 4057
20.94259 2670
20.9627 1573
20.98282 960
21.00293 805
21.02305 668
21.04316 594
21.06327 548
21.08339 533
21.1035 560
21.12361 482
21.14373 486
21.16384 456
21.18395 424
21.20407 467
21.22418 448
21.2443 470
21.26441 455
21.28452 455
21.30464 449
21.32475 453
21.34486 457
21.36498 445
21.38509 454
21.40521 400
21.42532 398
21.44543 394
21.46555 394
21.48566 382
21.50577 380
21.52589 356
21.546 326
21.56612 317
21.58623 305
21.60634 348
21.62646 313
21.64657 336
21.66668 309
21.6868 328
21.70691 330
21.72702 311
21.74714 302
21.76725 337
21.78737 317
21.80748 285
21.82759 315
21.84771 308
21.86782 278
21.88793 297
21.90805 318
21.92816 307
21.94828 296
21.96839 301
21.9885 297
22.00862 304
22.02873 331
22.04884 264
22.06896 294
22.08907 289
22.10919 290
22.1293 281
22.14941 257
22.16953 291
22.18964 268
22.20975 250
22.22987 272
22.24998 277
22.27009 287
22.29021 312
22.31032 279
22.33044 292
22.35055 298
22.37066 321
22.39078 261
22.41089 253
22.431 277
22.45112 269
22.47123 263
22.49135 276
22.51146 267
22.53157 244
22.55169 291
22.5718 265
22.59191 252
22.61203 241
22.63214 310
22.65225 248
22.67237 256
22.69248 238
22.7126 265
22.73271 269
22.75282 263
22.77294 260
22.79305 223
22.81316 271
22.83328 263
22.85339 260
22.87351 269
22.89362 240
22.91373 238
22.93385 263
22.95396 250
22.97407 277
22.99419 280
23.0143 250
23.03442 284
23.05453 254
23.07464 249
23.09476 267
23.11487 263
23.13498 255
23.1551 255
23.17521 290
23.19532 283
23.21544 268
23.23555 252
23.25567 224
23.27578 226
23.29589 238
23.31601 268
23.33612 273
23.35623 283
23.37635 229
23.39646 289
23.41658 248
23.43669 268
23.4568 274
23.47692 257
23.49703 279
23.51714 277
23.53726 235
23.55737 276
23.57749 263
23.5976 257
23.61771 276
23.63783 267
23.65794 243
23.67805 270
23.69817 228
23.71828 263
23.73839 280
23.75851 243
23.77862 263
23.79874 257
23.81885 244
23.83896 258
23.85908 259
23.87919 291
23.8993 291
23.91942 285
23.93953 310
23.95965 310
23.97976 328
23.99987 351
24.01999 372
24.0401 333
24.06021 320
24.08033 274
24.10044 266
24.12056 285
24.14067 301
24.16078 270
24.1809 257
24.20101 258
24.22112 291
24.24124 278
24.26135 287
24.28146 288
24.30158 317
24.32169 254
24.34181 280
24.36192 270
24.38203 315
24.40215 267
24.42226 284
24.44237 268
24.46249 302
24.4826 263
24.50272 286
24.52283 268
24.54294 297
24.56306 303
24.58317 294
24.60328 309
24.6234 321
24.64351 324
24.66362 374
24.68374 341
24.70385 359
24.72397 351
24.74408 410
24.76419 439
24.78431 453
24.80442 431
24.82453 430
24.84465 448
24.86476 445
24.88488 408
24.90499 389
24.9251 391
24.94522 378
24.96533 393
24.98544 308
25.00556 330
25.02567 337
25.04579 326
25.0659 300
25.08601 308
25.10613 293
25.12624 284
25.14635 360
25.16647 301
25.18658 332
25.20669 307
25.22681 337
25.24692 326
25.26704 346
25.28715 345
25.30726 346
25.32738 337
25.34749 315
25.3676 304
25.38772 295
25.40783 279
25.42795 298
25.44806 295
25.46817 294
25.48829 276
25.5084 279
25.52851 299
25.54863 291
25.56874 273
25.58886 318
25.60897 314
25.62908 320
25.6492 365
25.66931 363
25.68942 357
25.70954 395
25.72965 414
25.74976 417
25.76988 440
25.78999 444
25.81011 474
25.83022 457
25.85033 478
25.87045 456
25.89056 438
25.91067 460
25.93079 523
25.9509 484
25.97102 490
25.99113 442
26.01124 496
26.03136 489
26.05147 479
26.07158 542
26.0917 537
26.11181 569
26.13193 571
26.15204 647
26.17215 634
26.19227 698
26.21238 771
26.23249 764
26.25261 772
26.27272 859
26.29283 895
26.31295 985
26.33306 1052
26.35318 1115
26.37329 1294
26.3934 1413
26.41352 1698
26.43363 2135
26.45374 2762
26.47386 3744
26.49397 5225
26.51409 7532
26.5342 11102
26.55431 15568
26.57443 22693
26.59454 29803
26.61465 35230
26.63477 37862
26.65488 34539
26.67499 27482
26.69511 20995
26.71522 15663
26.73534 10108
26.75545 5592
26.77556 3031
26.79568 2020
26.81579 1673
26.8359 1474
26.85602 1229
26.87613 1230
26.89625 1142
26.91636 985
26.93647 926
26.95659 854
26.9767 809
26.99681 696
27.01693 630
27.03704 621
27.05716 607
27.07727 558
27.09738 497
27.1175 479
27.13761 487
27.15772 473
27.17784 426
27.19795 454
27.21806 472
27.23818 424
27.25829 451
27.27841 438
27.29852 423
27.31863 427
27.33875 395
27.35886 420
27.37897 414
27.39909 469
27.4192 441
27.43932 471
27.45943 406
27.47954 395
27.49966 394
27.51977 369
27.53988 402
27.56 390
27.58011 373
27.60023 379
27.62034 351
27.64045 344
27.66057 318
27.68068 348
27.70079 331
27.72091 324
27.74102 346
27.76113 335
27.78125 339
27.80136 354
27.82148 367
27.84159 306
27.8617 337
27.88182 335
27.90193 314
27.92204 303
27.94216 309
27.96227 296
27.98239 322
28.0025 301
28.02261 340
28.04273 311
28.06284 289
28.08295 317
28.10307 293
28.12318 286
28.1433 294
28.16341 286
28.18352 295
28.20364 266
28.22375 308
28.24386 267
28.26398 265
28.28409 257
28.3042 270
28.32432 281
28.34443 279
28.36455 272
28.38466 281
28.40477 268
28.42489 303
28.445 285
28.46511 275
28.48523 272
28.50534 263
28.52546 259
28.54557 280
28.56568 302
28.5858 275
28.60591 283
28.62602 280
28.64614 296
28.66625 262
28.68636 246
28.70648 260
28.72659 260
28.74671 307
28.76682 296
28.78693 279
28.80705 263
28.82716 262
28.84727 232
28.86739 247
28.8875 258
28.90762 289
28.92773 303
28.94784 252
28.96796 268
28.98807 248
29.00818 248
29.0283 259
29.04841 263
29.06853 284
29.08864 272
29.10875 271
29.12887 279
29.14898 268
29.16909 262
29.18921 238
29.20932 251
29.22943 227
29.24955 248
29.26966 240
29.28978 279
29.30989 269
29.33 291
29.35012 305
29.37023 284
29.39034 264
29.41046 276
29.43057 269
29.45069 301
29.4708 252
29.49091 221
29.51103 244
29.53114 237
29.55125 225
29.57137 253
29.59148 246
29.6116 231
29.63171 244
29.65182 241
29.67194 245
29.69205 228
29.71216 230
29.73228 261
29.75239 240
29.7725 268
29.79262 259
29.81273 252
29.83285 243
29.85296 261
29.87307 275
29.89319 257
29.9133 250
29.93341 249
29.95353 244
29.97364 234
29.99376 229
30.01387 236
30.03398 268
30.0541 265
30.07421 221
30.09432 236
30.11444 250
30.13455 222
30.15467 234
30.17478 271
30.19489 241
30.21501 263
30.23512 251
30.25523 246
30.27535 247
30.29546 238
30.31557 237
30.33569 237
30.3558 243
30.37592 223
30.39603 241
30.41614 222
30.43626 243
30.45637 253
30.47648 248
30.4966 270
30.51671 234
30.53683 277
30.55694 228
30.57705 228
30.59717 247
30.61728 228
30.63739 240
30.65751 242
30.67762 231
30.69773 263
30.71785 243
30.73796 246
30.75808 246
30.77819 272
30.7983 261
30.81842 240
30.83853 238
30.85864 210
30.87876 249
30.89887 268
30.91899 229
30.9391 209
30.95921 219
30.97933 224
30.99944 210
31.01955 220
31.03967 221
31.05978 217
31.0799 216
31.10001 223
31.12012 211
31.14024 229
31.16035 226
31.18046 212
31.20058 228
31.22069 240
31.2408 235
31.26092 240
31.28103 219
31.30115 229
31.32126 225
31.34137 223
31.36149 195
31.3816 265
31.40171 217
31.42183 226
31.44194 211
31.46206 236
31.48217 220
31.50228 201
31.5224 228
31.54251 239
31.56262 203
31.58274 226
31.60285 206
31.62297 193
31.64308 183
31.66319 226
31.68331 229
31.70342 200
31.72353 224
31.74365 219
31.76376 183
31.78387 203
31.80399 205
31.8241 203
31.84422 221
31.86433 238
31.88444 197
31.90456 210
31.92467 216
31.94478 220
31.9649 225
31.98501 210
32.00513 206
32.02524 219
32.04535 231
32.06547 199
32.08558 220
32.10569 245
32.12581 191
32.14592 217
32.16604 218
32.18615 225
32.20626 206
32.22638 207
32.24649 203
32.2666 209
32.28672 177
32.30683 252
32.32694 227
32.34706 209
32.36717 210
32.38729 229
32.4074 213
32.42751 225
32.44763 258
32.46774 217
32.48785 233
32.50797 230
32.52808 218
32.5482 219
32.56831 206
32.58842 236
32.60854 194
32.62865 197
32.64876 242
32.66888 239
32.68899 178
32.7091 240
32.72922 230
32.74933 216
32.76945 227
32.78956 214
32.80967 198
32.82979 221
32.8499 239
32.87001 217
32.89013 224
32.91024 225
32.93036 231
32.95047 221
32.97058 217
32.9907 222
33.01081 230
33.03092 218
33.05104 235
33.07115 228
33.09127 241
33.11138 236
33.13149 247
33.15161 226
33.17172 255
33.19183 254
33.21195 239
33.23206 241
33.25217 259
33.27229 267
33.2924 236
33.31252 256
33.33263 252
33.35274 261
33.37286 268
33.39297 252
33.41308 247
33.4332 252
33.45331 247
33.47343 225
33.49354 227
33.51365 213
33.53377 246
33.55388 216
33.57399 213
33.59411 202
33.61422 213
33.63434 229
33.65445 204
33.67456 202
33.69468 207
33.71479 227
33.7349 232
33.75502 224
33.77513 207
33.79524 176
33.81536 215
33.83547 215
33.85559 218
33.8757 194
33.89581 196
33.91593 186
33.93604 192
33.95615 207
33.97627 239
33.99638 194
34.0165 185
34.03661 213
34.05672 196
34.07684 172
34.09695 223
34.11706 190
34.13718 213
34.15729 205
34.17741 226
34.19752 220
34.21763 228
34.23775 191
34.25786 215
34.27797 199
34.29809 208
34.3182 185
34.33831 172
34.35843 213
34.37854 187
34.39866 209
34.41877 226
34.43888 207
34.459 196
34.47911 229
34.49922 198
34.51934 217
34.53945 183
34.55957 223
34.57968 213
34.59979 207
34.61991 190
34.64002 205
34.66013 200
34.68025 230
34.70036 232
34.72047 268
34.74059 274
34.7607 286
34.78082 226
34.80093 231
34.82104 250
34.84116 255
34.86127 251
34.88138 279
34.9015 270
34.92161 278
34.94173 307
34.96184 318
34.98195 272
35.00207 286
35.02218 297
35.04229 295
35.06241 279
35.08252 264
35.10264 293
35.12275 247
35.14286 249
35.16298 243
35.18309 261
35.2032 263
35.22332 228
35.24343 277
35.26354 244
35.28366 255
35.30377 291
35.32389 254
35.344 266
35.36411 234
35.38423 265
35.40434 267
35.42445 302
35.44457 297
35.46468 280
35.4848 309
35.50491 250
35.52502 325
35.54514 267
35.56525 313
35.58536 266
35.60548 282
35.62559 290
35.64571 308
35.66582 291
35.68593 290
35.70605 295
35.72616 312
35.74627 284
35.76639 309
35.7865 304
35.80661 294
35.82673 256
35.84684 297
35.86696 274
35.88707 302
35.90718 298
35.9273 320
35.94741 303
35.96752 286
35.98764 285
36.00775 282
36.02787 293
36.04798 278
36.06809 321
36.08821 292
36.10832 324
36.12843 274
36.14855 304
36.16866 314
36.18878 313
36.20889 313
36.229 344
36.24912 317
36.26923 320
36.28934 319
36.30946 396
36.32957 409
36.34968 468
36.3698 536
36.38991 646
36.41003 802
36.43014 1080
36.45025 1428
36.47037 1842
36.49048 2248
36.51059 2524
36.53071 2467
36.55082 2457
36.57094 2036
36.59105 1639
36.61116 1485
36.63128 1357
36.65139 1037
36.6715 758
36.69162 511
36.71173 474
36.73184 385
36.75196 330
36.77207 328
36.79219 340
36.8123 342
36.83241 332
36.85253 297
36.87264 347
36.89275 328
36.91287 329
36.93298 306
36.9531 295
36.97321 289
36.99332 248
37.01344 274
37.03355 249
37.05366 286
37.07378 240
37.09389 282
37.11401 251
37.13412 258
37.15423 244
37.17435 244
37.19446 224
37.21457 226
37.23469 257
37.2548 237
37.27491 219
37.29503 241
37.31514 226
37.33526 240
37.35537 237
37.37548 227
37.3956 224
37.41571 227
37.43582 219
37.45594 238
37.47605 225
37.49617 240
37.51628 227
37.53639 213
37.55651 228
37.57662 243
37.59673 248
37.61685 241
37.63696 269
37.65708 210
37.67719 264
37.6973 243
37.71742 242
37.73753 267
37.75764 238
37.77776 260
37.79787 246
37.81798 272
37.8381 240
37.85821 244
37.87833 226
37.89844 230
37.91855 249
37.93867 259
37.95878 226
37.97889 213
37.99901 222
38.01912 252
38.03924 240
38.05935 229
38.07946 235
38.09958 230
38.11969 249
38.1398 245
38.15992 235
38.18003 234
38.20015 283
38.22026 252
38.24037 269
38.26049 265
38.2806 278
38.30071 287
38.32083 294
38.34094 266
38.36105 309
38.38117 251
38.40128 271
38.4214 282
38.44151 279
38.46162 307
38.48174 305
38.50185 303
38.52196 283
38.54208 286
38.56219 285
38.58231 251
38.60242 275
38.62253 278
38.64265 271
38.66276 258
38.68287 249
38.70299 250
38.7231 260
38.74321 261
38.76333 277
38.78344 245
38.80356 279
38.82367 263
38.84378 225
38.8639 262
38.88401 264
38.90412 235
38.92424 246
38.94435 250
38.96447 269
38.98458 266
39.00469 277
39.02481 253
39.04492 280
39.06503 274
39.08515 262
39.10526 286
39.12538 290
39.14549 282
39.1656 327
39.18572 324
39.20583 351
39.22594 359
39.24606 398
39.26617 491
39.28628 515
39.3064 599
39.32651 730
39.34663 893
39.36674 1241
39.38685 1502
39.40697 1844
39.42708 2221
39.44719 2285
39.46731 2291
39.48742 1874
39.50754 1460
39.52765 1276
39.54776 1225
39.56788 1119
39.58799 878
39.6081 624
39.62822 409
39.64833 355
39.66845 283
39.68856 306
39.70867 274
39.72879 281
39.7489 260
39.76901 256
39.78913 276
39.80924 252
39.82935 244
39.84947 252
39.86958 225
39.8897 243
39.90981 238
39.92992 250
39.95004 260
39.97015 251
39.99026 229
40.01038 283
40.03049 286
40.05061 312
40.07072 295
40.09083 314
40.11095 402
40.13106 416
40.15117 529
40.17129 600
40.1914 734
40.21152 926
40.23163 1097
40.25174 1200
40.27186 1281
40.29197 1236
40.31208 973
40.3322 854
40.35231 772
40.37242 724
40.39254 668
40.41265 538
40.43277 387
40.45288 349
40.47299 285
40.49311 272
40.51322 278
40.53333 255
40.55345 223
40.57356 251
40.59368 254
40.61379 228
40.6339 243
40.65402 224
40.67413 226
40.69424 220
40.71436 234
40.73447 249
40.75458 237
40.7747 230
40.79481 209
40.81493 222
40.83504 218
40.85515 226
40.87527 221
40.89538 206
40.91549 228
40.93561 211
40.95572 233
40.97584 220
40.99595 221
41.01606 224
41.03618 256
41.05629 229
41.0764 231
41.09652 235
41.11663 240
41.13675 231
41.15686 215
41.17697 230
41.19709 232
41.2172 222
41.23731 229
41.25743 230
41.27754 219
41.29765 223
41.31777 222
41.33788 239
41.358 210
41.37811 229
41.39822 213
41.41834 260
41.43845 240
41.45856 238
41.47868 234
41.49879 219
41.51891 222
41.53902 206
41.55913 213
41.57925 225
41.59936 222
41.61947 217
41.63959 211
41.6597 209
41.67982 220
41.69993 219
41.72004 221
41.74016 221
41.76027 215
41.78038 219
41.8005 221
41.82061 240
41.84072 183
41.86084 229
41.88095 209
41.90107 215
41.92118 217
41.94129 219
41.96141 197
41.98152 207
42.00163 217
42.02175 228
42.04186 224
42.06198 236
42.08209 219
42.1022 242
42.12232 243
42.14243 253
42.16254 254
42.18266 302
42.20277 291
42.22289 331
42.243 334
42.26311 404
42.28323 491
42.30334 568
42.32345 681
42.34357 927
42.36368 1150
42.38379 1401
42.40391 1610
42.42402 1736
42.44414 1651
42.46425 1458
42.48436 1263
42.50448 1004
42.52459 972
42.5447 923
42.56482 807
42.58493 599
42.60505 422
42.62516 348
42.64527 293
42.66539 272
42.6855 254
42.70561 222
42.72573 258
42.74584 225
42.76595 200
42.78607 229
42.80618 240
42.8263 231
42.84641 222
42.86652 212
42.88664 220
42.90675 218
42.92686 211
42.94698 198
42.96709 206
42.98721 220
43.00732 182
43.02743 217
43.04755 203
43.06766 204
43.08777 212
43.10789 201
43.128 182
43.14812 174
43.16823 181
43.18834 190
43.20846 195
43.22857 207
43.24868 183
43.2688 180
43.28891 200
43.30902 190
43.32914 166
43.34925 203
43.36937 183
43.38948 192
43.40959 200
43.42971 202
43.44982 195
43.46993 178
43.49005 196
43.51016 187
43.53028 203
43.55039 204
43.5705 186
43.59062 224
43.61073 159
43.63084 187
43.65096 196
43.67107 188
43.69119 203
43.7113 189
43.73141 192
43.75153 199
43.77164 192
43.79175 184
43.81187 202
43.83198 172
43.85209 196
43.87221 184
43.89232 199
43.91244 179
43.93255 210
43.95266 215
43.97278 152
43.99289 213
44.013 191
44.03312 207
44.05323 199
44.07335 180
44.09346 199
44.11357 196
44.13369 211
44.1538 218
44.17391 191
44.19403 182
44.21414 198
44.23426 180
44.25437 190
44.27448 184
44.2946 191
44.31471 175
44.33482 196
44.35494 186
44.37505 211
44.39516 185
44.41528 181
44.43539 203
44.45551 183
44.47562 188
44.49573 180
44.51585 194
44.53596 198
44.55607 188
44.57619 179
44.5963 190
44.61642 204
44.63653 172
44.65664 183
44.67676 161
44.69687 190
44.71698 170
44.7371 184
44.75721 194
44.77732 202
44.79744 180
44.81755 199
44.83767 190
44.85778 188
44.87789 185
44.89801 167
44.91812 200
44.93823 197
44.95835 186
44.97846 186
44.99858 194
45.01869 204
45.0388 207
45.05892 201
45.07903 208
45.09914 182
45.11926 191
45.13937 212
45.15949 211
45.1796 228
45.19971 190
45.21983 207
45.23994 210
45.26005 206
45.28017 203
45.30028 239
45.32039 190
45.34051 219
45.36062 223
45.38074 215
45.40085 209
45.42096 237
45.44108 212
45.46119 233
45.4813 253
45.50142 234
45.52153 253
45.54165 270
45.56176 281
45.58187 311
45.60199 333
45.6221 391
45.64221 453
45.66233 523
45.68244 674
45.70256 788
45.72267 967
45.74278 1065
45.7629 1164
45.78301 1186
45.80312 1029
45.82324 823
45.84335 753
45.86346 688
45.88358 663
45.90369 661
45.92381 552
45.94392 416
45.96403 326
45.98415 269
46.00426 246
46.02437 211
46.04449 209
46.0646 197
46.08472 236
46.10483 212
46.12494 218
46.14506 206
46.16517 217
46.18528 210
46.2054 185
46.22551 167
46.24563 210
46.26574 183
46.28585 198
46.30597 164
46.32608 222
46.34619 186
46.36631 184
46.38642 179
46.40653 182
46.42665 195
46.44676 209
46.46688 180
46.48699 202
46.5071 182
46.52722 205
46.54733 197
46.56744 191
46.58756 165
46.60767 214
46.62779 213
46.6479 197
46.66801 180
46.68813 206
46.70824 194
46.72835 184
46.74847 159
46.76858 190
46.78869 193
46.80881 203
46.82892 184
46.84904 185
46.86915 177
46.88926 184
46.90938 189
46.92949 168
46.9496 188
46.96972 172
46.98983 165
47.00995 172
47.03006 176
47.05017 194
47.07029 183
47.0904 172
47.11051 167
47.13063 203
47.15074 180
47.17086 200
47.19097 188
47.21108 171
47.2312 169
47.25131 192
47.27142 204
47.29154 190
47.31165 189
47.33176 169
47.35188 181
47.37199 175
47.39211 178
47.41222 197
47.43233 191
47.45245 205
47.47256 183
47.49267 196
47.51279 175
47.5329 178
47.55302 172
47.57313 192
47.59324 191
47.61336 196
47.63347 199
47.65358 176
47.6737 185
47.69381 164
47.71393 176
47.73404 178
47.75415 168
47.77427 161
47.79438 180
47.81449 162
47.83461 194
47.85472 176
47.87483 196
47.89495 211
47.91506 207
47.93518 175
47.95529 212
47.9754 199
47.99552 188
48.01563 174
48.03574 189
48.05586 180
48.07597 188
48.09609 168
48.1162 190
48.13631 167
48.15643 212
48.17654 179
48.19665 194
48.21677 180
48.23688 169
48.257 201
48.27711 178
48.29722 190
48.31734 181
48.33745 219
48.35756 177
48.37768 179
48.39779 196
48.4179 158
48.43802 187
48.45813 183
48.47825 205
48.49836 190
48.51847 177
48.53859 194
48.5587 188
48.57881 173
48.59893 186
48.61904 186
48.63916 197
48.65927 213
48.67938 199
48.6995 179
48.71961 220
48.73972 184
48.75984 202
48.77995 189
48.80006 194
48.82018 176
48.84029 204
48.86041 203
48.88052 210
48.90063 189
48.92075 188
48.94086 185
48.96097 170
48.98109 202
49.0012 205
49.02132 197
49.04143 185
49.06154 215
49.08166 181
49.10177 211
49.12188 228
49.142 202
49.16211 202
49.18223 197
49.20234 195
49.22245 176
49.24257 214
49.26268 197
49.28279 223
49.30291 200
49.32302 199
49.34313 189
49.36325 218
49.38336 241
49.40348 205
49.42359 221
49.4437 226
49.46382 196
49.48393 199
49.50404 212
49.52416 228
49.54427 220
49.56439 236
49.5845 217
49.60461 217
49.62473 261
49.64484 252
49.66495 216
49.68507 213
49.70518 280
49.7253 275
49.74541 269
49.76552 296
49.78564 330
49.80575 327
49.82586 344
49.84598 376
49.86609 420
49.8862 468
49.90632 514
49.92643 606
49.94655 772
49.96666 932
49.98677 1206
50.00689 1467
50.027 1874
50.04711 2504
50.06723 2960
50.08734 3292
50.10746 3566
50.12757 3392
50.14768 2939
50.1678 2338
50.18791 1926
50.20802 1867
50.22814 1957
50.24825 1808
50.26837 1598
50.28848 1196
50.30859 767
50.32871 533
50.34882 446
50.36893 381
50.38905 344
50.40916 308
50.42927 294
50.44939 295
50.4695 279
50.48962 304
50.50973 261
50.52984 340
50.54996 274
50.57007 282
50.59018 288
50.6103 307
50.63041 281
50.65053 251
50.67064 245
50.69075 249
50.71087 284
50.73098 234
50.75109 248
50.77121 259
50.79132 234
50.81143 241
50.83155 219
50.85166 196
50.87178 206
50.89189 203
50.912 205
50.93212 199
50.95223 180
50.97234 200
50.99246 225
51.01257 199
51.03269 188
51.0528 171
51.07291 186
51.09303 179
51.11314 185
51.13325 184
51.15337 203
51.17348 189
51.1936 186
51.21371 183
51.23382 203
51.25394 183
51.27405 207
51.29416 192
51.31428 166
51.33439 187
51.3545 162
51.37462 177
51.39473 172
51.41485 169
51.43496 163
51.45507 179
51.47519 198
51.4953 180
51.51541 164
51.53553 173
51.55564 174
51.57576 169
51.59587 150
51.61598 161
51.6361 197
51.65621 171
51.67632 167
51.69644 171
51.71655 192
51.73667 173
51.75678 199
51.77689 177
51.79701 180
51.81712 182
51.83723 169
51.85735 172
51.87746 169
51.89757 184
51.91769 128
51.9378 174
51.95792 162
51.97803 153
51.99814 160
52.01826 187
52.03837 183
52.05848 159
52.0786 173
52.09871 165
52.11883 173
52.13894 173
52.15905 189
52.17917 192
52.19928 164
52.21939 169
52.23951 146
52.25962 160
52.27974 166
52.29985 175
52.31996 174
52.34008 177
52.36019 203
52.3803 187
52.40042 182
52.42053 171
52.44064 183
52.46076 169
52.48087 180
52.50099 147
52.5211 168
52.54121 180
52.56133 161
52.58144 194
52.60155 168
52.62167 195
52.64178 189
52.6619 164
52.68201 171
52.70212 187
52.72224 181
52.74235 160
52.76246 165
52.78258 166
52.80269 166
52.8228 199
52.84292 169
52.86303 176
52.88315 160
52.90326 165
52.92337 197
52.94349 195
52.9636 179
52.98371 202
53.00383 207
53.02394 169
53.04406 178
53.06417 202
53.08428 187
53.1044 221
53.12451 177
53.14462 185
53.16474 173
53.18485 197
53.20497 182
53.22508 176
53.24519 171
53.26531 218
53.28542 203
53.30553 216
53.32565 216
53.34576 218
53.36587 211
53.38599 230
53.4061 220
53.42622 202
53.44633 236
53.46644 239
53.48656 209
53.50667 199
53.52678 214
53.5469 223
53.56701 195
53.58713 223
53.60724 240
53.62735 194
53.64747 222
53.66758 199
53.68769 223
53.70781 199
53.72792 194
53.74804 213
53.76815 197
53.78826 212
53.80838 221
53.82849 217
53.8486 193
53.86872 222
53.88883 180
53.90894 212
53.92906 219
53.94917 190
53.96929 200
53.9894 219
54.00951 212
54.02963 216
54.04974 228
54.06985 230
54.08997 207
54.11008 196
54.1302 246
54.15031 236
54.17042 226
54.19054 209
54.21065 207
54.23076 221
54.25088 225
54.27099 239
54.29111 236
54.31122 219
54.33133 235
54.35145 221
54.37156 254
54.39167 262
54.41179 241
54.4319 257
54.45201 262
54.47213 234
54.49224 241
54.51236 241
54.53247 250
54.55258 243
54.5727 266
54.59281 282
54.61292 300
54.63304 297
54.65315 335
54.67327 358
54.69338 436
54.71349 474
54.73361 568
54.75372 689
54.77383 787
54.79395 997
54.81406 1040
54.83417 1162
54.85429 1126
54.8744 1045
54.89452 870
54.91463 747
54.93474 672
54.95486 679
54.97497 708
54.99508 730
55.0152 648
55.03531 552
55.05543 423
55.07554 347
55.09565 327
55.11577 309
55.13588 305
55.15599 307
55.17611 347
55.19622 389
55.21634 439
55.23645 486
55.25656 490
55.27668 586
55.29679 615
55.3169 589
55.33702 507
55.35713 455
55.37724 424
55.39736 352
55.41747 383
55.43759 403
55.4577 383
55.47781 368
55.49793 288
55.51804 304
55.53815 236
55.55827 248
55.57838 233
55.5985 201
55.61861 208
55.63872 210
55.65884 206
55.67895 203
55.69906 203
55.71918 205
55.73929 179
55.75941 184
55.77952 186
55.79963 208
55.81975 169
55.83986 182
55.85997 205
55.88009 193
55.9002 167
55.92031 170
55.94043 199
55.96054 200
55.98066 221
56.00077 174
56.02088 177
56.041 166
56.06111 204
56.08122 172
56.10134 172
56.12145 186
56.14157 199
56.16168 169
56.18179 213
56.20191 179
56.22202 217
56.24213 198
56.26225 206
56.28236 187
56.30248 191
56.32259 183
56.3427 203
56.36282 182
56.38293 159
56.40304 188
56.42316 187
56.44327 181
56.46338 214
56.4835 180
56.50361 196
56.52373 210
56.54384 193
56.56395 194
56.58407 178
56.60418 217
56.62429 202
56.64441 176
56.66452 165
56.68464 186
56.70475 208
56.72486 190
56.74498 165
56.76509 163
56.7852 165
56.80532 183
56.82543 183
56.84554 175
56.86566 177
56.88577 179
56.90589 201
56.926 183
56.94611 194
56.96623 144
56.98634 192
57.00645 170
57.02657 196
57.04668 195
57.0668 176
57.08691 210
57.10702 187
57.12714 202
57.14725 221
57.16736 202
57.18748 213
57.20759 218
57.22771 215
57.24782 226
57.26793 212
57.28805 203
57.30816 178
57.32827 219
57.34839 216
57.3685 208
57.38861 194
57.40873 199
57.42884 182
57.44896 183
57.46907 195
57.48918 186
57.5093 188
57.52941 166
57.54952 173
57.56964 191
57.58975 195
57.60987 201
57.62998 189
57.65009 196
57.67021 172
57.69032 187
57.71043 196
57.73055 187
57.75066 182
57.77078 185
57.79089 174
57.811 204
57.83112 182
57.85123 160
57.87134 170
57.89146 192
57.91157 181
57.93168 187
57.9518 176
57.97191 201
57.99203 189
58.01214 206
58.03225 176
58.05237 160
58.07248 152
58.09259 181
58.11271 167
58.13282 173
58.15294 147
58.17305 176
58.19316 162
58.21328 173
58.23339 159
58.2535 179
58.27362 178
58.29373 188
58.31385 158
58.33396 184
58.35407 196
58.37419 175
58.3943 184
58.41441 177
58.43453 163
58.45464 151
58.47475 186
58.49487 177
58.51498 166
58.5351 176
58.55521 164
58.57532 153
58.59544 171
58.61555 162
58.63566 186
58.65578 177
58.67589 161
58.69601 185
58.71612 186
58.73623 179
58.75635 186
58.77646 184
58.79657 165
58.81669 193
58.8368 187
58.85691 181
58.87703 188
58.89714 158
58.91726 184
58.93737 161
58.95748 206
58.9776 173
58.99771 186
59.01782 196
59.03794 188
59.05805 191
59.07817 177
59.09828 188
59.11839 223
59.13851 196
59.15862 181
59.17873 191
59.19885 204
59.21896 186
59.23908 197
59.25919 180
59.2793 189
59.29942 181
59.31953 194
59.33964 214
59.35976 199
59.37987 203
59.39998 208
59.4201 230
59.44021 225
59.46033 242
59.48044 202
59.50055 246
59.52067 224
59.54078 254
59.56089 237
59.58101 265
59.60112 332
59.62124 292
59.64135 337
59.66146 369
59.68158 362
59.70169 423
59.7218 471
59.74192 539
59.76203 636
59.78215 768
59.80226 949
59.82237 1204
59.84249 1462
59.8626 1701
59.88271 1894
59.90283 2135
59.92294 2253
59.94305 2074
59.96317 1834
59.98328 1466
60.0034 1211
60.02351 1118
60.04362 1159
60.06374 1172
60.08385 1170
60.10396 1154
60.12408 910
60.14419 679
60.16431 514
60.18442 382
60.20453 297
60.22465 281
60.24476 263
60.26487 229
60.28499 252
60.3051 230
60.32522 229
60.34533 239
60.36544 216
60.38556 223
60.40567 204
60.42578 212
60.4459 184
60.46601 194
60.48612 206
60.50624 165
60.52635 198
60.54647 200
60.56658 210
60.58669 183
60.60681 170
60.62692 197
60.64703 175
60.66715 188
60.68726 169
60.70738 180
60.72749 176
60.7476 181
60.76772 185
60.78783 177
60.80794 180
60.82806 171
60.84817 172
60.86828 178
60.8884 198
60.90851 176
60.92863 161
60.94874 202
60.96885 143
60.98897 173
61.00908 172
61.02919 178
61.04931 159
61.06942 164
61.08954 190
61.10965 199
61.12976 172
61.14988 199
61.16999 192
61.1901 190
61.21022 180
61.23033 169
61.25045 179
61.27056 178
61.29067 191
61.31079 181
61.3309 196
61.35101 185
61.37113 183
61.39124 160
61.41135 177
61.43147 195
61.45158 166
61.4717 184
61.49181 177
61.51192 194
61.53204 199
61.55215 176
61.57226 170
61.59238 191
61.61249 175
61.63261 188
61.65272 190
61.67283 180
61.69295 161
61.71306 179
61.73317 179
61.75329 204
61.7734 189
61.79352 181
61.81363 176
61.83374 204
61.85386 180
61.87397 176
61.89408 192
61.9142 182
61.93431 223
61.95442 168
61.97454 199
61.99465 184
62.01477 222
62.03488 206
62.05499 219
62.07511 217
62.09522 222
62.11533 231
62.13545 236
62.15556 222
62.17568 232
62.19579 231
62.2159 243
62.23602 242
62.25613 234
62.27624 246
62.29636 213
62.31647 198
62.33659 238
62.3567 232
62.37681 222
62.39693 219
62.41704 212
62.43715 212
62.45727 181
62.47738 205
62.49749 191
62.51761 201
62.53772 189
62.55784 187
62.57795 200
62.59806 203
62.61818 201
62.63829 187
62.6584 205
62.67852 166
62.69863 170
62.71875 178
62.73886 187
62.75897 190
62.77909 193
62.7992 189
62.81931 190
62.83943 161
62.85954 184
62.87965 171
62.89977 182
62.91988 162
62.94 173
62.96011 176
62.98022 196
63.00034 162
63.02045 162
63.04056 159
63.06068 191
63.08079 156
63.10091 162
63.12102 188
63.14113 188
63.16125 189
63.18136 163
63.20147 162
63.22159 168
63.2417 147
63.26182 157
63.28193 175
63.30204 173
63.32216 169
63.34227 174
63.36238 203
63.3825 165
63.40261 169
63.42272 161
63.44284 185
63.46295 185
63.48307 198
63.50318 186
63.52329 167
63.54341 186
63.56352 177
63.58363 175
63.60375 176
63.62386 178
63.64398 175
63.66409 199
63.6842 201
63.70432 208
63.72443 215
63.74454 213
63.76466 208
63.78477 237
63.80489 239
63.825 260
63.84511 271
63.86523 315
63.88534 327
63.90545 369
63.92557 435
63.94568 424
63.96579 487
63.98591 527
64.00602 524
64.02614 513
64.04625 448
64.06636 399
64.08648 355
64.10659 330
64.1267 330
64.14682 362
64.16693 327
64.18705 360
64.20716 296
64.22727 280
64.24739 239
64.2675 243
64.28761 182
64.30773 187
64.32784 202
64.34796 174
64.36807 175
64.38818 162
64.4083 196
64.42841 174
64.44852 181
64.46864 188
64.48875 178
64.50886 172
64.52898 169
64.54909 148
64.56921 156
64.58932 151
64.60943 162
64.62955 164
64.64966 167
64.66977 135
64.68989 154
64.71 185
64.73012 164
64.75023 157
64.77034 154
64.79046 163
64.81057 157
64.83068 173
64.8508 149
64.87091 176
64.89102 153
64.91114 156
64.93125 145
64.95137 161
64.97148 169
64.99159 170
65.01171 165
65.03182 143
65.05193 144
65.07205 178
65.09216 153
65.11228 165
65.13239 163
65.1525 167
65.17262 182
65.19273 167
65.21284 169
65.23296 159
65.25307 158
65.27319 164
65.2933 171
65.31341 164
65.33353 185
65.35364 160
65.37375 178
65.39387 149
65.41398 163
65.43409 152
65.45421 160
65.47432 166
65.49444 199
65.51455 202
65.53466 174
65.55478 182
65.57489 178
65.595 185
65.61512 207
65.63523 186
65.65535 225
65.67546 251
65.69557 201
65.71569 256
65.7358 256
65.75591 249
65.77603 244
65.79614 264
65.81626 226
65.83637 216
65.85648 186
65.8766 203
65.89671 205
65.91682 201
65.93694 220
65.95705 208
65.97716 181
65.99728 201
66.01739 183
66.03751 172
66.05762 170
66.07773 190
66.09785 173
66.11796 130
66.13807 163
66.15819 166
66.1783 157
66.19842 163
66.21853 176
66.23864 177
66.25876 174
66.27887 191
66.29898 195
66.3191 175
66.33921 157
66.35933 148
66.37944 168
66.39955 148
66.41967 189
66.43978 170
66.45989 169
66.48001 169
66.50012 180
66.52023 188
66.54035 159
66.56046 180
66.58058 156
66.60069 153
66.6208 175
66.64092 171
66.66103 161
66.68114 196
66.70126 154
66.72137 166
66.74149 171
66.7616 181
66.78171 171
66.80183 206
66.82194 177
66.84205 184
66.86217 173
66.88228 178
66.90239 161
66.92251 146
66.94262 176
66.96274 182
66.98285 176
67.00296 186
67.02308 174
67.04319 171
67.0633 183
67.08342 182
67.10353 170
67.12365 168
67.14376 183
67.16387 187
67.18399 170
67.2041 217
67.22421 192
67.24433 219
67.26444 192
67.28456 197
67.30467 218
67.32478 212
67.3449 236
67.36501 238
67.38512 242
67.40524 265
67.42535 264
67.44546 258
67.46558 292
67.48569 365
67.50581 357
67.52592 381
67.54603 484
67.56615 554
67.58626 636
67.60637 791
67.62649 915
67.6466 1075
67.66672 1206
67.68683 1334
67.70694 1349
67.72706 1238
67.74717 1084
67.76728 913
67.7874 780
67.80751 724
67.82763 781
67.84774 817
67.86785 893
67.88797 868
67.90808 938
67.92819 904
67.94831 876
67.96842 892
67.98853 957
68.00865 1063
68.02876 1200
68.04888 1387
68.06899 1550
68.0891 1695
68.10922 1795
68.12933 1769
68.14944 1539
68.16956 1394
68.18967 1299
68.20979 1304
68.2299 1441
68.25001 1616
68.27013 1751
68.29024 1678
68.31035 1498
68.33047 1278
68.35058 1047
68.3707 826
68.39081 668
68.41092 652
68.43104 704
68.45115 653
68.47126 617
68.49138 620
68.51149 504
68.5316 401
68.55172 347
68.57183 303
68.59195 253
68.61206 235
68.63217 256
68.65229 217
68.6724 224
68.69251 242
68.71263 203
68.73274 228
68.75286 213
68.77297 206
68.79308 196
68.8132 194
68.83331 195
68.85342 210
68.87354 198
68.89365 153
68.91376 181
68.93388 194
68.95399 168
68.97411 184
68.99422 180
69.01433 194
69.03445 187
69.05456 188
69.07467 173
69.09479 159
69.1149 166
69.13502 173
69.15513 183
69.17524 181
69.19536 171
69.21547 160
69.23558 177
69.2557 176
69.27581 162
69.29593 165
69.31604 168
69.33615 177
69.35627 178
69.37638 174
69.39649 165
69.41661 146
69.43672 182
69.45683 175
69.47695 182
69.49706 176
69.51718 171
69.53729 160
69.5574 139
69.57752 171
69.59763 161
69.61774 157
69.63786 154
69.65797 154
69.67809 151
69.6982 178
69.71831 155
69.73843 174
69.75854 185
69.77865 158
69.79877 171
69.81888 155
69.839 174
69.85911 156
69.87922 173
69.89934 151
69.91945 177
69.93956 154
69.95968 156
69.97979 164
69.9999 165
70.02002 173
70.04013 150
70.06025 140
70.08036 159
70.10047 155
70.12059 199
70.1407 161
70.16081 176
70.18093 150
70.20104 164
70.22116 154
70.24127 155
70.26138 154
70.2815 152
70.30161 145
70.32172 172
70.34184 146
70.36195 153
70.38207 161
70.40218 156
70.42229 139
70.44241 158
70.46252 164
70.48263 138
70.50275 165
70.52286 137
70.54297 153
70.56309 128
70.5832 147
70.60332 149
70.62343 157
70.64354 135
70.66366 157
70.68377 160
70.70388 148
70.724 160
70.74411 151
70.76423 175
70.78434 144
70.80445 160
70.82457 179
70.84468 147
70.86479 146
70.88491 150
70.90502 147
70.92513 150
70.94525 156
70.96536 161
70.98548 151
71.00559 159
71.0257 151
71.04582 145
71.06593 148
71.08604 155
71.10616 134
71.12627 147
71.14639 192
71.1665 153
71.18661 174
71.20673 149
71.22684 162
71.24695 155
71.26707 142
71.28718 170
71.3073 172
71.32741 159
71.34752 148
71.36764 122
71.38775 147
71.40786 143
71.42798 161
71.44809 155
71.4682 154
71.48832 156
71.50843 148
71.52855 165
71.54866 145
71.56877 145
71.58889 153
71.609 131
71.62911 163
71.64923 151
71.66934 143
71.68946 150
71.70957 147
71.72968 145
71.7498 152
71.76991 146
71.79002 142
71.81014 138
71.83025 179
71.85037 144
71.87048 159
71.89059 146
71.91071 160
71.93082 176
71.95093 157
71.97105 150
71.99116 158
72.01127 153
72.03139 135
72.0515 151
72.07162 194
72.09173 157
72.11184 134
72.13196 169
72.15207 156
72.17218 160
72.1923 169
72.21241 147
72.23253 131
72.25264 157
72.27275 144
72.29287 160
72.31298 170
72.33309 146
72.35321 164
72.37332 156
72.39344 135
72.41355 150
72.43366 169
72.45378 161
72.47389 172
72.494 166
72.51412 146
72.53423 151
72.55434 146
72.57446 137
72.59457 158
72.61469 156
72.6348 144
72.65491 142
72.67503 141
72.69514 145
72.71525 180
72.73537 156
72.75548 176
72.7756 135
72.79571 153
72.81582 150
72.83594 134
72.85605 142
72.87616 166
72.89628 172
72.91639 164
72.9365 175
72.95662 122
72.97673 144
72.99685 156
73.01696 163
73.03707 167
73.05719 161
73.0773 163
73.09741 185
73.11753 173
73.13764 166
73.15776 188
73.17787 171
73.19798 202
73.2181 195
73.23821 212
73.25832 214
73.27844 264
73.29855 300
73.31867 334
73.33878 366
73.35889 444
73.37901 469
73.39912 497
73.41923 536
73.43935 535
73.45946 524
73.47957 427
73.49969 405
73.5198 319
73.53992 295
73.56003 300
73.58014 313
73.60026 315
73.62037 370
73.64048 354
73.6606 324
73.68071 321
73.70083 267
73.72094 225
73.74105 195
73.76117 182
73.78128 165
73.80139 178
73.82151 159
73.84162 172
73.86174 168
73.88185 172
73.90196 153
73.92208 169
73.94219 169
73.9623 146
73.98242 168
74.00253 158
74.02264 146
74.04276 145
74.06287 179
74.08299 161
74.1031 187
74.12321 154
74.14333 132
74.16344 161
74.18355 154
74.20367 138
74.22378 139
74.2439 166
74.26401 156
74.28412 154
74.30424 158
74.32435 158
74.34446 171
74.36458 162
74.38469 158
74.40481 153
74.42492 150
74.44503 142
74.46515 142
74.48526 150
74.50537 161
74.52549 158
74.5456 131
74.56571 138
74.58583 145
74.60594 137
74.62606 146
74.64617 168
74.66628 164
74.6864 149
74.70651 166
74.72662 155
74.74674 133
74.76685 162
74.78697 152
74.80708 161
74.82719 175
74.84731 164
74.86742 150
74.88753 142
74.90765 159
74.92776 178
74.94787 164
74.96799 158
74.9881 141
75.00822 156
