3.00117 22238
3.02128 21923
3.0414 21213
3.06151 20641
3.08162 19890
3.10174 19415
3.12185 19089
3.14197 18247
3.16208 17804
3.18219 17143
3.20231 16922
3.22242 16207
3.24253 15680
3.26265 15465
3.28276 14809
3.30288 14254
3.32299 13957
3.3431 13277
3.36322 13098
3.38333 12570
3.40344 12226
3.42356 11752
3.44367 11457
3.46379 11204
3.4839 10570
3.50401 10239
3.52413 9739
3.54424 9231
3.56435 9280
3.58447 8740
3.60458 8411
3.62469 8102
3.64481 7823
3.66492 7695
3.68504 7175
3.70515 6920
3.72526 6653
3.74538 6220
3.76549 6385
3.7856 5890
3.80572 5556
3.82583 5383
3.84595 4957
3.86606 5041
3.88617 4831
3.90629 4497
3.9264 4317
3.94651 4055
3.96663 4004
3.98674 3832
4.00686 3606
4.02697 3382
4.04708 3106
4.0672 3256
4.08731 2944
4.10742 2889
4.12754 2684
4.14765 2446
4.16776 2499
4.18788 2456
4.20799 2189
4.22811 2183
4.24822 2012
4.26833 1932
4.28845 1995
4.30856 1865
4.32867 1746
4.34879 1583
4.3689 1740
4.38902 1658
4.40913 1601
4.42924 1496
4.44936 1434
4.46947 1493
4.48958 1488
4.5097 1296
4.52981 1316
4.54992 1289
4.57004 1286
4.59015 1296
4.61027 1150
4.63038 1140
4.65049 1098
4.67061 1085
4.69072 1145
4.71083 985
4.73095 1031
4.75106 958
4.77118 979
4.79129 989
4.8114 873
4.83152 895
4.85163 869
4.87174 847
4.89186 838
4.91197 771
4.93209 769
4.9522 812
4.97231 758
4.99243 728
5.01254 629
5.03265 667
5.05277 690
5.07288 649
5.09299 647
5.11311 577
5.13322 634
5.15334 585
5.17345 559
5.19356 576
5.21368 527
5.23379 509
5.2539 493
5.27402 471
5.29413 533
5.31425 476
5.33436 440
5.35447 452
5.37459 468
5.3947 457
5.41481 408
5.43493 401
5.45504 388
5.47516 333
5.49527 368
5.51538 381
5.5355 345
5.55561 335
5.57572 364
5.59584 344
5.61595 327
5.63606 329
5.65618 342
5.67629 321
5.69641 314
5.71652 308
5.73663 313
5.75675 342
5.77686 286
5.79697 292
5.81709 259
5.8372 237
5.85732 289
5.87743 262
5.89754 260
5.91766 246
5.93777 219
5.95788 252
5.978 257
5.99811 244
6.01823 239
6.03834 242
6.05845 233
6.07857 231
6.09868 224
6.11879 226
6.13891 190
6.15902 211
6.17913 244
6.19925 220
6.21936 205
6.23948 221
6.25959 210
6.2797 183
6.29982 193
6.31993 168
6.34004 188
6.36016 183
6.38027 194
6.40039 196
6.4205 195
6.44061 200
6.46073 209
6.48084 207
6.50095 214
6.52107 176
6.54118 197
6.56129 186
6.58141 201
6.60152 172
6.62164 164
6.64175 192
6.66186 189
6.68198 226
6.70209 208
6.7222 169
6.74232 197
6.76243 216
6.78255 200
6.80266 201
6.82277 222
6.84289 189
6.863 192
6.88311 182
6.90323 183
6.92334 203
6.94346 191
6.96357 205
6.98368 171
7.0038 190
7.02391 179
7.04402 163
7.06414 188
7.08425 177
7.10436 191
7.12448 190
7.14459 191
7.16471 179
7.18482 169
7.20493 196
7.22505 213
7.24516 182
7.26527 207
7.28539 180
7.3055 196
7.32562 170
7.34573 203
7.36584 192
7.38596 212
7.40607 184
7.42618 218
7.4463 205
7.46641 195
7.48653 149
7.50664 178
7.52675 189
7.54687 200
7.56698 208
7.58709 188
7.60721 219
7.62732 203
7.64743 180
7.66755 184
7.68766 211
7.70778 178
7.72789 253
7.748 195
7.76812 181
7.78823 229
7.80834 190
7.82846 184
7.84857 212
7.86869 219
7.8888 174
7.90891 211
7.92903 216
7.94914 183
7.96925 193
7.98937 211
8.00948 172
8.0296 223
8.04971 161
8.06982 219
8.08994 189
8.11005 211
8.13016 201
8.15028 199
8.17039 204
8.1905 214
8.21062 214
8.23073 203
8.25085 222
8.27096 198
8.29107 198
8.31119 184
8.3313 231
8.35141 219
8.37153 199
8.39164 228
8.41176 207
8.43187 216
8.45198 202
8.4721 194
8.49221 202
8.51232 200
8.53244 217
8.55255 224
8.57266 197
8.59278 203
8.61289 203
8.63301 197
8.65312 192
8.67323 207
8.69335 226
8.71346 207
8.73357 199
8.75369 192
8.7738 206
8.79392 213
8.81403 224
8.83414 224
8.85426 219
8.87437 174
8.89448 204
8.9146 208
8.93471 174
8.95483 190
8.97494 208
8.99505 201
9.01517 200
9.03528 199
9.05539 228
9.07551 175
9.09562 211
9.11573 194
9.13585 224
9.15596 182
9.17608 213
9.19619 182
9.2163 217
9.23642 218
9.25653 197
9.27664 217
9.29676 214
9.31687 157
9.33699 195
9.3571 209
9.37721 240
9.39733 198
9.41744 203
9.43755 211
9.45767 218
9.47778 230
9.4979 200
9.51801 191
9.53812 177
9.55824 195
9.57835 215
9.59846 192
9.61858 179
9.63869 185
9.6588 196
9.67892 212
9.69903 224
9.71915 229
9.73926 198
9.75937 202
9.77949 198
9.7996 194
9.81971 203
9.83983 196
9.85994 224
9.88006 216
9.90017 191
9.92028 174
9.9404 210
9.96051 208
9.98062 202
10.00074 211
10.02085 193
10.04097 203
10.06108 200
10.08119 206
10.10131 166
10.12142 193
10.14153 192
10.16165 221
10.18176 214
10.20187 189
10.22199 185
10.2421 194
10.26222 206
10.28233 227
10.30244 197
10.32256 211
10.34267 213
10.36278 233
10.3829 202
10.40301 212
10.42313 170
10.44324 208
10.46335 202
10.48347 202
10.50358 186
10.52369 208
10.54381 195
10.56392 186
10.58403 199
10.60415 195
10.62426 211
10.64438 200
10.66449 220
10.6846 188
10.70472 195
10.72483 196
10.74494 200
10.76506 185
10.78517 232
10.80529 204
10.8254 213
10.84551 196
10.86563 226
10.88574 186
10.90585 203
10.92597 226
10.94608 218
10.9662 210
10.98631 205
11.00642 186
11.02654 215
11.04665 200
11.06676 219
11.08688 203
11.10699 181
11.1271 187
11.14722 197
11.16733 197
11.18745 192
11.20756 194
11.22767 193
11.24779 191
11.2679 223
11.28801 205
11.30813 220
11.32824 188
11.34836 220
11.36847 180
11.38858 230
11.4087 207
11.42881 215
11.44892 205
11.46904 189
11.48915 214
11.50927 175
11.52938 201
11.54949 195
11.56961 203
11.58972 202
11.60983 188
11.62995 206
11.65006 190
11.67017 209
11.69029 220
11.7104 219
11.73052 214
11.75063 229
11.77074 207
11.79086 212
11.81097 177
11.83108 187
11.8512 217
11.87131 198
11.89143 191
11.91154 185
11.93165 196
11.95177 183
11.97188 222
11.99199 170
12.01211 196
12.03222 203
12.05234 185
12.07245 195
12.09256 192
12.11268 220
12.13279 211
12.1529 213
12.17302 203
12.19313 203
12.21324 203
12.23336 229
12.25347 207
12.27359 196
12.2937 221
12.31381 236
12.33393 208
12.35404 219
12.37415 209
12.39427 221
12.41438 217
12.4345 217
12.45461 205
12.47472 205
12.49484 200
12.51495 192
12.53506 208
12.55518 174
12.57529 191
12.5954 179
12.61552 193
12.63563 188
12.65575 170
12.67586 192
12.69597 219
12.71609 176
12.7362 199
12.75631 173
12.77643 188
12.79654 195
12.81666 177
12.83677 169
12.85688 173
12.877 190
12.89711 183
12.91722 185
12.93734 224
12.95745 216
12.97757 219
12.99768 229
13.01779 196
13.03791 190
13.05802 195
13.07813 221
13.09825 210
13.11836 196
13.13847 223
13.15859 222
13.1787 212
13.19882 225
13.21893 193
13.23904 196
13.25916 233
13.27927 210
13.29938 204
13.3195 198
13.33961 217
13.35973 209
13.37984 192
13.39995 198
13.42007 207
13.44018 202
13.46029 224
13.48041 234
13.50052 204
13.52064 236
13.54075 245
13.56086 246
13.58098 268
13.60109 238
13.6212 260
13.64132 265
13.66143 261
13.68154 232
13.70166 221
13.72177 232
13.74189 235
13.762 202
13.78211 203
13.80223 196
13.82234 189
13.84245 193
13.86257 210
13.88268 220
13.9028 199
13.92291 183
13.94302 198
13.96314 187
13.98325 173
14.00336 171
14.02348 180
14.04359 205
14.06371 174
14.08382 182
14.10393 178
14.12405 190
14.14416 190
14.16427 165
14.18439 174
14.2045 189
14.22461 200
14.24473 186
14.26484 172
14.28496 175
14.30507 173
14.32518 188
14.3453 160
14.36541 163
14.38552 178
14.40564 191
14.42575 162
14.44587 173
14.46598 160
14.48609 199
14.50621 175
14.52632 159
14.54643 165
14.56655 212
14.58666 180
14.60677 180
14.62689 158
14.647 200
14.66712 145
14.68723 168
14.70734 182
14.72746 197
14.74757 192
14.76768 195
14.7878 205
14.80791 193
14.82803 201
14.84814 188
14.86825 220
14.88837 228
14.90848 194
14.92859 201
14.94871 177
14.96882 210
14.98894 181
15.00905 207
15.02916 216
15.04928 212
15.06939 246
15.0895 205
15.10962 228
15.12973 203
15.14984 195
15.16996 184
15.19007 185
15.21019 187
15.2303 205
15.25041 199
15.27053 201
15.29064 179
15.31075 166
15.33087 172
15.35098 183
15.3711 163
15.39121 172
15.41132 175
15.43144 169
15.45155 178
15.47166 166
15.49178 177
15.51189 165
15.53201 174
15.55212 176
15.57223 181
15.59235 196
15.61246 185
15.63257 158
15.65269 180
15.6728 171
15.69291 188
15.71303 175
15.73314 159
15.75326 154
15.77337 153
15.79348 171
15.8136 166
15.83371 193
15.85382 147
15.87394 173
15.89405 159
15.91417 173
15.93428 176
15.95439 175
15.97451 174
15.99462 168
16.01473 183
16.03485 158
16.05496 175
16.07508 161
16.09519 168
16.1153 140
16.13542 195
16.15553 167
16.17564 162
16.19576 165
16.21587 164
16.23598 155
16.2561 165
16.27621 210
16.29633 163
16.31644 183
16.33655 161
16.35667 169
16.37678 175
16.39689 177
16.41701 157
16.43712 173
16.45724 147
16.47735 167
16.49746 156
16.51758 157
16.53769 185
16.5578 175
16.57792 154
16.59803 157
16.61814 169
16.63826 166
16.65837 153
16.67849 141
16.6986 171
16.71871 182
16.73883 171
16.75894 207
16.77905 163
16.79917 166
16.81928 152
16.8394 164
16.85951 127
16.87962 185
16.89974 191
16.91985 162
16.93996 170
16.96008 165
16.98019 168
17.00031 159
17.02042 165
17.04053 172
17.06065 181
17.08076 175
17.10087 185
17.12099 178
17.1411 168
17.16121 174
17.18133 148
17.20144 154
17.22156 160
17.24167 164
17.26178 155
17.2819 177
17.30201 158
17.32212 169
17.34224 175
17.36235 166
17.38247 175
17.40258 185
17.42269 170
17.44281 191
17.46292 173
17.48303 149
17.50315 193
17.52326 187
17.54338 182
17.56349 191
17.5836 143
17.60372 189
17.62383 176
17.64394 158
17.66406 164
17.68417 155
17.70428 165
17.7244 171
17.74451 204
17.76463 172
17.78474 160
17.80485 157
17.82497 171
17.84508 199
17.86519 151
17.88531 159
17.90542 175
17.92554 172
17.94565 173
17.96576 147
17.98588 167
18.00599 154
18.0261 178
18.04622 190
18.06633 157
18.08645 156
18.10656 159
18.12667 156
18.14679 191
18.1669 178
18.18701 183
18.20713 167
18.22724 174
18.24735 175
18.26747 181
18.28758 184
18.3077 155
18.32781 179
18.34792 153
18.36804 173
18.38815 181
18.40826 185
18.42838 167
18.44849 159
18.46861 155
18.48872 176
18.50883 143
18.52895 199
18.54906 176
18.56917 156
18.58929 178
18.6094 172
18.62951 186
18.64963 208
18.66974 160
18.68986 160
18.70997 171
18.73008 184
18.7502 182
18.77031 194
18.79042 191
18.81054 188
18.83065 168
18.85077 208
18.87088 178
18.89099 169
18.91111 186
18.93122 185
18.95133 169
18.97145 173
18.99156 158
19.01168 141
19.03179 157
19.0519 192
19.07202 205
19.09213 163
19.11224 182
19.13236 198
19.15247 178
19.17258 185
19.1927 180
19.21281 184
19.23293 192
19.25304 212
19.27315 227
19.29327 191
19.31338 188
19.33349 187
19.35361 174
19.37372 195
19.39384 183
19.41395 182
19.43406 178
19.45418 193
19.47429 174
19.4944 203
19.51452 203
19.53463 186
19.55475 189
19.57486 217
19.59497 247
19.61509 237
19.6352 215
19.65531 213
19.67543 244
19.69554 237
19.71565 252
19.73577 259
19.75588 246
19.776 270
19.79611 253
19.81622 283
19.83634 250
19.85645 254
19.87656 236
19.89668 278
19.91679 269
19.93691 282
19.95702 260
19.97713 263
19.99725 243
20.01736 255
20.03747 263
20.05759 273
20.0777 286
20.09782 244
20.11793 281
20.13804 247
20.15816 257
20.17827 291
20.19838 280
20.2185 286
20.23861 304
20.25872 292
20.27884 296
20.29895 297
20.31907 280
20.33918 353
20.35929 302
20.37941 296
20.39952 324
20.41963 383
20.43975 386
20.45986 418
20.47998 376
20.50009 383
20.5202 398
20.54032 462
20.56043 462
20.58054 547
20.60066 654
20.62077 781
20.64088 899
20.661 1148
20.68111 1463
20.70123 1866
20.72134 2481
20.74145 3271
20.76157 3760
20.78168 4498
20.80179 5141
20.82191 5496
20.84202 5484
20.86214 5303
20.88225 4372
20.90236 3455
20.92248 2558
20.94259 1899
20.9627 1365
20.98282 1046
21.00293 1022
21.02305 942
21.04316 877
21.06327 860
21.08339 733
21.1035 627
21.12361 597
21.14373 536
21.16384 468
21.18395 420
21.20407 411
21.22418 313
21.2443 340
21.26441 328
21.28452 314
21.30464 289
21.32475 287
21.34486 291
21.36498 288
21.38509 291
21.40521 276
21.42532 267
21.44543 275
21.46555 276
21.48566 288
21.50577 255
21.52589 280
21.546 274
21.56612 245
21.58623 254
21.60634 247
21.62646 268
21.64657 259
21.66668 246
21.6868 246
21.70691 266
21.72702 239
21.74714 264
21.76725 269
21.78737 242
21.80748 274
21.82759 265
21.84771 302
21.86782 243
21.88793 291
21.90805 288
21.92816 297
21.94828 357
21.96839 350
21.9885 355
22.00862 403
22.02873 393
22.04884 426
22.06896 352
22.08907 334
22.10919 321
22.1293 281
22.14941 218
22.16953 261
22.18964 270
22.20975 269
22.22987 321
22.24998 293
22.27009 316
22.29021 337
22.31032 323
22.33044 290
22.35055 305
22.37066 295
22.39078 298
22.41089 290
22.431 302
22.45112 315
22.47123 302
22.49135 249
22.51146 297
22.53157 334
22.55169 330
22.5718 267
22.59191 299
22.61203 296
22.63214 265
22.65225 302
22.67237 280
22.69248 257
22.7126 246
22.73271 210
22.75282 224
22.77294 230
22.79305 241
22.81316 219
22.83328 260
22.85339 233
22.87351 264
22.89362 292
22.91373 252
22.93385 281
22.95396 271
22.97407 299
22.99419 308
23.0143 318
23.03442 316
23.05453 332
23.07464 365
23.09476 355
23.11487 363
23.13498 342
23.1551 390
23.17521 389
23.19532 393
23.21544 386
23.23555 369
23.25567 362
23.27578 382
23.29589 361
23.31601 341
23.33612 329
23.35623 334
23.37635 394
23.39646 377
23.41658 404
23.43669 400
23.4568 457
23.47692 429
23.49703 425
23.51714 440
23.53726 450
23.55737 435
23.57749 433
23.5976 429
23.61771 356
23.63783 389
23.65794 338
23.67805 329
23.69817 338
23.71828 317
23.73839 345
23.75851 318
23.77862 325
23.79874 346
23.81885 330
23.83896 368
23.85908 383
23.87919 369
23.8993 394
23.91942 430
23.93953 406
23.95965 428
23.97976 455
23.99987 447
24.01999 460
24.0401 346
24.06021 377
24.08033 329
24.10044 318
24.12056 355
24.14067 325
24.16078 306
24.1809 336
24.20101 333
24.22112 335
24.24124 312
24.26135 333
24.28146 316
24.30158 335
24.32169 328
24.34181 306
24.36192 315
24.38203 316
24.40215 313
24.42226 270
24.44237 285
24.46249 312
24.4826 297
24.50272 273
24.52283 308
24.54294 292
24.56306 304
24.58317 288
24.60328 308
24.6234 295
24.64351 288
24.66362 305
24.68374 289
24.70385 312
24.72397 318
24.74408 273
24.76419 262
24.78431 294
24.80442 258
24.82453 297
24.84465 279
24.86476 272
24.88488 269
24.90499 294
24.9251 274
24.94522 292
24.96533 249
24.98544 277
25.00556 298
25.02567 246
25.04579 259
25.0659 261
25.08601 257
25.10613 271
25.12624 293
25.14635 262
25.16647 297
25.18658 290
25.20669 315
25.22681 329
25.24692 348
25.26704 350
25.28715 357
25.30726 362
25.32738 346
25.34749 355
25.3676 398
25.38772 346
25.40783 401
25.42795 440
25.44806 454
25.46817 476
25.48829 510
25.5084 571
25.52851 616
25.54863 671
25.56874 641
25.58886 646
25.60897 661
25.62908 649
25.6492 645
25.66931 629
25.68942 617
25.70954 541
25.72965 516
25.74976 501
25.76988 521
25.78999 472
25.81011 463
25.83022 472
25.85033 482
25.87045 503
25.89056 482
25.91067 446
25.93079 487
25.9509 471
25.97102 458
25.99113 533
26.01124 574
26.03136 545
26.05147 578
26.07158 644
26.0917 664
26.11181 671
26.13193 739
26.15204 792
26.17215 854
26.19227 882
26.21238 1009
26.23249 1041
26.25261 1173
26.27272 1397
26.29283 1457
26.31295 1657
26.33306 1994
26.35318 2309
26.37329 2783
26.3934 3613
26.41352 4502
26.43363 5768
26.45374 7229
26.47386 9493
26.49397 12269
26.51409 14906
26.5342 18049
26.55431 20852
26.57443 23061
26.59454 24887
26.61465 25170
26.63477 23543
26.65488 20135
26.67499 16002
26.69511 12013
26.71522 8617
26.73534 5932
26.75545 3808
26.77556 2564
26.79568 1952
26.81579 1671
26.8359 1439
26.85602 1430
26.87613 1323
26.89625 1315
26.91636 1347
26.93647 1227
26.95659 1184
26.9767 1219
26.99681 1178
27.01693 1147
27.03704 1056
27.05716 1084
27.07727 1089
27.09738 1025
27.1175 914
27.13761 905
27.15772 797
27.17784 730
27.19795 769
27.21806 742
27.23818 777
27.25829 785
27.27841 851
27.29852 908
27.31863 924
27.33875 1057
27.35886 1163
27.37897 1212
27.39909 1218
27.4192 1261
27.43932 1377
27.45943 1313
27.47954 1253
27.49966 1209
27.51977 1010
27.53988 946
27.56 762
27.58011 733
27.60023 673
27.62034 601
27.64045 512
27.66057 572
27.68068 545
27.70079 542
27.72091 490
27.74102 506
27.76113 487
27.78125 474
27.80136 484
27.82148 499
27.84159 505
27.8617 513
27.88182 518
27.90193 524
27.92204 492
27.94216 555
27.96227 457
27.98239 434
28.0025 436
28.02261 374
28.04273 379
28.06284 342
28.08295 391
28.10307 351
28.12318 346
28.1433 325
28.16341 341
28.18352 321
28.20364 340
28.22375 327
28.24386 359
28.26398 331
28.28409 302
28.3042 280
28.32432 295
28.34443 286
28.36455 301
28.38466 292
28.40477 262
28.42489 237
28.445 262
28.46511 254
28.48523 234
28.50534 266
28.52546 241
28.54557 260
28.56568 261
28.5858 237
28.60591 262
28.62602 261
28.64614 232
28.66625 237
28.68636 229
28.70648 240
28.72659 231
28.74671 260
28.76682 270
28.78693 243
28.80705 265
28.82716 231
28.84727 251
28.86739 232
28.8875 282
28.90762 247
28.92773 250
28.94784 241
28.96796 252
28.98807 224
29.00818 247
29.0283 260
29.04841 232
29.06853 260
29.08864 229
29.10875 220
29.12887 232
29.14898 221
29.16909 224
29.18921 262
29.20932 252
29.22943 234
29.24955 278
29.26966 275
29.28978 286
29.30989 296
29.33 310
29.35012 303
29.37023 333
29.39034 330
29.41046 332
29.43057 322
29.45069 346
29.4708 304
29.49091 320
29.51103 333
29.53114 298
29.55125 325
29.57137 306
29.59148 317
29.6116 303
29.63171 289
29.65182 280
29.67194 307
29.69205 344
29.71216 319
29.73228 356
29.75239 310
29.7725 342
29.79262 367
29.81273 350
29.83285 357
29.85296 328
29.87307 345
29.89319 373
29.9133 327
29.93341 320
29.95353 347
29.97364 364
29.99376 344
30.01387 322
30.03398 354
30.0541 306
30.07421 399
30.09432 366
30.11444 350
30.13455 350
30.15467 347
30.17478 359
30.19489 395
30.21501 384
30.23512 346
30.25523 324
30.27535 327
30.29546 266
30.31557 300
30.33569 285
30.3558 282
30.37592 307
30.39603 311
30.41614 299
30.43626 308
30.45637 277
30.47648 272
30.4966 306
30.51671 297
30.53683 287
30.55694 275
30.57705 299
30.59717 310
30.61728 368
30.63739 353
30.65751 365
30.67762 383
30.69773 403
30.71785 432
30.73796 451
30.75808 443
30.77819 415
30.7983 453
30.81842 352
30.83853 382
30.85864 351
30.87876 320
30.89887 301
30.91899 302
30.9391 251
30.95921 246
30.97933 226
30.99944 228
31.01955 216
31.03967 217
31.05978 206
31.0799 191
31.10001 249
31.12012 205
31.14024 198
31.16035 209
31.18046 227
31.20058 221
31.22069 189
31.2408 231
31.26092 209
31.28103 236
31.30115 225
31.32126 179
31.34137 203
31.36149 191
31.3816 200
31.40171 208
31.42183 185
31.44194 173
31.46206 175
31.48217 188
31.50228 184
31.5224 207
31.54251 208
31.56262 202
31.58274 192
31.60285 197
31.62297 175
31.64308 213
31.66319 194
31.68331 192
31.70342 172
31.72353 196
31.74365 187
31.76376 185
31.78387 176
31.80399 204
31.8241 173
31.84422 188
31.86433 187
31.88444 200
31.90456 214
31.92467 204
31.94478 199
31.9649 183
31.98501 212
32.00513 195
32.02524 238
32.04535 216
32.06547 223
32.08558 237
32.10569 246
32.12581 223
32.14592 247
32.16604 265
32.18615 251
32.20626 269
32.22638 258
32.24649 275
32.2666 267
32.28672 251
32.30683 269
32.32694 261
32.34706 292
32.36717 239
32.38729 265
32.4074 285
32.42751 246
32.44763 236
32.46774 238
32.48785 211
32.50797 221
32.52808 234
32.5482 184
32.56831 190
32.58842 188
32.60854 177
32.62865 195
32.64876 202
32.66888 191
32.68899 176
32.7091 158
32.72922 181
32.74933 188
32.76945 153
32.78956 146
32.80967 162
32.82979 177
32.8499 198
32.87001 156
32.89013 164
32.91024 166
32.93036 152
32.95047 173
32.97058 152
32.9907 168
33.01081 207
33.03092 145
33.05104 134
33.07115 145
33.09127 156
33.11138 178
33.13149 152
33.15161 167
33.17172 162
33.19183 158
33.21195 198
33.23206 148
33.25217 165
33.27229 173
33.2924 170
33.31252 170
33.33263 179
33.35274 148
33.37286 159
33.39297 158
33.41308 182
33.4332 149
33.45331 159
33.47343 147
33.49354 163
33.51365 161
33.53377 149
33.55388 161
33.57399 162
33.59411 170
33.61422 162
33.63434 143
33.65445 156
33.67456 162
33.69468 154
33.71479 166
33.7349 185
33.75502 158
33.77513 189
33.79524 192
33.81536 162
33.83547 169
33.85559 166
33.8757 172
33.89581 186
33.91593 169
33.93604 158
33.95615 196
33.97627 203
33.99638 195
34.0165 183
34.03661 232
34.05672 188
34.07684 215
34.09695 220
34.11706 248
34.13718 228
34.15729 271
34.17741 258
34.19752 239
34.21763 281
34.23775 296
34.25786 265
34.27797 225
34.29809 266
34.3182 261
34.33831 245
34.35843 252
34.37854 269
34.39866 243
34.41877 248
34.43888 246
34.459 248
34.47911 244
34.49922 266
34.51934 259
34.53945 239
34.55957 286
34.57968 266
34.59979 281
34.61991 280
34.64002 275
34.66013 276
34.68025 297
34.70036 300
34.72047 282
34.74059 278
34.7607 272
34.78082 308
34.80093 320
34.82104 324
34.84116 317
34.86127 309
34.88138 281
34.9015 300
34.92161 296
34.94173 272
34.96184 263
34.98195 328
35.00207 284
35.02218 263
35.04229 281
35.06241 301
35.08252 272
35.10264 271
35.12275 279
35.14286 292
35.16298 274
35.18309 297
35.2032 282
35.22332 280
35.24343 264
35.26354 258
35.28366 266
35.30377 255
35.32389 242
35.344 250
35.36411 273
35.38423 271
35.40434 275
35.42445 275
35.44457 265
35.46468 259
35.4848 269
35.50491 294
35.52502 260
35.54514 269
35.56525 251
35.58536 269
35.60548 220
35.62559 243
35.64571 247
35.66582 251
35.68593 239
35.70605 226
35.72616 221
35.74627 224
35.76639 222
35.7865 193
35.80661 232
35.82673 220
35.84684 232
35.86696 207
35.88707 185
35.90718 235
35.9273 217
35.94741 204
35.96752 227
35.98764 203
36.00775 226
36.02787 233
36.04798 247
36.06809 238
36.08821 228
36.10832 251
36.12843 244
36.14855 259
36.16866 301
36.18878 281
36.20889 315
36.229 335
36.24912 371
36.26923 397
36.28934 493
36.30946 515
36.32957 694
36.34968 767
36.3698 888
36.38991 1104
36.41003 1194
36.43014 1366
36.45025 1640
36.47037 1742
36.49048 1796
36.51059 1711
36.53071 1646
36.55082 1589
36.57094 1260
36.59105 1140
36.61116 889
36.63128 794
36.65139 621
36.6715 491
36.69162 386
36.71173 309
36.73184 270
36.75196 271
36.77207 298
36.79219 278
36.8123 279
36.83241 282
36.85253 231
36.87264 261
36.89275 242
36.91287 251
36.93298 249
36.9531 229
36.97321 244
36.99332 232
37.01344 241
37.03355 244
37.05366 223
37.07378 241
37.09389 196
37.11401 239
37.13412 267
37.15423 216
37.17435 229
37.19446 200
37.21457 200
37.23469 226
37.2548 188
37.27491 206
37.29503 205
37.31514 204
37.33526 172
37.35537 173
37.37548 204
37.3956 175
37.41571 197
37.43582 205
37.45594 163
37.47605 181
37.49617 183
37.51628 229
37.53639 202
37.55651 205
37.57662 218
37.59673 205
37.61685 227
37.63696 186
37.65708 207
37.67719 218
37.6973 191
37.71742 211
37.73753 212
37.75764 194
37.77776 190
37.79787 195
37.81798 214
37.8381 208
37.85821 201
37.87833 201
37.89844 191
37.91855 203
37.93867 164
37.95878 171
37.97889 221
37.99901 176
38.01912 167
38.03924 178
38.05935 181
38.07946 184
38.09958 186
38.11969 178
38.1398 179
38.15992 184
38.18003 183
38.20015 186
38.22026 184
38.24037 190
38.26049 181
38.2806 189
38.30071 184
38.32083 201
38.34094 217
38.36105 185
38.38117 213
38.40128 200
38.4214 218
38.44151 237
38.46162 213
38.48174 210
38.50185 223
38.52196 215
38.54208 231
38.56219 211
38.58231 232
38.60242 232
38.62253 212
38.64265 223
38.66276 198
38.68287 219
38.70299 213
38.7231 178
38.74321 219
38.76333 194
38.78344 199
38.80356 182
38.82367 188
38.84378 187
38.8639 189
38.88401 193
38.90412 189
38.92424 179
38.94435 212
38.96447 228
38.98458 209
39.00469 235
39.02481 219
39.04492 224
39.06503 253
39.08515 254
39.10526 289
39.12538 261
39.14549 321
39.1656 359
39.18572 374
39.20583 417
39.22594 500
39.24606 541
39.26617 656
39.28628 839
39.3064 988
39.32651 1082
39.34663 1263
39.36674 1432
39.38685 1643
39.40697 1687
39.42708 1673
39.44719 1622
39.46731 1400
39.48742 1166
39.50754 1028
39.52765 892
39.54776 774
39.56788 675
39.58799 529
39.6081 380
39.62822 317
39.64833 281
39.66845 261
39.68856 254
39.70867 235
39.72879 239
39.7489 209
39.76901 220
39.78913 211
39.80924 216
39.82935 224
39.84947 218
39.86958 224
39.8897 221
39.90981 219
39.92992 225
39.95004 247
39.97015 252
39.99026 273
40.01038 309
40.03049 321
40.05061 312
40.07072 387
40.09083 413
40.11095 478
40.13106 613
40.15117 677
40.17129 767
40.1914 712
40.21152 824
40.23163 901
40.25174 898
40.27186 832
40.29197 728
40.31208 734
40.3322 600
40.35231 562
40.37242 448
40.39254 422
40.41265 377
40.43277 283
40.45288 243
40.47299 240
40.49311 226
40.51322 202
40.53333 178
40.55345 162
40.57356 203
40.59368 199
40.61379 189
40.6339 160
40.65402 184
40.67413 191
40.69424 196
40.71436 152
40.73447 193
40.75458 169
40.7747 171
40.79481 150
40.81493 180
40.83504 183
40.85515 200
40.87527 209
40.89538 172
40.91549 188
40.93561 194
40.95572 173
40.97584 190
40.99595 188
41.01606 186
41.03618 176
41.05629 168
41.0764 187
41.09652 207
41.11663 182
41.13675 199
41.15686 197
41.17697 200
41.19709 190
41.2172 192
41.23731 194
41.25743 191
41.27754 192
41.29765 165
41.31777 177
41.33788 161
41.358 195
41.37811 205
41.39822 195
41.41834 227
41.43845 220
41.45856 221
41.47868 213
41.49879 243
41.51891 221
41.53902 241
41.55913 242
41.57925 261
41.59936 290
41.61947 310
41.63959 328
41.6597 355
41.67982 330
41.69993 348
41.72004 321
41.74016 335
41.76027 345
41.78038 326
41.8005 342
41.82061 333
41.84072 268
41.86084 277
41.88095 243
41.90107 250
41.92118 253
41.94129 238
41.96141 243
41.98152 224
42.00163 203
42.02175 234
42.04186 254
42.06198 240
42.08209 253
42.1022 285
42.12232 283
42.14243 322
42.16254 361
42.18266 407
42.20277 414
42.22289 486
42.243 528
42.26311 632
42.28323 732
42.30334 804
42.32345 969
42.34357 1057
42.36368 1150
42.38379 1208
42.40391 1249
42.42402 1186
42.44414 1082
42.46425 1055
42.48436 870
42.50448 748
42.52459 666
42.5447 602
42.56482 498
42.58493 431
42.60505 331
42.62516 303
42.64527 297
42.66539 230
42.6855 248
42.70561 262
42.72573 248
42.74584 201
42.76595 222
42.78607 234
42.80618 222
42.8263 222
42.84641 205
42.86652 188
42.88664 182
42.90675 215
42.92686 195
42.94698 211
42.96709 188
42.98721 176
43.00732 189
43.02743 181
43.04755 169
43.06766 167
43.08777 201
43.10789 176
43.128 202
43.14812 199
43.16823 181
43.18834 186
43.20846 195
43.22857 186
43.24868 177
43.2688 159
43.28891 149
43.30902 192
43.32914 180
43.34925 186
43.36937 164
43.38948 184
43.40959 181
43.42971 140
43.44982 180
43.46993 203
43.49005 190
43.51016 180
43.53028 174
43.55039 167
43.5705 173
43.59062 182
43.61073 178
43.63084 183
43.65096 166
43.67107 173
43.69119 182
43.7113 172
43.73141 163
43.75153 176
43.77164 170
43.79175 185
43.81187 164
43.83198 155
43.85209 182
43.87221 187
43.89232 179
43.91244 181
43.93255 181
43.95266 196
43.97278 182
43.99289 187
44.013 184
44.03312 188
44.05323 191
44.07335 172
44.09346 160
44.11357 170
44.13369 179
44.1538 188
44.17391 173
44.19403 166
44.21414 197
44.23426 193
44.25437 186
44.27448 190
44.2946 153
44.31471 162
44.33482 151
44.35494 135
44.37505 190
44.39516 185
44.41528 154
44.43539 189
44.45551 158
44.47562 172
44.49573 138
44.51585 145
44.53596 155
44.55607 144
44.57619 180
44.5963 184
44.61642 184
44.63653 179
44.65664 166
44.67676 167
44.69687 156
44.71698 175
44.7371 168
44.75721 149
44.77732 170
44.79744 171
44.81755 184
44.83767 171
44.85778 183
44.87789 166
44.89801 171
44.91812 161
44.93823 188
44.95835 175
44.97846 182
44.99858 176
45.01869 178
45.0388 163
45.05892 176
45.07903 154
45.09914 180
45.11926 192
45.13937 196
45.15949 190
45.1796 191
45.19971 198
45.21983 175
45.23994 197
45.26005 218
45.28017 211
45.30028 227
45.32039 212
45.34051 192
45.36062 230
45.38074 234
45.40085 227
45.42096 246
45.44108 236
45.46119 245
45.4813 287
45.50142 322
45.52153 353
45.54165 348
45.56176 400
45.58187 469
45.60199 505
45.6221 568
45.64221 648
45.66233 696
45.68244 782
45.70256 804
45.72267 845
45.74278 870
45.7629 873
45.78301 829
45.80312 717
45.82324 655
45.84335 599
45.86346 498
45.88358 483
45.90369 407
45.92381 354
45.94392 299
45.96403 255
45.98415 211
46.00426 216
46.02437 217
46.04449 218
46.0646 186
46.08472 184
46.10483 187
46.12494 209
46.14506 195
46.16517 173
46.18528 180
46.2054 202
46.22551 185
46.24563 164
46.26574 163
46.28585 164
46.30597 165
46.32608 179
46.34619 154
46.36631 164
46.38642 157
46.40653 173
46.42665 154
46.44676 161
46.46688 159
46.48699 157
46.5071 174
46.52722 156
46.54733 154
46.56744 136
46.58756 159
46.60767 157
46.62779 146
46.6479 159
46.66801 144
46.68813 155
46.70824 161
46.72835 151
46.74847 158
46.76858 141
46.78869 154
46.80881 164
46.82892 147
46.84904 191
46.86915 170
46.88926 172
46.90938 164
46.92949 158
46.9496 197
46.96972 192
46.98983 170
47.00995 197
47.03006 182
47.05017 164
47.07029 170
47.0904 199
47.11051 191
47.13063 218
47.15074 207
47.17086 211
47.19097 205
47.21108 210
47.2312 209
47.25131 222
47.27142 181
47.29154 180
47.31165 199
47.33176 179
47.35188 187
47.37199 172
47.39211 187
47.41222 194
47.43233 211
47.45245 199
47.47256 220
47.49267 215
47.51279 201
47.5329 187
47.55302 180
47.57313 158
47.59324 174
47.61336 187
47.63347 150
47.65358 161
47.6737 166
47.69381 164
47.71393 154
47.73404 146
47.75415 151
47.77427 153
47.79438 157
47.81449 162
47.83461 168
47.85472 183
47.87483 172
47.89495 149
47.91506 187
47.93518 171
47.95529 150
47.9754 171
47.99552 183
48.01563 166
48.03574 177
48.05586 177
48.07597 170
48.09609 176
48.1162 170
48.13631 152
48.15643 152
48.17654 167
48.19665 168
48.21677 167
48.23688 179
48.257 164
48.27711 170
48.29722 157
48.31734 173
48.33745 172
48.35756 185
48.37768 165
48.39779 159
48.4179 163
48.43802 163
48.45813 164
48.47825 162
48.49836 160
48.51847 154
48.53859 155
48.5587 182
48.57881 182
48.59893 189
48.61904 177
48.63916 191
48.65927 186
48.67938 188
48.6995 177
48.71961 191
48.73972 162
48.75984 197
48.77995 207
48.80006 187
48.82018 196
48.84029 190
48.86041 210
48.88052 207
48.90063 208
48.92075 188
48.94086 223
48.96097 240
48.98109 204
49.0012 188
49.02132 206
49.04143 208
49.06154 214
49.08166 218
49.10177 211
49.12188 195
49.142 236
49.16211 191
49.18223 187
49.20234 173
49.22245 216
49.24257 195
49.26268 159
49.28279 173
49.30291 168
49.32302 200
49.34313 199
49.36325 215
49.38336 208
49.40348 191
49.42359 214
49.4437 192
49.46382 198
49.48393 227
49.50404 250
49.52416 215
49.54427 248
49.56439 234
49.5845 239
49.60461 234
49.62473 260
49.64484 271
49.66495 308
49.68507 315
49.70518 328
49.7253 381
49.74541 399
49.76552 421
49.78564 485
49.80575 559
49.82586 586
49.84598 656
49.86609 747
49.8862 840
49.90632 980
49.92643 1143
49.94655 1367
49.96666 1566
49.98677 1808
50.00689 2032
50.027 2343
50.04711 2533
50.06723 2579
50.08734 2744
50.10746 2486
50.12757 2373
50.14768 2104
50.1678 1813
50.18791 1563
50.20802 1465
50.22814 1337
50.24825 1174
50.26837 1020
50.28848 789
50.30859 638
50.32871 495
50.34882 418
50.36893 426
50.38905 413
50.40916 384
50.42927 407
50.44939 411
50.4695 379
50.48962 450
50.50973 485
50.52984 445
50.54996 423
50.57007 429
50.59018 417
50.6103 395
50.63041 369
50.65053 369
50.67064 349
50.69075 365
50.71087 309
50.73098 351
50.75109 296
50.77121 320
50.79132 276
50.81143 293
50.83155 276
50.85166 251
50.87178 241
50.89189 219
50.912 228
50.93212 227
50.95223 239
50.97234 218
50.99246 201
51.01257 251
51.03269 208
51.0528 184
51.07291 202
51.09303 192
51.11314 188
51.13325 166
51.15337 196
51.17348 196
51.1936 171
51.21371 188
51.23382 165
51.25394 168
51.27405 181
51.29416 178
51.31428 154
51.33439 161
51.3545 181
51.37462 125
51.39473 138
51.41485 168
51.43496 161
51.45507 153
51.47519 166
51.4953 141
51.51541 148
51.53553 159
51.55564 161
51.57576 142
51.59587 147
51.61598 168
51.6361 164
51.65621 153
51.67632 145
51.69644 143
51.71655 168
51.73667 144
51.75678 157
51.77689 154
51.79701 157
51.81712 143
51.83723 144
51.85735 156
51.87746 168
51.89757 171
51.91769 153
51.9378 152
51.95792 135
51.97803 149
51.99814 122
52.01826 124
52.03837 146
52.05848 142
52.0786 157
52.09871 139
52.11883 152
52.13894 145
52.15905 157
52.17917 165
52.19928 171
52.21939 147
52.23951 163
52.25962 165
52.27974 162
52.29985 156
52.31996 147
52.34008 157
52.36019 152
52.3803 160
52.40042 140
52.42053 152
52.44064 157
52.46076 170
52.48087 137
52.50099 168
52.5211 162
52.54121 164
52.56133 149
52.58144 134
52.60155 166
52.62167 180
52.64178 164
52.6619 136
52.68201 151
52.70212 150
52.72224 170
52.74235 159
52.76246 152
52.78258 174
52.80269 152
52.8228 157
52.84292 162
52.86303 164
52.88315 164
52.90326 159
52.92337 157
52.94349 157
52.9636 142
52.98371 141
53.00383 158
53.02394 163
53.04406 154
53.06417 138
53.08428 161
53.1044 170
53.12451 166
53.14462 148
53.16474 148
53.18485 164
53.20497 155
53.22508 171
53.24519 191
53.26531 181
53.28542 156
53.30553 144
53.32565 159
53.34576 160
53.36587 145
53.38599 166
53.4061 178
53.42622 161
53.44633 154
53.46644 146
53.48656 170
53.50667 169
53.52678 160
53.5469 147
53.56701 127
53.58713 156
53.60724 142
53.62735 167
53.64747 150
53.66758 146
53.68769 161
53.70781 133
53.72792 159
53.74804 176
53.76815 143
53.78826 163
53.80838 177
53.82849 160
53.8486 160
53.86872 166
53.88883 161
53.90894 178
53.92906 181
53.94917 180
53.96929 177
53.9894 160
54.00951 213
54.02963 175
54.04974 153
54.06985 155
54.08997 171
54.11008 170
54.1302 167
54.15031 155
54.17042 179
54.19054 170
54.21065 172
54.23076 160
54.25088 207
54.27099 205
54.29111 188
54.31122 175
54.33133 181
54.35145 185
54.37156 204
54.39167 192
54.41179 200
54.4319 177
54.45201 213
54.47213 198
54.49224 222
54.51236 248
54.53247 244
54.55258 249
54.5727 294
54.59281 329
54.61292 368
54.63304 369
54.65315 462
54.67327 546
54.69338 571
54.71349 660
54.73361 719
54.75372 757
54.77383 892
54.79395 847
54.81406 894
54.83417 874
54.85429 792
54.8744 787
54.89452 650
54.91463 568
54.93474 568
54.95486 506
54.97497 506
54.99508 455
55.0152 452
55.03531 380
55.05543 356
55.07554 318
55.09565 342
55.11577 302
55.13588 362
55.15599 375
55.17611 397
55.19622 445
55.21634 452
55.23645 484
55.25656 484
55.27668 467
55.29679 431
55.3169 380
55.33702 373
55.35713 412
55.37724 342
55.39736 333
55.41747 359
55.43759 322
55.4577 299
55.47781 252
55.49793 236
55.51804 221
55.53815 208
55.55827 187
55.57838 196
55.5985 209
55.61861 177
55.63872 165
55.65884 167
55.67895 175
55.69906 162
55.71918 166
55.73929 154
55.75941 157
55.77952 160
55.79963 184
55.81975 157
55.83986 166
55.85997 163
55.88009 148
55.9002 160
55.92031 145
55.94043 162
55.96054 154
55.98066 156
56.00077 136
56.02088 157
56.041 170
56.06111 139
56.08122 169
56.10134 146
56.12145 168
56.14157 146
56.16168 141
56.18179 141
56.20191 139
56.22202 160
56.24213 148
56.26225 149
56.28236 140
56.30248 138
56.32259 152
56.3427 146
56.36282 136
56.38293 180
56.40304 148
56.42316 170
56.44327 152
56.46338 164
56.4835 179
56.50361 155
56.52373 170
56.54384 170
56.56395 149
56.58407 168
56.60418 161
56.62429 162
56.64441 171
56.66452 169
56.68464 154
56.70475 174
56.72486 157
56.74498 153
56.76509 164
56.7852 166
56.80532 173
56.82543 159
56.84554 158
56.86566 143
56.88577 153
56.90589 159
56.926 179
56.94611 162
56.96623 165
56.98634 157
57.00645 162
57.02657 152
57.04668 174
57.0668 159
57.08691 182
57.10702 197
57.12714 184
57.14725 179
57.16736 222
57.18748 165
57.20759 190
57.22771 182
57.24782 157
57.26793 174
57.28805 182
57.30816 177
57.32827 179
57.34839 181
57.3685 168
57.38861 151
57.40873 152
57.42884 169
57.44896 151
57.46907 150
57.48918 173
57.5093 164
57.52941 151
57.54952 157
57.56964 149
57.58975 163
57.60987 150
57.62998 154
57.65009 165
57.67021 167
57.69032 166
57.71043 142
57.73055 170
57.75066 133
57.77078 177
57.79089 149
57.811 154
57.83112 148
57.85123 143
57.87134 153
57.89146 165
57.91157 148
57.93168 155
57.9518 165
57.97191 152
57.99203 171
58.01214 153
58.03225 145
58.05237 160
58.07248 145
58.09259 161
58.11271 169
58.13282 148
58.15294 163
58.17305 152
58.19316 168
58.21328 164
58.23339 163
58.2535 148
58.27362 126
58.29373 171
58.31385 141
58.33396 172
58.35407 160
58.37419 163
58.3943 155
58.41441 156
58.43453 161
58.45464 171
58.47475 167
58.49487 153
58.51498 154
58.5351 207
58.55521 191
58.57532 189
58.59544 191
58.61555 187
58.63566 179
58.65578 173
58.67589 161
58.69601 190
58.71612 163
58.73623 190
58.75635 167
58.77646 159
58.79657 164
58.81669 159
58.8368 180
58.85691 155
58.87703 173
58.89714 153
58.91726 156
58.93737 179
58.95748 173
58.9776 159
58.99771 144
59.01782 135
59.03794 149
59.05805 165
59.07817 167
59.09828 165
59.11839 166
59.13851 175
59.15862 134
59.17873 158
59.19885 186
59.21896 176
59.23908 186
59.25919 197
59.2793 169
59.29942 191
59.31953 195
59.33964 197
59.35976 215
59.37987 217
59.39998 218
59.4201 213
59.44021 243
59.46033 243
59.48044 238
59.50055 256
59.52067 276
59.54078 301
59.56089 335
59.58101 327
59.60112 350
59.62124 396
59.64135 443
59.66146 501
59.68158 549
59.70169 640
59.7218 710
59.74192 789
59.76203 1007
59.78215 1135
59.80226 1243
59.82237 1458
59.84249 1597
59.8626 1617
59.88271 1724
59.90283 1687
59.92294 1615
59.94305 1460
59.96317 1332
59.98328 1172
60.0034 1031
60.02351 948
60.04362 970
60.06374 840
60.08385 778
60.10396 702
60.12408 613
60.14419 458
60.16431 352
60.18442 306
60.20453 281
60.22465 267
60.24476 238
60.26487 239
60.28499 218
60.3051 199
60.32522 204
60.34533 205
60.36544 187
60.38556 175
60.40567 181
60.42578 185
60.4459 169
60.46601 192
60.48612 161
60.50624 208
60.52635 182
60.54647 183
60.56658 186
60.58669 183
60.60681 166
60.62692 164
60.64703 171
60.66715 160
60.68726 199
60.70738 159
60.72749 157
60.7476 183
60.76772 174
60.78783 180
60.80794 179
60.82806 190
60.84817 175
60.86828 174
60.8884 156
60.90851 157
60.92863 158
60.94874 179
60.96885 182
60.98897 172
61.00908 193
61.02919 180
61.04931 170
61.06942 219
61.08954 182
61.10965 181
61.12976 183
61.14988 186
61.16999 170
61.1901 178
61.21022 191
61.23033 187
61.25045 184
61.27056 178
61.29067 187
61.31079 187
61.3309 209
61.35101 199
61.37113 185
61.39124 178
61.41135 175
61.43147 170
61.45158 173
61.4717 181
61.49181 159
61.51192 155
61.53204 174
61.55215 164
61.57226 167
61.59238 183
61.61249 178
61.63261 177
61.65272 171
61.67283 195
61.69295 201
61.71306 181
61.73317 169
61.75329 185
61.7734 159
61.79352 172
61.81363 178
61.83374 201
61.85386 186
61.87397 186
61.89408 190
61.9142 181
61.93431 182
61.95442 171
61.97454 180
61.99465 190
62.01477 163
62.03488 179
62.05499 177
62.07511 182
62.09522 183
62.11533 185
62.13545 170
62.15556 155
62.17568 185
62.19579 175
62.2159 178
62.23602 154
62.25613 146
62.27624 148
62.29636 161
62.31647 167
62.33659 158
62.3567 167
62.37681 159
62.39693 158
62.41704 163
62.43715 156
62.45727 156
62.47738 180
62.49749 161
62.51761 174
62.53772 146
62.55784 171
62.57795 176
62.59806 158
62.61818 159
62.63829 156
62.6584 163
62.67852 177
62.69863 172
62.71875 171
62.73886 165
62.75897 183
62.77909 180
62.7992 154
62.81931 166
62.83943 175
62.85954 169
62.87965 172
62.89977 183
62.91988 202
62.94 183
62.96011 189
62.98022 148
63.00034 183
63.02045 172
63.04056 175
63.06068 167
63.08079 174
63.10091 174
63.12102 159
63.14113 158
63.16125 173
63.18136 168
63.20147 161
63.22159 175
63.2417 164
63.26182 197
63.28193 143
63.30204 154
63.32216 161
63.34227 181
63.36238 171
63.3825 160
63.40261 173
63.42272 154
63.44284 155
63.46295 193
63.48307 188
63.50318 182
63.52329 175
63.54341 177
63.56352 173
63.58363 172
63.60375 190
63.62386 201
63.64398 194
63.66409 219
63.6842 221
63.70432 227
63.72443 251
63.74454 258
63.76466 249
63.78477 278
63.80489 295
63.825 297
63.84511 326
63.86523 373
63.88534 454
63.90545 408
63.92557 433
63.94568 461
63.96579 464
63.98591 457
64.00602 426
64.02614 412
64.04625 395
64.06636 362
64.08648 352
64.10659 336
64.1267 308
64.14682 303
64.16693 281
64.18705 247
64.20716 237
64.22727 201
64.24739 190
64.2675 183
64.28761 178
64.30773 177
64.32784 161
64.34796 163
64.36807 162
64.38818 155
64.4083 159
64.42841 170
64.44852 165
64.46864 171
64.48875 148
64.50886 158
64.52898 157
64.54909 151
64.56921 163
64.58932 167
64.60943 156
64.62955 156
64.64966 141
64.66977 149
64.68989 135
64.71 156
64.73012 147
64.75023 162
64.77034 169
64.79046 164
64.81057 158
64.83068 174
64.8508 161
64.87091 137
64.89102 148
64.91114 141
64.93125 185
64.95137 179
64.97148 149
64.99159 187
65.01171 157
65.03182 175
65.05193 156
65.07205 157
65.09216 153
65.11228 157
65.13239 194
65.1525 169
65.17262 173
65.19273 175
65.21284 166
65.23296 168
65.25307 157
65.27319 183
65.2933 179
65.31341 184
65.33353 203
65.35364 170
65.37375 177
65.39387 199
65.41398 188
65.43409 192
65.45421 172
65.47432 206
65.49444 184
65.51455 205
65.53466 218
65.55478 195
65.57489 191
65.595 172
65.61512 208
65.63523 214
65.65535 207
65.67546 211
65.69557 204
65.71569 247
65.7358 195
65.75591 194
65.77603 199
65.79614 214
65.81626 180
65.83637 197
65.85648 181
65.8766 187
65.89671 197
65.91682 177
65.93694 182
65.95705 159
65.97716 166
65.99728 150
66.01739 170
66.03751 167
66.05762 181
66.07773 176
66.09785 158
66.11796 160
66.13807 162
66.15819 155
66.1783 154
66.19842 169
66.21853 176
66.23864 185
66.25876 185
66.27887 177
66.29898 166
66.3191 161
66.33921 165
66.35933 192
66.37944 167
66.39955 163
66.41967 159
66.43978 189
66.45989 187
66.48001 162
66.50012 166
66.52023 172
66.54035 175
66.56046 190
66.58058 168
66.60069 184
66.6208 153
66.64092 168
66.66103 167
66.68114 176
66.70126 166
66.72137 174
66.74149 156
66.7616 167
66.78171 172
66.80183 149
66.82194 172
66.84205 152
66.86217 174
66.88228 164
66.90239 187
66.92251 167
66.94262 163
66.96274 177
66.98285 187
67.00296 192
67.02308 189
67.04319 174
67.0633 199
67.08342 197
67.10353 235
67.12365 200
67.14376 214
67.16387 174
67.18399 208
67.2041 214
67.22421 207
67.24433 233
67.26444 242
67.28456 254
67.30467 278
67.32478 278
67.3449 298
67.36501 305
67.38512 301
67.40524 326
67.42535 350
67.44546 412
67.46558 445
67.48569 499
67.50581 543
67.52592 628
67.54603 687
67.56615 807
67.58626 870
67.60637 971
67.62649 1070
67.6466 1132
67.66672 1071
67.68683 1139
67.70694 1078
67.72706 983
67.74717 963
67.76728 927
67.7874 865
67.80751 857
67.82763 868
67.84774 949
67.86785 952
67.88797 971
67.90808 981
67.92819 1032
67.94831 1033
67.96842 1135
67.98853 1189
68.00865 1316
68.02876 1337
68.04888 1473
68.06899 1458
68.0891 1508
68.10922 1552
68.12933 1436
68.14944 1381
68.16956 1423
68.18967 1315
68.20979 1351
68.2299 1317
68.25001 1391
68.27013 1273
68.29024 1180
68.31035 1031
68.33047 918
68.35058 796
68.3707 693
68.39081 592
68.41092 588
68.43104 534
68.45115 502
68.47126 464
68.49138 414
68.51149 384
68.5316 311
68.55172 237
68.57183 276
68.59195 239
68.61206 226
68.63217 223
68.65229 207
68.6724 196
68.69251 202
68.71263 204
68.73274 177
68.75286 171
68.77297 190
68.79308 176
68.8132 187
68.83331 192
68.85342 170
68.87354 181
68.89365 185
68.91376 163
68.93388 171
68.95399 170
68.97411 168
68.99422 180
69.01433 163
69.03445 150
69.05456 147
69.07467 160
69.09479 164
69.1149 172
69.13502 149
69.15513 159
69.17524 160
69.19536 155
69.21547 165
69.23558 149
69.2557 135
69.27581 149
69.29593 161
69.31604 131
69.33615 147
69.35627 151
69.37638 143
69.39649 139
69.41661 126
69.43672 149
69.45683 148
69.47695 152
69.49706 128
69.51718 146
69.53729 142
69.5574 166
69.57752 127
69.59763 160
69.61774 163
69.63786 147
69.65797 131
69.67809 129
69.6982 150
69.71831 135
69.73843 165
69.75854 143
69.77865 142
69.79877 149
69.81888 133
69.839 144
69.85911 151
69.87922 152
69.89934 140
69.91945 128
69.93956 167
69.95968 161
69.97979 146
69.9999 180
70.02002 146
70.04013 169
70.06025 145
70.08036 136
70.10047 158
70.12059 161
70.1407 158
70.16081 149
70.18093 144
70.20104 153
70.22116 152
70.24127 159
70.26138 168
70.2815 147
70.30161 159
70.32172 151
70.34184 154
70.36195 155
70.38207 120
70.40218 144
70.42229 142
70.44241 141
70.46252 149
70.48263 148
70.50275 169
70.52286 169
70.54297 147
70.56309 152
70.5832 139
70.60332 141
70.62343 165
70.64354 150
70.66366 151
70.68377 145
70.70388 151
70.724 154
70.74411 140
70.76423 145
70.78434 154
70.80445 145
70.82457 134
70.84468 132
70.86479 160
70.88491 151
70.90502 143
70.92513 142
70.94525 128
70.96536 151
70.98548 129
71.00559 135
71.0257 155
71.04582 148
71.06593 143
71.08604 151
71.10616 136
71.12627 130
71.14639 138
71.1665 145
71.18661 142
71.20673 137
71.22684 132
71.24695 146
71.26707 141
71.28718 137
71.3073 142
71.32741 151
71.34752 151
71.36764 155
71.38775 158
71.40786 140
71.42798 154
71.44809 174
71.4682 168
71.48832 146
71.50843 152
71.52855 153
71.54866 151
71.56877 143
71.58889 167
71.609 152
71.62911 148
71.64923 145
71.66934 159
71.68946 160
71.70957 155
71.72968 157
71.7498 132
71.76991 140
71.79002 129
71.81014 154
71.83025 139
71.85037 156
71.87048 180
71.89059 158
71.91071 172
71.93082 151
71.95093 153
71.97105 143
71.99116 170
72.01127 149
72.03139 145
72.0515 182
72.07162 157
72.09173 161
72.11184 166
72.13196 166
72.15207 176
72.17218 177
72.1923 144
72.21241 165
72.23253 149
72.25264 161
72.27275 161
72.29287 156
72.31298 154
72.33309 148
72.35321 158
72.37332 154
72.39344 145
72.41355 151
72.43366 157
72.45378 141
72.47389 141
72.494 147
72.51412 168
72.53423 160
72.55434 160
72.57446 172
72.59457 160
72.61469 144
72.6348 156
72.65491 157
72.67503 130
72.69514 133
72.71525 135
72.73537 169
72.75548 160
72.7756 151
72.79571 164
72.81582 163
72.83594 172
72.85605 161
72.87616 151
72.89628 148
72.91639 164
72.9365 179
72.95662 197
72.97673 203
72.99685 171
73.01696 185
73.03707 174
73.05719 193
73.0773 223
73.09741 213
73.11753 199
73.13764 225
73.15776 200
73.17787 218
73.19798 249
73.2181 292
73.23821 283
73.25832 342
73.27844 385
73.29855 363
73.31867 439
73.33878 422
73.35889 476
73.37901 493
73.39912 496
73.41923 448
73.43935 468
73.45946 381
73.47957 361
73.49969 332
73.5198 314
73.53992 316
73.56003 331
73.58014 323
73.60026 303
73.62037 286
73.64048 334
73.6606 271
73.68071 251
73.70083 237
73.72094 186
73.74105 199
73.76117 191
73.78128 187
73.80139 146
73.82151 164
73.84162 164
73.86174 154
73.88185 160
73.90196 174
73.92208 155
73.94219 154
73.9623 142
73.98242 149
74.00253 162
74.02264 148
74.04276 150
74.06287 162
74.08299 155
74.1031 164
74.12321 160
74.14333 162
74.16344 168
74.18355 179
74.20367 165
74.22378 151
74.2439 153
74.26401 143
74.28412 133
74.30424 171
74.32435 149
74.34446 158
74.36458 170
74.38469 159
74.40481 137
74.42492 132
74.44503 176
74.46515 164
74.48526 138
74.50537 156
74.52549 152
74.5456 145
74.56571 156
74.58583 161
74.60594 149
74.62606 160
74.64617 149
74.66628 147
74.6864 144
74.70651 170
74.72662 152
74.74674 149
74.76685 159
74.78697 154
74.80708 159
74.82719 186
74.84731 166
74.86742 140
74.88753 159
74.90765 171
74.92776 153
74.94787 165
74.96799 153
74.9881 163
75.00822 173
