3.00117 19148
3.02128 19006
3.0414 18365
3.06151 18425
3.08162 17232
3.10174 16975
3.12185 16601
3.14197 16257
3.16208 15913
3.18219 15140
3.20231 14651
3.22242 14271
3.24253 13780
3.26265 13604
3.28276 12645
3.30288 12515
3.32299 12132
3.3431 11631
3.36322 11346
3.38333 10781
3.40344 10659
3.42356 10349
3.44367 9860
3.46379 9672
3.4839 9103
3.50401 8835
3.52413 8539
3.54424 8329
3.56435 8076
3.58447 7527
3.60458 7418
3.62469 7124
3.64481 6785
3.66492 6601
3.68504 6155
3.70515 6083
3.72526 5699
3.74538 5493
3.76549 5608
3.7856 5196
3.80572 4820
3.82583 4710
3.84595 4475
3.86606 4470
3.88617 4065
3.90629 3821
3.9264 3794
3.94651 3592
3.96663 3584
3.98674 3054
4.00686 3147
4.02697 3159
4.04708 2847
4.0672 2814
4.08731 2602
4.10742 2482
4.12754 2480
4.14765 2235
4.16776 2255
4.18788 2018
4.20799 2022
4.22811 2072
4.24822 1932
4.26833 1873
4.28845 1682
4.30856 1678
4.32867 1683
4.34879 1528
4.3689 1625
4.38902 1458
4.40913 1410
4.42924 1443
4.44936 1464
4.46947 1377
4.48958 1358
4.5097 1283
4.52981 1367
4.54992 1239
4.57004 1313
4.59015 1206
4.61027 1150
4.63038 1125
4.65049 1064
4.67061 1042
4.69072 991
4.71083 1006
4.73095 1004
4.75106 978
4.77118 994
4.79129 919
4.8114 922
4.83152 849
4.85163 875
4.87174 860
4.89186 883
4.91197 784
4.93209 849
4.9522 809
4.97231 730
4.99243 719
5.01254 707
5.03265 699
5.05277 721
5.07288 665
5.09299 684
5.11311 647
5.13322 666
5.15334 664
5.17345 586
5.19356 552
5.21368 597
5.23379 593
5.2539 607
5.27402 557
5.29413 518
5.31425 527
5.33436 573
5.35447 511
5.37459 481
5.3947 511
5.41481 439
5.43493 462
5.45504 464
5.47516 386
5.49527 445
5.51538 404
5.5355 429
5.55561 432
5.57572 424
5.59584 445
5.61595 383
5.63606 360
5.65618 389
5.67629 341
5.69641 364
5.71652 345
5.73663 368
5.75675 360
5.77686 337
5.79697 335
5.81709 336
5.8372 346
5.85732 351
5.87743 287
5.89754 288
5.91766 325
5.93777 326
5.95788 327
5.978 311
5.99811 306
6.01823 288
6.03834 308
6.05845 307
6.07857 310
6.09868 307
6.11879 302
6.13891 271
6.15902 290
6.17913 271
6.19925 271
6.21936 260
6.23948 262
6.25959 264
6.2797 272
6.29982 262
6.31993 255
6.34004 264
6.36016 263
6.38027 277
6.40039 254
6.4205 265
6.44061 241
6.46073 265
6.48084 264
6.50095 249
6.52107 229
6.54118 266
6.56129 264
6.58141 240
6.60152 260
6.62164 225
6.64175 249
6.66186 274
6.68198 239
6.70209 231
6.7222 228
6.74232 204
6.76243 248
6.78255 231
6.80266 259
6.82277 232
6.84289 251
6.863 251
6.88311 229
6.90323 246
6.92334 213
6.94346 241
6.96357 266
6.98368 227
7.0038 212
7.02391 262
7.04402 247
7.06414 233
7.08425 231
7.10436 262
7.12448 224
7.14459 255
7.16471 237
7.18482 237
7.20493 272
7.22505 228
7.24516 252
7.26527 254
7.28539 277
7.3055 232
7.32562 243
7.34573 250
7.36584 246
7.38596 243
7.40607 218
7.42618 232
7.4463 236
7.46641 272
7.48653 239
7.50664 221
7.52675 240
7.54687 264
7.56698 239
7.58709 230
7.60721 263
7.62732 254
7.64743 228
7.66755 246
7.68766 215
7.70778 247
7.72789 217
7.748 251
7.76812 258
7.78823 258
7.80834 242
7.82846 272
7.84857 263
7.86869 219
7.8888 252
7.90891 200
7.92903 237
7.94914 248
7.96925 235
7.98937 194
8.00948 240
8.0296 231
8.04971 243
8.06982 236
8.08994 218
8.11005 217
8.13016 242
8.15028 221
8.17039 265
8.1905 228
8.21062 233
8.23073 234
8.25085 233
8.27096 245
8.29107 231
8.31119 225
8.3313 232
8.35141 219
8.37153 256
8.39164 232
8.41176 271
8.43187 246
8.45198 254
8.4721 237
8.49221 226
8.51232 240
8.53244 280
8.55255 224
8.57266 234
8.59278 248
8.61289 246
8.63301 243
8.65312 222
8.67323 226
8.69335 242
8.71346 229
8.73357 235
8.75369 217
8.7738 249
8.79392 225
8.81403 253
8.83414 255
8.85426 234
8.87437 236
8.89448 264
8.9146 268
8.93471 244
8.95483 243
8.97494 257
8.99505 265
9.01517 246
9.03528 240
9.05539 222
9.07551 263
9.09562 234
9.11573 236
9.13585 236
9.15596 263
9.17608 222
9.19619 261
9.2163 218
9.23642 247
9.25653 239
9.27664 218
9.29676 241
9.31687 228
9.33699 217
9.3571 224
9.37721 247
9.39733 265
9.41744 239
9.43755 259
9.45767 242
9.47778 219
9.4979 232
9.51801 227
9.53812 241
9.55824 225
9.57835 239
9.59846 210
9.61858 239
9.63869 238
9.6588 227
9.67892 247
9.69903 261
9.71915 268
9.73926 243
9.75937 220
9.77949 217
9.7996 226
9.81971 232
9.83983 249
9.85994 258
9.88006 227
9.90017 243
9.92028 244
9.9404 218
9.96051 232
9.98062 235
10.00074 236
10.02085 243
10.04097 198
10.06108 241
10.08119 230
10.10131 235
10.12142 240
10.14153 252
10.16165 276
10.18176 237
10.20187 236
10.22199 230
10.2421 229
10.26222 235
10.28233 252
10.30244 242
10.32256 239
10.34267 232
10.36278 236
10.3829 235
10.40301 244
10.42313 219
10.44324 230
10.46335 253
10.48347 257
10.50358 236
10.52369 264
10.54381 226
10.56392 230
10.58403 215
10.60415 214
10.62426 221
10.64438 249
10.66449 253
10.6846 240
10.70472 212
10.72483 234
10.74494 208
10.76506 245
10.78517 265
10.80529 258
10.8254 254
10.84551 239
10.86563 234
10.88574 218
10.90585 230
10.92597 204
10.94608 256
10.9662 235
10.98631 238
11.00642 215
11.02654 265
11.04665 236
11.06676 212
11.08688 236
11.10699 230
11.1271 230
11.14722 237
11.16733 244
11.18745 255
11.20756 241
11.22767 219
11.24779 223
11.2679 252
11.28801 245
11.30813 251
11.32824 269
11.34836 234
11.36847 231
11.38858 222
11.4087 234
11.42881 241
11.44892 246
11.46904 251
11.48915 243
11.50927 242
11.52938 266
11.54949 241
11.56961 253
11.58972 236
11.60983 268
11.62995 261
11.65006 213
11.67017 250
11.69029 231
11.7104 235
11.73052 232
11.75063 207
11.77074 272
11.79086 239
11.81097 224
11.83108 278
11.8512 227
11.87131 229
11.89143 273
11.91154 246
11.93165 246
11.95177 246
11.97188 264
11.99199 218
12.01211 238
12.03222 228
12.05234 257
12.07245 275
12.09256 265
12.11268 266
12.13279 231
12.1529 248
12.17302 248
12.19313 280
12.21324 285
12.23336 249
12.25347 261
12.27359 234
12.2937 271
12.31381 273
12.33393 307
12.35404 283
12.37415 280
12.39427 233
12.41438 252
12.4345 226
12.45461 242
12.47472 251
12.49484 264
12.51495 243
12.53506 219
12.55518 225
12.57529 231
12.5954 237
12.61552 238
12.63563 243
12.65575 248
12.67586 222
12.69597 219
12.71609 225
12.7362 219
12.75631 235
12.77643 241
12.79654 222
12.81666 237
12.83677 219
12.85688 234
12.877 196
12.89711 203
12.91722 216
12.93734 160
12.95745 199
12.97757 207
12.99768 219
13.01779 216
13.03791 216
13.05802 231
13.07813 220
13.09825 208
13.11836 235
13.13847 223
13.15859 202
13.1787 241
13.19882 188
13.21893 236
13.23904 202
13.25916 203
13.27927 202
13.29938 235
13.3195 218
13.33961 212
13.35973 211
13.37984 207
13.39995 236
13.42007 206
13.44018 210
13.46029 198
13.48041 207
13.50052 212
13.52064 220
13.54075 212
13.56086 234
13.58098 235
13.60109 213
13.6212 216
13.64132 195
13.66143 211
13.68154 199
13.70166 203
13.72177 195
13.74189 200
13.762 191
13.78211 202
13.80223 232
13.82234 213
13.84245 183
13.86257 205
13.88268 189
13.9028 215
13.92291 239
13.94302 212
13.96314 179
13.98325 207
14.00336 205
14.02348 183
14.04359 186
14.06371 220
14.08382 215
14.10393 192
14.12405 214
14.14416 205
14.16427 175
14.18439 189
14.2045 223
14.22461 181
14.24473 229
14.26484 219
14.28496 183
14.30507 185
14.32518 197
14.3453 197
14.36541 209
14.38552 205
14.40564 196
14.42575 201
14.44587 173
14.46598 199
14.48609 201
14.50621 213
14.52632 187
14.54643 200
14.56655 239
14.58666 191
14.60677 181
14.62689 199
14.647 215
14.66712 190
14.68723 192
14.70734 167
14.72746 189
14.74757 188
14.76768 180
14.7878 189
14.80791 203
14.82803 199
14.84814 188
14.86825 215
14.88837 190
14.90848 160
14.92859 209
14.94871 172
14.96882 207
14.98894 177
15.00905 187
15.02916 168
15.04928 220
15.06939 163
15.0895 213
15.10962 166
15.12973 203
15.14984 181
15.16996 193
15.19007 161
15.21019 169
15.2303 188
15.25041 191
15.27053 189
15.29064 183
15.31075 211
15.33087 169
15.35098 198
15.3711 178
15.39121 202
15.41132 184
15.43144 176
15.45155 202
15.47166 197
15.49178 178
15.51189 171
15.53201 196
15.55212 198
15.57223 186
15.59235 190
15.61246 179
15.63257 162
15.65269 200
15.6728 214
15.69291 150
15.71303 188
15.73314 169
15.75326 199
15.77337 180
15.79348 163
15.8136 176
15.83371 169
15.85382 192
15.87394 186
15.89405 171
15.91417 207
15.93428 180
15.95439 185
15.97451 189
15.99462 180
16.01473 198
16.03485 190
16.05496 152
16.07508 195
16.09519 213
16.1153 189
16.13542 155
16.15553 197
16.17564 167
16.19576 166
16.21587 184
16.23598 168
16.2561 190
16.27621 176
16.29633 191
16.31644 199
16.33655 145
16.35667 181
16.37678 175
16.39689 166
16.41701 192
16.43712 169
16.45724 194
16.47735 167
16.49746 198
16.51758 173
16.53769 180
16.5578 173
16.57792 174
16.59803 156
16.61814 163
16.63826 176
16.65837 177
16.67849 172
16.6986 193
16.71871 208
16.73883 180
16.75894 166
16.77905 183
16.79917 177
16.81928 191
16.8394 199
16.85951 172
16.87962 162
16.89974 192
16.91985 191
16.93996 173
16.96008 173
16.98019 178
17.00031 182
17.02042 162
17.04053 172
17.06065 165
17.08076 204
17.10087 169
17.12099 195
17.1411 186
17.16121 188
17.18133 170
17.20144 167
17.22156 187
17.24167 161
17.26178 178
17.2819 176
17.30201 161
17.32212 173
17.34224 178
17.36235 183
17.38247 177
17.40258 173
17.42269 191
17.44281 163
17.46292 177
17.48303 186
17.50315 177
17.52326 187
17.54338 173
17.56349 179
17.5836 195
17.60372 180
17.62383 186
17.64394 191
17.66406 154
17.68417 160
17.70428 184
17.7244 193
17.74451 172
17.76463 146
17.78474 184
17.80485 189
17.82497 176
17.84508 181
17.86519 177
17.88531 186
17.90542 168
17.92554 180
17.94565 161
17.96576 171
17.98588 176
18.00599 184
18.0261 184
18.04622 180
18.06633 185
18.08645 157
18.10656 161
18.12667 152
18.14679 167
18.1669 161
18.18701 196
18.20713 145
18.22724 189
18.24735 194
18.26747 165
18.28758 148
18.3077 182
18.32781 193
18.34792 176
18.36804 188
18.38815 182
18.40826 170
18.42838 180
18.44849 172
18.46861 184
18.48872 179
18.50883 169
18.52895 169
18.54906 167
18.56917 202
18.58929 174
18.6094 154
18.62951 190
18.64963 200
18.66974 189
18.68986 184
18.70997 185
18.73008 164
18.7502 185
18.77031 191
18.79042 206
18.81054 172
18.83065 204
18.85077 190
18.87088 170
18.89099 186
18.91111 156
18.93122 190
18.95133 158
18.97145 188
18.99156 209
19.01168 189
19.03179 180
19.0519 156
19.07202 195
19.09213 216
19.11224 199
19.13236 192
19.15247 176
19.17258 171
19.1927 188
19.21281 197
19.23293 189
19.25304 178
19.27315 216
19.29327 204
19.31338 187
19.33349 222
19.35361 175
19.37372 210
19.39384 207
19.41395 202
19.43406 221
19.45418 227
19.47429 184
19.4944 220
19.51452 195
19.53463 210
19.55475 237
19.57486 254
19.59497 247
19.61509 247
19.6352 243
19.65531 258
19.67543 277
19.69554 309
19.71565 288
19.73577 305
19.75588 307
19.776 314
19.79611 319
19.81622 331
19.83634 323
19.85645 324
19.87656 323
19.89668 329
19.91679 311
19.93691 330
19.95702 345
19.97713 318
19.99725 312
20.01736 291
20.03747 312
20.05759 336
20.0777 323
20.09782 303
20.11793 319
20.13804 335
20.15816 354
20.17827 324
20.19838 328
20.2185 362
20.23861 329
20.25872 341
20.27884 366
20.29895 358
20.31907 327
20.33918 387
20.35929 357
20.37941 355
20.39952 398
20.41963 412
20.43975 397
20.45986 437
20.47998 412
20.50009 395
20.5202 491
20.54032 464
20.56043 530
20.58054 613
20.60066 691
20.62077 830
20.64088 1068
20.661 1328
20.68111 1877
20.70123 2421
20.72134 3350
20.74145 4288
20.76157 5422
20.78168 6497
20.80179 7222
20.82191 7204
20.84202 6630
20.86214 5445
20.88225 3987
20.90236 2791
20.92248 1769
20.94259 1152
20.9627 886
20.98282 634
21.00293 590
21.02305 569
21.04316 552
21.06327 504
21.08339 440
21.1035 444
21.12361 386
21.14373 358
21.16384 347
21.18395 338
21.20407 309
21.22418 298
21.2443 337
21.26441 313
21.28452 300
21.30464 297
21.32475 299
21.34486 295
21.36498 271
21.38509 286
21.40521 294
21.42532 265
21.44543 284
21.46555 298
21.48566 259
21.50577 283
21.52589 235
21.546 248
21.56612 282
21.58623 252
21.60634 246
21.62646 249
21.64657 256
21.66668 253
21.6868 268
21.70691 215
21.72702 226
21.74714 239
21.76725 248
21.78737 244
21.80748 266
21.82759 250
21.84771 263
21.86782 248
21.88793 226
21.90805 250
21.92816 213
21.94828 239
21.96839 253
21.9885 271
22.00862 272
22.02873 226
22.04884 232
22.06896 247
22.08907 270
22.10919 242
22.1293 262
22.14941 239
22.16953 280
22.18964 233
22.20975 240
22.22987 261
22.24998 248
22.27009 249
22.29021 234
22.31032 231
22.33044 254
22.35055 249
22.37066 248
22.39078 231
22.41089 243
22.431 247
22.45112 233
22.47123 273
22.49135 264
22.51146 234
22.53157 221
22.55169 251
22.5718 248
22.59191 226
22.61203 225
22.63214 242
22.65225 242
22.67237 240
22.69248 233
22.7126 223
22.73271 233
22.75282 259
22.77294 216
22.79305 229
22.81316 227
22.83328 200
22.85339 255
22.87351 229
22.89362 234
22.91373 227
22.93385 246
22.95396 230
22.97407 242
22.99419 247
23.0143 255
23.03442 265
23.05453 257
23.07464 235
23.09476 261
23.11487 265
23.13498 253
23.1551 279
23.17521 272
23.19532 248
23.21544 229
23.23555 227
23.25567 255
23.27578 229
23.29589 256
23.31601 217
23.33612 214
23.35623 248
23.37635 264
23.39646 227
23.41658 231
23.43669 221
23.4568 233
23.47692 208
23.49703 198
23.51714 244
23.53726 204
23.55737 222
23.57749 246
23.5976 226
23.61771 234
23.63783 214
23.65794 226
23.67805 232
23.69817 249
23.71828 236
23.73839 247
23.75851 227
23.77862 260
23.79874 260
23.81885 247
23.83896 248
23.85908 288
23.87919 258
23.8993 293
23.91942 314
23.93953 328
23.95965 345
23.97976 342
23.99987 312
24.01999 290
24.0401 264
24.06021 251
24.08033 237
24.10044 235
24.12056 266
24.14067 227
24.16078 256
24.1809 216
24.20101 242
24.22112 226
24.24124 228
24.26135 246
24.28146 225
24.30158 228
24.32169 251
24.34181 186
24.36192 255
24.38203 229
24.40215 243
24.42226 249
24.44237 266
24.46249 234
24.4826 280
24.50272 232
24.52283 230
24.54294 223
24.56306 244
24.58317 262
24.60328 270
24.6234 258
24.64351 242
24.66362 261
24.68374 289
24.70385 251
24.72397 278
24.74408 278
24.76419 231
24.78431 259
24.80442 226
24.82453 260
24.84465 259
24.86476 261
24.88488 268
24.90499 253
24.9251 277
24.94522 270
24.96533 263
24.98544 247
25.00556 268
25.02567 230
25.04579 251
25.0659 251
25.08601 249
25.10613 267
25.12624 256
25.14635 242
25.16647 261
25.18658 252
25.20669 260
25.22681 283
25.24692 235
25.26704 282
25.28715 264
25.30726 240
25.32738 267
25.34749 274
25.3676 270
25.38772 259
25.40783 286
25.42795 285
25.44806 299
25.46817 319
25.48829 323
25.5084 307
25.52851 350
25.54863 346
25.56874 328
25.58886 339
25.60897 368
25.62908 403
25.6492 399
25.66931 438
25.68942 444
25.70954 417
25.72965 452
25.74976 453
25.76988 444
25.78999 453
25.81011 458
25.83022 498
25.85033 493
25.87045 495
25.89056 488
25.91067 508
25.93079 544
25.9509 519
25.97102 576
25.99113 486
26.01124 585
26.03136 612
26.05147 588
26.07158 644
26.0917 661
26.11181 746
26.13193 788
26.15204 854
26.17215 940
26.19227 931
26.21238 1062
26.23249 1114
26.25261 1285
26.27272 1323
26.29283 1591
26.31295 1656
26.33306 1994
26.35318 2446
26.37329 2897
26.3934 3792
26.41352 4943
26.43363 6644
26.45374 9324
26.47386 12304
26.49397 16293
26.51409 20746
26.5342 25434
26.55431 30098
26.57443 32927
26.59454 33474
26.61465 31419
26.63477 26134
26.65488 20445
26.67499 14946
26.69511 10716
26.71522 6795
26.73534 3883
26.75545 2535
26.77556 1919
26.79568 1708
26.81579 1417
26.8359 1323
26.85602 1186
26.87613 1132
26.89625 1136
26.91636 1037
26.93647 897
26.95659 815
26.9767 782
26.99681 707
27.01693 678
27.03704 604
27.05716 597
27.07727 581
27.09738 548
27.1175 544
27.13761 499
27.15772 485
27.17784 418
27.19795 488
27.21806 517
27.23818 469
27.25829 437
27.27841 466
27.29852 461
27.31863 495
27.33875 530
27.35886 529
27.37897 558
27.39909 534
27.4192 567
27.43932 487
27.45943 507
27.47954 455
27.49966 401
27.51977 404
27.53988 375
27.56 339
27.58011 377
27.60023 351
27.62034 336
27.64045 326
27.66057 294
27.68068 310
27.70079 333
27.72091 305
27.74102 307
27.76113 298
27.78125 296
27.80136 300
27.82148 324
27.84159 270
27.8617 306
27.88182 322
27.90193 320
27.92204 265
27.94216 317
27.96227 281
27.98239 267
28.0025 322
28.02261 278
28.04273 300
28.06284 285
28.08295 271
28.10307 249
28.12318 287
28.1433 261
28.16341 278
28.18352 238
28.20364 317
28.22375 274
28.24386 232
28.26398 261
28.28409 277
28.3042 286
28.32432 242
28.34443 241
28.36455 246
28.38466 268
28.40477 227
28.42489 281
28.445 254
28.46511 258
28.48523 242
28.50534 252
28.52546 275
28.54557 252
28.56568 257
28.5858 273
28.60591 244
28.62602 256
28.64614 242
28.66625 221
28.68636 251
28.70648 260
28.72659 239
28.74671 240
28.76682 249
28.78693 214
28.80705 249
28.82716 264
28.84727 232
28.86739 233
28.8875 247
28.90762 246
28.92773 230
28.94784 262
28.96796 257
28.98807 247
29.00818 258
29.0283 268
29.04841 233
29.06853 258
29.08864 247
29.10875 253
29.12887 218
29.14898 243
29.16909 263
29.18921 266
29.20932 223
29.22943 254
29.24955 235
29.26966 255
29.28978 229
29.30989 235
29.33 252
29.35012 265
29.37023 275
29.39034 223
29.41046 247
29.43057 257
29.45069 276
29.4708 240
29.49091 232
29.51103 220
29.53114 246
29.55125 232
29.57137 234
29.59148 197
29.6116 221
29.63171 228
29.65182 232
29.67194 207
29.69205 204
29.71216 225
29.73228 233
29.75239 230
29.7725 222
29.79262 250
29.81273 279
29.83285 215
29.85296 220
29.87307 205
29.89319 210
29.9133 244
29.93341 235
29.95353 244
29.97364 227
29.99376 233
30.01387 231
30.03398 230
30.0541 235
30.07421 233
30.09432 249
30.11444 243
30.13455 257
30.15467 255
30.17478 252
30.19489 260
30.21501 225
30.23512 249
30.25523 239
30.27535 226
30.29546 235
30.31557 222
30.33569 225
30.3558 188
30.37592 190
30.39603 251
30.41614 208
30.43626 225
30.45637 180
30.47648 256
30.4966 234
30.51671 213
30.53683 222
30.55694 217
30.57705 201
30.59717 263
30.61728 217
30.63739 231
30.65751 219
30.67762 211
30.69773 239
30.71785 244
30.73796 236
30.75808 233
30.77819 226
30.7983 266
30.81842 264
30.83853 231
30.85864 216
30.87876 196
30.89887 243
30.91899 213
30.9391 234
30.95921 219
30.97933 226
30.99944 179
31.01955 188
31.03967 218
31.05978 181
31.0799 217
31.10001 167
31.12012 179
31.14024 166
31.16035 218
31.18046 180
31.20058 173
31.22069 205
31.2408 192
31.26092 203
31.28103 173
31.30115 215
31.32126 197
31.34137 199
31.36149 176
31.3816 182
31.40171 197
31.42183 211
31.44194 175
31.46206 203
31.48217 184
31.50228 180
31.5224 186
31.54251 176
31.56262 202
31.58274 195
31.60285 173
31.62297 177
31.64308 197
31.66319 188
31.68331 171
31.70342 160
31.72353 179
31.74365 172
31.76376 187
31.78387 176
31.80399 181
31.8241 169
31.84422 185
31.86433 204
31.88444 180
31.90456 153
31.92467 179
31.94478 161
31.9649 186
31.98501 166
32.00513 179
32.02524 164
32.04535 158
32.06547 196
32.08558 172
32.10569 183
32.12581 203
32.14592 174
32.16604 188
32.18615 165
32.20626 192
32.22638 174
32.24649 194
32.2666 179
32.28672 198
32.30683 189
32.32694 190
32.34706 164
32.36717 180
32.38729 180
32.4074 181
32.42751 180
32.44763 191
32.46774 190
32.48785 183
32.50797 185
32.52808 163
32.5482 176
32.56831 182
32.58842 163
32.60854 169
32.62865 166
32.64876 194
32.66888 186
32.68899 163
32.7091 187
32.72922 160
32.74933 183
32.76945 177
32.78956 172
32.80967 182
32.82979 182
32.8499 166
32.87001 184
32.89013 180
32.91024 165
32.93036 174
32.95047 171
32.97058 177
32.9907 172
33.01081 180
33.03092 170
33.05104 186
33.07115 167
33.09127 171
33.11138 154
33.13149 168
33.15161 164
33.17172 157
33.19183 155
33.21195 149
33.23206 169
33.25217 185
33.27229 163
33.2924 170
33.31252 165
33.33263 154
33.35274 185
33.37286 159
33.39297 147
33.41308 155
33.4332 187
33.45331 145
33.47343 162
33.49354 146
33.51365 165
33.53377 175
33.55388 152
33.57399 164
33.59411 151
33.61422 159
33.63434 190
33.65445 157
33.67456 157
33.69468 156
33.71479 141
33.7349 171
33.75502 154
33.77513 174
33.79524 191
33.81536 157
33.83547 143
33.85559 166
33.8757 146
33.89581 148
33.91593 157
33.93604 154
33.95615 186
33.97627 167
33.99638 143
34.0165 159
34.03661 148
34.05672 153
34.07684 157
34.09695 163
34.11706 191
34.13718 182
34.15729 166
34.17741 196
34.19752 179
34.21763 164
34.23775 178
34.25786 190
34.27797 196
34.29809 159
34.3182 182
34.33831 171
34.35843 197
34.37854 180
34.39866 177
34.41877 209
34.43888 166
34.459 174
34.47911 176
34.49922 182
34.51934 201
34.53945 217
34.55957 236
34.57968 206
34.59979 214
34.61991 194
34.64002 200
34.66013 236
34.68025 207
34.70036 212
34.72047 237
34.74059 218
34.7607 205
34.78082 226
34.80093 222
34.82104 228
34.84116 201
34.86127 214
34.88138 227
34.9015 229
34.92161 237
34.94173 238
34.96184 214
34.98195 234
35.00207 201
35.02218 220
35.04229 253
35.06241 206
35.08252 221
35.10264 229
35.12275 207
35.14286 219
35.16298 235
35.18309 220
35.2032 234
35.22332 238
35.24343 201
35.26354 220
35.28366 244
35.30377 223
35.32389 218
35.344 224
35.36411 241
35.38423 238
35.40434 217
35.42445 236
35.44457 241
35.46468 250
35.4848 239
35.50491 236
35.52502 219
35.54514 247
35.56525 200
35.58536 210
35.60548 227
35.62559 235
35.64571 201
35.66582 196
35.68593 243
35.70605 222
35.72616 211
35.74627 222
35.76639 237
35.7865 221
35.80661 211
35.82673 192
35.84684 213
35.86696 208
35.88707 187
35.90718 221
35.9273 247
35.94741 252
35.96752 227
35.98764 222
36.00775 218
36.02787 199
36.04798 236
36.06809 207
36.08821 246
36.10832 264
36.12843 257
36.14855 269
36.16866 298
36.18878 329
36.20889 311
36.229 335
36.24912 372
36.26923 451
36.28934 535
36.30946 575
36.32957 694
36.34968 889
36.3698 1048
36.38991 1313
36.41003 1592
36.43014 1880
36.45025 2195
36.47037 2344
36.49048 2311
36.51059 2167
36.53071 1843
36.55082 1697
36.57094 1324
36.59105 1056
36.61116 923
36.63128 653
36.65139 497
36.6715 391
36.69162 344
36.71173 306
36.73184 282
36.75196 258
36.77207 260
36.79219 249
36.8123 242
36.83241 231
36.85253 251
36.87264 211
36.89275 217
36.91287 218
36.93298 200
36.9531 219
36.97321 206
36.99332 248
37.01344 198
37.03355 181
37.05366 195
37.07378 201
37.09389 226
37.11401 191
37.13412 191
37.15423 205
37.17435 182
37.19446 204
37.21457 181
37.23469 177
37.2548 195
37.27491 210
37.29503 217
37.31514 161
37.33526 197
37.35537 189
37.37548 181
37.3956 197
37.41571 204
37.43582 188
37.45594 178
37.47605 179
37.49617 193
37.51628 199
37.53639 203
37.55651 183
37.57662 192
37.59673 211
37.61685 201
37.63696 193
37.65708 199
37.67719 180
37.6973 187
37.71742 175
37.73753 180
37.75764 208
37.77776 197
37.79787 210
37.81798 214
37.8381 194
37.85821 158
37.87833 189
37.89844 190
37.91855 200
37.93867 164
37.95878 175
37.97889 174
37.99901 212
38.01912 188
38.03924 208
38.05935 199
38.07946 199
38.09958 209
38.11969 203
38.1398 199
38.15992 179
38.18003 197
38.20015 210
38.22026 223
38.24037 208
38.26049 198
38.2806 188
38.30071 223
38.32083 204
38.34094 227
38.36105 184
38.38117 197
38.40128 194
38.4214 218
38.44151 207
38.46162 198
38.48174 178
38.50185 212
38.52196 186
38.54208 204
38.56219 215
38.58231 185
38.60242 207
38.62253 183
38.64265 197
38.66276 193
38.68287 217
38.70299 177
38.7231 203
38.74321 174
38.76333 210
38.78344 208
38.80356 206
38.82367 210
38.84378 207
38.8639 194
38.88401 220
38.90412 200
38.92424 188
38.94435 211
38.96447 213
38.98458 222
39.00469 253
39.02481 267
39.04492 276
39.06503 277
39.08515 272
39.10526 313
39.12538 307
39.14549 322
39.1656 330
39.18572 460
39.20583 478
39.22594 564
39.24606 719
39.26617 752
39.28628 1000
39.3064 1152
39.32651 1479
39.34663 1718
39.36674 1862
39.38685 2064
39.40697 2149
39.42708 1994
39.44719 1754
39.46731 1482
39.48742 1284
39.50754 1098
39.52765 941
39.54776 757
39.56788 557
39.58799 442
39.6081 314
39.62822 273
39.64833 287
39.66845 257
39.68856 248
39.70867 244
39.72879 208
39.7489 226
39.76901 240
39.78913 225
39.80924 237
39.82935 234
39.84947 240
39.86958 254
39.8897 206
39.90981 257
39.92992 236
39.95004 277
39.97015 275
39.99026 289
40.01038 339
40.03049 336
40.05061 399
40.07072 430
40.09083 521
40.11095 648
40.13106 715
40.15117 815
40.17129 993
40.1914 1116
40.21152 1167
40.23163 1133
40.25174 1069
40.27186 948
40.29197 864
40.31208 716
40.3322 669
40.35231 550
40.37242 473
40.39254 364
40.41265 298
40.43277 279
40.45288 237
40.47299 205
40.49311 174
40.51322 194
40.53333 186
40.55345 187
40.57356 191
40.59368 188
40.61379 204
40.6339 193
40.65402 176
40.67413 196
40.69424 206
40.71436 176
40.73447 183
40.75458 166
40.7747 172
40.79481 187
40.81493 179
40.83504 204
40.85515 183
40.87527 182
40.89538 168
40.91549 172
40.93561 181
40.95572 201
40.97584 202
40.99595 187
41.01606 177
41.03618 208
41.05629 182
41.0764 164
41.09652 191
41.11663 179
41.13675 161
41.15686 154
41.17697 191
41.19709 183
41.2172 195
41.23731 157
41.25743 171
41.27754 170
41.29765 186
41.31777 145
41.33788 183
41.358 167
41.37811 180
41.39822 189
41.41834 192
41.43845 156
41.45856 184
41.47868 191
41.49879 179
41.51891 167
41.53902 208
41.55913 192
41.57925 192
41.59936 173
41.61947 198
41.63959 193
41.6597 184
41.67982 224
41.69993 213
41.72004 214
41.74016 215
41.76027 245
41.78038 197
41.8005 182
41.82061 173
41.84072 207
41.86084 177
41.88095 193
41.90107 209
41.92118 209
41.94129 183
41.96141 221
41.98152 191
42.00163 203
42.02175 216
42.04186 225
42.06198 272
42.08209 275
42.1022 239
42.12232 297
42.14243 308
42.16254 321
42.18266 389
42.20277 470
42.22289 540
42.243 638
42.26311 716
42.28323 844
42.30334 1076
42.32345 1192
42.34357 1418
42.36368 1449
42.38379 1547
42.40391 1495
42.42402 1323
42.44414 1157
42.46425 1001
42.48436 840
42.50448 819
42.52459 682
42.5447 522
42.56482 450
42.58493 319
42.60505 298
42.62516 214
42.64527 253
42.66539 221
42.6855 224
42.70561 221
42.72573 200
42.74584 207
42.76595 190
42.78607 185
42.80618 168
42.8263 205
42.84641 201
42.86652 191
42.88664 185
42.90675 185
42.92686 191
42.94698 170
42.96709 164
42.98721 187
43.00732 161
43.02743 192
43.04755 174
43.06766 153
43.08777 163
43.10789 170
43.128 165
43.14812 135
43.16823 156
43.18834 142
43.20846 175
43.22857 177
43.24868 168
43.2688 173
43.28891 152
43.30902 170
43.32914 144
43.34925 158
43.36937 155
43.38948 167
43.40959 157
43.42971 180
43.44982 165
43.46993 148
43.49005 141
43.51016 162
43.53028 174
43.55039 180
43.5705 141
43.59062 160
43.61073 162
43.63084 170
43.65096 157
43.67107 163
43.69119 172
43.7113 163
43.73141 147
43.75153 162
43.77164 175
43.79175 152
43.81187 163
43.83198 138
43.85209 162
43.87221 153
43.89232 181
43.91244 172
43.93255 176
43.95266 167
43.97278 176
43.99289 165
44.013 184
44.03312 164
44.05323 151
44.07335 149
44.09346 146
44.11357 148
44.13369 159
44.1538 153
44.17391 135
44.19403 166
44.21414 164
44.23426 182
44.25437 158
44.27448 176
44.2946 170
44.31471 188
44.33482 155
44.35494 159
44.37505 167
44.39516 156
44.41528 148
44.43539 168
44.45551 151
44.47562 162
44.49573 164
44.51585 149
44.53596 165
44.55607 143
44.57619 155
44.5963 176
44.61642 160
44.63653 175
44.65664 172
44.67676 155
44.69687 147
44.71698 183
44.7371 154
44.75721 162
44.77732 165
44.79744 146
44.81755 198
44.83767 164
44.85778 185
44.87789 147
44.89801 161
44.91812 170
44.93823 155
44.95835 145
44.97846 157
44.99858 178
45.01869 154
45.0388 177
45.05892 151
45.07903 141
45.09914 175
45.11926 171
45.13937 134
45.15949 165
45.1796 146
45.19971 165
45.21983 170
45.23994 180
45.26005 149
45.28017 171
45.30028 194
45.32039 159
45.34051 174
45.36062 221
45.38074 181
45.40085 217
45.42096 231
45.44108 229
45.46119 227
45.4813 271
45.50142 296
45.52153 322
45.54165 350
45.56176 404
45.58187 463
45.60199 531
45.6221 617
45.64221 709
45.66233 832
45.68244 977
45.70256 966
45.72267 1053
45.74278 1061
45.7629 1007
45.78301 823
45.80312 739
45.82324 649
45.84335 550
45.86346 517
45.88358 442
45.90369 395
45.92381 274
45.94392 217
45.96403 222
45.98415 216
46.00426 196
46.02437 192
46.04449 181
46.0646 170
46.08472 181
46.10483 187
46.12494 172
46.14506 157
46.16517 157
46.18528 192
46.2054 167
46.22551 136
46.24563 147
46.26574 153
46.28585 160
46.30597 156
46.32608 168
46.34619 188
46.36631 151
46.38642 165
46.40653 149
46.42665 161
46.44676 155
46.46688 147
46.48699 169
46.5071 147
46.52722 166
46.54733 140
46.56744 151
46.58756 154
46.60767 131
46.62779 161
46.6479 153
46.66801 142
46.68813 139
46.70824 161
46.72835 152
46.74847 147
46.76858 153
46.78869 138
46.80881 143
46.82892 146
46.84904 174
46.86915 165
46.88926 168
46.90938 130
46.92949 162
46.9496 156
46.96972 162
46.98983 165
47.00995 166
47.03006 145
47.05017 179
47.07029 133
47.0904 165
47.11051 150
47.13063 148
47.15074 168
47.17086 137
47.19097 135
47.21108 139
47.2312 144
47.25131 138
47.27142 167
47.29154 124
47.31165 155
47.33176 135
47.35188 166
47.37199 156
47.39211 155
47.41222 151
47.43233 153
47.45245 147
47.47256 126
47.49267 164
47.51279 148
47.5329 160
47.55302 138
47.57313 159
47.59324 162
47.61336 153
47.63347 130
47.65358 149
47.6737 148
47.69381 151
47.71393 151
47.73404 139
47.75415 122
47.77427 153
47.79438 140
47.81449 148
47.83461 147
47.85472 145
47.87483 147
47.89495 152
47.91506 167
47.93518 136
47.95529 137
47.9754 141
47.99552 133
48.01563 154
48.03574 163
48.05586 152
48.07597 161
48.09609 144
48.1162 153
48.13631 147
48.15643 131
48.17654 152
48.19665 141
48.21677 129
48.23688 154
48.257 131
48.27711 140
48.29722 144
48.31734 154
48.33745 169
48.35756 150
48.37768 184
48.39779 155
48.4179 173
48.43802 152
48.45813 150
48.47825 148
48.49836 147
48.51847 150
48.53859 156
48.5587 160
48.57881 165
48.59893 155
48.61904 163
48.63916 169
48.65927 147
48.67938 159
48.6995 167
48.71961 193
48.73972 151
48.75984 156
48.77995 162
48.80006 181
48.82018 194
48.84029 156
48.86041 175
48.88052 163
48.90063 191
48.92075 179
48.94086 165
48.96097 153
48.98109 174
49.0012 170
49.02132 185
49.04143 153
49.06154 161
49.08166 163
49.10177 153
49.12188 166
49.142 179
49.16211 179
49.18223 177
49.20234 177
49.22245 177
49.24257 154
49.26268 157
49.28279 192
49.30291 157
49.32302 181
49.34313 175
49.36325 183
49.38336 193
49.40348 198
49.42359 178
49.4437 177
49.46382 175
49.48393 192
49.50404 216
49.52416 217
49.54427 203
49.56439 224
49.5845 217
49.60461 220
49.62473 245
49.64484 284
49.66495 283
49.68507 284
49.70518 294
49.7253 284
49.74541 365
49.76552 417
49.78564 481
49.80575 485
49.82586 563
49.84598 700
49.86609 740
49.8862 923
49.90632 1083
49.92643 1282
49.94655 1566
49.96666 1913
49.98677 2288
50.00689 2682
50.027 2954
50.04711 3150
50.06723 3395
50.08734 3269
50.10746 3011
50.12757 2567
50.14768 2198
50.1678 1887
50.18791 1832
50.20802 1686
50.22814 1505
50.24825 1202
50.26837 914
50.28848 605
50.30859 497
50.32871 371
50.34882 365
50.36893 330
50.38905 307
50.40916 269
50.42927 291
50.44939 290
50.4695 316
50.48962 258
50.50973 276
50.52984 291
50.54996 249
50.57007 291
50.59018 269
50.6103 254
50.63041 213
50.65053 219
50.67064 220
50.69075 219
50.71087 213
50.73098 216
50.75109 193
50.77121 190
50.79132 180
50.81143 202
50.83155 181
50.85166 179
50.87178 202
50.89189 192
50.912 160
50.93212 169
50.95223 172
50.97234 150
50.99246 163
51.01257 170
51.03269 149
51.0528 150
51.07291 149
51.09303 138
51.11314 151
51.13325 138
51.15337 149
51.17348 173
51.1936 119
51.21371 144
51.23382 157
51.25394 172
51.27405 151
51.29416 124
51.31428 166
51.33439 149
51.3545 149
51.37462 167
51.39473 141
51.41485 122
51.43496 143
51.45507 146
51.47519 139
51.4953 140
51.51541 162
51.53553 147
51.55564 155
51.57576 128
51.59587 145
51.61598 126
51.6361 161
51.65621 154
51.67632 137
51.69644 154
51.71655 133
51.73667 134
51.75678 142
51.77689 135
51.79701 113
51.81712 133
51.83723 149
51.85735 135
51.87746 141
51.89757 136
51.91769 151
51.9378 157
51.95792 141
51.97803 144
51.99814 136
52.01826 151
52.03837 123
52.05848 122
52.0786 136
52.09871 118
52.11883 148
52.13894 144
52.15905 165
52.17917 135
52.19928 150
52.21939 139
52.23951 143
52.25962 140
52.27974 135
52.29985 164
52.31996 141
52.34008 124
52.36019 148
52.3803 134
52.40042 136
52.42053 130
52.44064 135
52.46076 131
52.48087 138
52.50099 135
52.5211 141
52.54121 135
52.56133 125
52.58144 135
52.60155 144
52.62167 144
52.64178 143
52.6619 136
52.68201 152
52.70212 152
52.72224 148
52.74235 149
52.76246 124
52.78258 148
52.80269 129
52.8228 142
52.84292 153
52.86303 126
52.88315 141
52.90326 158
52.92337 140
52.94349 125
52.9636 150
52.98371 146
53.00383 144
53.02394 163
53.04406 165
53.06417 141
53.08428 140
53.1044 139
53.12451 150
53.14462 141
53.16474 158
53.18485 172
53.20497 130
53.22508 157
53.24519 154
53.26531 149
53.28542 142
53.30553 146
53.32565 171
53.34576 166
53.36587 156
53.38599 163
53.4061 162
53.42622 154
53.44633 169
53.46644 135
53.48656 177
53.50667 151
53.52678 166
53.5469 178
53.56701 152
53.58713 170
53.60724 151
53.62735 173
53.64747 171
53.66758 190
53.68769 138
53.70781 161
53.72792 157
53.74804 149
53.76815 176
53.78826 162
53.80838 158
53.82849 151
53.8486 139
53.86872 146
53.88883 156
53.90894 171
53.92906 186
53.94917 178
53.96929 169
53.9894 157
54.00951 172
54.02963 161
54.04974 179
54.06985 146
54.08997 175
54.11008 177
54.1302 168
54.15031 165
54.17042 166
54.19054 163
54.21065 197
54.23076 167
54.25088 191
54.27099 188
54.29111 187
54.31122 193
54.33133 182
54.35145 166
54.37156 194
54.39167 190
54.41179 232
54.4319 184
54.45201 216
54.47213 207
54.49224 236
54.51236 258
54.53247 276
54.55258 276
54.5727 317
54.59281 369
54.61292 365
54.63304 452
54.65315 455
54.67327 626
54.69338 678
54.71349 753
54.73361 895
54.75372 976
54.77383 1066
54.79395 1178
54.81406 1112
54.83417 1133
54.85429 962
54.8744 824
54.89452 712
54.91463 653
54.93474 664
54.95486 652
54.97497 595
54.99508 548
55.0152 435
55.03531 370
55.05543 322
55.07554 307
55.09565 356
55.11577 366
55.13588 414
55.15599 424
55.17611 439
55.19622 557
55.21634 537
55.23645 569
55.25656 538
55.27668 536
55.29679 481
55.3169 487
55.33702 443
55.35713 405
55.37724 378
55.39736 315
55.41747 311
55.43759 312
55.4577 283
55.47781 240
55.49793 254
55.51804 220
55.53815 227
55.55827 219
55.57838 193
55.5985 176
55.61861 192
55.63872 173
55.65884 172
55.67895 155
55.69906 166
55.71918 158
55.73929 151
55.75941 173
55.77952 147
55.79963 149
55.81975 166
55.83986 144
55.85997 146
55.88009 170
55.9002 122
55.92031 179
55.94043 154
55.96054 144
55.98066 163
56.00077 138
56.02088 158
56.041 141
56.06111 150
56.08122 151
56.10134 139
56.12145 162
56.14157 165
56.16168 148
56.18179 171
56.20191 136
56.22202 139
56.24213 142
56.26225 156
56.28236 132
56.30248 133
56.32259 149
56.3427 147
56.36282 159
56.38293 131
56.40304 122
56.42316 156
56.44327 152
56.46338 148
56.4835 141
56.50361 160
56.52373 148
56.54384 160
56.56395 137
56.58407 163
56.60418 137
56.62429 184
56.64441 149
56.66452 123
56.68464 141
56.70475 140
56.72486 143
56.74498 151
56.76509 128
56.7852 168
56.80532 124
56.82543 148
56.84554 172
56.86566 132
56.88577 152
56.90589 145
56.926 144
56.94611 151
56.96623 156
56.98634 156
57.00645 164
57.02657 144
57.04668 187
57.0668 167
57.08691 169
57.10702 184
57.12714 211
57.14725 186
57.16736 195
57.18748 170
57.20759 177
57.22771 184
57.24782 175
57.26793 200
57.28805 162
57.30816 164
57.32827 176
57.34839 171
57.3685 179
57.38861 143
57.40873 133
57.42884 145
57.44896 150
57.46907 143
57.48918 135
57.5093 136
57.52941 133
57.54952 140
57.56964 139
57.58975 140
57.60987 133
57.62998 138
57.65009 165
57.67021 144
57.69032 133
57.71043 157
57.73055 159
57.75066 126
57.77078 149
57.79089 139
57.811 136
57.83112 159
57.85123 145
57.87134 136
57.89146 131
57.91157 122
57.93168 150
57.9518 158
57.97191 149
57.99203 151
58.01214 128
58.03225 161
58.05237 150
58.07248 156
58.09259 135
58.11271 156
58.13282 151
58.15294 127
58.17305 155
58.19316 156
58.21328 143
58.23339 140
58.2535 147
58.27362 146
58.29373 149
58.31385 163
58.33396 156
58.35407 159
58.37419 162
58.3943 147
58.41441 128
58.43453 150
58.45464 125
58.47475 148
58.49487 145
58.51498 132
58.5351 146
58.55521 162
58.57532 137
58.59544 156
58.61555 172
58.63566 155
58.65578 141
58.67589 148
58.69601 156
58.71612 142
58.73623 162
58.75635 146
58.77646 141
58.79657 125
58.81669 165
58.8368 159
58.85691 165
58.87703 133
58.89714 142
58.91726 135
58.93737 154
58.95748 157
58.9776 152
58.99771 149
59.01782 144
59.03794 163
59.05805 157
59.07817 131
59.09828 134
59.11839 140
59.13851 152
59.15862 155
59.17873 167
59.19885 160
59.21896 176
59.23908 164
59.25919 149
59.2793 146
59.29942 165
59.31953 176
59.33964 188
59.35976 188
59.37987 178
59.39998 211
59.4201 200
59.44021 212
59.46033 219
59.48044 248
59.50055 243
59.52067 258
59.54078 307
59.56089 329
59.58101 340
59.60112 384
59.62124 448
59.64135 478
59.66146 541
59.68158 606
59.70169 734
59.7218 865
59.74192 1056
59.76203 1255
59.78215 1308
59.80226 1628
59.82237 1829
59.84249 1965
59.8626 2109
59.88271 2098
59.90283 2027
59.92294 1861
59.94305 1540
59.96317 1307
59.98328 1234
60.0034 1140
60.02351 1127
60.04362 1102
60.06374 1046
60.08385 957
60.10396 700
60.12408 566
60.14419 371
60.16431 322
60.18442 253
60.20453 253
60.22465 240
60.24476 220
60.26487 188
60.28499 193
60.3051 193
60.32522 214
60.34533 203
60.36544 176
60.38556 180
60.40567 170
60.42578 180
60.4459 179
60.46601 145
60.48612 142
60.50624 155
60.52635 164
60.54647 171
60.56658 159
60.58669 160
60.60681 148
60.62692 179
60.64703 142
60.66715 182
60.68726 146
60.70738 152
60.72749 148
60.7476 157
60.76772 145
60.78783 139
60.80794 191
60.82806 139
60.84817 149
60.86828 171
60.8884 160
60.90851 165
60.92863 157
60.94874 172
60.96885 144
60.98897 156
61.00908 140
61.02919 164
61.04931 173
61.06942 181
61.08954 155
61.10965 140
61.12976 155
61.14988 154
61.16999 141
61.1901 155
61.21022 150
61.23033 151
61.25045 154
61.27056 143
61.29067 140
61.31079 167
61.3309 167
61.35101 154
61.37113 158
61.39124 159
61.41135 146
61.43147 152
61.45158 156
61.4717 177
61.49181 150
61.51192 166
61.53204 182
61.55215 158
61.57226 146
61.59238 156
61.61249 148
61.63261 160
61.65272 149
61.67283 155
61.69295 161
61.71306 146
61.73317 142
61.75329 175
61.7734 150
61.79352 191
61.81363 151
61.83374 168
61.85386 163
61.87397 137
61.89408 175
61.9142 173
61.93431 165
61.95442 175
61.97454 156
61.99465 164
62.01477 143
62.03488 164
62.05499 154
62.07511 164
62.09522 175
62.11533 173
62.13545 173
62.15556 175
62.17568 185
62.19579 175
62.2159 171
62.23602 176
62.25613 167
62.27624 162
62.29636 161
62.31647 165
62.33659 155
62.3567 167
62.37681 163
62.39693 146
62.41704 166
62.43715 159
62.45727 158
62.47738 137
62.49749 139
62.51761 159
62.53772 162
62.55784 147
62.57795 148
62.59806 124
62.61818 164
62.63829 160
62.6584 139
62.67852 142
62.69863 166
62.71875 137
62.73886 138
62.75897 142
62.77909 135
62.7992 138
62.81931 134
62.83943 147
62.85954 137
62.87965 149
62.89977 143
62.91988 148
62.94 147
62.96011 144
62.98022 140
63.00034 145
63.02045 138
63.04056 133
63.06068 151
63.08079 153
63.10091 119
63.12102 137
63.14113 187
63.16125 140
63.18136 132
63.20147 148
63.22159 160
63.2417 158
63.26182 140
63.28193 129
63.30204 128
63.32216 155
63.34227 131
63.36238 154
63.3825 150
63.40261 158
63.42272 164
63.44284 131
63.46295 166
63.48307 144
63.50318 151
63.52329 165
63.54341 157
63.56352 129
63.58363 178
63.60375 163
63.62386 164
63.64398 181
63.66409 162
63.6842 172
63.70432 217
63.72443 194
63.74454 210
63.76466 226
63.78477 249
63.80489 295
63.825 312
63.84511 371
63.86523 393
63.88534 447
63.90545 444
63.92557 495
63.94568 524
63.96579 517
63.98591 476
64.00602 454
64.02614 356
64.04625 357
64.06636 320
64.08648 324
64.10659 324
64.1267 325
64.14682 289
64.16693 293
64.18705 271
64.20716 232
64.22727 180
64.24739 149
64.2675 188
64.28761 162
64.30773 180
64.32784 159
64.34796 157
64.36807 128
64.38818 175
64.4083 167
64.42841 133
64.44852 168
64.46864 136
64.48875 149
64.50886 136
64.52898 137
64.54909 130
64.56921 150
64.58932 131
64.60943 141
64.62955 133
64.64966 148
64.66977 124
64.68989 122
64.71 142
64.73012 129
64.75023 155
64.77034 127
64.79046 124
64.81057 136
64.83068 137
64.8508 139
64.87091 134
64.89102 128
64.91114 152
64.93125 138
64.95137 134
64.97148 140
64.99159 137
65.01171 126
65.03182 131
65.05193 148
65.07205 150
65.09216 151
65.11228 128
65.13239 143
65.1525 144
65.17262 155
65.19273 149
65.21284 130
65.23296 159
65.25307 142
65.27319 155
65.2933 151
65.31341 137
65.33353 145
65.35364 149
65.37375 156
65.39387 152
65.41398 165
65.43409 156
65.45421 165
65.47432 184
65.49444 170
65.51455 161
65.53466 187
65.55478 206
65.57489 199
65.595 197
65.61512 198
65.63523 217
65.65535 231
65.67546 216
65.69557 258
65.71569 224
65.7358 233
65.75591 224
65.77603 204
65.79614 189
65.81626 187
65.83637 194
65.85648 181
65.8766 175
65.89671 179
65.91682 169
65.93694 171
65.95705 156
65.97716 172
65.99728 150
66.01739 158
66.03751 135
66.05762 133
66.07773 153
66.09785 158
66.11796 149
66.13807 138
66.15819 175
66.1783 145
66.19842 152
66.21853 175
66.23864 150
66.25876 165
66.27887 149
66.29898 134
66.3191 147
66.33921 168
66.35933 173
66.37944 157
66.39955 156
66.41967 134
66.43978 153
66.45989 165
66.48001 137
66.50012 151
66.52023 148
66.54035 163
66.56046 150
66.58058 147
66.60069 148
66.6208 147
66.64092 164
66.66103 152
66.68114 147
66.70126 146
66.72137 151
66.74149 154
66.7616 151
66.78171 156
66.80183 137
66.82194 150
66.84205 163
66.86217 154
66.88228 172
66.90239 175
66.92251 175
66.94262 172
66.96274 174
66.98285 147
67.00296 175
67.02308 175
67.04319 203
67.0633 156
67.08342 195
67.10353 190
67.12365 178
67.14376 180
67.16387 185
67.18399 189
67.2041 187
67.22421 231
67.24433 248
67.26444 208
67.28456 244
67.30467 238
67.32478 247
67.3449 281
67.36501 291
67.38512 336
67.40524 303
67.42535 383
67.44546 436
67.46558 456
67.48569 530
67.50581 622
67.52592 689
67.54603 805
67.56615 895
67.58626 1066
67.60637 1214
67.62649 1293
67.6466 1367
67.66672 1422
67.68683 1288
67.70694 1237
67.72706 1120
67.74717 1015
67.76728 896
67.7874 980
67.80751 934
67.82763 1023
67.84774 1068
67.86785 1046
67.88797 1096
67.90808 1148
67.92819 1064
67.94831 1215
67.96842 1303
67.98853 1428
68.00865 1506
68.02876 1766
68.04888 1709
68.06899 1859
68.0891 1865
68.10922 1752
68.12933 1656
68.14944 1597
68.16956 1554
68.18967 1560
68.20979 1634
68.2299 1746
68.25001 1522
68.27013 1586
68.29024 1339
68.31035 1105
68.33047 965
68.35058 811
68.3707 699
68.39081 654
68.41092 655
68.43104 597
68.45115 551
68.47126 543
68.49138 418
68.51149 342
68.5316 290
68.55172 263
68.57183 247
68.59195 254
68.61206 212
68.63217 228
68.65229 182
68.6724 161
68.69251 188
68.71263 174
68.73274 183
68.75286 188
68.77297 196
68.79308 171
68.8132 152
68.83331 166
68.85342 154
68.87354 164
68.89365 164
68.91376 159
68.93388 161
68.95399 159
68.97411 164
68.99422 150
69.01433 153
69.03445 156
69.05456 168
69.07467 154
69.09479 159
69.1149 153
69.13502 142
69.15513 149
69.17524 146
69.19536 164
69.21547 143
69.23558 148
69.2557 153
69.27581 121
69.29593 135
69.31604 160
69.33615 153
69.35627 152
69.37638 147
69.39649 146
69.41661 148
69.43672 135
69.45683 136
69.47695 142
69.49706 148
69.51718 131
69.53729 151
69.5574 136
69.57752 129
69.59763 136
69.61774 112
69.63786 137
69.65797 130
69.67809 111
69.6982 136
69.71831 137
69.73843 134
69.75854 156
69.77865 132
69.79877 138
69.81888 151
69.839 121
69.85911 157
69.87922 121
69.89934 141
69.91945 151
69.93956 133
69.95968 147
69.97979 138
69.9999 146
70.02002 140
70.04013 151
70.06025 154
70.08036 128
70.10047 154
70.12059 129
70.1407 121
70.16081 124
70.18093 146
70.20104 150
70.22116 130
70.24127 143
70.26138 149
70.2815 127
70.30161 139
70.32172 138
70.34184 123
70.36195 152
70.38207 122
70.40218 135
70.42229 137
70.44241 160
70.46252 130
70.48263 128
70.50275 125
70.52286 116
70.54297 133
70.56309 131
70.5832 120
70.60332 142
70.62343 147
70.64354 152
70.66366 126
70.68377 137
70.70388 108
70.724 131
70.74411 144
70.76423 131
70.78434 139
70.80445 138
70.82457 121
70.84468 126
70.86479 120
70.88491 131
70.90502 128
70.92513 142
70.94525 143
70.96536 134
70.98548 122
71.00559 118
71.0257 133
71.04582 141
71.06593 126
71.08604 123
71.10616 132
71.12627 120
71.14639 127
71.1665 134
71.18661 138
71.20673 130
71.22684 119
71.24695 126
71.26707 125
71.28718 134
71.3073 116
71.32741 116
71.34752 127
71.36764 117
71.38775 120
71.40786 144
71.42798 119
71.44809 126
71.4682 137
71.48832 141
71.50843 127
71.52855 153
71.54866 130
71.56877 137
71.58889 157
71.609 123
71.62911 159
71.64923 139
71.66934 126
71.68946 128
71.70957 137
71.72968 152
71.7498 121
71.76991 155
71.79002 129
71.81014 125
71.83025 140
71.85037 136
71.87048 142
71.89059 135
71.91071 130
71.93082 124
71.95093 127
71.97105 123
71.99116 118
72.01127 128
72.03139 121
72.0515 146
72.07162 139
72.09173 146
72.11184 126
72.13196 132
72.15207 136
72.17218 129
72.1923 135
72.21241 133
72.23253 135
72.25264 139
72.27275 123
72.29287 140
72.31298 147
72.33309 141
72.35321 129
72.37332 148
72.39344 137
72.41355 125
72.43366 128
72.45378 141
72.47389 125
72.494 124
72.51412 122
72.53423 137
72.55434 148
72.57446 138
72.59457 147
72.61469 124
72.6348 137
72.65491 139
72.67503 118
72.69514 131
72.71525 134
72.73537 130
72.75548 127
72.7756 164
72.79571 121
72.81582 151
72.83594 135
72.85605 148
72.87616 144
72.89628 156
72.91639 161
72.9365 144
72.95662 168
72.97673 161
72.99685 184
73.01696 174
73.03707 172
73.05719 173
73.0773 163
73.09741 192
73.11753 192
73.13764 224
73.15776 214
73.17787 228
73.19798 254
73.2181 281
73.23821 320
73.25832 345
73.27844 383
73.29855 408
73.31867 464
73.33878 498
73.35889 534
73.37901 520
73.39912 515
73.41923 521
73.43935 463
73.45946 394
73.47957 396
73.49969 354
73.5198 310
73.53992 346
73.56003 352
73.58014 321
73.60026 328
73.62037 323
73.64048 319
73.6606 252
73.68071 236
73.70083 214
73.72094 181
73.74105 179
73.76117 159
73.78128 164
73.80139 145
73.82151 156
73.84162 147
73.86174 157
73.88185 161
73.90196 157
73.92208 138
73.94219 131
73.9623 147
73.98242 133
74.00253 145
74.02264 145
74.04276 141
74.06287 153
74.08299 152
74.1031 127
74.12321 131
74.14333 134
74.16344 144
74.18355 134
74.20367 147
74.22378 158
74.2439 136
74.26401 148
74.28412 166
74.30424 158
74.32435 130
74.34446 138
74.36458 117
74.38469 127
74.40481 124
74.42492 147
74.44503 128
74.46515 123
74.48526 150
74.50537 110
74.52549 145
74.5456 137
74.56571 142
74.58583 120
74.60594 149
74.62606 135
74.64617 143
74.66628 133
74.6864 140
74.70651 167
74.72662 113
74.74674 130
74.76685 139
74.78697 143
74.80708 122
74.82719 156
74.84731 140
74.86742 151
74.88753 131
74.90765 144
74.92776 129
74.94787 142
74.96799 136
74.9881 151
75.00822 132
