3.00117 20472
3.02128 20078
3.0414 19551
3.06151 18883
3.08162 18610
3.10174 17994
3.12185 17331
3.14197 17058
3.16208 16548
3.18219 16265
3.20231 15490
3.22242 15055
3.24253 14850
3.26265 14280
3.28276 14029
3.30288 13290
3.32299 13057
3.3431 12864
3.36322 12261
3.38333 11995
3.40344 11561
3.42356 11240
3.44367 10648
3.46379 10176
3.4839 9966
3.50401 9744
3.52413 9129
3.54424 9109
3.56435 8670
3.58447 8588
3.60458 8011
3.62469 7853
3.64481 7604
3.66492 7208
3.68504 7076
3.70515 6624
3.72526 6485
3.74538 6166
3.76549 6045
3.7856 5911
3.80572 5686
3.82583 5301
3.84595 5180
3.86606 4920
3.88617 4802
3.90629 4505
3.9264 4503
3.94651 4292
3.96663 4199
3.98674 4217
4.00686 3618
4.02697 3601
4.04708 3544
4.0672 3264
4.08731 3223
4.10742 2898
4.12754 2918
4.14765 2987
4.16776 2802
4.18788 2745
4.20799 2624
4.22811 2594
4.24822 2525
4.26833 2478
4.28845 2418
4.30856 2361
4.32867 2310
4.34879 2266
4.3689 2148
4.38902 2089
4.40913 2068
4.42924 2024
4.44936 2008
4.46947 1916
4.48958 2005
4.5097 1904
4.52981 1900
4.54992 1846
4.57004 1875
4.59015 1870
4.61027 1748
4.63038 1794
4.65049 1842
4.67061 1736
4.69072 1826
4.71083 1704
4.73095 1674
4.75106 1712
4.77118 1633
4.79129 1673
4.8114 1549
4.83152 1677
4.85163 1723
4.87174 1643
4.89186 1608
4.91197 1689
4.93209 1669
4.9522 1662
4.97231 1656
4.99243 1741
5.01254 1649
5.03265 1533
5.05277 1734
5.07288 1761
5.09299 1560
5.11311 1682
5.13322 1734
5.15334 1689
5.17345 1753
5.19356 1662
5.21368 1696
5.23379 1665
5.2539 1800
5.27402 1736
5.29413 1802
5.31425 1767
5.33436 1867
5.35447 1792
5.37459 1912
5.3947 1988
5.41481 1996
5.43493 1916
5.45504 1960
5.47516 1968
5.49527 1969
5.51538 2056
5.5355 1962
5.55561 2067
5.57572 2078
5.59584 2117
5.61595 2185
5.63606 2151
5.65618 2093
5.67629 2163
5.69641 2087
5.71652 2163
5.73663 2236
5.75675 2226
5.77686 2253
5.79697 2119
5.81709 2192
5.8372 2102
5.85732 2138
5.87743 2070
5.89754 2121
5.91766 1987
5.93777 2065
5.95788 2011
5.978 1932
5.99811 1965
6.01823 1869
6.03834 1848
6.05845 1797
6.07857 1747
6.09868 1721
6.11879 1733
6.13891 1693
6.15902 1618
6.17913 1547
6.19925 1608
6.21936 1544
6.23948 1463
6.25959 1399
6.2797 1397
6.29982 1390
6.31993 1347
6.34004 1323
6.36016 1357
6.38027 1230
6.40039 1156
6.4205 1196
6.44061 1195
6.46073 1216
6.48084 1078
6.50095 1136
6.52107 1055
6.54118 1039
6.56129 1015
6.58141 997
6.60152 998
6.62164 952
6.64175 948
6.66186 961
6.68198 932
6.70209 904
6.7222 937
6.74232 865
6.76243 856
6.78255 869
6.80266 824
6.82277 830
6.84289 775
6.863 830
6.88311 767
6.90323 777
6.92334 766
6.94346 775
6.96357 757
6.98368 708
7.0038 701
7.02391 718
7.04402 644
7.06414 708
7.08425 741
7.10436 654
7.12448 656
7.14459 683
7.16471 689
7.18482 656
7.20493 605
7.22505 615
7.24516 639
7.26527 598
7.28539 646
7.3055 619
7.32562 600
7.34573 592
7.36584 621
7.38596 567
7.40607 603
7.42618 560
7.4463 539
7.46641 525
7.48653 553
7.50664 571
7.52675 537
7.54687 542
7.56698 506
7.58709 559
7.60721 510
7.62732 543
7.64743 567
7.66755 534
7.68766 531
7.70778 510
7.72789 552
7.748 574
7.76812 498
7.78823 518
7.80834 515
7.82846 488
7.84857 521
7.86869 526
7.8888 521
7.90891 541
7.92903 480
7.94914 482
7.96925 485
7.98937 521
8.00948 458
8.0296 508
8.04971 467
8.06982 464
8.08994 473
8.11005 463
8.13016 442
8.15028 500
8.17039 467
8.1905 480
8.21062 479
8.23073 478
8.25085 410
8.27096 431
8.29107 452
8.31119 444
8.3313 414
8.35141 440
8.37153 476
8.39164 459
8.41176 462
8.43187 474
8.45198 422
8.4721 445
8.49221 482
8.51232 468
8.53244 441
8.55255 448
8.57266 458
8.59278 401
8.61289 467
8.63301 428
8.65312 420
8.67323 453
8.69335 435
8.71346 455
8.73357 427
8.75369 437
8.7738 441
8.79392 429
8.81403 492
8.83414 457
8.85426 463
8.87437 463
8.89448 446
8.9146 465
8.93471 451
8.95483 411
8.97494 442
8.99505 418
9.01517 424
9.03528 421
9.05539 431
9.07551 416
9.09562 435
9.11573 405
9.13585 424
9.15596 417
9.17608 425
9.19619 389
9.2163 440
9.23642 419
9.25653 420
9.27664 391
9.29676 393
9.31687 407
9.33699 395
9.3571 379
9.37721 405
9.39733 435
9.41744 415
9.43755 420
9.45767 407
9.47778 434
9.4979 423
9.51801 389
9.53812 451
9.55824 387
9.57835 441
9.59846 413
9.61858 411
9.63869 430
9.6588 420
9.67892 422
9.69903 437
9.71915 430
9.73926 448
9.75937 419
9.77949 460
9.7996 470
9.81971 481
9.83983 499
9.85994 487
9.88006 479
9.90017 482
9.92028 519
9.9404 435
9.96051 420
9.98062 416
10.00074 408
10.02085 405
10.04097 431
10.06108 399
10.08119 396
10.10131 399
10.12142 395
10.14153 422
10.16165 390
10.18176 354
10.20187 378
10.22199 394
10.2421 433
10.26222 380
10.28233 394
10.30244 421
10.32256 393
10.34267 408
10.36278 386
10.3829 430
10.40301 413
10.42313 399
10.44324 403
10.46335 424
10.48347 382
10.50358 428
10.52369 407
10.54381 427
10.56392 410
10.58403 423
10.60415 411
10.62426 355
10.64438 431
10.66449 407
10.6846 403
10.70472 426
10.72483 406
10.74494 421
10.76506 357
10.78517 429
10.80529 432
10.8254 409
10.84551 430
10.86563 390
10.88574 399
10.90585 374
10.92597 360
10.94608 432
10.9662 393
10.98631 397
11.00642 380
11.02654 405
11.04665 428
11.06676 397
11.08688 386
11.10699 395
11.1271 440
11.14722 404
11.16733 452
11.18745 377
11.20756 397
11.22767 390
11.24779 372
11.2679 379
11.28801 384
11.30813 379
11.32824 422
11.34836 384
11.36847 404
11.38858 374
11.4087 423
11.42881 368
11.44892 384
11.46904 426
11.48915 370
11.50927 367
11.52938 408
11.54949 397
11.56961 380
11.58972 409
11.60983 418
11.62995 389
11.65006 395
11.67017 392
11.69029 370
11.7104 357
11.73052 408
11.75063 435
11.77074 401
11.79086 405
11.81097 415
11.83108 399
11.8512 361
11.87131 353
11.89143 413
11.91154 381
11.93165 383
11.95177 409
11.97188 401
11.99199 366
12.01211 414
12.03222 402
12.05234 397
12.07245 403
12.09256 371
12.11268 397
12.13279 389
12.1529 374
12.17302 385
12.19313 389
12.21324 418
12.23336 367
12.25347 382
12.27359 369
12.2937 387
12.31381 403
12.33393 368
12.35404 361
12.37415 381
12.39427 383
12.41438 340
12.4345 378
12.45461 397
12.47472 390
12.49484 365
12.51495 347
12.53506 395
12.55518 368
12.57529 370
12.5954 342
12.61552 336
12.63563 366
12.65575 368
12.67586 359
12.69597 364
12.71609 339
12.7362 385
12.75631 383
12.77643 368
12.79654 387
12.81666 374
12.83677 385
12.85688 381
12.877 384
12.89711 369
12.91722 357
12.93734 366
12.95745 374
12.97757 413
12.99768 402
13.01779 417
13.03791 397
13.05802 374
13.07813 398
13.09825 379
13.11836 378
13.13847 396
13.15859 415
13.1787 418
13.19882 422
13.21893 380
13.23904 411
13.25916 365
13.27927 393
13.29938 389
13.3195 375
13.33961 426
13.35973 400
13.37984 404
13.39995 404
13.42007 386
13.44018 391
13.46029 426
13.48041 452
13.50052 428
13.52064 413
13.54075 446
13.56086 495
13.58098 479
13.60109 512
13.6212 493
13.64132 542
13.66143 532
13.68154 482
13.70166 503
13.72177 497
13.74189 482
13.762 454
13.78211 440
13.80223 451
13.82234 427
13.84245 386
13.86257 409
13.88268 430
13.9028 399
13.92291 411
13.94302 391
13.96314 395
13.98325 374
14.00336 397
14.02348 387
14.04359 343
14.06371 374
14.08382 393
14.10393 334
14.12405 350
14.14416 388
14.16427 384
14.18439 360
14.2045 386
14.22461 366
14.24473 355
14.26484 431
14.28496 368
14.30507 387
14.32518 382
14.3453 368
14.36541 379
14.38552 437
14.40564 353
14.42575 396
14.44587 359
14.46598 371
14.48609 390
14.50621 370
14.52632 343
14.54643 369
14.56655 373
14.58666 402
14.60677 424
14.62689 385
14.647 395
14.66712 357
14.68723 416
14.70734 387
14.72746 376
14.74757 399
14.76768 383
14.7878 368
14.80791 387
14.82803 341
14.84814 394
14.86825 422
14.88837 391
14.90848 372
14.92859 371
14.94871 369
14.96882 388
14.98894 369
15.00905 383
15.02916 414
15.04928 398
15.06939 386
15.0895 390
15.10962 381
15.12973 427
15.14984 450
15.16996 437
15.19007 442
15.21019 433
15.2303 407
15.25041 412
15.27053 390
15.29064 389
15.31075 380
15.33087 396
15.35098 430
15.3711 387
15.39121 375
15.41132 379
15.43144 418
15.45155 373
15.47166 388
15.49178 345
15.51189 399
15.53201 376
15.55212 385
15.57223 410
15.59235 386
15.61246 413
15.63257 399
15.65269 380
15.6728 391
15.69291 360
15.71303 433
15.73314 386
15.75326 393
15.77337 405
15.79348 386
15.8136 413
15.83371 414
15.85382 365
15.87394 374
15.89405 382
15.91417 421
15.93428 384
15.95439 411
15.97451 368
15.99462 382
16.01473 404
16.03485 373
16.05496 363
16.07508 392
16.09519 374
16.1153 374
16.13542 348
16.15553 373
16.17564 416
16.19576 377
16.21587 386
16.23598 360
16.2561 381
16.27621 378
16.29633 371
16.31644 355
16.33655 399
16.35667 401
16.37678 361
16.39689 376
16.41701 341
16.43712 401
16.45724 366
16.47735 371
16.49746 352
16.51758 394
16.53769 392
16.5578 377
16.57792 357
16.59803 428
16.61814 388
16.63826 421
16.65837 396
16.67849 408
16.6986 364
16.71871 405
16.73883 377
16.75894 399
16.77905 355
16.79917 416
16.81928 418
16.8394 411
16.85951 398
16.87962 443
16.89974 429
16.91985 427
16.93996 386
16.96008 370
16.98019 388
17.00031 383
17.02042 411
17.04053 432
17.06065 404
17.08076 387
17.10087 387
17.12099 395
17.1411 426
17.16121 410
17.18133 427
17.20144 379
17.22156 385
17.24167 421
17.26178 438
17.2819 415
17.30201 457
17.32212 436
17.34224 413
17.36235 398
17.38247 401
17.40258 442
17.42269 428
17.44281 390
17.46292 430
17.48303 394
17.50315 421
17.52326 394
17.54338 447
17.56349 408
17.5836 440
17.60372 394
17.62383 476
17.64394 432
17.66406 378
17.68417 441
17.70428 402
17.7244 389
17.74451 392
17.76463 422
17.78474 403
17.80485 417
17.82497 400
17.84508 364
17.86519 438
17.88531 429
17.90542 384
17.92554 406
17.94565 416
17.96576 393
17.98588 411
18.00599 421
18.0261 367
18.04622 382
18.06633 415
18.08645 416
18.10656 430
18.12667 435
18.14679 408
18.1669 379
18.18701 423
18.20713 422
18.22724 412
18.24735 384
18.26747 425
18.28758 401
18.3077 436
18.32781 412
18.34792 419
18.36804 401
18.38815 401
18.40826 430
18.42838 414
18.44849 387
18.46861 435
18.48872 422
18.50883 399
18.52895 416
18.54906 391
18.56917 401
18.58929 421
18.6094 434
18.62951 362
18.64963 457
18.66974 401
18.68986 422
18.70997 375
18.73008 406
18.7502 456
18.77031 411
18.79042 430
18.81054 420
18.83065 460
18.85077 457
18.87088 436
18.89099 478
18.91111 430
18.93122 453
18.95133 468
18.97145 456
18.99156 475
19.01168 428
19.03179 457
19.0519 418
19.07202 501
19.09213 476
19.11224 431
19.13236 424
19.15247 469
19.17258 448
19.1927 424
19.21281 472
19.23293 501
19.25304 487
19.27315 474
19.29327 477
19.31338 506
19.33349 522
19.35361 495
19.37372 509
19.39384 539
19.41395 576
19.43406 590
19.45418 600
19.47429 579
19.4944 629
19.51452 682
19.53463 656
19.55475 648
19.57486 710
19.59497 734
19.61509 713
19.6352 777
19.65531 787
19.67543 767
19.69554 758
19.71565 809
19.73577 812
19.75588 853
19.776 796
19.79611 816
19.81622 808
19.83634 829
19.85645 733
19.87656 752
19.89668 752
19.91679 761
19.93691 691
19.95702 679
19.97713 690
19.99725 702
20.01736 736
20.03747 664
20.05759 701
20.0777 707
20.09782 658
20.11793 675
20.13804 662
20.15816 700
20.17827 685
20.19838 690
20.2185 625
20.23861 655
20.25872 641
20.27884 650
20.29895 662
20.31907 635
20.33918 613
20.35929 686
20.37941 606
20.39952 603
20.41963 595
20.43975 617
20.45986 547
20.47998 638
20.50009 603
20.5202 645
20.54032 638
20.56043 545
20.58054 583
20.60066 620
20.62077 600
20.64088 614
20.661 605
20.68111 662
20.70123 596
20.72134 622
20.74145 619
20.76157 634
20.78168 651
20.80179 697
20.82191 659
20.84202 674
20.86214 694
20.88225 683
20.90236 664
20.92248 608
20.94259 685
20.9627 637
20.98282 653
21.00293 608
21.02305 593
21.04316 600
21.06327 587
21.08339 555
21.1035 591
21.12361 597
21.14373 584
21.16384 573
21.18395 534
21.20407 600
21.22418 596
21.2443 628
21.26441 634
21.28452 585
21.30464 640
21.32475 590
21.34486 591
21.36498 617
21.38509 621
21.40521 599
21.42532 638
21.44543 655
21.46555 580
21.48566 642
21.50577 666
21.52589 619
21.546 698
21.56612 682
21.58623 685
21.60634 699
21.62646 669
21.64657 688
21.66668 719
21.6868 712
21.70691 716
21.72702 737
21.74714 744
21.76725 816
21.78737 859
21.80748 893
21.82759 1038
21.84771 1122
21.86782 1237
21.88793 1301
21.90805 1255
21.92816 1282
21.94828 1159
21.96839 1201
21.9885 1089
22.00862 856
22.02873 835
22.04884 739
22.06896 685
22.08907 634
22.10919 541
22.1293 592
22.14941 573
22.16953 532
22.18964 604
22.20975 595
22.22987 604
22.24998 629
22.27009 637
22.29021 637
22.31032 573
22.33044 577
22.35055 553
22.37066 582
22.39078 608
22.41089 624
22.431 588
22.45112 589
22.47123 593
22.49135 626
22.51146 526
22.53157 544
22.55169 585
22.5718 552
22.59191 554
22.61203 605
22.63214 599
22.65225 594
22.67237 585
22.69248 674
22.7126 629
22.73271 709
22.75282 672
22.77294 757
22.79305 712
22.81316 670
22.83328 696
22.85339 629
22.87351 641
22.89362 606
22.91373 582
22.93385 514
22.95396 556
22.97407 591
22.99419 542
23.0143 583
23.03442 521
23.05453 529
23.07464 517
23.09476 551
23.11487 558
23.13498 552
23.1551 548
23.17521 527
23.19532 539
23.21544 522
23.23555 575
23.25567 562
23.27578 527
23.29589 570
23.31601 636
23.33612 629
23.35623 620
23.37635 627
23.39646 654
23.41658 684
23.43669 671
23.4568 732
23.47692 756
23.49703 807
23.51714 851
23.53726 1005
23.55737 1013
23.57749 1053
23.5976 1039
23.61771 1083
23.63783 1139
23.65794 1055
23.67805 991
23.69817 922
23.71828 883
23.73839 825
23.75851 743
23.77862 745
23.79874 723
23.81885 671
23.83896 671
23.85908 593
23.87919 636
23.8993 598
23.91942 611
23.93953 617
23.95965 604
23.97976 588
23.99987 576
24.01999 580
24.0401 613
24.06021 617
24.08033 627
24.10044 590
24.12056 574
24.14067 569
24.16078 579
24.1809 596
24.20101 597
24.22112 618
24.24124 618
24.26135 664
24.28146 674
24.30158 729
24.32169 698
24.34181 698
24.36192 775
24.38203 729
24.40215 726
24.42226 733
24.44237 678
24.46249 653
24.4826 641
24.50272 632
24.52283 644
24.54294 606
24.56306 567
24.58317 578
24.60328 557
24.6234 552
24.64351 505
24.66362 492
24.68374 537
24.70385 510
24.72397 538
24.74408 526
24.76419 507
24.78431 540
24.80442 513
24.82453 523
24.84465 519
24.86476 545
24.88488 519
24.90499 530
24.9251 516
24.94522 579
24.96533 545
24.98544 579
25.00556 509
25.02567 490
25.04579 562
25.0659 577
25.08601 540
25.10613 571
25.12624 549
25.14635 605
25.16647 567
25.18658 606
25.20669 582
25.22681 579
25.24692 617
25.26704 578
25.28715 556
25.30726 587
25.32738 576
25.34749 576
25.3676 582
25.38772 603
25.40783 584
25.42795 547
25.44806 605
25.46817 578
25.48829 559
25.5084 620
25.52851 613
25.54863 639
25.56874 676
25.58886 713
25.60897 662
25.62908 668
25.6492 678
25.66931 711
25.68942 737
25.70954 692
25.72965 659
25.74976 696
25.76988 683
25.78999 705
25.81011 647
25.83022 705
25.85033 666
25.87045 662
25.89056 628
25.91067 571
25.93079 575
25.9509 574
25.97102 573
25.99113 550
26.01124 539
26.03136 570
26.05147 555
26.07158 568
26.0917 542
26.11181 547
26.13193 526
26.15204 573
26.17215 529
26.19227 587
26.21238 573
26.23249 599
26.25261 575
26.27272 582
26.29283 562
26.31295 594
26.33306 654
26.35318 634
26.37329 673
26.3934 660
26.41352 632
26.43363 709
26.45374 672
26.47386 671
26.49397 714
26.51409 698
26.5342 781
26.55431 781
26.57443 810
26.59454 850
26.61465 837
26.63477 829
26.65488 770
26.67499 727
26.69511 754
26.71522 693
26.73534 646
26.75545 610
26.77556 613
26.79568 635
26.81579 586
26.8359 644
26.85602 650
26.87613 642
26.89625 620
26.91636 671
26.93647 644
26.95659 602
26.9767 608
26.99681 634
27.01693 620
27.03704 566
27.05716 652
27.07727 678
27.09738 676
27.1175 644
27.13761 625
27.15772 630
27.17784 711
27.19795 727
27.21806 722
27.23818 733
27.25829 758
27.27841 827
27.29852 835
27.31863 901
27.33875 879
27.35886 927
27.37897 987
27.39909 1012
27.4192 1121
27.43932 1193
27.45943 1198
27.47954 1219
27.49966 1323
27.51977 1433
27.53988 1441
27.56 1450
27.58011 1458
27.60023 1410
27.62034 1569
27.64045 1644
27.66057 1727
27.68068 1798
27.70079 1809
27.72091 1894
27.74102 1905
27.76113 1811
27.78125 1736
27.80136 1535
27.82148 1462
27.84159 1323
27.8617 1289
27.88182 1230
27.90193 1334
27.92204 1317
27.94216 1350
27.96227 1339
27.98239 1377
28.0025 1251
28.02261 1027
28.04273 967
28.06284 874
28.08295 778
28.10307 724
28.12318 709
28.1433 670
28.16341 710
28.18352 640
28.20364 628
28.22375 635
28.24386 653
28.26398 707
28.28409 715
28.3042 668
28.32432 719
28.34443 775
28.36455 776
28.38466 776
28.40477 675
28.42489 711
28.445 638
28.46511 609
28.48523 591
28.50534 597
28.52546 543
28.54557 539
28.56568 534
28.5858 552
28.60591 568
28.62602 528
28.64614 503
28.66625 488
28.68636 521
28.70648 542
28.72659 470
28.74671 561
28.76682 552
28.78693 540
28.80705 534
28.82716 514
28.84727 537
28.86739 517
28.8875 559
28.90762 528
28.92773 553
28.94784 545
28.96796 590
28.98807 528
29.00818 491
29.0283 607
29.04841 548
29.06853 531
29.08864 506
29.10875 532
29.12887 505
29.14898 524
29.16909 536
29.18921 468
29.20932 504
29.22943 540
29.24955 561
29.26966 540
29.28978 544
29.30989 492
29.33 522
29.35012 569
29.37023 601
29.39034 527
29.41046 637
29.43057 640
29.45069 617
29.4708 708
29.49091 683
29.51103 614
29.53114 644
29.55125 661
29.57137 662
29.59148 667
29.6116 696
29.63171 626
29.65182 666
29.67194 692
29.69205 712
29.71216 703
29.73228 702
29.75239 735
29.7725 709
29.79262 698
29.81273 728
29.83285 704
29.85296 651
29.87307 707
29.89319 684
29.9133 668
29.93341 607
29.95353 632
29.97364 629
29.99376 645
30.01387 618
30.03398 654
30.0541 608
30.07421 689
30.09432 618
30.11444 650
30.13455 642
30.15467 719
30.17478 726
30.19489 716
30.21501 767
30.23512 747
30.25523 744
30.27535 734
30.29546 752
30.31557 718
30.33569 724
30.3558 736
30.37592 689
30.39603 723
30.41614 629
30.43626 670
30.45637 654
30.47648 690
30.4966 677
30.51671 611
30.53683 671
30.55694 626
30.57705 645
30.59717 643
30.61728 636
30.63739 623
30.65751 676
30.67762 623
30.69773 606
30.71785 673
30.73796 634
30.75808 599
30.77819 571
30.7983 620
30.81842 598
30.83853 541
30.85864 594
30.87876 528
30.89887 512
30.91899 577
30.9391 541
30.95921 519
30.97933 471
30.99944 547
31.01955 497
31.03967 504
31.05978 507
31.0799 507
31.10001 449
31.12012 470
31.14024 492
31.16035 509
31.18046 503
31.20058 498
31.22069 516
31.2408 508
31.26092 514
31.28103 534
31.30115 549
31.32126 596
31.34137 530
31.36149 592
31.3816 575
31.40171 566
31.42183 611
31.44194 574
31.46206 560
31.48217 562
31.50228 532
31.5224 550
31.54251 487
31.56262 516
31.58274 470
31.60285 515
31.62297 455
31.64308 507
31.66319 489
31.68331 508
31.70342 466
31.72353 510
31.74365 500
31.76376 515
31.78387 549
31.80399 501
31.8241 536
31.84422 525
31.86433 551
31.88444 520
31.90456 531
31.92467 530
31.94478 519
31.9649 541
31.98501 456
32.00513 440
32.02524 477
32.04535 435
32.06547 511
32.08558 417
32.10569 502
32.12581 464
32.14592 475
32.16604 460
32.18615 469
32.20626 464
32.22638 491
32.24649 488
32.2666 472
32.28672 527
32.30683 492
32.32694 505
32.34706 507
32.36717 514
32.38729 473
32.4074 492
32.42751 510
32.44763 494
32.46774 503
32.48785 516
32.50797 496
32.52808 554
32.5482 551
32.56831 509
32.58842 582
32.60854 522
32.62865 575
32.64876 550
32.66888 547
32.68899 524
32.7091 503
32.72922 494
32.74933 489
32.76945 523
32.78956 508
32.80967 501
32.82979 475
32.8499 509
32.87001 471
32.89013 511
32.91024 497
32.93036 499
32.95047 514
32.97058 510
32.9907 544
33.01081 564
33.03092 526
33.05104 589
33.07115 518
33.09127 544
33.11138 540
33.13149 534
33.15161 485
33.17172 446
33.19183 464
33.21195 456
33.23206 411
33.25217 458
33.27229 442
33.2924 427
33.31252 448
33.33263 464
33.35274 468
33.37286 410
33.39297 458
33.41308 437
33.4332 449
33.45331 453
33.47343 465
33.49354 455
33.51365 479
33.53377 493
33.55388 523
33.57399 488
33.59411 463
33.61422 495
33.63434 501
33.65445 494
33.67456 493
33.69468 476
33.71479 515
33.7349 469
33.75502 473
33.77513 468
33.79524 470
33.81536 476
33.83547 451
33.85559 431
33.8757 439
33.89581 449
33.91593 474
33.93604 479
33.95615 471
33.97627 486
33.99638 450
34.0165 472
34.03661 460
34.05672 478
34.07684 516
34.09695 459
34.11706 539
34.13718 472
34.15729 505
34.17741 520
34.19752 518
34.21763 522
34.23775 523
34.25786 512
34.27797 507
34.29809 547
34.3182 534
34.33831 507
34.35843 535
34.37854 552
34.39866 575
34.41877 533
34.43888 554
34.459 624
34.47911 583
34.49922 575
34.51934 584
34.53945 582
34.55957 563
34.57968 578
34.59979 599
34.61991 630
34.64002 625
34.66013 624
34.68025 638
34.70036 656
34.72047 644
34.74059 671
34.7607 633
34.78082 702
34.80093 686
34.82104 647
34.84116 668
34.86127 702
34.88138 701
34.9015 705
34.92161 682
34.94173 697
34.96184 640
34.98195 698
35.00207 626
35.02218 703
35.04229 702
35.06241 689
35.08252 700
35.10264 700
35.12275 650
35.14286 727
35.16298 734
35.18309 791
35.2032 760
35.22332 773
35.24343 814
35.26354 767
35.28366 826
35.30377 828
35.32389 809
35.344 860
35.36411 868
35.38423 825
35.40434 890
35.42445 938
35.44457 913
35.46468 1056
35.4848 1036
35.50491 935
35.52502 947
35.54514 947
35.56525 932
35.58536 906
35.60548 896
35.62559 862
35.64571 838
35.66582 857
35.68593 793
35.70605 794
35.72616 788
35.74627 768
35.76639 762
35.7865 719
35.80661 659
35.82673 627
35.84684 657
35.86696 608
35.88707 568
35.90718 582
35.9273 636
35.94741 615
35.96752 600
35.98764 615
36.00775 569
36.02787 569
36.04798 578
36.06809 549
36.08821 538
36.10832 593
36.12843 523
36.14855 571
36.16866 532
36.18878 546
36.20889 579
36.229 534
36.24912 509
36.26923 562
36.28934 510
36.30946 563
36.32957 540
36.34968 523
36.3698 581
36.38991 600
36.41003 537
36.43014 600
36.45025 549
36.47037 562
36.49048 592
36.51059 576
36.53071 600
36.55082 574
36.57094 609
36.59105 589
36.61116 573
36.63128 588
36.65139 580
36.6715 500
36.69162 571
36.71173 558
36.73184 549
36.75196 550
36.77207 569
36.79219 537
36.8123 500
36.83241 531
36.85253 541
36.87264 565
36.89275 539
36.91287 539
36.93298 536
36.9531 545
36.97321 534
36.99332 565
37.01344 528
37.03355 542
37.05366 546
37.07378 569
37.09389 523
37.11401 571
37.13412 540
37.15423 547
37.17435 533
37.19446 516
37.21457 540
37.23469 535
37.2548 528
37.27491 549
37.29503 517
37.31514 496
37.33526 514
37.35537 504
37.37548 485
37.3956 496
37.41571 472
37.43582 528
37.45594 530
37.47605 503
37.49617 538
37.51628 587
37.53639 489
37.55651 500
37.57662 528
37.59673 501
37.61685 508
37.63696 520
37.65708 522
37.67719 550
37.6973 495
37.71742 494
37.73753 499
37.75764 506
37.77776 542
37.79787 567
37.81798 522
37.8381 489
37.85821 502
37.87833 474
37.89844 522
37.91855 478
37.93867 477
37.95878 441
37.97889 478
37.99901 467
38.01912 477
38.03924 471
38.05935 490
38.07946 515
38.09958 474
38.11969 477
38.1398 489
38.15992 515
38.18003 459
38.20015 443
38.22026 454
38.24037 439
38.26049 462
38.2806 487
38.30071 480
38.32083 436
38.34094 486
38.36105 432
38.38117 466
38.40128 427
38.4214 498
38.44151 430
38.46162 448
38.48174 475
38.50185 484
38.52196 414
38.54208 420
38.56219 464
38.58231 457
38.60242 452
38.62253 418
38.64265 462
38.66276 475
38.68287 434
38.70299 496
38.7231 458
38.74321 493
38.76333 471
38.78344 479
38.80356 453
38.82367 451
38.84378 482
38.8639 505
38.88401 498
38.90412 474
38.92424 468
38.94435 513
38.96447 468
38.98458 475
39.00469 509
39.02481 459
39.04492 459
39.06503 453
39.08515 504
39.10526 475
39.12538 476
39.14549 483
39.1656 471
39.18572 497
39.20583 503
39.22594 475
39.24606 487
39.26617 510
39.28628 499
39.3064 462
39.32651 499
39.34663 473
39.36674 486
39.38685 457
39.40697 493
39.42708 499
39.44719 482
39.46731 446
39.48742 486
39.50754 449
39.52765 458
39.54776 448
39.56788 453
39.58799 449
39.6081 481
39.62822 437
39.64833 452
39.66845 486
39.68856 468
39.70867 444
39.72879 428
39.7489 481
39.76901 447
39.78913 462
39.80924 451
39.82935 468
39.84947 469
39.86958 493
39.8897 454
39.90981 475
39.92992 505
39.95004 511
39.97015 436
39.99026 473
40.01038 480
40.03049 479
40.05061 484
40.07072 455
40.09083 466
40.11095 489
40.13106 451
40.15117 476
40.17129 471
40.1914 446
40.21152 470
40.23163 480
40.25174 493
40.27186 482
40.29197 493
40.31208 528
40.3322 508
40.35231 469
40.37242 492
40.39254 521
40.41265 491
40.43277 491
40.45288 463
40.47299 494
40.49311 462
40.51322 453
40.53333 489
40.55345 505
40.57356 495
40.59368 498
40.61379 490
40.6339 471
40.65402 467
40.67413 447
40.69424 526
40.71436 490
40.73447 509
40.75458 492
40.7747 464
40.79481 481
40.81493 510
40.83504 462
40.85515 483
40.87527 508
40.89538 445
40.91549 513
40.93561 448
40.95572 429
40.97584 456
40.99595 445
41.01606 436
41.03618 469
41.05629 450
41.0764 473
41.09652 482
41.11663 446
41.13675 437
41.15686 457
41.17697 486
41.19709 444
41.2172 457
41.23731 443
41.25743 451
41.27754 447
41.29765 457
41.31777 455
41.33788 474
41.358 484
41.37811 426
41.39822 444
41.41834 488
41.43845 489
41.45856 466
41.47868 472
41.49879 471
41.51891 489
41.53902 486
41.55913 478
41.57925 439
41.59936 474
41.61947 469
41.63959 492
41.6597 496
41.67982 460
41.69993 455
41.72004 468
41.74016 463
41.76027 546
41.78038 495
41.8005 484
41.82061 461
41.84072 476
41.86084 463
41.88095 474
41.90107 517
41.92118 512
41.94129 464
41.96141 505
41.98152 472
42.00163 491
42.02175 558
42.04186 491
42.06198 580
42.08209 533
42.1022 485
42.12232 507
42.14243 528
42.16254 534
42.18266 517
42.20277 519
42.22289 501
42.243 488
42.26311 534
42.28323 487
42.30334 505
42.32345 529
42.34357 538
42.36368 533
42.38379 490
42.40391 536
42.42402 540
42.44414 538
42.46425 501
42.48436 513
42.50448 543
42.52459 536
42.5447 493
42.56482 545
42.58493 497
42.60505 506
42.62516 505
42.64527 481
42.66539 476
42.6855 513
42.70561 483
42.72573 481
42.74584 494
42.76595 474
42.78607 473
42.80618 505
42.8263 447
42.84641 503
42.86652 474
42.88664 497
42.90675 495
42.92686 422
42.94698 445
42.96709 483
42.98721 504
43.00732 453
43.02743 502
43.04755 443
43.06766 456
43.08777 446
43.10789 464
43.128 446
43.14812 419
43.16823 429
43.18834 426
43.20846 463
43.22857 408
43.24868 425
43.2688 438
43.28891 423
43.30902 410
43.32914 410
43.34925 419
43.36937 445
43.38948 427
43.40959 435
43.42971 396
43.44982 409
43.46993 433
43.49005 417
43.51016 381
43.53028 405
43.55039 498
43.5705 451
43.59062 389
43.61073 394
43.63084 389
43.65096 421
43.67107 415
43.69119 445
43.7113 382
43.73141 426
43.75153 432
43.77164 432
43.79175 410
43.81187 441
43.83198 430
43.85209 429
43.87221 413
43.89232 408
43.91244 422
43.93255 414
43.95266 419
43.97278 406
43.99289 411
44.013 425
44.03312 456
44.05323 404
44.07335 406
44.09346 416
44.11357 408
44.13369 405
44.1538 437
44.17391 417
44.19403 416
44.21414 427
44.23426 430
44.25437 442
44.27448 435
44.2946 456
44.31471 433
44.33482 374
44.35494 459
44.37505 493
44.39516 441
44.41528 410
44.43539 424
44.45551 468
44.47562 450
44.49573 444
44.51585 436
44.53596 398
44.55607 431
44.57619 427
44.5963 415
44.61642 423
44.63653 433
44.65664 442
44.67676 466
44.69687 449
44.71698 434
44.7371 458
44.75721 459
44.77732 450
44.79744 465
44.81755 439
44.83767 407
44.85778 481
44.87789 462
44.89801 431
44.91812 401
44.93823 470
44.95835 454
44.97846 428
44.99858 442
45.01869 446
45.0388 438
45.05892 406
45.07903 431
45.09914 430
45.11926 425
45.13937 433
45.15949 434
45.1796 459
45.19971 392
45.21983 414
45.23994 442
45.26005 433
45.28017 417
45.30028 440
45.32039 438
45.34051 418
45.36062 438
45.38074 465
45.40085 435
45.42096 386
45.44108 398
45.46119 421
45.4813 400
45.50142 431
45.52153 411
45.54165 419
45.56176 439
45.58187 408
45.60199 430
45.6221 436
45.64221 408
45.66233 438
45.68244 406
45.70256 440
45.72267 404
45.74278 395
45.7629 394
45.78301 387
45.80312 416
45.82324 412
45.84335 421
45.86346 412
45.88358 456
45.90369 443
45.92381 460
45.94392 396
45.96403 438
45.98415 445
46.00426 444
46.02437 420
46.04449 456
46.0646 421
46.08472 403
46.10483 416
46.12494 409
46.14506 406
46.16517 384
46.18528 433
46.2054 414
46.22551 416
46.24563 433
46.26574 424
46.28585 376
46.30597 411
46.32608 389
46.34619 406
46.36631 421
46.38642 422
46.40653 394
46.42665 394
46.44676 373
46.46688 421
46.48699 408
46.5071 398
46.52722 409
46.54733 448
46.56744 444
46.58756 386
46.60767 405
46.62779 381
46.6479 407
46.66801 449
46.68813 436
46.70824 452
46.72835 428
46.74847 395
46.76858 426
46.78869 438
46.80881 439
46.82892 448
46.84904 413
46.86915 454
46.88926 456
46.90938 477
46.92949 417
46.9496 479
46.96972 413
46.98983 440
47.00995 443
47.03006 441
47.05017 453
47.07029 432
47.0904 424
47.11051 424
47.13063 426
47.15074 382
47.17086 458
47.19097 437
47.21108 433
47.2312 417
47.25131 435
47.27142 402
47.29154 439
47.31165 417
47.33176 404
47.35188 427
47.37199 409
47.39211 397
47.41222 406
47.43233 379
47.45245 399
47.47256 378
47.49267 411
47.51279 412
47.5329 410
47.55302 387
47.57313 370
47.59324 405
47.61336 425
47.63347 396
47.65358 387
47.6737 410
47.69381 390
47.71393 446
47.73404 410
47.75415 390
47.77427 411
47.79438 418
47.81449 381
47.83461 407
47.85472 378
47.87483 421
47.89495 434
47.91506 444
47.93518 425
47.95529 423
47.9754 394
47.99552 409
48.01563 420
48.03574 397
48.05586 402
48.07597 447
48.09609 458
48.1162 416
48.13631 444
48.15643 410
48.17654 411
48.19665 439
48.21677 443
48.23688 463
48.257 487
48.27711 461
48.29722 440
48.31734 485
48.33745 440
48.35756 410
48.37768 413
48.39779 417
48.4179 431
48.43802 440
48.45813 419
48.47825 433
48.49836 434
48.51847 432
48.53859 426
48.5587 435
48.57881 408
48.59893 419
48.61904 429
48.63916 462
48.65927 403
48.67938 405
48.6995 417
48.71961 449
48.73972 406
48.75984 428
48.77995 444
48.80006 435
48.82018 459
48.84029 435
48.86041 437
48.88052 449
48.90063 436
48.92075 402
48.94086 431
48.96097 430
48.98109 458
49.0012 428
49.02132 429
49.04143 461
49.06154 457
49.08166 443
49.10177 445
49.12188 451
49.142 451
49.16211 438
49.18223 450
49.20234 474
49.22245 427
49.24257 475
49.26268 475
49.28279 447
49.30291 478
49.32302 412
49.34313 466
49.36325 487
49.38336 458
49.40348 438
49.42359 484
49.4437 468
49.46382 457
49.48393 515
49.50404 477
49.52416 483
49.54427 483
49.56439 517
49.5845 489
49.60461 498
49.62473 526
49.64484 457
49.66495 495
49.68507 507
49.70518 465
49.7253 458
49.74541 463
49.76552 488
49.78564 447
49.80575 467
49.82586 458
49.84598 445
49.86609 454
49.8862 429
49.90632 430
49.92643 445
49.94655 440
49.96666 384
49.98677 464
50.00689 479
50.027 431
50.04711 438
50.06723 460
50.08734 456
50.10746 480
50.12757 469
50.14768 449
50.1678 442
50.18791 405
50.20802 423
50.22814 401
50.24825 415
50.26837 420
50.28848 437
50.30859 410
50.32871 424
50.34882 394
50.36893 445
50.38905 402
50.40916 385
50.42927 441
50.44939 400
50.4695 417
50.48962 406
50.50973 448
50.52984 441
50.54996 446
50.57007 443
50.59018 441
50.6103 470
50.63041 488
50.65053 504
50.67064 489
50.69075 488
50.71087 452
50.73098 499
50.75109 472
50.77121 468
50.79132 477
50.81143 491
50.83155 483
50.85166 492
50.87178 456
50.89189 488
50.912 470
50.93212 464
50.95223 488
50.97234 468
50.99246 440
51.01257 474
51.03269 434
51.0528 482
51.07291 433
51.09303 470
51.11314 453
51.13325 465
51.15337 440
51.17348 458
51.1936 501
51.21371 500
51.23382 387
51.25394 479
51.27405 494
51.29416 478
51.31428 449
51.33439 486
51.3545 490
51.37462 511
51.39473 485
51.41485 465
51.43496 439
51.45507 479
51.47519 522
51.4953 483
51.51541 476
51.53553 453
51.55564 430
51.57576 451
51.59587 450
51.61598 411
51.6361 413
51.65621 371
51.67632 404
51.69644 374
51.71655 396
51.73667 396
51.75678 401
51.77689 400
51.79701 420
51.81712 419
51.83723 382
51.85735 386
51.87746 372
51.89757 411
51.91769 403
51.9378 432
51.95792 425
51.97803 413
51.99814 397
52.01826 426
52.03837 413
52.05848 429
52.0786 401
52.09871 441
52.11883 435
52.13894 416
52.15905 425
52.17917 429
52.19928 469
52.21939 429
52.23951 421
52.25962 429
52.27974 425
52.29985 467
52.31996 459
52.34008 431
52.36019 413
52.3803 417
52.40042 432
52.42053 400
52.44064 396
52.46076 417
52.48087 436
52.50099 399
52.5211 397
52.54121 382
52.56133 402
52.58144 374
52.60155 441
52.62167 385
52.64178 403
52.6619 380
52.68201 421
52.70212 436
52.72224 418
52.74235 428
52.76246 444
52.78258 407
52.80269 394
52.8228 430
52.84292 422
52.86303 451
52.88315 422
52.90326 431
52.92337 449
52.94349 461
52.9636 434
52.98371 428
53.00383 468
53.02394 474
53.04406 478
53.06417 486
53.08428 444
53.1044 462
53.12451 479
53.14462 498
53.16474 474
53.18485 475
53.20497 500
53.22508 465
53.24519 485
53.26531 482
53.28542 524
53.30553 477
53.32565 486
53.34576 496
53.36587 477
53.38599 454
53.4061 501
53.42622 448
53.44633 475
53.46644 475
53.48656 468
53.50667 443
53.52678 460
53.5469 448
53.56701 484
53.58713 445
53.60724 511
53.62735 466
53.64747 456
53.66758 490
53.68769 441
53.70781 449
53.72792 496
53.74804 499
53.76815 459
53.78826 486
53.80838 460
53.82849 467
53.8486 489
53.86872 467
53.88883 479
53.90894 466
53.92906 476
53.94917 476
53.96929 462
53.9894 500
54.00951 441
54.02963 465
54.04974 436
54.06985 471
54.08997 453
54.11008 520
54.1302 481
54.15031 463
54.17042 503
54.19054 484
54.21065 479
54.23076 457
54.25088 447
54.27099 454
54.29111 438
54.31122 421
54.33133 428
54.35145 461
54.37156 444
54.39167 477
54.41179 455
54.4319 433
54.45201 399
54.47213 440
54.49224 463
54.51236 400
54.53247 435
54.55258 438
54.5727 447
54.59281 446
54.61292 417
54.63304 432
54.65315 414
54.67327 461
54.69338 443
54.71349 434
54.73361 435
54.75372 436
54.77383 441
54.79395 426
54.81406 456
54.83417 434
54.85429 433
54.8744 474
54.89452 442
54.91463 416
54.93474 424
54.95486 423
54.97497 433
54.99508 460
55.0152 435
55.03531 441
55.05543 417
55.07554 429
55.09565 456
55.11577 429
55.13588 440
55.15599 421
55.17611 451
55.19622 400
55.21634 442
55.23645 416
55.25656 410
55.27668 396
55.29679 413
55.3169 431
55.33702 437
55.35713 412
55.37724 408
55.39736 414
55.41747 396
55.43759 436
55.4577 413
55.47781 418
55.49793 441
55.51804 445
55.53815 427
55.55827 450
55.57838 421
55.5985 367
55.61861 412
55.63872 417
55.65884 423
55.67895 407
55.69906 383
55.71918 406
55.73929 394
55.75941 436
55.77952 447
55.79963 411
55.81975 405
55.83986 417
55.85997 412
55.88009 380
55.9002 393
55.92031 397
55.94043 427
55.96054 372
55.98066 391
56.00077 411
56.02088 406
56.041 424
56.06111 415
56.08122 393
56.10134 442
56.12145 442
56.14157 415
56.16168 445
56.18179 404
56.20191 398
56.22202 418
56.24213 433
56.26225 432
56.28236 456
56.30248 447
56.32259 469
56.3427 417
56.36282 427
56.38293 429
56.40304 423
56.42316 429
56.44327 439
56.46338 436
56.4835 453
56.50361 455
56.52373 423
56.54384 446
56.56395 412
56.58407 437
56.60418 473
56.62429 418
56.64441 431
56.66452 439
56.68464 424
56.70475 417
56.72486 432
56.74498 454
56.76509 434
56.7852 406
56.80532 417
56.82543 424
56.84554 416
56.86566 421
56.88577 434
56.90589 394
56.926 395
56.94611 406
56.96623 438
56.98634 421
57.00645 442
57.02657 432
57.04668 464
57.0668 401
57.08691 431
57.10702 445
57.12714 392
57.14725 397
57.16736 392
57.18748 408
57.20759 416
57.22771 391
57.24782 423
57.26793 411
57.28805 401
57.30816 391
57.32827 409
57.34839 420
57.3685 412
57.38861 410
57.40873 383
57.42884 424
57.44896 372
57.46907 378
57.48918 380
57.5093 386
57.52941 405
57.54952 373
57.56964 364
57.58975 383
57.60987 392
57.62998 377
57.65009 387
57.67021 365
57.69032 386
57.71043 377
57.73055 371
57.75066 368
57.77078 401
57.79089 427
57.811 392
57.83112 386
57.85123 421
57.87134 374
57.89146 423
57.91157 416
57.93168 384
57.9518 418
57.97191 365
57.99203 404
58.01214 386
58.03225 423
58.05237 383
58.07248 419
58.09259 411
58.11271 424
58.13282 396
58.15294 378
58.17305 383
58.19316 378
58.21328 392
58.23339 397
58.2535 386
58.27362 395
58.29373 396
58.31385 389
58.33396 372
58.35407 361
58.37419 362
58.3943 376
58.41441 391
58.43453 395
58.45464 404
58.47475 398
58.49487 386
58.51498 387
58.5351 404
58.55521 375
58.57532 395
58.59544 411
58.61555 385
58.63566 399
58.65578 389
58.67589 397
58.69601 397
58.71612 409
58.73623 401
58.75635 374
58.77646 409
58.79657 362
58.81669 394
58.8368 394
58.85691 400
58.87703 382
58.89714 384
58.91726 414
58.93737 368
58.95748 416
58.9776 392
58.99771 401
59.01782 390
59.03794 365
59.05805 391
59.07817 377
59.09828 427
59.11839 413
59.13851 363
59.15862 378
59.17873 407
59.19885 401
59.21896 366
59.23908 399
59.25919 404
59.2793 363
59.29942 397
59.31953 390
59.33964 388
59.35976 370
59.37987 372
59.39998 385
59.4201 388
59.44021 390
59.46033 405
59.48044 338
59.50055 384
59.52067 368
59.54078 400
59.56089 422
59.58101 366
59.60112 418
59.62124 404
59.64135 410
59.66146 386
59.68158 385
59.70169 398
59.7218 400
59.74192 428
59.76203 396
59.78215 406
59.80226 418
59.82237 454
59.84249 437
59.8626 419
59.88271 436
59.90283 451
59.92294 404
59.94305 435
59.96317 433
59.98328 453
60.0034 432
60.02351 424
60.04362 431
60.06374 419
60.08385 389
60.10396 430
60.12408 445
60.14419 423
60.16431 445
60.18442 427
60.20453 466
60.22465 444
60.24476 396
60.26487 402
60.28499 409
60.3051 423
60.32522 404
60.34533 440
60.36544 422
60.38556 442
60.40567 422
60.42578 398
60.4459 479
60.46601 412
60.48612 409
60.50624 436
60.52635 449
60.54647 401
60.56658 464
60.58669 410
60.60681 470
60.62692 413
60.64703 411
60.66715 429
60.68726 403
60.70738 444
60.72749 422
60.7476 402
60.76772 411
60.78783 421
60.80794 423
60.82806 401
60.84817 421
60.86828 450
60.8884 432
60.90851 436
60.92863 417
60.94874 436
60.96885 419
60.98897 437
61.00908 434
61.02919 409
61.04931 442
61.06942 433
61.08954 422
61.10965 430
61.12976 445
61.14988 478
61.16999 428
61.1901 457
61.21022 494
61.23033 468
61.25045 459
61.27056 452
61.29067 502
61.31079 465
61.3309 510
61.35101 487
61.37113 472
61.39124 527
61.41135 516
61.43147 491
61.45158 536
61.4717 503
61.49181 539
61.51192 520
61.53204 507
61.55215 520
61.57226 509
61.59238 530
61.61249 557
61.63261 542
61.65272 553
61.67283 612
61.69295 513
61.71306 512
61.73317 535
61.75329 541
61.7734 565
61.79352 494
61.81363 544
61.83374 570
61.85386 546
61.87397 527
61.89408 498
61.9142 541
61.93431 516
61.95442 522
61.97454 508
61.99465 501
62.01477 485
62.03488 550
62.05499 506
62.07511 554
62.09522 496
62.11533 545
62.13545 510
62.15556 501
62.17568 510
62.19579 512
62.2159 505
62.23602 503
62.25613 465
62.27624 470
62.29636 517
62.31647 482
62.33659 519
62.3567 491
62.37681 501
62.39693 501
62.41704 467
62.43715 473
62.45727 456
62.47738 444
62.49749 428
62.51761 434
62.53772 441
62.55784 448
62.57795 451
62.59806 441
62.61818 464
62.63829 406
62.6584 442
62.67852 444
62.69863 454
62.71875 445
62.73886 474
62.75897 458
62.77909 420
62.7992 405
62.81931 405
62.83943 444
62.85954 424
62.87965 462
62.89977 445
62.91988 423
62.94 410
62.96011 401
62.98022 412
63.00034 393
63.02045 436
63.04056 410
63.06068 410
63.08079 393
63.10091 417
63.12102 375
63.14113 433
63.16125 401
63.18136 371
63.20147 427
63.22159 443
63.2417 474
63.26182 390
63.28193 397
63.30204 419
63.32216 396
63.34227 395
63.36238 405
63.3825 413
63.40261 416
63.42272 457
63.44284 414
63.46295 422
63.48307 419
63.50318 417
63.52329 416
63.54341 425
63.56352 424
63.58363 409
63.60375 466
63.62386 437
63.64398 411
63.66409 416
63.6842 414
63.70432 412
63.72443 444
63.74454 410
63.76466 418
63.78477 396
63.80489 421
63.825 433
63.84511 406
63.86523 449
63.88534 404
63.90545 389
63.92557 413
63.94568 425
63.96579 418
63.98591 406
64.00602 386
64.02614 422
64.04625 407
64.06636 413
64.08648 397
64.10659 387
64.1267 405
64.14682 400
64.16693 376
64.18705 397
64.20716 409
64.22727 370
64.24739 362
64.2675 383
64.28761 359
64.30773 383
64.32784 361
64.34796 392
64.36807 381
64.38818 359
64.4083 383
64.42841 379
64.44852 383
64.46864 392
64.48875 346
64.50886 389
64.52898 381
64.54909 412
64.56921 396
64.58932 392
64.60943 382
64.62955 414
64.64966 401
64.66977 386
64.68989 402
64.71 353
64.73012 386
64.75023 392
64.77034 393
64.79046 385
64.81057 388
64.83068 396
64.8508 384
64.87091 382
64.89102 388
64.91114 386
64.93125 380
64.95137 430
64.97148 393
64.99159 385
65.01171 404
65.03182 375
65.05193 378
65.07205 367
65.09216 350
65.11228 391
65.13239 377
65.1525 350
65.17262 382
65.19273 367
65.21284 416
65.23296 313
65.25307 354
65.27319 379
65.2933 427
65.31341 386
65.33353 389
65.35364 364
65.37375 384
65.39387 393
65.41398 402
65.43409 371
65.45421 386
65.47432 422
65.49444 373
65.51455 392
65.53466 401
65.55478 376
65.57489 380
65.595 394
65.61512 348
65.63523 366
65.65535 398
65.67546 410
65.69557 429
65.71569 398
65.7358 377
65.75591 420
65.77603 408
65.79614 412
65.81626 384
65.83637 396
65.85648 378
65.8766 406
65.89671 399
65.91682 411
65.93694 408
65.95705 411
65.97716 390
65.99728 369
66.01739 380
66.03751 393
66.05762 378
66.07773 438
66.09785 377
66.11796 365
66.13807 370
66.15819 397
66.1783 374
66.19842 357
66.21853 366
66.23864 392
66.25876 337
66.27887 404
66.29898 320
66.3191 346
66.33921 361
66.35933 396
66.37944 355
66.39955 388
66.41967 360
66.43978 359
66.45989 364
66.48001 371
66.50012 409
66.52023 398
66.54035 403
66.56046 369
66.58058 377
66.60069 370
66.6208 383
66.64092 353
66.66103 375
66.68114 340
66.70126 373
66.72137 371
66.74149 340
66.7616 367
66.78171 376
66.80183 383
66.82194 346
66.84205 358
66.86217 359
66.88228 356
66.90239 415
66.92251 378
66.94262 345
66.96274 377
66.98285 391
67.00296 347
67.02308 363
67.04319 376
67.0633 372
67.08342 387
67.10353 360
67.12365 368
67.14376 370
67.16387 348
67.18399 366
67.2041 350
67.22421 397
67.24433 323
67.26444 348
67.28456 382
67.30467 392
67.32478 418
67.3449 330
67.36501 354
67.38512 397
67.40524 377
67.42535 365
67.44546 390
67.46558 374
67.48569 401
67.50581 377
67.52592 417
67.54603 366
67.56615 400
67.58626 373
67.60637 419
67.62649 396
67.6466 427
67.66672 408
67.68683 420
67.70694 383
67.72706 381
67.74717 410
67.76728 405
67.7874 416
67.80751 375
67.82763 387
67.84774 376
67.86785 380
67.88797 386
67.90808 388
67.92819 345
67.94831 418
67.96842 386
67.98853 366
68.00865 388
68.02876 365
68.04888 383
68.06899 406
68.0891 387
68.10922 365
68.12933 350
68.14944 396
68.16956 370
68.18967 394
68.20979 378
68.2299 428
68.25001 414
68.27013 426
68.29024 411
68.31035 358
68.33047 385
68.35058 406
68.3707 372
68.39081 399
68.41092 377
68.43104 360
68.45115 387
68.47126 406
68.49138 372
68.51149 408
68.5316 368
68.55172 379
68.57183 359
68.59195 400
68.61206 403
68.63217 400
68.65229 354
68.6724 380
68.69251 369
68.71263 377
68.73274 358
68.75286 389
68.77297 390
68.79308 375
68.8132 398
68.83331 363
68.85342 366
68.87354 368
68.89365 394
68.91376 378
68.93388 373
68.95399 403
68.97411 397
68.99422 402
69.01433 362
69.03445 387
69.05456 367
69.07467 379
69.09479 359
69.1149 365
69.13502 403
69.15513 385
69.17524 403
69.19536 374
69.21547 374
69.23558 383
69.2557 354
69.27581 393
69.29593 409
69.31604 388
69.33615 407
69.35627 394
69.37638 409
69.39649 431
69.41661 399
69.43672 377
69.45683 390
69.47695 400
69.49706 396
69.51718 403
69.53729 404
69.5574 380
69.57752 381
69.59763 381
69.61774 372
69.63786 380
69.65797 362
69.67809 369
69.6982 353
69.71831 328
69.73843 394
69.75854 371
69.77865 361
69.79877 372
69.81888 365
69.839 411
69.85911 376
69.87922 360
69.89934 373
69.91945 353
69.93956 384
69.95968 374
69.97979 358
69.9999 366
70.02002 361
70.04013 404
70.06025 390
70.08036 365
70.10047 365
70.12059 355
70.1407 386
70.16081 374
70.18093 351
70.20104 369
70.22116 368
70.24127 384
70.26138 366
70.2815 391
70.30161 366
70.32172 356
70.34184 359
70.36195 349
70.38207 381
70.40218 342
70.42229 337
70.44241 384
70.46252 336
70.48263 373
70.50275 385
70.52286 369
70.54297 353
70.56309 360
70.5832 353
70.60332 375
70.62343 356
70.64354 337
70.66366 358
70.68377 357
70.70388 330
70.724 390
70.74411 362
70.76423 335
70.78434 352
70.80445 351
70.82457 380
70.84468 361
70.86479 394
70.88491 357
70.90502 354
70.92513 361
70.94525 368
70.96536 360
70.98548 349
71.00559 372
71.0257 379
71.04582 335
71.06593 357
71.08604 354
71.10616 378
71.12627 357
71.14639 356
71.1665 397
71.18661 378
71.20673 387
71.22684 364
71.24695 369
71.26707 365
71.28718 371
71.3073 402
71.32741 415
71.34752 364
71.36764 375
71.38775 388
71.40786 401
71.42798 326
71.44809 358
71.4682 348
71.48832 402
71.50843 365
71.52855 380
71.54866 373
71.56877 361
71.58889 365
71.609 371
71.62911 368
71.64923 381
71.66934 370
71.68946 353
71.70957 360
71.72968 368
71.7498 370
71.76991 370
71.79002 347
71.81014 386
71.83025 372
71.85037 381
71.87048 379
71.89059 364
71.91071 390
71.93082 362
71.95093 346
71.97105 343
71.99116 428
72.01127 382
72.03139 402
72.0515 384
72.07162 371
72.09173 403
72.11184 381
72.13196 390
72.15207 336
72.17218 329
72.1923 341
72.21241 382
72.23253 361
72.25264 389
72.27275 368
72.29287 368
72.31298 379
72.33309 393
72.35321 325
72.37332 387
72.39344 394
72.41355 395
72.43366 403
72.45378 363
72.47389 393
72.494 381
72.51412 379
72.53423 368
72.55434 366
72.57446 373
72.59457 394
72.61469 390
72.6348 374
72.65491 370
72.67503 387
72.69514 414
72.71525 379
72.73537 394
72.75548 386
72.7756 405
72.79571 408
72.81582 409
72.83594 362
72.85605 408
72.87616 416
72.89628 413
72.91639 392
72.9365 385
72.95662 362
72.97673 417
72.99685 383
73.01696 388
73.03707 388
73.05719 397
73.0773 410
73.09741 401
73.11753 401
73.13764 381
73.15776 364
73.17787 384
73.19798 415
73.2181 397
73.23821 388
73.25832 368
73.27844 394
73.29855 403
73.31867 393
73.33878 373
73.35889 356
73.37901 392
73.39912 376
73.41923 376
73.43935 362
73.45946 358
73.47957 388
73.49969 398
73.5198 340
73.53992 371
73.56003 405
73.58014 369
73.60026 383
73.62037 376
73.64048 370
73.6606 364
73.68071 378
73.70083 374
73.72094 378
73.74105 356
73.76117 382
73.78128 396
73.80139 422
73.82151 423
73.84162 388
73.86174 403
73.88185 378
73.90196 362
73.92208 380
73.94219 386
73.9623 392
73.98242 384
74.00253 371
74.02264 340
74.04276 422
74.06287 371
74.08299 387
74.1031 415
74.12321 390
74.14333 376
74.16344 399
74.18355 380
74.20367 386
74.22378 379
74.2439 382
74.26401 397
74.28412 379
74.30424 347
74.32435 343
74.34446 363
74.36458 397
74.38469 395
74.40481 354
74.42492 356
74.44503 368
74.46515 360
74.48526 357
74.50537 406
74.52549 397
74.5456 346
74.56571 397
74.58583 382
74.60594 402
74.62606 424
74.64617 356
74.66628 400
74.6864 359
74.70651 394
74.72662 364
74.74674 374
74.76685 366
74.78697 373
74.80708 357
74.82719 352
74.84731 358
74.86742 355
74.88753 361
74.90765 345
74.92776 410
74.94787 365
74.96799 384
74.9881 347
75.00822 374
