3.00117 19841
3.02128 19491
3.0414 18765
3.06151 18535
3.08162 17589
3.10174 17648
3.12185 16650
3.14197 16412
3.16208 16049
3.18219 15335
3.20231 14987
3.22242 14677
3.24253 13926
3.26265 13729
3.28276 12914
3.30288 12636
3.32299 12347
3.3431 12020
3.36322 11680
3.38333 11040
3.40344 10858
3.42356 10594
3.44367 10064
3.46379 10057
3.4839 9091
3.50401 8915
3.52413 8824
3.54424 8275
3.56435 8526
3.58447 7706
3.60458 7647
3.62469 7385
3.64481 6893
3.66492 6710
3.68504 6440
3.70515 6098
3.72526 6023
3.74538 5694
3.76549 5510
3.7856 5206
3.80572 5070
3.82583 4864
3.84595 4611
3.86606 4577
3.88617 4088
3.90629 3926
3.9264 3923
3.94651 3642
3.96663 3551
3.98674 3305
4.00686 3156
4.02697 2975
4.04708 2897
4.0672 2949
4.08731 2728
4.10742 2606
4.12754 2531
4.14765 2323
4.16776 2369
4.18788 2116
4.20799 2123
4.22811 1990
4.24822 1954
4.26833 1897
4.28845 1666
4.30856 1691
4.32867 1729
4.34879 1639
4.3689 1508
4.38902 1393
4.40913 1439
4.42924 1576
4.44936 1398
4.46947 1451
4.48958 1207
4.5097 1301
4.52981 1336
4.54992 1258
4.57004 1206
4.59015 1099
4.61027 1184
4.63038 1137
4.65049 1068
4.67061 1076
4.69072 1078
4.71083 983
4.73095 1050
4.75106 981
4.77118 973
4.79129 908
4.8114 906
4.83152 979
4.85163 913
4.87174 849
4.89186 848
4.91197 825
4.93209 843
4.9522 854
4.97231 797
4.99243 743
5.01254 729
5.03265 774
5.05277 752
5.07288 724
5.09299 677
5.11311 660
5.13322 665
5.15334 685
5.17345 632
5.19356 588
5.21368 565
5.23379 570
5.2539 593
5.27402 540
5.29413 542
5.31425 550
5.33436 531
5.35447 535
5.37459 495
5.3947 505
5.41481 507
5.43493 489
5.45504 538
5.47516 453
5.49527 433
5.51538 430
5.5355 486
5.55561 437
5.57572 374
5.59584 438
5.61595 455
5.63606 403
5.65618 393
5.67629 357
5.69641 419
5.71652 370
5.73663 383
5.75675 387
5.77686 358
5.79697 356
5.81709 392
5.8372 348
5.85732 390
5.87743 335
5.89754 348
5.91766 330
5.93777 320
5.95788 375
5.978 327
5.99811 328
6.01823 315
6.03834 327
6.05845 331
6.07857 346
6.09868 330
6.11879 334
6.13891 310
6.15902 321
6.17913 341
6.19925 352
6.21936 294
6.23948 330
6.25959 299
6.2797 297
6.29982 319
6.31993 274
6.34004 292
6.36016 275
6.38027 294
6.40039 300
6.4205 273
6.44061 294
6.46073 285
6.48084 333
6.50095 286
6.52107 272
6.54118 314
6.56129 272
6.58141 288
6.60152 249
6.62164 274
6.64175 306
6.66186 265
6.68198 279
6.70209 312
6.7222 305
6.74232 301
6.76243 310
6.78255 264
6.80266 315
6.82277 307
6.84289 263
6.863 296
6.88311 281
6.90323 282
6.92334 282
6.94346 294
6.96357 263
6.98368 263
7.0038 271
7.02391 286
7.04402 265
7.06414 264
7.08425 267
7.10436 307
7.12448 288
7.14459 295
7.16471 291
7.18482 279
7.20493 282
7.22505 272
7.24516 313
7.26527 253
7.28539 301
7.3055 269
7.32562 270
7.34573 273
7.36584 267
7.38596 295
7.40607 295
7.42618 307
7.4463 250
7.46641 259
7.48653 272
7.50664 294
7.52675 309
7.54687 310
7.56698 292
7.58709 286
7.60721 270
7.62732 328
7.64743 238
7.66755 250
7.68766 280
7.70778 275
7.72789 281
7.748 290
7.76812 299
7.78823 263
7.80834 286
7.82846 284
7.84857 280
7.86869 261
7.8888 267
7.90891 264
7.92903 273
7.94914 283
7.96925 241
7.98937 284
8.00948 256
8.0296 277
8.04971 285
8.06982 262
8.08994 307
8.11005 284
8.13016 282
8.15028 300
8.17039 270
8.1905 239
8.21062 276
8.23073 277
8.25085 281
8.27096 286
8.29107 260
8.31119 303
8.3313 294
8.35141 279
8.37153 294
8.39164 300
8.41176 293
8.43187 280
8.45198 304
8.4721 269
8.49221 283
8.51232 310
8.53244 293
8.55255 289
8.57266 309
8.59278 307
8.61289 309
8.63301 333
8.65312 279
8.67323 297
8.69335 274
8.71346 296
8.73357 304
8.75369 301
8.7738 332
8.79392 278
8.81403 326
8.83414 301
8.85426 279
8.87437 314
8.89448 314
8.9146 276
8.93471 309
8.95483 271
8.97494 333
8.99505 322
9.01517 322
9.03528 308
9.05539 306
9.07551 290
9.09562 266
9.11573 278
9.13585 268
9.15596 346
9.17608 276
9.19619 302
9.2163 256
9.23642 292
9.25653 258
9.27664 301
9.29676 278
9.31687 283
9.33699 271
9.3571 301
9.37721 303
9.39733 323
9.41744 295
9.43755 300
9.45767 294
9.47778 239
9.4979 275
9.51801 301
9.53812 287
9.55824 306
9.57835 319
9.59846 294
9.61858 300
9.63869 302
9.6588 345
9.67892 293
9.69903 318
9.71915 346
9.73926 373
9.75937 369
9.77949 351
9.7996 353
9.81971 362
9.83983 293
9.85994 307
9.88006 307
9.90017 319
9.92028 282
9.9404 316
9.96051 263
9.98062 285
10.00074 257
10.02085 280
10.04097 289
10.06108 279
10.08119 293
10.10131 308
10.12142 285
10.14153 327
10.16165 308
10.18176 310
10.20187 286
10.22199 319
10.2421 314
10.26222 342
10.28233 303
10.30244 290
10.32256 317
10.34267 357
10.36278 353
10.3829 414
10.40301 463
10.42313 539
10.44324 607
10.46335 691
10.48347 694
10.50358 718
10.52369 678
10.54381 587
10.56392 498
10.58403 401
10.60415 341
10.62426 344
10.64438 321
10.66449 332
10.6846 333
10.70472 302
10.72483 326
10.74494 309
10.76506 316
10.78517 281
10.80529 294
10.8254 280
10.84551 288
10.86563 291
10.88574 281
10.90585 302
10.92597 305
10.94608 273
10.9662 297
10.98631 282
11.00642 300
11.02654 296
11.04665 311
11.06676 288
11.08688 289
11.10699 303
11.1271 282
11.14722 320
11.16733 312
11.18745 269
11.20756 304
11.22767 288
11.24779 323
11.2679 294
11.28801 320
11.30813 305
11.32824 305
11.34836 249
11.36847 307
11.38858 313
11.4087 284
11.42881 271
11.44892 276
11.46904 282
11.48915 275
11.50927 265
11.52938 294
11.54949 290
11.56961 278
11.58972 284
11.60983 277
11.62995 288
11.65006 275
11.67017 269
11.69029 284
11.7104 287
11.73052 293
11.75063 301
11.77074 269
11.79086 300
11.81097 326
11.83108 276
11.8512 268
11.87131 259
11.89143 251
11.91154 292
11.93165 291
11.95177 308
11.97188 291
11.99199 276
12.01211 268
12.03222 271
12.05234 258
12.07245 278
12.09256 309
12.11268 279
12.13279 300
12.1529 311
12.17302 288
12.19313 293
12.21324 298
12.23336 296
12.25347 272
12.27359 280
12.2937 300
12.31381 261
12.33393 305
12.35404 270
12.37415 233
12.39427 260
12.41438 247
12.4345 268
12.45461 272
12.47472 259
12.49484 288
12.51495 292
12.53506 282
12.55518 262
12.57529 302
12.5954 262
12.61552 273
12.63563 277
12.65575 276
12.67586 282
12.69597 271
12.71609 283
12.7362 320
12.75631 257
12.77643 281
12.79654 279
12.81666 299
12.83677 260
12.85688 296
12.877 284
12.89711 344
12.91722 262
12.93734 265
12.95745 270
12.97757 273
12.99768 283
13.01779 288
13.03791 285
13.05802 265
13.07813 271
13.09825 256
13.11836 305
13.13847 304
13.15859 274
13.1787 286
13.19882 331
13.21893 336
13.23904 281
13.25916 304
13.27927 264
13.29938 302
13.3195 307
13.33961 269
13.35973 253
13.37984 282
13.39995 272
13.42007 269
13.44018 268
13.46029 308
13.48041 279
13.50052 287
13.52064 301
13.54075 288
13.56086 278
13.58098 298
13.60109 323
13.6212 335
13.64132 317
13.66143 310
13.68154 313
13.70166 280
13.72177 321
13.74189 343
13.762 277
13.78211 305
13.80223 289
13.82234 320
13.84245 338
13.86257 321
13.88268 337
13.9028 312
13.92291 322
13.94302 303
13.96314 287
13.98325 314
14.00336 305
14.02348 271
14.04359 290
14.06371 296
14.08382 269
14.10393 296
14.12405 273
14.14416 287
14.16427 266
14.18439 309
14.2045 276
14.22461 262
14.24473 283
14.26484 253
14.28496 301
14.30507 252
14.32518 274
14.3453 300
14.36541 258
14.38552 266
14.40564 265
14.42575 270
14.44587 284
14.46598 279
14.48609 260
14.50621 274
14.52632 266
14.54643 258
14.56655 299
14.58666 275
14.60677 271
14.62689 297
14.647 275
14.66712 282
14.68723 280
14.70734 279
14.72746 279
14.74757 275
14.76768 270
14.7878 245
14.80791 248
14.82803 286
14.84814 269
14.86825 264
14.88837 238
14.90848 263
14.92859 294
14.94871 292
14.96882 297
14.98894 251
15.00905 284
15.02916 281
15.04928 262
15.06939 297
15.0895 293
15.10962 276
15.12973 255
15.14984 285
15.16996 249
15.19007 295
15.21019 300
15.2303 260
15.25041 287
15.27053 254
15.29064 277
15.31075 272
15.33087 277
15.35098 245
15.3711 250
15.39121 229
15.41132 260
15.43144 256
15.45155 259
15.47166 277
15.49178 234
15.51189 254
15.53201 265
15.55212 265
15.57223 260
15.59235 289
15.61246 242
15.63257 260
15.65269 264
15.6728 292
15.69291 253
15.71303 276
15.73314 272
15.75326 275
15.77337 245
15.79348 255
15.8136 303
15.83371 283
15.85382 280
15.87394 280
15.89405 293
15.91417 247
15.93428 306
15.95439 259
15.97451 271
15.99462 294
16.01473 263
16.03485 300
16.05496 275
16.07508 271
16.09519 263
16.1153 264
16.13542 269
16.15553 262
16.17564 269
16.19576 291
16.21587 277
16.23598 286
16.2561 243
16.27621 279
16.29633 264
16.31644 263
16.33655 251
16.35667 257
16.37678 258
16.39689 268
16.41701 286
16.43712 285
16.45724 276
16.47735 279
16.49746 309
16.51758 252
16.53769 284
16.5578 279
16.57792 310
16.59803 290
16.61814 273
16.63826 284
16.65837 258
16.67849 280
16.6986 239
16.71871 292
16.73883 235
16.75894 250
16.77905 273
16.79917 249
16.81928 262
16.8394 261
16.85951 292
16.87962 280
16.89974 245
16.91985 255
16.93996 251
16.96008 287
16.98019 263
17.00031 238
17.02042 252
17.04053 284
17.06065 259
17.08076 246
17.10087 298
17.12099 263
17.1411 295
17.16121 242
17.18133 254
17.20144 295
17.22156 259
17.24167 285
17.26178 274
17.2819 286
17.30201 288
17.32212 256
17.34224 309
17.36235 264
17.38247 260
17.40258 288
17.42269 307
17.44281 272
17.46292 268
17.48303 272
17.50315 258
17.52326 269
17.54338 287
17.56349 274
17.5836 268
17.60372 293
17.62383 314
17.64394 323
17.66406 320
17.68417 293
17.70428 330
17.7244 305
17.74451 259
17.76463 286
17.78474 285
17.80485 291
17.82497 271
17.84508 288
17.86519 267
17.88531 277
17.90542 309
17.92554 303
17.94565 286
17.96576 364
17.98588 351
18.00599 324
18.0261 328
18.04622 326
18.06633 319
18.08645 314
18.10656 264
18.12667 278
18.14679 274
18.1669 284
18.18701 275
18.20713 262
18.22724 253
18.24735 267
18.26747 274
18.28758 229
18.3077 307
18.32781 248
18.34792 266
18.36804 262
18.38815 245
18.40826 262
18.42838 282
18.44849 276
18.46861 290
18.48872 268
18.50883 257
18.52895 273
18.54906 275
18.56917 248
18.58929 255
18.6094 265
18.62951 277
18.64963 281
18.66974 280
18.68986 248
18.70997 236
18.73008 285
18.7502 285
18.77031 258
18.79042 259
18.81054 294
18.83065 306
18.85077 273
18.87088 278
18.89099 291
18.91111 258
18.93122 269
18.95133 271
18.97145 280
18.99156 264
19.01168 243
19.03179 284
19.0519 270
19.07202 265
19.09213 289
19.11224 255
19.13236 274
19.15247 276
19.17258 289
19.1927 291
19.21281 315
19.23293 293
19.25304 276
19.27315 319
19.29327 284
19.31338 312
19.33349 333
19.35361 267
19.37372 320
19.39384 296
19.41395 278
19.43406 294
19.45418 302
19.47429 308
19.4944 292
19.51452 280
19.53463 320
19.55475 318
19.57486 333
19.59497 362
19.61509 324
19.6352 337
19.65531 285
19.67543 341
19.69554 326
19.71565 337
19.73577 327
19.75588 330
19.776 314
19.79611 321
19.81622 331
19.83634 342
19.85645 326
19.87656 362
19.89668 343
19.91679 347
19.93691 373
19.95702 377
19.97713 397
19.99725 345
20.01736 378
20.03747 350
20.05759 338
20.0777 360
20.09782 356
20.11793 316
20.13804 285
20.15816 359
20.17827 327
20.19838 327
20.2185 328
20.23861 344
20.25872 308
20.27884 315
20.29895 323
20.31907 318
20.33918 334
20.35929 280
20.37941 361
20.39952 328
20.41963 349
20.43975 352
20.45986 329
20.47998 342
20.50009 344
20.5202 389
20.54032 330
20.56043 362
20.58054 385
20.60066 361
20.62077 477
20.64088 445
20.661 412
20.68111 456
20.70123 503
20.72134 629
20.74145 782
20.76157 1110
20.78168 1590
20.80179 2202
20.82191 3102
20.84202 3838
20.86214 4046
20.88225 3822
20.90236 2968
20.92248 2217
20.94259 1525
20.9627 1047
20.98282 752
21.00293 684
21.02305 641
21.04316 585
21.06327 618
21.08339 524
21.1035 491
21.12361 422
21.14373 375
21.16384 383
21.18395 383
21.20407 355
21.22418 366
21.2443 316
21.26441 350
21.28452 345
21.30464 329
21.32475 307
21.34486 342
21.36498 327
21.38509 298
21.40521 306
21.42532 337
21.44543 327
21.46555 342
21.48566 349
21.50577 340
21.52589 318
21.546 329
21.56612 322
21.58623 346
21.60634 342
21.62646 346
21.64657 318
21.66668 309
21.6868 341
21.70691 308
21.72702 325
21.74714 320
21.76725 327
21.78737 322
21.80748 299
21.82759 327
21.84771 329
21.86782 341
21.88793 328
21.90805 390
21.92816 372
21.94828 451
21.96839 486
21.9885 510
22.00862 572
22.02873 551
22.04884 535
22.06896 468
22.08907 447
22.10919 413
22.1293 356
22.14941 380
22.16953 400
22.18964 343
22.20975 361
22.22987 354
22.24998 403
22.27009 376
22.29021 348
22.31032 387
22.33044 361
22.35055 384
22.37066 379
22.39078 325
22.41089 352
22.431 353
22.45112 344
22.47123 339
22.49135 297
22.51146 340
22.53157 334
22.55169 335
22.5718 271
22.59191 309
22.61203 358
22.63214 321
22.65225 306
22.67237 346
22.69248 319
22.7126 338
22.73271 347
22.75282 318
22.77294 305
22.79305 304
22.81316 372
22.83328 316
22.85339 340
22.87351 342
22.89362 301
22.91373 341
22.93385 370
22.95396 337
22.97407 316
22.99419 342
23.0143 346
23.03442 349
23.05453 359
23.07464 341
23.09476 385
23.11487 351
23.13498 327
23.1551 362
23.17521 368
23.19532 374
23.21544 388
23.23555 369
23.25567 376
23.27578 363
23.29589 332
23.31601 340
23.33612 314
23.35623 299
23.37635 365
23.39646 355
23.41658 366
23.43669 364
23.4568 393
23.47692 388
23.49703 382
23.51714 416
23.53726 445
23.55737 467
23.57749 512
23.5976 497
23.61771 486
23.63783 498
23.65794 489
23.67805 434
23.69817 425
23.71828 421
23.73839 445
23.75851 429
23.77862 527
23.79874 511
23.81885 474
23.83896 520
23.85908 508
23.87919 508
23.8993 510
23.91942 468
23.93953 485
23.95965 477
23.97976 466
23.99987 453
24.01999 464
24.0401 461
24.06021 461
24.08033 405
24.10044 413
24.12056 375
24.14067 405
24.16078 405
24.1809 374
24.20101 432
24.22112 436
24.24124 401
24.26135 423
24.28146 422
24.30158 399
24.32169 436
24.34181 468
24.36192 409
24.38203 369
24.40215 349
24.42226 354
24.44237 354
24.46249 334
24.4826 310
24.50272 301
24.52283 361
24.54294 319
24.56306 319
24.58317 302
24.60328 338
24.6234 333
24.64351 317
24.66362 351
24.68374 320
24.70385 326
24.72397 323
24.74408 312
24.76419 324
24.78431 288
24.80442 329
24.82453 332
24.84465 334
24.86476 350
24.88488 308
24.90499 322
24.9251 318
24.94522 336
24.96533 326
24.98544 323
25.00556 336
25.02567 321
25.04579 325
25.0659 344
25.08601 342
25.10613 324
25.12624 297
25.14635 319
25.16647 321
25.18658 318
25.20669 342
25.22681 343
25.24692 345
25.26704 342
25.28715 356
25.30726 388
25.32738 355
25.34749 378
25.3676 353
25.38772 352
25.40783 395
25.42795 387
25.44806 451
25.46817 398
25.48829 491
25.5084 472
25.52851 490
25.54863 565
25.56874 519
25.58886 488
25.60897 541
25.62908 503
25.6492 513
25.66931 467
25.68942 473
25.70954 487
25.72965 477
25.74976 422
25.76988 394
25.78999 445
25.81011 448
25.83022 439
25.85033 405
25.87045 434
25.89056 453
25.91067 436
25.93079 426
25.9509 484
25.97102 439
25.99113 463
26.01124 413
26.03136 479
26.05147 466
26.07158 490
26.0917 545
26.11181 495
26.13193 540
26.15204 608
26.17215 615
26.19227 640
26.21238 639
26.23249 681
26.25261 732
26.27272 715
26.29283 734
26.31295 795
26.33306 771
26.35318 822
26.37329 947
26.3934 992
26.41352 1112
26.43363 1199
26.45374 1399
26.47386 1756
26.49397 2199
26.51409 2973
26.5342 4342
26.55431 6347
26.57443 9114
26.59454 13062
26.61465 16229
26.63477 18362
26.65488 16960
26.67499 13554
26.69511 10564
26.71522 8261
26.73534 5480
26.75545 3195
26.77556 1805
26.79568 1333
26.81579 1150
26.8359 1067
26.85602 950
26.87613 936
26.89625 960
26.91636 945
26.93647 900
26.95659 882
26.9767 845
26.99681 872
27.01693 813
27.03704 771
27.05716 714
27.07727 768
27.09738 731
27.1175 703
27.13761 699
27.15772 679
27.17784 608
27.19795 615
27.21806 558
27.23818 566
27.25829 499
27.27841 537
27.29852 559
27.31863 549
27.33875 626
27.35886 634
27.37897 647
27.39909 768
27.4192 848
27.43932 917
27.45943 896
27.47954 925
27.49966 916
27.51977 885
27.53988 767
27.56 669
27.58011 624
27.60023 588
27.62034 583
27.64045 485
27.66057 546
27.68068 577
27.70079 550
27.72091 650
27.74102 688
27.76113 712
27.78125 722
27.80136 754
27.82148 747
27.84159 738
27.8617 709
27.88182 764
27.90193 834
27.92204 845
27.94216 782
27.96227 799
27.98239 795
28.0025 744
28.02261 695
28.04273 641
28.06284 543
28.08295 493
28.10307 517
28.12318 463
28.1433 456
28.16341 407
28.18352 450
28.20364 433
28.22375 417
28.24386 442
28.26398 476
28.28409 458
28.3042 428
28.32432 400
28.34443 439
28.36455 442
28.38466 428
28.40477 432
28.42489 456
28.445 516
28.46511 463
28.48523 492
28.50534 465
28.52546 478
28.54557 497
28.56568 466
28.5858 430
28.60591 439
28.62602 428
28.64614 385
28.66625 369
28.68636 314
28.70648 354
28.72659 326
28.74671 318
28.76682 330
28.78693 311
28.80705 309
28.82716 339
28.84727 313
28.86739 345
28.8875 301
28.90762 333
28.92773 326
28.94784 347
28.96796 299
28.98807 296
29.00818 338
29.0283 323
29.04841 323
29.06853 313
29.08864 278
29.10875 332
29.12887 300
29.14898 306
29.16909 303
29.18921 329
29.20932 313
29.22943 328
29.24955 321
29.26966 340
29.28978 332
29.30989 311
29.33 329
29.35012 334
29.37023 332
29.39034 371
29.41046 349
29.43057 349
29.45069 347
29.4708 357
29.49091 342
29.51103 350
29.53114 356
29.55125 307
29.57137 361
29.59148 334
29.6116 358
29.63171 359
29.65182 334
29.67194 357
29.69205 372
29.71216 403
29.73228 397
29.75239 420
29.7725 422
29.79262 433
29.81273 457
29.83285 427
29.85296 456
29.87307 451
29.89319 372
29.9133 409
29.93341 391
29.95353 365
29.97364 391
29.99376 400
30.01387 351
30.03398 385
30.0541 367
30.07421 398
30.09432 391
30.11444 437
30.13455 369
30.15467 420
30.17478 420
30.19489 426
30.21501 460
30.23512 470
30.25523 451
30.27535 446
30.29546 462
30.31557 505
30.33569 456
30.3558 508
30.37592 442
30.39603 501
30.41614 445
30.43626 411
30.45637 468
30.47648 420
30.4966 457
30.51671 429
30.53683 431
30.55694 392
30.57705 415
30.59717 359
30.61728 391
30.63739 388
30.65751 381
30.67762 416
30.69773 437
30.71785 442
30.73796 450
30.75808 512
30.77819 503
30.7983 525
30.81842 555
30.83853 577
30.85864 533
30.87876 537
30.89887 481
30.91899 447
30.9391 442
30.95921 395
30.97933 402
30.99944 400
31.01955 364
31.03967 357
31.05978 325
31.0799 313
31.10001 318
31.12012 337
31.14024 335
31.16035 330
31.18046 367
31.20058 303
31.22069 322
31.2408 299
31.26092 319
31.28103 321
31.30115 361
31.32126 336
31.34137 336
31.36149 350
31.3816 344
31.40171 371
31.42183 365
31.44194 338
31.46206 360
31.48217 306
31.50228 311
31.5224 346
31.54251 314
31.56262 361
31.58274 351
31.60285 335
31.62297 352
31.64308 291
31.66319 317
31.68331 360
31.70342 370
31.72353 354
31.74365 380
31.76376 387
31.78387 395
31.80399 420
31.8241 396
31.84422 370
31.86433 343
31.88444 361
31.90456 351
31.92467 312
31.94478 328
31.9649 319
31.98501 320
32.00513 333
32.02524 367
32.04535 329
32.06547 355
32.08558 351
32.10569 364
32.12581 360
32.14592 354
32.16604 337
32.18615 351
32.20626 381
32.22638 383
32.24649 395
32.2666 360
32.28672 389
32.30683 365
32.32694 450
32.34706 469
32.36717 440
32.38729 474
32.4074 509
32.42751 539
32.44763 569
32.46774 630
32.48785 690
32.50797 698
32.52808 762
32.5482 707
32.56831 743
32.58842 712
32.60854 735
32.62865 596
32.64876 590
32.66888 519
32.68899 485
32.7091 482
32.72922 445
32.74933 439
32.76945 449
32.78956 412
32.80967 426
32.82979 410
32.8499 454
32.87001 458
32.89013 491
32.91024 508
32.93036 518
32.95047 518
32.97058 483
32.9907 519
33.01081 541
33.03092 528
33.05104 478
33.07115 456
33.09127 449
33.11138 426
33.13149 444
33.15161 414
33.17172 403
33.19183 362
33.21195 397
33.23206 379
33.25217 351
33.27229 357
33.2924 334
33.31252 368
33.33263 362
33.35274 373
33.37286 345
33.39297 340
33.41308 340
33.4332 341
33.45331 358
33.47343 299
33.49354 322
33.51365 336
33.53377 327
33.55388 321
33.57399 325
33.59411 298
33.61422 310
33.63434 319
33.65445 337
33.67456 284
33.69468 326
33.71479 333
33.7349 354
33.75502 326
33.77513 321
33.79524 323
33.81536 332
33.83547 325
33.85559 337
33.8757 337
33.89581 328
33.91593 345
33.93604 352
33.95615 303
33.97627 305
33.99638 320
34.0165 334
34.03661 298
34.05672 300
34.07684 319
34.09695 325
34.11706 350
34.13718 332
34.15729 340
34.17741 355
34.19752 354
34.21763 378
34.23775 342
34.25786 373
34.27797 416
34.29809 400
34.3182 449
34.33831 449
34.35843 433
34.37854 461
34.39866 464
34.41877 499
34.43888 519
34.459 482
34.47911 473
34.49922 506
34.51934 482
34.53945 493
34.55957 467
34.57968 477
34.59979 469
34.61991 450
34.64002 393
34.66013 434
34.68025 426
34.70036 429
34.72047 425
34.74059 393
34.7607 403
34.78082 421
34.80093 403
34.82104 371
34.84116 392
34.86127 392
34.88138 378
34.9015 396
34.92161 454
34.94173 434
34.96184 451
34.98195 385
35.00207 447
35.02218 468
35.04229 490
35.06241 499
35.08252 509
35.10264 505
35.12275 503
35.14286 555
35.16298 563
35.18309 591
35.2032 661
35.22332 647
35.24343 693
35.26354 690
35.28366 674
35.30377 609
35.32389 587
35.344 596
35.36411 580
35.38423 540
35.40434 545
35.42445 486
35.44457 493
35.46468 544
35.4848 498
35.50491 497
35.52502 469
35.54514 496
35.56525 481
35.58536 496
35.60548 450
35.62559 418
35.64571 431
35.66582 480
35.68593 398
35.70605 393
35.72616 357
35.74627 388
35.76639 382
35.7865 361
35.80661 349
35.82673 387
35.84684 357
35.86696 383
35.88707 343
35.90718 347
35.9273 349
35.94741 395
35.96752 355
35.98764 359
36.00775 349
36.02787 399
36.04798 355
36.06809 383
36.08821 349
36.10832 357
36.12843 354
36.14855 334
36.16866 371
36.18878 351
36.20889 374
36.229 316
36.24912 376
36.26923 395
36.28934 352
36.30946 382
36.32957 355
36.34968 374
36.3698 427
36.38991 454
36.41003 534
36.43014 627
36.45025 730
36.47037 864
36.49048 1107
36.51059 1308
36.53071 1504
36.55082 1395
36.57094 1166
36.59105 985
36.61116 953
36.63128 919
36.65139 785
36.6715 615
36.69162 460
36.71173 398
36.73184 386
36.75196 378
36.77207 331
36.79219 354
36.8123 355
36.83241 355
36.85253 343
36.87264 325
36.89275 320
36.91287 367
36.93298 342
36.9531 347
36.97321 356
36.99332 326
37.01344 326
37.03355 324
37.05366 317
37.07378 326
37.09389 305
37.11401 317
37.13412 344
37.15423 356
37.17435 322
37.19446 308
37.21457 305
37.23469 318
37.2548 292
37.27491 310
37.29503 329
37.31514 320
37.33526 309
37.35537 354
37.37548 351
37.3956 333
37.41571 322
37.43582 332
37.45594 331
37.47605 364
37.49617 302
37.51628 342
37.53639 360
37.55651 351
37.57662 378
37.59673 357
37.61685 337
37.63696 337
37.65708 322
37.67719 354
37.6973 348
37.71742 312
37.73753 336
37.75764 307
37.77776 316
37.79787 317
37.81798 316
37.8381 311
37.85821 295
37.87833 293
37.89844 312
37.91855 295
37.93867 273
37.95878 318
37.97889 293
37.99901 286
38.01912 319
38.03924 277
38.05935 320
38.07946 291
38.09958 281
38.11969 300
38.1398 322
38.15992 298
38.18003 351
38.20015 340
38.22026 363
38.24037 331
38.26049 320
38.2806 330
38.30071 330
38.32083 341
38.34094 345
38.36105 346
38.38117 377
38.40128 359
38.4214 373
38.44151 342
38.46162 347
38.48174 371
38.50185 371
38.52196 358
38.54208 328
38.56219 343
38.58231 334
38.60242 366
38.62253 311
38.64265 311
38.66276 302
38.68287 329
38.70299 300
38.7231 306
38.74321 301
38.76333 283
38.78344 274
38.80356 333
38.82367 303
38.84378 272
38.8639 340
38.88401 309
38.90412 325
38.92424 312
38.94435 306
38.96447 290
38.98458 282
39.00469 305
39.02481 328
39.04492 338
39.06503 322
39.08515 315
39.10526 319
39.12538 340
39.14549 349
39.1656 399
39.18572 348
39.20583 372
39.22594 374
39.24606 417
39.26617 385
39.28628 443
39.3064 456
39.32651 483
39.34663 590
39.36674 691
39.38685 821
39.40697 1020
39.42708 1257
39.44719 1220
39.46731 1344
39.48742 1160
39.50754 977
39.52765 852
39.54776 789
39.56788 782
39.58799 676
39.6081 484
39.62822 383
39.64833 383
39.66845 362
39.68856 341
39.70867 329
39.72879 351
39.7489 327
39.76901 290
39.78913 313
39.80924 317
39.82935 313
39.84947 307
39.86958 326
39.8897 278
39.90981 314
39.92992 296
39.95004 300
39.97015 298
39.99026 305
40.01038 305
40.03049 358
40.05061 302
40.07072 323
40.09083 384
40.11095 354
40.13106 383
40.15117 409
40.17129 469
40.1914 502
40.21152 592
40.23163 726
40.25174 834
40.27186 815
40.29197 779
40.31208 715
40.3322 647
40.35231 610
40.37242 604
40.39254 563
40.41265 503
40.43277 428
40.45288 406
40.47299 357
40.49311 369
40.51322 352
40.53333 398
40.55345 325
40.57356 338
40.59368 336
40.61379 313
40.6339 322
40.65402 322
40.67413 280
40.69424 307
40.71436 309
40.73447 288
40.75458 332
40.7747 286
40.79481 352
40.81493 320
40.83504 318
40.85515 361
40.87527 312
40.89538 335
40.91549 278
40.93561 295
40.95572 290
40.97584 277
40.99595 333
41.01606 288
41.03618 328
41.05629 303
41.0764 313
41.09652 319
41.11663 307
41.13675 332
41.15686 345
41.17697 333
41.19709 318
41.2172 308
41.23731 369
41.25743 304
41.27754 307
41.29765 330
41.31777 313
41.33788 312
41.358 323
41.37811 302
41.39822 309
41.41834 324
41.43845 320
41.45856 303
41.47868 346
41.49879 326
41.51891 345
41.53902 314
41.55913 388
41.57925 344
41.59936 362
41.61947 386
41.63959 374
41.6597 358
41.67982 365
41.69993 379
41.72004 380
41.74016 390
41.76027 368
41.78038 409
41.8005 364
41.82061 367
41.84072 325
41.86084 350
41.88095 352
41.90107 317
41.92118 339
41.94129 316
41.96141 311
41.98152 294
42.00163 254
42.02175 307
42.04186 303
42.06198 300
42.08209 308
42.1022 313
42.12232 297
42.14243 315
42.16254 295
42.18266 302
42.20277 313
42.22289 328
42.243 319
42.26311 374
42.28323 363
42.30334 403
42.32345 445
42.34357 525
42.36368 671
42.38379 781
42.40391 868
42.42402 1035
42.44414 980
42.46425 841
42.48436 806
42.50448 690
42.52459 653
42.5447 625
42.56482 610
42.58493 520
42.60505 420
42.62516 369
42.64527 352
42.66539 356
42.6855 342
42.70561 352
42.72573 370
42.74584 364
42.76595 347
42.78607 325
42.80618 334
42.8263 338
42.84641 360
42.86652 353
42.88664 324
42.90675 319
42.92686 303
42.94698 294
42.96709 307
42.98721 277
43.00732 300
43.02743 282
43.04755 264
43.06766 302
43.08777 267
43.10789 254
43.128 279
43.14812 261
43.16823 275
43.18834 308
43.20846 298
43.22857 260
43.24868 275
43.2688 262
43.28891 255
43.30902 243
43.32914 291
43.34925 234
43.36937 255
43.38948 270
43.40959 295
43.42971 261
43.44982 274
43.46993 270
43.49005 288
43.51016 275
43.53028 294
43.55039 250
43.5705 301
43.59062 275
43.61073 288
43.63084 290
43.65096 299
43.67107 296
43.69119 304
43.7113 320
43.73141 314
43.75153 299
43.77164 296
43.79175 296
43.81187 295
43.83198 276
43.85209 269
43.87221 322
43.89232 309
43.91244 278
43.93255 269
43.95266 275
43.97278 277
43.99289 281
44.013 302
44.03312 293
44.05323 284
44.07335 294
44.09346 314
44.11357 271
44.13369 288
44.1538 262
44.17391 300
44.19403 294
44.21414 287
44.23426 303
44.25437 297
44.27448 296
44.2946 265
44.31471 260
44.33482 289
44.35494 287
44.37505 258
44.39516 269
44.41528 276
44.43539 269
44.45551 273
44.47562 270
44.49573 262
44.51585 296
44.53596 260
44.55607 297
44.57619 290
44.5963 289
44.61642 306
44.63653 282
44.65664 287
44.67676 303
44.69687 281
44.71698 281
44.7371 276
44.75721 301
44.77732 318
44.79744 304
44.81755 305
44.83767 289
44.85778 309
44.87789 273
44.89801 288
44.91812 274
44.93823 281
44.95835 280
44.97846 267
44.99858 289
45.01869 286
45.0388 284
45.05892 267
45.07903 247
45.09914 273
45.11926 288
45.13937 267
45.15949 281
45.1796 314
45.19971 294
45.21983 286
45.23994 278
45.26005 279
45.28017 278
45.30028 279
45.32039 273
45.34051 269
45.36062 272
45.38074 282
45.40085 269
45.42096 283
45.44108 277
45.46119 291
45.4813 292
45.50142 303
45.52153 290
45.54165 318
45.56176 285
45.58187 305
45.60199 299
45.6221 351
45.64221 352
45.66233 357
45.68244 474
45.70256 515
45.72267 568
45.74278 665
45.7629 725
45.78301 733
45.80312 689
45.82324 577
45.84335 527
45.86346 513
45.88358 459
45.90369 519
45.92381 458
45.94392 380
45.96403 360
45.98415 296
46.00426 290
46.02437 288
46.04449 270
46.0646 261
46.08472 286
46.10483 280
46.12494 252
46.14506 247
46.16517 278
46.18528 257
46.2054 281
46.22551 261
46.24563 294
46.26574 287
46.28585 269
46.30597 246
46.32608 262
46.34619 232
46.36631 253
46.38642 265
46.40653 250
46.42665 240
46.44676 258
46.46688 238
46.48699 256
46.5071 262
46.52722 234
46.54733 240
46.56744 273
46.58756 270
46.60767 246
46.62779 277
46.6479 222
46.66801 229
46.68813 266
46.70824 253
46.72835 246
46.74847 249
46.76858 256
46.78869 267
46.80881 245
46.82892 277
46.84904 296
46.86915 249
46.88926 270
46.90938 246
46.92949 265
46.9496 279
46.96972 257
46.98983 256
47.00995 247
47.03006 241
47.05017 283
47.07029 264
47.0904 255
47.11051 260
47.13063 270
47.15074 260
47.17086 272
47.19097 277
47.21108 298
47.2312 249
47.25131 280
47.27142 253
47.29154 247
47.31165 288
47.33176 252
47.35188 263
47.37199 284
47.39211 255
47.41222 264
47.43233 256
47.45245 287
47.47256 262
47.49267 279
47.51279 274
47.5329 249
47.55302 274
47.57313 269
47.59324 271
47.61336 245
47.63347 288
47.65358 235
47.6737 268
47.69381 232
47.71393 279
47.73404 228
47.75415 248
47.77427 267
47.79438 266
47.81449 219
47.83461 242
47.85472 248
47.87483 251
47.89495 235
47.91506 256
47.93518 273
47.95529 289
47.9754 284
47.99552 291
48.01563 254
48.03574 258
48.05586 269
48.07597 282
48.09609 279
48.1162 234
48.13631 274
48.15643 275
48.17654 303
48.19665 319
48.21677 259
48.23688 297
48.257 319
48.27711 308
48.29722 294
48.31734 318
48.33745 276
48.35756 270
48.37768 297
48.39779 314
48.4179 298
48.43802 324
48.45813 293
48.47825 313
48.49836 312
48.51847 336
48.53859 329
48.5587 332
48.57881 345
48.59893 384
48.61904 320
48.63916 362
48.65927 390
48.67938 374
48.6995 362
48.71961 381
48.73972 368
48.75984 393
48.77995 374
48.80006 345
48.82018 379
48.84029 387
48.86041 333
48.88052 332
48.90063 310
48.92075 339
48.94086 328
48.96097 296
48.98109 296
49.0012 318
49.02132 301
49.04143 342
49.06154 296
49.08166 310
49.10177 317
49.12188 325
49.142 332
49.16211 310
49.18223 304
49.20234 305
49.22245 286
49.24257 311
49.26268 263
49.28279 296
49.30291 281
49.32302 262
49.34313 267
49.36325 290
49.38336 294
49.40348 280
49.42359 287
49.4437 261
49.46382 292
49.48393 281
49.50404 280
49.52416 254
49.54427 266
49.56439 280
49.5845 305
49.60461 287
49.62473 305
49.64484 336
49.66495 327
49.68507 319
49.70518 316
49.7253 323
49.74541 307
49.76552 327
49.78564 310
49.80575 368
49.82586 349
49.84598 382
49.86609 370
49.8862 383
49.90632 367
49.92643 418
49.94655 477
49.96666 546
49.98677 587
50.00689 730
50.027 914
50.04711 1182
50.06723 1372
50.08734 1562
50.10746 1763
50.12757 1789
50.14768 1696
50.1678 1332
50.18791 1054
50.20802 1026
50.22814 1084
50.24825 1097
50.26837 975
50.28848 824
50.30859 631
50.32871 517
50.34882 425
50.36893 365
50.38905 370
50.40916 340
50.42927 369
50.44939 366
50.4695 328
50.48962 341
50.50973 359
50.52984 396
50.54996 376
50.57007 363
50.59018 390
50.6103 364
50.63041 370
50.65053 345
50.67064 335
50.69075 341
50.71087 301
50.73098 343
50.75109 336
50.77121 321
50.79132 282
50.81143 311
50.83155 278
50.85166 306
50.87178 271
50.89189 274
50.912 285
50.93212 234
50.95223 266
50.97234 264
50.99246 278
51.01257 287
51.03269 265
51.0528 259
51.07291 272
51.09303 262
51.11314 283
51.13325 261
51.15337 245
51.17348 243
51.1936 274
51.21371 281
51.23382 257
51.25394 268
51.27405 277
51.29416 265
51.31428 298
51.33439 255
51.3545 256
51.37462 294
51.39473 278
51.41485 244
51.43496 275
51.45507 294
51.47519 264
51.4953 250
51.51541 244
51.53553 263
51.55564 269
51.57576 251
51.59587 236
51.61598 259
51.6361 253
51.65621 249
51.67632 240
51.69644 274
51.71655 223
51.73667 249
51.75678 247
51.77689 236
51.79701 228
51.81712 237
51.83723 243
51.85735 257
51.87746 258
51.89757 267
51.91769 236
51.9378 229
51.95792 255
51.97803 261
51.99814 234
52.01826 265
52.03837 262
52.05848 259
52.0786 271
52.09871 271
52.11883 266
52.13894 289
52.15905 275
52.17917 270
52.19928 272
52.21939 259
52.23951 262
52.25962 287
52.27974 257
52.29985 251
52.31996 254
52.34008 274
52.36019 259
52.3803 274
52.40042 257
52.42053 265
52.44064 271
52.46076 273
52.48087 267
52.50099 269
52.5211 273
52.54121 263
52.56133 262
52.58144 272
52.60155 286
52.62167 259
52.64178 305
52.6619 283
52.68201 264
52.70212 292
52.72224 262
52.74235 288
52.76246 286
52.78258 283
52.80269 276
52.8228 301
52.84292 325
52.86303 295
52.88315 313
52.90326 322
52.92337 326
52.94349 330
52.9636 367
52.98371 333
53.00383 381
53.02394 363
53.04406 361
53.06417 396
53.08428 391
53.1044 359
53.12451 352
53.14462 394
53.16474 367
53.18485 374
53.20497 356
53.22508 340
53.24519 330
53.26531 354
53.28542 366
53.30553 373
53.32565 371
53.34576 322
53.36587 366
53.38599 337
53.4061 367
53.42622 319
53.44633 309
53.46644 327
53.48656 284
53.50667 290
53.52678 293
53.5469 292
53.56701 311
53.58713 312
53.60724 293
53.62735 286
53.64747 289
53.66758 310
53.68769 290
53.70781 341
53.72792 298
53.74804 270
53.76815 322
53.78826 292
53.80838 311
53.82849 345
53.8486 272
53.86872 331
53.88883 304
53.90894 300
53.92906 325
53.94917 304
53.96929 280
53.9894 333
54.00951 310
54.02963 330
54.04974 335
54.06985 320
54.08997 317
54.11008 303
54.1302 308
54.15031 313
54.17042 294
54.19054 294
54.21065 293
54.23076 350
54.25088 308
54.27099 324
54.29111 307
54.31122 327
54.33133 315
54.35145 314
54.37156 312
54.39167 294
54.41179 322
54.4319 307
54.45201 297
54.47213 303
54.49224 293
54.51236 296
54.53247 310
54.55258 316
54.5727 291
54.59281 285
54.61292 306
54.63304 300
54.65315 304
54.67327 307
54.69338 321
54.71349 373
54.73361 392
54.75372 430
54.77383 507
54.79395 607
54.81406 610
54.83417 673
54.85429 698
54.8744 657
54.89452 549
54.91463 489
54.93474 456
54.95486 463
54.97497 518
54.99508 486
55.0152 465
55.03531 432
55.05543 403
55.07554 362
55.09565 329
55.11577 297
55.13588 283
55.15599 296
55.17611 328
55.19622 331
55.21634 363
55.23645 414
55.25656 399
55.27668 428
55.29679 445
55.3169 452
55.33702 399
55.35713 415
55.37724 383
55.39736 363
55.41747 323
55.43759 324
55.4577 383
55.47781 389
55.49793 343
55.51804 337
55.53815 307
55.55827 286
55.57838 315
55.5985 292
55.61861 275
55.63872 297
55.65884 303
55.67895 288
55.69906 304
55.71918 255
55.73929 327
55.75941 276
55.77952 295
55.79963 291
55.81975 293
55.83986 291
55.85997 297
55.88009 303
55.9002 291
55.92031 289
55.94043 292
55.96054 279
55.98066 276
56.00077 291
56.02088 298
56.041 288
56.06111 293
56.08122 306
56.10134 256
56.12145 255
56.14157 281
56.16168 272
56.18179 302
56.20191 275
56.22202 274
56.24213 281
56.26225 288
56.28236 264
56.30248 299
56.32259 263
56.3427 277
56.36282 242
56.38293 257
56.40304 268
56.42316 252
56.44327 255
56.46338 264
56.4835 285
56.50361 263
56.52373 259
56.54384 281
56.56395 291
56.58407 285
56.60418 271
56.62429 297
56.64441 265
56.66452 284
56.68464 283
56.70475 279
56.72486 241
56.74498 279
56.76509 261
56.7852 291
56.80532 251
56.82543 262
56.84554 251
56.86566 265
56.88577 270
56.90589 257
56.926 278
56.94611 239
56.96623 244
56.98634 262
57.00645 270
57.02657 240
57.04668 236
57.0668 236
57.08691 228
57.10702 236
57.12714 262
57.14725 267
57.16736 256
57.18748 276
57.20759 269
57.22771 283
57.24782 265
57.26793 256
57.28805 280
57.30816 262
57.32827 260
57.34839 232
57.3685 290
57.38861 252
57.40873 243
57.42884 257
57.44896 252
57.46907 238
57.48918 260
57.5093 251
57.52941 281
57.54952 258
57.56964 264
57.58975 246
57.60987 300
57.62998 254
57.65009 243
57.67021 251
57.69032 235
57.71043 277
57.73055 262
57.75066 262
57.77078 255
57.79089 268
57.811 264
57.83112 256
57.85123 265
57.87134 269
57.89146 266
57.91157 245
57.93168 268
57.9518 249
57.97191 278
57.99203 279
58.01214 256
58.03225 265
58.05237 240
58.07248 236
58.09259 297
58.11271 286
58.13282 245
58.15294 264
58.17305 256
58.19316 252
58.21328 250
58.23339 250
58.2535 246
58.27362 264
58.29373 239
58.31385 237
58.33396 207
58.35407 252
58.37419 272
58.3943 259
58.41441 235
58.43453 231
58.45464 242
58.47475 226
58.49487 233
58.51498 241
58.5351 218
58.55521 240
58.57532 241
58.59544 272
58.61555 250
58.63566 220
58.65578 254
58.67589 253
58.69601 257
58.71612 270
58.73623 248
58.75635 233
58.77646 248
58.79657 252
58.81669 249
58.8368 245
58.85691 256
58.87703 233
58.89714 277
58.91726 227
58.93737 236
58.95748 242
58.9776 221
58.99771 247
59.01782 228
59.03794 245
59.05805 235
59.07817 219
59.09828 246
59.11839 234
59.13851 217
59.15862 225
59.17873 243
59.19885 258
59.21896 239
59.23908 254
59.25919 240
59.2793 241
59.29942 264
59.31953 250
59.33964 252
59.35976 245
59.37987 253
59.39998 252
59.4201 266
59.44021 298
59.46033 252
59.48044 244
59.50055 249
59.52067 271
59.54078 251
59.56089 265
59.58101 244
59.60112 279
59.62124 276
59.64135 299
59.66146 319
59.68158 312
59.70169 283
59.7218 301
59.74192 353
59.76203 384
59.78215 445
59.80226 522
59.82237 591
59.84249 718
59.8626 788
59.88271 948
59.90283 1047
59.92294 1131
59.94305 1197
59.96317 1007
59.98328 857
60.0034 684
60.02351 646
60.04362 637
60.06374 633
60.08385 704
60.10396 699
60.12408 603
60.14419 500
60.16431 408
60.18442 297
60.20453 321
60.22465 279
60.24476 249
60.26487 281
60.28499 273
60.3051 265
60.32522 296
60.34533 247
60.36544 259
60.38556 261
60.40567 268
60.42578 249
60.4459 261
60.46601 261
60.48612 260
60.50624 257
60.52635 263
60.54647 228
60.56658 253
60.58669 256
60.60681 275
60.62692 249
60.64703 249
60.66715 260
60.68726 263
60.70738 243
60.72749 237
60.7476 264
60.76772 233
60.78783 236
60.80794 259
60.82806 237
60.84817 265
60.86828 260
60.8884 245
60.90851 225
60.92863 239
60.94874 279
60.96885 240
60.98897 280
61.00908 265
61.02919 247
61.04931 234
61.06942 260
61.08954 239
61.10965 235
61.12976 242
61.14988 255
61.16999 253
61.1901 268
61.21022 246
61.23033 278
61.25045 267
61.27056 246
61.29067 275
61.31079 275
61.3309 269
61.35101 258
61.37113 267
61.39124 265
61.41135 280
61.43147 287
61.45158 282
61.4717 305
61.49181 323
61.51192 297
61.53204 299
61.55215 292
61.57226 322
61.59238 333
61.61249 281
61.63261 296
61.65272 310
61.67283 299
61.69295 298
61.71306 283
61.73317 295
61.75329 315
61.7734 259
61.79352 268
61.81363 263
61.83374 281
61.85386 259
61.87397 269
61.89408 288
61.9142 253
61.93431 260
61.95442 275
61.97454 242
61.99465 240
62.01477 238
62.03488 274
62.05499 235
62.07511 234
62.09522 246
62.11533 235
62.13545 241
62.15556 225
62.17568 278
62.19579 225
62.2159 224
62.23602 225
62.25613 233
62.27624 239
62.29636 241
62.31647 231
62.33659 241
62.3567 237
62.37681 226
62.39693 239
62.41704 263
62.43715 223
62.45727 229
62.47738 238
62.49749 246
62.51761 229
62.53772 236
62.55784 225
62.57795 229
62.59806 241
62.61818 229
62.63829 235
62.6584 243
62.67852 255
62.69863 245
62.71875 262
62.73886 249
62.75897 253
62.77909 230
62.7992 237
62.81931 245
62.83943 235
62.85954 260
62.87965 267
62.89977 230
62.91988 266
62.94 227
62.96011 261
62.98022 237
63.00034 263
63.02045 252
63.04056 262
63.06068 249
63.08079 287
63.10091 300
63.12102 268
63.14113 288
63.16125 268
63.18136 296
63.20147 308
63.22159 301
63.2417 301
63.26182 282
63.28193 284
63.30204 298
63.32216 288
63.34227 298
63.36238 254
63.3825 283
63.40261 257
63.42272 285
63.44284 286
63.46295 244
63.48307 256
63.50318 260
63.52329 270
63.54341 260
63.56352 261
63.58363 268
63.60375 273
63.62386 277
63.64398 259
63.66409 281
63.6842 265
63.70432 263
63.72443 310
63.74454 263
63.76466 283
63.78477 281
63.80489 347
63.825 281
63.84511 327
63.86523 318
63.88534 350
63.90545 310
63.92557 379
63.94568 350
63.96579 412
63.98591 411
64.00602 431
64.02614 429
64.04625 392
64.06636 347
64.08648 327
64.10659 329
64.1267 334
64.14682 331
64.16693 314
64.18705 328
64.20716 303
64.22727 268
64.24739 310
64.2675 271
64.28761 241
64.30773 239
64.32784 258
64.34796 264
64.36807 263
64.38818 250
64.4083 228
64.42841 243
64.44852 270
64.46864 263
64.48875 244
64.50886 226
64.52898 242
64.54909 252
64.56921 254
64.58932 255
64.60943 233
64.62955 225
64.64966 256
64.66977 250
64.68989 262
64.71 245
64.73012 242
64.75023 245
64.77034 243
64.79046 232
64.81057 219
64.83068 226
64.8508 221
64.87091 230
64.89102 238
64.91114 239
64.93125 247
64.95137 213
64.97148 237
64.99159 214
65.01171 227
65.03182 245
65.05193 211
65.07205 237
65.09216 227
65.11228 241
65.13239 242
65.1525 211
65.17262 251
65.19273 222
65.21284 230
65.23296 229
65.25307 239
65.27319 230
65.2933 248
65.31341 229
65.33353 247
65.35364 233
65.37375 227
65.39387 191
65.41398 239
65.43409 247
65.45421 251
65.47432 232
65.49444 227
65.51455 226
65.53466 237
65.55478 219
65.57489 213
65.595 259
65.61512 227
65.63523 241
65.65535 232
65.67546 234
65.69557 246
65.71569 243
65.7358 219
65.75591 266
65.77603 246
65.79614 263
65.81626 245
65.83637 186
65.85648 221
65.8766 219
65.89671 237
65.91682 248
65.93694 223
65.95705 250
65.97716 215
65.99728 232
66.01739 222
66.03751 225
66.05762 223
66.07773 231
66.09785 247
66.11796 241
66.13807 222
66.15819 216
66.1783 209
66.19842 211
66.21853 213
66.23864 256
66.25876 253
66.27887 231
66.29898 233
66.3191 224
66.33921 216
66.35933 221
66.37944 239
66.39955 217
66.41967 230
66.43978 233
66.45989 208
66.48001 246
66.50012 214
66.52023 237
66.54035 253
66.56046 229
66.58058 211
66.60069 228
66.6208 230
66.64092 228
66.66103 212
66.68114 220
66.70126 226
66.72137 237
66.74149 201
66.7616 236
66.78171 229
66.80183 250
66.82194 224
66.84205 208
66.86217 204
66.88228 230
66.90239 231
66.92251 202
66.94262 254
66.96274 254
66.98285 214
67.00296 229
67.02308 238
67.04319 246
67.0633 246
67.08342 217
67.10353 261
67.12365 252
67.14376 219
67.16387 242
67.18399 259
67.2041 240
67.22421 234
67.24433 214
67.26444 216
67.28456 246
67.30467 245
67.32478 231
67.3449 236
67.36501 228
67.38512 228
67.40524 214
67.42535 227
67.44546 247
67.46558 254
67.48569 261
67.50581 284
67.52592 302
67.54603 300
67.56615 324
67.58626 379
67.60637 416
67.62649 447
67.6466 587
67.66672 644
67.68683 650
67.70694 725
67.72706 689
67.74717 678
67.76728 570
67.7874 484
67.80751 459
67.82763 442
67.84774 497
67.86785 476
67.88797 535
67.90808 571
67.92819 536
67.94831 533
67.96842 497
67.98853 492
68.00865 504
68.02876 568
68.04888 688
68.06899 735
68.0891 806
68.10922 845
68.12933 904
68.14944 799
68.16956 736
68.18967 667
68.20979 601
68.2299 698
68.25001 760
68.27013 852
68.29024 803
68.31035 807
68.33047 760
68.35058 648
68.3707 515
68.39081 443
68.41092 417
68.43104 441
68.45115 399
68.47126 416
68.49138 421
68.51149 365
68.5316 334
68.55172 322
68.57183 272
68.59195 301
68.61206 270
68.63217 238
68.65229 249
68.6724 246
68.69251 249
68.71263 210
68.73274 253
68.75286 209
68.77297 204
68.79308 243
68.8132 233
68.83331 277
68.85342 242
68.87354 228
68.89365 232
68.91376 244
68.93388 239
68.95399 188
68.97411 231
68.99422 236
69.01433 230
69.03445 226
69.05456 238
69.07467 224
69.09479 211
69.1149 211
69.13502 242
69.15513 202
69.17524 220
69.19536 241
69.21547 243
69.23558 201
69.2557 209
69.27581 243
69.29593 228
69.31604 216
69.33615 222
69.35627 220
69.37638 213
69.39649 241
69.41661 221
69.43672 232
69.45683 239
69.47695 226
69.49706 225
69.51718 229
69.53729 209
69.5574 199
69.57752 208
69.59763 192
69.61774 225
69.63786 254
69.65797 216
69.67809 208
69.6982 251
69.71831 212
69.73843 217
69.75854 222
69.77865 226
69.79877 205
69.81888 244
69.839 232
69.85911 213
69.87922 237
69.89934 223
69.91945 226
69.93956 246
69.95968 212
69.97979 250
69.9999 221
70.02002 250
70.04013 232
70.06025 218
70.08036 236
70.10047 223
70.12059 254
70.1407 248
70.16081 247
70.18093 241
70.20104 250
70.22116 243
70.24127 240
70.26138 226
70.2815 217
70.30161 221
70.32172 192
70.34184 220
70.36195 203
70.38207 205
70.40218 203
70.42229 245
70.44241 201
70.46252 225
70.48263 204
70.50275 235
70.52286 209
70.54297 216
70.56309 228
70.5832 194
70.60332 201
70.62343 194
70.64354 207
70.66366 194
70.68377 207
70.70388 223
70.724 206
70.74411 186
70.76423 190
70.78434 202
70.80445 212
70.82457 218
70.84468 220
70.86479 205
70.88491 210
70.90502 193
70.92513 213
70.94525 186
70.96536 175
70.98548 200
71.00559 207
71.0257 200
71.04582 192
71.06593 224
71.08604 189
71.10616 183
71.12627 195
71.14639 198
71.1665 205
71.18661 186
71.20673 187
71.22684 210
71.24695 192
71.26707 210
71.28718 193
71.3073 194
71.32741 191
71.34752 218
71.36764 195
71.38775 228
71.40786 217
71.42798 215
71.44809 199
71.4682 204
71.48832 185
71.50843 222
71.52855 206
71.54866 188
71.56877 230
71.58889 196
71.609 199
71.62911 186
71.64923 225
71.66934 208
71.68946 231
71.70957 178
71.72968 202
71.7498 202
71.76991 223
71.79002 196
71.81014 192
71.83025 182
71.85037 222
71.87048 216
71.89059 196
71.91071 196
71.93082 189
71.95093 203
71.97105 192
71.99116 200
72.01127 198
72.03139 199
72.0515 192
72.07162 209
72.09173 175
72.11184 191
72.13196 193
72.15207 200
72.17218 201
72.1923 188
72.21241 205
72.23253 190
72.25264 207
72.27275 187
72.29287 201
72.31298 223
72.33309 191
72.35321 179
72.37332 213
72.39344 209
72.41355 214
72.43366 207
72.45378 206
72.47389 189
72.494 209
72.51412 195
72.53423 232
72.55434 190
72.57446 177
72.59457 192
72.61469 188
72.6348 199
72.65491 178
72.67503 213
72.69514 196
72.71525 188
72.73537 198
72.75548 194
72.7756 183
72.79571 199
72.81582 206
72.83594 206
72.85605 202
72.87616 204
72.89628 222
72.91639 196
72.9365 201
72.95662 183
72.97673 213
72.99685 194
73.01696 192
73.03707 237
73.05719 201
73.0773 199
73.09741 185
73.11753 200
73.13764 193
73.15776 183
73.17787 220
73.19798 201
73.2181 216
73.23821 212
73.25832 239
73.27844 211
73.29855 224
73.31867 260
73.33878 274
73.35889 253
73.37901 297
73.39912 309
73.41923 360
73.43935 352
73.45946 342
73.47957 320
73.49969 303
73.5198 285
73.53992 250
73.56003 250
73.58014 248
73.60026 267
73.62037 248
73.64048 284
73.6606 302
73.68071 255
73.70083 245
73.72094 224
73.74105 206
73.76117 228
73.78128 210
73.80139 204
73.82151 195
73.84162 217
73.86174 200
73.88185 169
73.90196 183
73.92208 217
73.94219 203
73.9623 205
73.98242 187
74.00253 190
74.02264 174
74.04276 191
74.06287 206
74.08299 182
74.1031 209
74.12321 178
74.14333 190
74.16344 193
74.18355 197
74.20367 177
74.22378 214
74.2439 198
74.26401 181
74.28412 195
74.30424 218
74.32435 198
74.34446 201
74.36458 227
74.38469 186
74.40481 216
74.42492 188
74.44503 205
74.46515 217
74.48526 206
74.50537 198
74.52549 204
74.5456 226
74.56571 197
74.58583 224
74.60594 193
74.62606 182
74.64617 210
74.66628 224
74.6864 203
74.70651 215
74.72662 211
74.74674 223
74.76685 235
74.78697 216
74.80708 216
74.82719 203
74.84731 195
74.86742 208
74.88753 184
74.90765 196
74.92776 195
74.94787 216
74.96799 228
74.9881 209
75.00822 191
