3.00117 20260
3.02128 19523
3.0414 18927
3.06151 18492
3.08162 18254
3.10174 17893
3.12185 16749
3.14197 16995
3.16208 15831
3.18219 15993
3.20231 15315
3.22242 14706
3.24253 14332
3.26265 13557
3.28276 13633
3.30288 13150
3.32299 12395
3.3431 12424
3.36322 11666
3.38333 11521
3.40344 10973
3.42356 10543
3.44367 10460
3.46379 10075
3.4839 9654
3.50401 9287
3.52413 9110
3.54424 8621
3.56435 8128
3.58447 8093
3.60458 7731
3.62469 7446
3.64481 7253
3.66492 6768
3.68504 6547
3.70515 6242
3.72526 6001
3.74538 5938
3.76549 5805
3.7856 5476
3.80572 5289
3.82583 5000
3.84595 4716
3.86606 4500
3.88617 4512
3.90629 4232
3.9264 3833
3.94651 3888
3.96663 3350
3.98674 3561
4.00686 3406
4.02697 3120
4.04708 3107
4.0672 2876
4.08731 2828
4.10742 2839
4.12754 2534
4.14765 2532
4.16776 2331
4.18788 2316
4.20799 2399
4.22811 2060
4.24822 2002
4.26833 1956
4.28845 1892
4.30856 2019
4.32867 1711
4.34879 1737
4.3689 1812
4.38902 1625
4.40913 1678
4.42924 1490
4.44936 1559
4.46947 1478
4.48958 1452
4.5097 1500
4.52981 1354
4.54992 1306
4.57004 1285
4.59015 1276
4.61027 1336
4.63038 1149
4.65049 1206
4.67061 1163
4.69072 1172
4.71083 1121
4.73095 1096
4.75106 991
4.77118 1093
4.79129 1035
4.8114 1039
4.83152 987
4.85163 907
4.87174 981
4.89186 877
4.91197 925
4.93209 852
4.9522 865
4.97231 792
4.99243 871
5.01254 808
5.03265 775
5.05277 817
5.07288 779
5.09299 765
5.11311 779
5.13322 657
5.15334 721
5.17345 760
5.19356 683
5.21368 724
5.23379 562
5.2539 680
5.27402 622
5.29413 676
5.31425 632
5.33436 600
5.35447 618
5.37459 593
5.3947 567
5.41481 544
5.43493 536
5.45504 545
5.47516 561
5.49527 540
5.51538 537
5.5355 485
5.55561 477
5.57572 485
5.59584 547
5.61595 532
5.63606 513
5.65618 408
5.67629 506
5.69641 461
5.71652 453
5.73663 443
5.75675 399
5.77686 462
5.79697 445
5.81709 456
5.8372 468
5.85732 427
5.87743 449
5.89754 431
5.91766 412
5.93777 414
5.95788 406
5.978 418
5.99811 422
6.01823 433
6.03834 399
6.05845 390
6.07857 393
6.09868 391
6.11879 386
6.13891 379
6.15902 391
6.17913 391
6.19925 401
6.21936 414
6.23948 384
6.25959 398
6.2797 408
6.29982 350
6.31993 348
6.34004 370
6.36016 400
6.38027 368
6.40039 353
6.4205 369
6.44061 359
6.46073 398
6.48084 350
6.50095 348
6.52107 359
6.54118 315
6.56129 368
6.58141 347
6.60152 335
6.62164 328
6.64175 351
6.66186 355
6.68198 390
6.70209 340
6.7222 325
6.74232 319
6.76243 346
6.78255 336
6.80266 370
6.82277 306
6.84289 327
6.863 318
6.88311 344
6.90323 326
6.92334 307
6.94346 366
6.96357 309
6.98368 318
7.0038 301
7.02391 314
7.04402 306
7.06414 325
7.08425 291
7.10436 338
7.12448 362
7.14459 339
7.16471 335
7.18482 338
7.20493 310
7.22505 329
7.24516 350
7.26527 297
7.28539 296
7.3055 330
7.32562 332
7.34573 319
7.36584 342
7.38596 338
7.40607 321
7.42618 334
7.4463 313
7.46641 309
7.48653 347
7.50664 325
7.52675 331
7.54687 329
7.56698 347
7.58709 299
7.60721 335
7.62732 311
7.64743 324
7.66755 313
7.68766 325
7.70778 311
7.72789 337
7.748 310
7.76812 287
7.78823 331
7.80834 312
7.82846 325
7.84857 317
7.86869 360
7.8888 320
7.90891 318
7.92903 318
7.94914 334
7.96925 323
7.98937 330
8.00948 323
8.0296 355
8.04971 329
8.06982 321
8.08994 306
8.11005 299
8.13016 333
8.15028 374
8.17039 344
8.1905 299
8.21062 334
8.23073 351
8.25085 320
8.27096 358
8.29107 365
8.31119 325
8.3313 327
8.35141 381
8.37153 361
8.39164 379
8.41176 375
8.43187 379
8.45198 347
8.4721 381
8.49221 351
8.51232 376
8.53244 377
8.55255 384
8.57266 371
8.59278 378
8.61289 404
8.63301 392
8.65312 410
8.67323 410
8.69335 374
8.71346 458
8.73357 444
8.75369 419
8.7738 493
8.79392 391
8.81403 441
8.83414 440
8.85426 431
8.87437 460
8.89448 410
8.9146 447
8.93471 396
8.95483 358
8.97494 329
8.99505 311
9.01517 323
9.03528 320
9.05539 368
9.07551 344
9.09562 314
9.11573 328
9.13585 303
9.15596 317
9.17608 277
9.19619 304
9.2163 306
9.23642 308
9.25653 296
9.27664 292
9.29676 325
9.31687 327
9.33699 314
9.3571 313
9.37721 265
9.39733 326
9.41744 286
9.43755 297
9.45767 309
9.47778 293
9.4979 288
9.51801 323
9.53812 294
9.55824 334
9.57835 292
9.59846 295
9.61858 322
9.63869 289
9.6588 271
9.67892 319
9.69903 332
9.71915 315
9.73926 270
9.75937 317
9.77949 296
9.7996 324
9.81971 308
9.83983 316
9.85994 319
9.88006 296
9.90017 295
9.92028 293
9.9404 254
9.96051 291
9.98062 287
10.00074 293
10.02085 285
10.04097 286
10.06108 291
10.08119 266
10.10131 300
10.12142 301
10.14153 325
10.16165 310
10.18176 280
10.20187 288
10.22199 256
10.2421 295
10.26222 293
10.28233 283
10.30244 333
10.32256 321
10.34267 314
10.36278 306
10.3829 302
10.40301 337
10.42313 376
10.44324 418
10.46335 425
10.48347 408
10.50358 398
10.52369 336
10.54381 303
10.56392 315
10.58403 283
10.60415 306
10.62426 303
10.64438 296
10.66449 286
10.6846 253
10.70472 267
10.72483 292
10.74494 237
10.76506 288
10.78517 291
10.80529 282
10.8254 316
10.84551 304
10.86563 285
10.88574 286
10.90585 296
10.92597 270
10.94608 237
10.9662 276
10.98631 271
11.00642 301
11.02654 281
11.04665 275
11.06676 270
11.08688 279
11.10699 303
11.1271 296
11.14722 299
11.16733 289
11.18745 291
11.20756 316
11.22767 295
11.24779 273
11.2679 259
11.28801 280
11.30813 278
11.32824 295
11.34836 306
11.36847 344
11.38858 304
11.4087 321
11.42881 273
11.44892 277
11.46904 312
11.48915 263
11.50927 274
11.52938 295
11.54949 319
11.56961 306
11.58972 327
11.60983 318
11.62995 286
11.65006 316
11.67017 326
11.69029 336
11.7104 308
11.73052 318
11.75063 331
11.77074 321
11.79086 340
11.81097 305
11.83108 332
11.8512 327
11.87131 308
11.89143 314
11.91154 285
11.93165 369
11.95177 349
11.97188 319
11.99199 322
12.01211 352
12.03222 389
12.05234 366
12.07245 361
12.09256 358
12.11268 371
12.13279 352
12.1529 398
12.17302 392
12.19313 402
12.21324 406
12.23336 439
12.25347 383
12.27359 453
12.2937 419
12.31381 442
12.33393 450
12.35404 424
12.37415 432
12.39427 412
12.41438 438
12.4345 430
12.45461 411
12.47472 404
12.49484 420
12.51495 388
12.53506 338
12.55518 313
12.57529 319
12.5954 329
12.61552 319
12.63563 305
12.65575 306
12.67586 314
12.69597 307
12.71609 276
12.7362 282
12.75631 322
12.77643 272
12.79654 266
12.81666 305
12.83677 263
12.85688 290
12.877 295
12.89711 284
12.91722 262
12.93734 296
12.95745 291
12.97757 285
12.99768 240
13.01779 291
13.03791 264
13.05802 292
13.07813 292
13.09825 295
13.11836 279
13.13847 310
13.15859 293
13.1787 304
13.19882 272
13.21893 267
13.23904 278
13.25916 292
13.27927 274
13.29938 287
13.3195 290
13.33961 246
13.35973 264
13.37984 254
13.39995 274
13.42007 298
13.44018 296
13.46029 258
13.48041 297
13.50052 289
13.52064 261
13.54075 265
13.56086 298
13.58098 320
13.60109 302
13.6212 311
13.64132 327
13.66143 340
13.68154 339
13.70166 275
13.72177 320
13.74189 329
13.762 359
13.78211 350
13.80223 396
13.82234 452
13.84245 467
13.86257 490
13.88268 492
13.9028 389
13.92291 409
13.94302 356
13.96314 334
13.98325 325
14.00336 269
14.02348 250
14.04359 271
14.06371 280
14.08382 285
14.10393 234
14.12405 258
14.14416 247
14.16427 259
14.18439 235
14.2045 276
14.22461 259
14.24473 246
14.26484 248
14.28496 261
14.30507 262
14.32518 235
14.3453 277
14.36541 243
14.38552 278
14.40564 265
14.42575 262
14.44587 259
14.46598 246
14.48609 250
14.50621 257
14.52632 225
14.54643 264
14.56655 228
14.58666 217
14.60677 245
14.62689 238
14.647 237
14.66712 258
14.68723 252
14.70734 245
14.72746 255
14.74757 238
14.76768 250
14.7878 233
14.80791 288
14.82803 255
14.84814 268
14.86825 290
14.88837 298
14.90848 235
14.92859 295
14.94871 282
14.96882 309
14.98894 317
15.00905 302
15.02916 297
15.04928 361
15.06939 335
15.0895 347
15.10962 294
15.12973 345
15.14984 256
15.16996 274
15.19007 267
15.21019 294
15.2303 261
15.25041 255
15.27053 267
15.29064 240
15.31075 253
15.33087 265
15.35098 262
15.3711 223
15.39121 245
15.41132 238
15.43144 225
15.45155 245
15.47166 239
15.49178 215
15.51189 241
15.53201 232
15.55212 248
15.57223 234
15.59235 246
15.61246 247
15.63257 255
15.65269 258
15.6728 255
15.69291 295
15.71303 275
15.73314 253
15.75326 274
15.77337 284
15.79348 317
15.8136 277
15.83371 244
15.85382 220
15.87394 237
15.89405 251
15.91417 253
15.93428 213
15.95439 263
15.97451 240
15.99462 252
16.01473 236
16.03485 225
16.05496 235
16.07508 250
16.09519 256
16.1153 230
16.13542 229
16.15553 252
16.17564 255
16.19576 236
16.21587 263
16.23598 264
16.2561 207
16.27621 233
16.29633 236
16.31644 234
16.33655 245
16.35667 236
16.37678 229
16.39689 232
16.41701 236
16.43712 226
16.45724 259
16.47735 218
16.49746 220
16.51758 252
16.53769 256
16.5578 248
16.57792 238
16.59803 245
16.61814 231
16.63826 219
16.65837 245
16.67849 224
16.6986 266
16.71871 234
16.73883 228
16.75894 229
16.77905 232
16.79917 236
16.81928 247
16.8394 238
16.85951 240
16.87962 222
16.89974 250
16.91985 230
16.93996 245
16.96008 255
16.98019 227
17.00031 206
17.02042 220
17.04053 246
17.06065 249
17.08076 253
17.10087 251
17.12099 226
17.1411 219
17.16121 241
17.18133 248
17.20144 231
17.22156 230
17.24167 256
17.26178 259
17.2819 250
17.30201 253
17.32212 234
17.34224 211
17.36235 226
17.38247 234
17.40258 200
17.42269 220
17.44281 231
17.46292 263
17.48303 234
17.50315 261
17.52326 255
17.54338 205
17.56349 246
17.5836 248
17.60372 220
17.62383 265
17.64394 234
17.66406 248
17.68417 253
17.70428 241
17.7244 253
17.74451 260
17.76463 236
17.78474 225
17.80485 244
17.82497 225
17.84508 261
17.86519 256
17.88531 244
17.90542 254
17.92554 252
17.94565 224
17.96576 229
17.98588 271
18.00599 261
18.0261 252
18.04622 237
18.06633 249
18.08645 227
18.10656 239
18.12667 237
18.14679 264
18.1669 253
18.18701 200
18.20713 262
18.22724 254
18.24735 286
18.26747 221
18.28758 252
18.3077 241
18.32781 238
18.34792 246
18.36804 246
18.38815 262
18.40826 218
18.42838 240
18.44849 243
18.46861 266
18.48872 221
18.50883 235
18.52895 250
18.54906 249
18.56917 275
18.58929 255
18.6094 239
18.62951 247
18.64963 226
18.66974 266
18.68986 255
18.70997 263
18.73008 247
18.7502 265
18.77031 249
18.79042 266
18.81054 281
18.83065 230
18.85077 250
18.87088 275
18.89099 259
18.91111 292
18.93122 285
18.95133 306
18.97145 269
18.99156 297
19.01168 282
19.03179 252
19.0519 269
19.07202 255
19.09213 268
19.11224 271
19.13236 257
19.15247 276
19.17258 260
19.1927 275
19.21281 290
19.23293 294
19.25304 325
19.27315 306
19.29327 333
19.31338 332
19.33349 304
19.35361 312
19.37372 261
19.39384 281
19.41395 320
19.43406 284
19.45418 323
19.47429 311
19.4944 316
19.51452 348
19.53463 322
19.55475 321
19.57486 374
19.59497 334
19.61509 346
19.6352 397
19.65531 370
19.67543 402
19.69554 365
19.71565 357
19.73577 361
19.75588 420
19.776 451
19.79611 407
19.81622 464
19.83634 455
19.85645 462
19.87656 481
19.89668 470
19.91679 409
19.93691 466
19.95702 482
19.97713 448
19.99725 432
20.01736 455
20.03747 461
20.05759 457
20.0777 448
20.09782 415
20.11793 421
20.13804 444
20.15816 431
20.17827 409
20.19838 414
20.2185 430
20.23861 437
20.25872 426
20.27884 411
20.29895 408
20.31907 427
20.33918 434
20.35929 398
20.37941 419
20.39952 430
20.41963 420
20.43975 433
20.45986 431
20.47998 426
20.50009 455
20.5202 459
20.54032 440
20.56043 477
20.58054 460
20.60066 473
20.62077 487
20.64088 489
20.661 576
20.68111 558
20.70123 651
20.72134 852
20.74145 1056
20.76157 1394
20.78168 1755
20.80179 2300
20.82191 2841
20.84202 3347
20.86214 3275
20.88225 2820
20.90236 2224
20.92248 1683
20.94259 1292
20.9627 1044
20.98282 840
21.00293 844
21.02305 837
21.04316 746
21.06327 731
21.08339 654
21.1035 569
21.12361 549
21.14373 479
21.16384 501
21.18395 425
21.20407 435
21.22418 409
21.2443 467
21.26441 424
21.28452 395
21.30464 422
21.32475 428
21.34486 415
21.36498 380
21.38509 407
21.40521 397
21.42532 380
21.44543 384
21.46555 378
21.48566 377
21.50577 406
21.52589 384
21.546 370
21.56612 384
21.58623 328
21.60634 366
21.62646 364
21.64657 384
21.66668 395
21.6868 389
21.70691 376
21.72702 409
21.74714 413
21.76725 452
21.78737 415
21.80748 457
21.82759 496
21.84771 573
21.86782 630
21.88793 811
21.90805 913
21.92816 1161
21.94828 1425
21.96839 1602
21.9885 1650
22.00862 1583
22.02873 1372
22.04884 1077
22.06896 894
22.08907 672
22.10919 506
22.1293 450
22.14941 410
22.16953 399
22.18964 386
22.20975 371
22.22987 417
22.24998 379
22.27009 419
22.29021 429
22.31032 417
22.33044 426
22.35055 378
22.37066 414
22.39078 393
22.41089 430
22.431 362
22.45112 364
22.47123 384
22.49135 347
22.51146 395
22.53157 360
22.55169 376
22.5718 371
22.59191 383
22.61203 389
22.63214 358
22.65225 370
22.67237 366
22.69248 325
22.7126 347
22.73271 363
22.75282 337
22.77294 396
22.79305 395
22.81316 443
22.83328 434
22.85339 437
22.87351 543
22.89362 572
22.91373 640
22.93385 638
22.95396 639
22.97407 607
22.99419 554
23.0143 488
23.03442 489
23.05453 412
23.07464 393
23.09476 427
23.11487 445
23.13498 438
23.1551 384
23.17521 440
23.19532 459
23.21544 447
23.23555 433
23.25567 436
23.27578 439
23.29589 475
23.31601 394
23.33612 395
23.35623 438
23.37635 473
23.39646 407
23.41658 470
23.43669 481
23.4568 487
23.47692 531
23.49703 609
23.51714 737
23.53726 781
23.55737 896
23.57749 1038
23.5976 1045
23.61771 1078
23.63783 954
23.65794 849
23.67805 749
23.69817 625
23.71828 534
23.73839 518
23.75851 478
23.77862 506
23.79874 542
23.81885 592
23.83896 640
23.85908 695
23.87919 792
23.8993 938
23.91942 1000
23.93953 1112
23.95965 1083
23.97976 1033
23.99987 917
24.01999 813
24.0401 713
24.06021 584
24.08033 540
24.10044 526
24.12056 497
24.14067 467
24.16078 570
24.1809 606
24.20101 677
24.22112 750
24.24124 850
24.26135 869
24.28146 1023
24.30158 993
24.32169 942
24.34181 881
24.36192 831
24.38203 743
24.40215 659
24.42226 559
24.44237 540
24.46249 452
24.4826 425
24.50272 409
24.52283 442
24.54294 438
24.56306 446
24.58317 400
24.60328 437
24.6234 411
24.64351 442
24.66362 431
24.68374 458
24.70385 428
24.72397 442
24.74408 463
24.76419 454
24.78431 501
24.80442 456
24.82453 476
24.84465 469
24.86476 496
24.88488 456
24.90499 487
24.9251 467
24.94522 462
24.96533 445
24.98544 429
25.00556 435
25.02567 401
25.04579 417
25.0659 427
25.08601 397
25.10613 422
25.12624 396
25.14635 422
25.16647 374
25.18658 418
25.20669 431
25.22681 399
25.24692 390
25.26704 392
25.28715 401
25.30726 409
25.32738 401
25.34749 434
25.3676 463
25.38772 480
25.40783 460
25.42795 533
25.44806 605
25.46817 696
25.48829 741
25.5084 780
25.52851 790
25.54863 720
25.56874 723
25.58886 673
25.60897 767
25.62908 675
25.6492 656
25.66931 589
25.68942 578
25.70954 596
25.72965 588
25.74976 549
25.76988 507
25.78999 482
25.81011 469
25.83022 479
25.85033 415
25.87045 442
25.89056 436
25.91067 451
25.93079 419
25.9509 454
25.97102 377
25.99113 451
26.01124 466
26.03136 451
26.05147 467
26.07158 526
26.0917 491
26.11181 507
26.13193 513
26.15204 545
26.17215 581
26.19227 575
26.21238 617
26.23249 669
26.25261 675
26.27272 757
26.29283 759
26.31295 841
26.33306 937
26.35318 1102
26.37329 1227
26.3934 1516
26.41352 1618
26.43363 1788
26.45374 2096
26.47386 2496
26.49397 3114
26.51409 4039
26.5342 5555
26.55431 7533
26.57443 9898
26.59454 12008
26.61465 13771
26.63477 13643
26.65488 11801
26.67499 9331
26.69511 7228
26.71522 5307
26.73534 3325
26.75545 2004
26.77556 1314
26.79568 1127
26.81579 946
26.8359 905
26.85602 852
26.87613 833
26.89625 851
26.91636 793
26.93647 779
26.95659 761
26.9767 909
26.99681 857
27.01693 932
27.03704 898
27.05716 919
27.07727 950
27.09738 812
27.1175 763
27.13761 705
27.15772 652
27.17784 610
27.19795 627
27.21806 568
27.23818 578
27.25829 621
27.27841 603
27.29852 654
27.31863 703
27.33875 739
27.35886 844
27.37897 935
27.39909 952
27.4192 1070
27.43932 1195
27.45943 1270
27.47954 1163
27.49966 1108
27.51977 1018
27.53988 953
27.56 872
27.58011 855
27.60023 790
27.62034 881
27.64045 962
27.66057 1152
27.68068 1369
27.70079 1684
27.72091 1895
27.74102 2222
27.76113 2538
27.78125 2483
27.80136 2589
27.82148 2674
27.84159 2619
27.8617 2542
27.88182 2488
27.90193 2508
27.92204 2513
27.94216 2628
27.96227 2573
27.98239 2472
28.0025 2203
28.02261 1770
28.04273 1489
28.06284 1296
28.08295 889
28.10307 755
28.12318 693
28.1433 621
28.16341 663
28.18352 702
28.20364 784
28.22375 891
28.24386 888
28.26398 947
28.28409 968
28.3042 885
28.32432 770
28.34443 755
28.36455 679
28.38466 564
28.40477 514
28.42489 446
28.445 453
28.46511 406
28.48523 383
28.50534 397
28.52546 366
28.54557 381
28.56568 344
28.5858 341
28.60591 339
28.62602 298
28.64614 355
28.66625 321
28.68636 306
28.70648 312
28.72659 311
28.74671 316
28.76682 302
28.78693 309
28.80705 368
28.82716 343
28.84727 299
28.86739 351
28.8875 318
28.90762 287
28.92773 324
28.94784 296
28.96796 306
28.98807 323
29.00818 309
29.0283 291
29.04841 295
29.06853 325
29.08864 302
29.10875 312
29.12887 337
29.14898 325
29.16909 331
29.18921 282
29.20932 312
29.22943 337
29.24955 306
29.26966 275
29.28978 348
29.30989 321
29.33 315
29.35012 357
29.37023 361
29.39034 368
29.41046 380
29.43057 382
29.45069 368
29.4708 382
29.49091 399
29.51103 415
29.53114 440
29.55125 415
29.57137 386
29.59148 376
29.6116 411
29.63171 406
29.65182 473
29.67194 460
29.69205 513
29.71216 530
29.73228 594
29.75239 609
29.7725 736
29.79262 708
29.81273 661
29.83285 650
29.85296 605
29.87307 571
29.89319 484
29.9133 470
29.93341 471
29.95353 401
29.97364 386
29.99376 367
30.01387 404
30.03398 362
30.0541 401
30.07421 419
30.09432 444
30.11444 429
30.13455 435
30.15467 477
30.17478 470
30.19489 478
30.21501 503
30.23512 502
30.25523 506
30.27535 632
30.29546 688
30.31557 811
30.33569 805
30.3558 879
30.37592 848
30.39603 896
30.41614 890
30.43626 905
30.45637 804
30.47648 745
30.4966 646
30.51671 582
30.53683 486
30.55694 449
30.57705 423
30.59717 364
30.61728 375
30.63739 364
30.65751 392
30.67762 351
30.69773 414
30.71785 413
30.73796 463
30.75808 437
30.77819 445
30.7983 500
30.81842 444
30.83853 421
30.85864 396
30.87876 418
30.89887 379
30.91899 389
30.9391 342
30.95921 325
30.97933 316
30.99944 310
31.01955 267
31.03967 301
31.05978 308
31.0799 306
31.10001 279
31.12012 305
31.14024 334
31.16035 296
31.18046 334
31.20058 356
31.22069 377
31.2408 367
31.26092 374
31.28103 444
31.30115 499
31.32126 506
31.34137 558
31.36149 536
31.3816 538
31.40171 503
31.42183 454
31.44194 452
31.46206 390
31.48217 349
31.50228 350
31.5224 333
31.54251 348
31.56262 324
31.58274 356
31.60285 348
31.62297 361
31.64308 333
31.66319 338
31.68331 294
31.70342 305
31.72353 303
31.74365 300
31.76376 291
31.78387 318
31.80399 286
31.8241 317
31.84422 278
31.86433 261
31.88444 267
31.90456 278
31.92467 269
31.94478 271
31.9649 285
31.98501 277
32.00513 275
32.02524 281
32.04535 304
32.06547 313
32.08558 285
32.10569 333
32.12581 305
32.14592 333
32.16604 304
32.18615 285
32.20626 305
32.22638 324
32.24649 297
32.2666 332
32.28672 325
32.30683 316
32.32694 313
32.34706 305
32.36717 288
32.38729 329
32.4074 310
32.42751 300
32.44763 332
32.46774 335
32.48785 302
32.50797 270
32.52808 281
32.5482 287
32.56831 272
32.58842 257
32.60854 280
32.62865 270
32.64876 292
32.66888 249
32.68899 268
32.7091 251
32.72922 277
32.74933 286
32.76945 273
32.78956 325
32.80967 283
32.82979 286
32.8499 345
32.87001 302
32.89013 307
32.91024 328
32.93036 309
32.95047 274
32.97058 268
32.9907 293
33.01081 277
33.03092 249
33.05104 247
33.07115 254
33.09127 268
33.11138 259
33.13149 266
33.15161 239
33.17172 267
33.19183 248
33.21195 261
33.23206 273
33.25217 289
33.27229 260
33.2924 260
33.31252 233
33.33263 264
33.35274 283
33.37286 241
33.39297 261
33.41308 291
33.4332 241
33.45331 240
33.47343 260
33.49354 255
33.51365 269
33.53377 290
33.55388 274
33.57399 273
33.59411 271
33.61422 283
33.63434 276
33.65445 279
33.67456 277
33.69468 287
33.71479 372
33.7349 349
33.75502 385
33.77513 413
33.79524 432
33.81536 467
33.83547 438
33.85559 392
33.8757 397
33.89581 369
33.91593 337
33.93604 351
33.95615 325
33.97627 324
33.99638 326
34.0165 306
34.03661 353
34.05672 349
34.07684 363
34.09695 344
34.11706 333
34.13718 418
34.15729 414
34.17741 443
34.19752 476
34.21763 477
34.23775 473
34.25786 466
34.27797 430
34.29809 426
34.3182 403
34.33831 433
34.35843 388
34.37854 401
34.39866 350
34.41877 404
34.43888 418
34.459 405
34.47911 369
34.49922 349
34.51934 371
34.53945 379
34.55957 344
34.57968 349
34.59979 370
34.61991 347
34.64002 338
34.66013 368
34.68025 353
34.70036 317
34.72047 364
34.74059 408
34.7607 359
34.78082 403
34.80093 403
34.82104 376
34.84116 398
34.86127 366
34.88138 384
34.9015 397
34.92161 437
34.94173 434
34.96184 428
34.98195 437
35.00207 464
35.02218 424
35.04229 472
35.06241 423
35.08252 433
35.10264 456
35.12275 474
35.14286 488
35.16298 483
35.18309 516
35.2032 567
35.22332 561
35.24343 625
35.26354 640
35.28366 642
35.30377 624
35.32389 603
35.344 538
35.36411 512
35.38423 505
35.40434 495
35.42445 478
35.44457 437
35.46468 448
35.4848 505
35.50491 431
35.52502 448
35.54514 389
35.56525 418
35.58536 481
35.60548 423
35.62559 399
35.64571 468
35.66582 431
35.68593 417
35.70605 402
35.72616 360
35.74627 353
35.76639 370
35.7865 382
35.80661 336
35.82673 372
35.84684 388
35.86696 340
35.88707 344
35.90718 353
35.9273 368
35.94741 333
35.96752 372
35.98764 361
36.00775 351
36.02787 378
36.04798 371
36.06809 393
36.08821 443
36.10832 463
36.12843 436
36.14855 488
36.16866 547
36.18878 481
36.20889 494
36.229 447
36.24912 472
36.26923 475
36.28934 422
36.30946 455
36.32957 429
36.34968 424
36.3698 469
36.38991 530
36.41003 593
36.43014 668
36.45025 811
36.47037 962
36.49048 1103
36.51059 1241
36.53071 1167
36.55082 1024
36.57094 893
36.59105 783
36.61116 748
36.63128 702
36.65139 575
36.6715 513
36.69162 448
36.71173 404
36.73184 395
36.75196 372
36.77207 369
36.79219 436
36.8123 353
36.83241 390
36.85253 379
36.87264 395
36.89275 441
36.91287 435
36.93298 422
36.9531 435
36.97321 474
36.99332 487
37.01344 475
37.03355 498
37.05366 456
37.07378 393
37.09389 402
37.11401 363
37.13412 404
37.15423 373
37.17435 352
37.19446 360
37.21457 323
37.23469 358
37.2548 339
37.27491 355
37.29503 307
37.31514 342
37.33526 325
37.35537 349
37.37548 352
37.3956 384
37.41571 366
37.43582 379
37.45594 402
37.47605 359
37.49617 408
37.51628 391
37.53639 377
37.55651 386
37.57662 413
37.59673 376
37.61685 441
37.63696 389
37.65708 405
37.67719 406
37.6973 338
37.71742 337
37.73753 314
37.75764 331
37.77776 311
37.79787 296
37.81798 298
37.8381 292
37.85821 289
37.87833 305
37.89844 317
37.91855 298
37.93867 308
37.95878 277
37.97889 289
37.99901 298
38.01912 286
38.03924 330
38.05935 272
38.07946 290
38.09958 335
38.11969 308
38.1398 306
38.15992 350
38.18003 303
38.20015 320
38.22026 318
38.24037 301
38.26049 336
38.2806 315
38.30071 322
38.32083 338
38.34094 344
38.36105 390
38.38117 362
38.40128 394
38.4214 350
38.44151 351
38.46162 365
38.48174 365
38.50185 360
38.52196 376
38.54208 381
38.56219 433
38.58231 333
38.60242 375
38.62253 350
38.64265 345
38.66276 355
38.68287 315
38.70299 286
38.7231 299
38.74321 288
38.76333 288
38.78344 300
38.80356 311
38.82367 315
38.84378 307
38.8639 324
38.88401 277
38.90412 295
38.92424 324
38.94435 334
38.96447 344
38.98458 342
39.00469 378
39.02481 370
39.04492 413
39.06503 432
39.08515 392
39.10526 416
39.12538 383
39.14549 393
39.1656 418
39.18572 425
39.20583 384
39.22594 388
39.24606 363
39.26617 400
39.28628 453
39.3064 542
39.32651 549
39.34663 653
39.36674 717
39.38685 877
39.40697 931
39.42708 1072
39.44719 1072
39.46731 965
39.48742 849
39.50754 704
39.52765 714
39.54776 724
39.56788 630
39.58799 520
39.6081 467
39.62822 396
39.64833 341
39.66845 332
39.68856 328
39.70867 305
39.72879 326
39.7489 322
39.76901 320
39.78913 292
39.80924 273
39.82935 270
39.84947 292
39.86958 287
39.8897 289
39.90981 271
39.92992 267
39.95004 274
39.97015 276
39.99026 299
40.01038 254
40.03049 299
40.05061 277
40.07072 305
40.09083 339
40.11095 338
40.13106 384
40.15117 424
40.17129 475
40.1914 484
40.21152 583
40.23163 581
40.25174 591
40.27186 671
40.29197 623
40.31208 543
40.3322 521
40.35231 507
40.37242 420
40.39254 418
40.41265 349
40.43277 347
40.45288 331
40.47299 274
40.49311 284
40.51322 275
40.53333 280
40.55345 282
40.57356 273
40.59368 254
40.61379 281
40.6339 275
40.65402 293
40.67413 296
40.69424 275
40.71436 294
40.73447 288
40.75458 320
40.7747 334
40.79481 360
40.81493 323
40.83504 290
40.85515 323
40.87527 286
40.89538 274
40.91549 293
40.93561 309
40.95572 311
40.97584 278
40.99595 274
41.01606 274
41.03618 258
41.05629 269
41.0764 281
41.09652 248
41.11663 287
41.13675 311
41.15686 286
41.17697 274
41.19709 309
41.2172 327
41.23731 281
41.25743 281
41.27754 307
41.29765 289
41.31777 303
41.33788 328
41.358 294
41.37811 279
41.39822 331
41.41834 290
41.43845 282
41.45856 299
41.47868 324
41.49879 334
41.51891 309
41.53902 322
41.55913 316
41.57925 323
41.59936 316
41.61947 332
41.63959 310
41.6597 339
41.67982 378
41.69993 388
41.72004 412
41.74016 428
41.76027 443
41.78038 423
41.8005 430
41.82061 390
41.84072 365
41.86084 370
41.88095 377
41.90107 341
41.92118 327
41.94129 290
41.96141 319
41.98152 285
42.00163 294
42.02175 280
42.04186 308
42.06198 300
42.08209 293
42.1022 321
42.12232 318
42.14243 346
42.16254 338
42.18266 358
42.20277 445
42.22289 435
42.243 436
42.26311 495
42.28323 502
42.30334 562
42.32345 545
42.34357 617
42.36368 738
42.38379 791
42.40391 810
42.42402 866
42.44414 819
42.46425 689
42.48436 588
42.50448 548
42.52459 553
42.5447 507
42.56482 458
42.58493 359
42.60505 325
42.62516 335
42.64527 289
42.66539 325
42.6855 355
42.70561 371
42.72573 332
42.74584 331
42.76595 356
42.78607 376
42.80618 374
42.8263 369
42.84641 375
42.86652 368
42.88664 361
42.90675 417
42.92686 437
42.94698 380
42.96709 417
42.98721 383
43.00732 342
43.02743 325
43.04755 308
43.06766 318
43.08777 326
43.10789 291
43.128 322
43.14812 286
43.16823 273
43.18834 273
43.20846 254
43.22857 286
43.24868 292
43.2688 234
43.28891 267
43.30902 271
43.32914 259
43.34925 248
43.36937 243
43.38948 242
43.40959 224
43.42971 233
43.44982 266
43.46993 256
43.49005 231
43.51016 246
43.53028 248
43.55039 255
43.5705 258
43.59062 232
43.61073 246
43.63084 245
43.65096 231
43.67107 252
43.69119 240
43.7113 238
43.73141 217
43.75153 260
43.77164 252
43.79175 224
43.81187 253
43.83198 217
43.85209 243
43.87221 232
43.89232 220
43.91244 259
43.93255 224
43.95266 254
43.97278 220
43.99289 258
44.013 259
44.03312 253
44.05323 238
44.07335 272
44.09346 241
44.11357 269
44.13369 251
44.1538 237
44.17391 269
44.19403 260
44.21414 261
44.23426 237
44.25437 238
44.27448 231
44.2946 221
44.31471 245
44.33482 231
44.35494 226
44.37505 244
44.39516 230
44.41528 240
44.43539 229
44.45551 244
44.47562 282
44.49573 257
44.51585 267
44.53596 239
44.55607 227
44.57619 227
44.5963 308
44.61642 258
44.63653 267
44.65664 265
44.67676 293
44.69687 256
44.71698 283
44.7371 274
44.75721 299
44.77732 280
44.79744 313
44.81755 315
44.83767 279
44.85778 283
44.87789 257
44.89801 313
44.91812 249
44.93823 276
44.95835 277
44.97846 268
44.99858 310
45.01869 320
45.0388 254
45.05892 281
45.07903 301
45.09914 302
45.11926 294
45.13937 277
45.15949 273
45.1796 283
45.19971 267
45.21983 251
45.23994 319
45.26005 275
45.28017 326
45.30028 316
45.32039 297
45.34051 297
45.36062 310
45.38074 321
45.40085 339
45.42096 305
45.44108 346
45.46119 318
45.4813 343
45.50142 320
45.52153 325
45.54165 367
45.56176 415
45.58187 381
45.60199 386
45.6221 467
45.64221 481
45.66233 522
45.68244 554
45.70256 607
45.72267 578
45.74278 681
45.7629 651
45.78301 655
45.80312 588
45.82324 545
45.84335 467
45.86346 434
45.88358 471
45.90369 423
45.92381 345
45.94392 316
45.96403 302
45.98415 262
46.00426 286
46.02437 274
46.04449 276
46.0646 277
46.08472 264
46.10483 259
46.12494 256
46.14506 268
46.16517 271
46.18528 251
46.2054 252
46.22551 236
46.24563 267
46.26574 251
46.28585 231
46.30597 238
46.32608 247
46.34619 259
46.36631 259
46.38642 235
46.40653 257
46.42665 278
46.44676 273
46.46688 228
46.48699 220
46.5071 247
46.52722 234
46.54733 237
46.56744 253
46.58756 225
46.60767 226
46.62779 233
46.6479 260
46.66801 230
46.68813 279
46.70824 278
46.72835 249
46.74847 283
46.76858 277
46.78869 306
46.80881 271
46.82892 312
46.84904 299
46.86915 279
46.88926 308
46.90938 277
46.92949 292
46.9496 278
46.96972 232
46.98983 271
47.00995 263
47.03006 225
47.05017 278
47.07029 264
47.0904 265
47.11051 272
47.13063 282
47.15074 263
47.17086 281
47.19097 251
47.21108 280
47.2312 280
47.25131 263
47.27142 292
47.29154 291
47.31165 297
47.33176 289
47.35188 311
47.37199 299
47.39211 324
47.41222 332
47.43233 350
47.45245 341
47.47256 389
47.49267 339
47.51279 349
47.5329 321
47.55302 328
47.57313 317
47.59324 327
47.61336 282
47.63347 298
47.65358 293
47.6737 258
47.69381 270
47.71393 250
47.73404 239
47.75415 221
47.77427 265
47.79438 237
47.81449 251
47.83461 250
47.85472 227
47.87483 215
47.89495 225
47.91506 248
47.93518 250
47.95529 297
47.9754 237
47.99552 238
48.01563 222
48.03574 239
48.05586 282
48.07597 250
48.09609 261
48.1162 270
48.13631 247
48.15643 248
48.17654 273
48.19665 287
48.21677 294
48.23688 339
48.257 347
48.27711 322
48.29722 326
48.31734 361
48.33745 294
48.35756 329
48.37768 355
48.39779 277
48.4179 325
48.43802 294
48.45813 271
48.47825 273
48.49836 261
48.51847 278
48.53859 275
48.5587 267
48.57881 214
48.59893 229
48.61904 231
48.63916 258
48.65927 262
48.67938 254
48.6995 261
48.71961 277
48.73972 241
48.75984 250
48.77995 270
48.80006 284
48.82018 290
48.84029 263
48.86041 280
48.88052 256
48.90063 299
48.92075 281
48.94086 285
48.96097 332
48.98109 290
49.0012 314
49.02132 358
49.04143 386
49.06154 338
49.08166 403
49.10177 400
49.12188 370
49.142 382
49.16211 374
49.18223 425
49.20234 337
49.22245 365
49.24257 358
49.26268 304
49.28279 278
49.30291 301
49.32302 288
49.34313 293
49.36325 263
49.38336 252
49.40348 268
49.42359 266
49.4437 282
49.46382 246
49.48393 233
49.50404 288
49.52416 276
49.54427 302
49.56439 288
49.5845 309
49.60461 329
49.62473 344
49.64484 365
49.66495 343
49.68507 426
49.70518 462
49.7253 452
49.74541 452
49.76552 467
49.78564 508
49.80575 541
49.82586 518
49.84598 563
49.86609 600
49.8862 560
49.90632 620
49.92643 602
49.94655 633
49.96666 690
49.98677 814
50.00689 850
50.027 1010
50.04711 1171
50.06723 1343
50.08734 1587
50.10746 1597
50.12757 1479
50.14768 1247
50.1678 1060
50.18791 873
50.20802 850
50.22814 922
50.24825 854
50.26837 748
50.28848 637
50.30859 446
50.32871 411
50.34882 350
50.36893 336
50.38905 340
50.40916 339
50.42927 324
50.44939 371
50.4695 371
50.48962 411
50.50973 431
50.52984 443
50.54996 457
50.57007 453
50.59018 404
50.6103 460
50.63041 417
50.65053 451
50.67064 436
50.69075 443
50.71087 432
50.73098 418
50.75109 419
50.77121 361
50.79132 342
50.81143 348
50.83155 350
50.85166 329
50.87178 310
50.89189 283
50.912 314
50.93212 274
50.95223 277
50.97234 306
50.99246 265
51.01257 300
51.03269 300
51.0528 295
51.07291 269
51.09303 299
51.11314 307
51.13325 311
51.15337 316
51.17348 343
51.1936 362
51.21371 441
51.23382 444
51.25394 439
51.27405 534
51.29416 569
51.31428 481
51.33439 428
51.3545 409
51.37462 376
51.39473 364
51.41485 381
51.43496 372
51.45507 348
51.47519 319
51.4953 250
51.51541 257
51.53553 268
51.55564 244
51.57576 266
51.59587 218
51.61598 239
51.6361 243
51.65621 239
51.67632 237
51.69644 249
51.71655 239
51.73667 229
51.75678 269
51.77689 236
51.79701 241
51.81712 215
51.83723 230
51.85735 231
51.87746 237
51.89757 217
51.91769 237
51.9378 213
51.95792 228
51.97803 214
51.99814 247
52.01826 239
52.03837 253
52.05848 269
52.0786 249
52.09871 254
52.11883 241
52.13894 255
52.15905 259
52.17917 249
52.19928 259
52.21939 241
52.23951 254
52.25962 289
52.27974 299
52.29985 253
52.31996 267
52.34008 250
52.36019 269
52.3803 287
52.40042 247
52.42053 259
52.44064 276
52.46076 273
52.48087 267
52.50099 257
52.5211 261
52.54121 270
52.56133 283
52.58144 294
52.60155 274
52.62167 302
52.64178 295
52.6619 310
52.68201 314
52.70212 305
52.72224 282
52.74235 284
52.76246 281
52.78258 293
52.80269 309
52.8228 298
52.84292 311
52.86303 286
52.88315 296
52.90326 316
52.92337 282
52.94349 295
52.9636 310
52.98371 281
53.00383 295
53.02394 289
53.04406 275
53.06417 297
53.08428 299
53.1044 294
53.12451 286
53.14462 285
53.16474 300
53.18485 289
53.20497 292
53.22508 257
53.24519 276
53.26531 235
53.28542 276
53.30553 259
53.32565 269
53.34576 250
53.36587 239
53.38599 223
53.4061 244
53.42622 241
53.44633 248
53.46644 249
53.48656 240
53.50667 269
53.52678 247
53.5469 237
53.56701 259
53.58713 268
53.60724 260
53.62735 239
53.64747 271
53.66758 241
53.68769 259
53.70781 257
53.72792 257
53.74804 267
53.76815 249
53.78826 220
53.80838 272
53.82849 246
53.8486 252
53.86872 287
53.88883 289
53.90894 258
53.92906 246
53.94917 248
53.96929 296
53.9894 283
54.00951 274
54.02963 297
54.04974 284
54.06985 281
54.08997 288
54.11008 284
54.1302 260
54.15031 272
54.17042 293
54.19054 286
54.21065 266
54.23076 328
54.25088 310
54.27099 260
54.29111 296
54.31122 297
54.33133 297
54.35145 316
54.37156 317
54.39167 296
54.41179 324
54.4319 327
54.45201 277
54.47213 311
54.49224 322
54.51236 316
54.53247 276
54.55258 282
54.5727 322
54.59281 330
54.61292 277
54.63304 301
54.65315 320
54.67327 343
54.69338 367
54.71349 417
54.73361 394
54.75372 509
54.77383 525
54.79395 537
54.81406 606
54.83417 599
54.85429 640
54.8744 566
54.89452 504
54.91463 430
54.93474 442
54.95486 432
54.97497 420
54.99508 429
55.0152 441
55.03531 393
55.05543 322
55.07554 286
55.09565 311
55.11577 301
55.13588 315
55.15599 306
55.17611 331
55.19622 355
55.21634 402
55.23645 402
55.25656 398
55.27668 440
55.29679 458
55.3169 395
55.33702 383
55.35713 372
55.37724 368
55.39736 342
55.41747 379
55.43759 335
55.4577 362
55.47781 339
55.49793 316
55.51804 265
55.53815 283
55.55827 258
55.57838 254
55.5985 258
55.61861 261
55.63872 280
55.65884 239
55.67895 254
55.69906 261
55.71918 240
55.73929 247
55.75941 263
55.77952 253
55.79963 234
55.81975 262
55.83986 250
55.85997 236
55.88009 239
55.9002 259
55.92031 271
55.94043 265
55.96054 231
55.98066 238
56.00077 264
56.02088 253
56.041 232
56.06111 231
56.08122 264
56.10134 237
56.12145 221
56.14157 239
56.16168 239
56.18179 247
56.20191 215
56.22202 230
56.24213 240
56.26225 237
56.28236 221
56.30248 237
56.32259 266
56.3427 249
56.36282 232
56.38293 230
56.40304 237
56.42316 256
56.44327 228
56.46338 241
56.4835 211
56.50361 224
56.52373 236
56.54384 230
56.56395 222
56.58407 247
56.60418 245
56.62429 221
56.64441 255
56.66452 256
56.68464 243
56.70475 243
56.72486 221
56.74498 241
56.76509 223
56.7852 263
56.80532 248
56.82543 231
56.84554 209
56.86566 238
56.88577 251
56.90589 201
56.926 230
56.94611 234
56.96623 224
56.98634 219
57.00645 212
57.02657 191
57.04668 211
57.0668 227
57.08691 243
57.10702 269
57.12714 239
57.14725 244
57.16736 262
57.18748 249
57.20759 228
57.22771 258
57.24782 253
57.26793 210
57.28805 221
57.30816 245
57.32827 270
57.34839 266
57.3685 255
57.38861 270
57.40873 249
57.42884 290
57.44896 288
57.46907 311
57.48918 288
57.5093 322
57.52941 250
57.54952 276
57.56964 252
57.58975 263
57.60987 260
57.62998 226
57.65009 233
57.67021 240
57.69032 223
57.71043 234
57.73055 248
57.75066 224
57.77078 228
57.79089 222
57.811 222
57.83112 241
57.85123 212
57.87134 216
57.89146 200
57.91157 210
57.93168 234
57.9518 212
57.97191 230
57.99203 220
58.01214 218
58.03225 224
58.05237 211
58.07248 207
58.09259 233
58.11271 235
58.13282 195
58.15294 221
58.17305 218
58.19316 229
58.21328 251
58.23339 224
58.2535 205
58.27362 219
58.29373 215
58.31385 268
58.33396 233
58.35407 221
58.37419 264
58.3943 282
58.41441 283
58.43453 277
58.45464 225
58.47475 269
58.49487 268
58.51498 293
58.5351 291
58.55521 276
58.57532 285
58.59544 294
58.61555 267
58.63566 254
58.65578 265
58.67589 295
58.69601 274
58.71612 291
58.73623 273
58.75635 271
58.77646 266
58.79657 237
58.81669 268
58.8368 231
58.85691 273
58.87703 238
58.89714 252
58.91726 216
58.93737 201
58.95748 216
58.9776 217
58.99771 226
59.01782 219
59.03794 236
59.05805 234
59.07817 232
59.09828 228
59.11839 223
59.13851 225
59.15862 224
59.17873 269
59.19885 228
59.21896 256
59.23908 208
59.25919 252
59.2793 247
59.29942 243
59.31953 229
59.33964 240
59.35976 248
59.37987 250
59.39998 223
59.4201 252
59.44021 283
59.46033 258
59.48044 273
59.50055 276
59.52067 263
59.54078 285
59.56089 293
59.58101 289
59.60112 299
59.62124 311
59.64135 321
59.66146 345
59.68158 342
59.70169 379
59.7218 386
59.74192 410
59.76203 443
59.78215 498
59.80226 619
59.82237 619
59.84249 747
59.8626 844
59.88271 981
59.90283 1018
59.92294 1035
59.94305 929
59.96317 812
59.98328 701
60.0034 598
60.02351 635
60.04362 586
60.06374 682
60.08385 642
60.10396 586
60.12408 541
60.14419 489
60.16431 387
60.18442 368
60.20453 344
60.22465 354
60.24476 340
60.26487 320
60.28499 317
60.3051 281
60.32522 287
60.34533 270
60.36544 308
60.38556 306
60.40567 294
60.42578 314
60.4459 287
60.46601 265
60.48612 251
60.50624 296
60.52635 255
60.54647 246
60.56658 273
60.58669 264
60.60681 264
60.62692 243
60.64703 245
60.66715 248
60.68726 249
60.70738 266
60.72749 274
60.7476 267
60.76772 250
60.78783 244
60.80794 230
60.82806 242
60.84817 230
60.86828 255
60.8884 278
60.90851 256
60.92863 243
60.94874 265
60.96885 248
60.98897 254
61.00908 249
61.02919 270
61.04931 244
61.06942 259
61.08954 250
61.10965 264
61.12976 272
61.14988 275
61.16999 271
61.1901 277
61.21022 265
61.23033 244
61.25045 304
61.27056 265
61.29067 279
61.31079 276
61.3309 244
61.35101 252
61.37113 260
61.39124 246
61.41135 265
61.43147 265
61.45158 245
61.4717 223
61.49181 255
61.51192 242
61.53204 263
61.55215 260
61.57226 256
61.59238 259
61.61249 274
61.63261 257
61.65272 245
61.67283 264
61.69295 253
61.71306 271
61.73317 263
61.75329 260
61.7734 285
61.79352 277
61.81363 243
61.83374 305
61.85386 287
61.87397 262
61.89408 294
61.9142 289
61.93431 301
61.95442 306
61.97454 290
61.99465 287
62.01477 295
62.03488 258
62.05499 301
62.07511 298
62.09522 320
62.11533 280
62.13545 323
62.15556 300
62.17568 337
62.19579 314
62.2159 315
62.23602 287
62.25613 286
62.27624 299
62.29636 281
62.31647 267
62.33659 271
62.3567 269
62.37681 271
62.39693 275
62.41704 285
62.43715 277
62.45727 259
62.47738 240
62.49749 284
62.51761 287
62.53772 234
62.55784 246
62.57795 268
62.59806 227
62.61818 253
62.63829 274
62.6584 251
62.67852 253
62.69863 261
62.71875 234
62.73886 257
62.75897 251
62.77909 239
62.7992 250
62.81931 255
62.83943 259
62.85954 286
62.87965 285
62.89977 274
62.91988 263
62.94 295
62.96011 282
62.98022 301
63.00034 275
63.02045 305
63.04056 235
63.06068 274
63.08079 295
63.10091 281
63.12102 248
63.14113 268
63.16125 266
63.18136 282
63.20147 229
63.22159 249
63.2417 269
63.26182 267
63.28193 267
63.30204 259
63.32216 276
63.34227 264
63.36238 291
63.3825 265
63.40261 239
63.42272 266
63.44284 266
63.46295 264
63.48307 259
63.50318 275
63.52329 276
63.54341 283
63.56352 275
63.58363 306
63.60375 323
63.62386 312
63.64398 346
63.66409 328
63.6842 349
63.70432 372
63.72443 348
63.74454 385
63.76466 349
63.78477 365
63.80489 355
63.825 359
63.84511 351
63.86523 326
63.88534 381
63.90545 391
63.92557 385
63.94568 379
63.96579 408
63.98591 436
64.00602 433
64.02614 366
64.04625 333
64.06636 348
64.08648 321
64.10659 328
64.1267 325
64.14682 324
64.16693 310
64.18705 339
64.20716 298
64.22727 282
64.24739 277
64.2675 256
64.28761 246
64.30773 251
64.32784 240
64.34796 210
64.36807 238
64.38818 236
64.4083 229
64.42841 224
64.44852 228
64.46864 235
64.48875 211
64.50886 244
64.52898 243
64.54909 209
64.56921 224
64.58932 194
64.60943 208
64.62955 237
64.64966 213
64.66977 240
64.68989 204
64.71 237
64.73012 230
64.75023 194
64.77034 205
64.79046 239
64.81057 219
64.83068 215
64.8508 200
64.87091 230
64.89102 262
64.91114 235
64.93125 248
64.95137 227
64.97148 213
64.99159 257
65.01171 230
65.03182 229
65.05193 256
65.07205 257
65.09216 263
65.11228 265
65.13239 270
65.1525 278
65.17262 238
65.19273 262
65.21284 238
65.23296 269
65.25307 255
65.27319 278
65.2933 286
65.31341 268
65.33353 258
65.35364 285
65.37375 264
65.39387 267
65.41398 283
65.43409 221
65.45421 249
65.47432 246
65.49444 244
65.51455 245
65.53466 225
65.55478 217
65.57489 221
65.595 244
65.61512 220
65.63523 257
65.65535 229
65.67546 254
65.69557 230
65.71569 240
65.7358 250
65.75591 236
65.77603 231
65.79614 213
65.81626 209
65.83637 212
65.85648 222
65.8766 256
65.89671 221
65.91682 208
65.93694 210
65.95705 229
65.97716 222
65.99728 223
66.01739 214
66.03751 225
66.05762 238
66.07773 216
66.09785 244
66.11796 259
66.13807 239
66.15819 244
66.1783 234
66.19842 222
66.21853 235
66.23864 228
66.25876 223
66.27887 224
66.29898 246
66.3191 225
66.33921 234
66.35933 231
66.37944 216
66.39955 207
66.41967 193
66.43978 203
66.45989 204
66.48001 226
66.50012 217
66.52023 228
66.54035 225
66.56046 237
66.58058 222
66.60069 217
66.6208 252
66.64092 226
66.66103 260
66.68114 237
66.70126 263
66.72137 222
66.74149 251
66.7616 232
66.78171 243
66.80183 240
66.82194 226
66.84205 214
66.86217 238
66.88228 249
66.90239 218
66.92251 244
66.94262 221
66.96274 242
66.98285 258
67.00296 239
67.02308 219
67.04319 237
67.0633 216
67.08342 251
67.10353 240
67.12365 241
67.14376 242
67.16387 256
67.18399 246
67.2041 263
67.22421 231
67.24433 228
67.26444 255
67.28456 273
67.30467 230
67.32478 275
67.3449 254
67.36501 278
67.38512 279
67.40524 288
67.42535 288
67.44546 287
67.46558 290
67.48569 292
67.50581 326
67.52592 356
67.54603 361
67.56615 405
67.58626 444
67.60637 470
67.62649 516
67.6466 581
67.66672 695
67.68683 704
67.70694 703
67.72706 614
67.74717 542
67.76728 489
67.7874 510
67.80751 474
67.82763 529
67.84774 473
67.86785 527
67.88797 544
67.90808 551
67.92819 526
67.94831 526
67.96842 505
67.98853 557
68.00865 592
68.02876 682
68.04888 714
68.06899 751
68.0891 817
68.10922 866
68.12933 800
68.14944 750
68.16956 714
68.18967 661
68.20979 679
68.2299 753
68.25001 781
68.27013 792
68.29024 786
68.31035 733
68.33047 634
68.35058 557
68.3707 454
68.39081 452
68.41092 448
68.43104 474
68.45115 464
68.47126 458
68.49138 399
68.51149 339
68.5316 325
68.55172 270
68.57183 316
68.59195 263
68.61206 265
68.63217 258
68.65229 289
68.6724 234
68.69251 241
68.71263 242
68.73274 241
68.75286 233
68.77297 235
68.79308 224
68.8132 241
68.83331 232
68.85342 219
68.87354 246
68.89365 239
68.91376 227
68.93388 235
68.95399 255
68.97411 237
68.99422 230
69.01433 247
69.03445 244
69.05456 249
69.07467 278
69.09479 258
69.1149 271
69.13502 276
69.15513 273
69.17524 280
69.19536 290
69.21547 275
69.23558 249
69.2557 253
69.27581 270
69.29593 294
69.31604 290
69.33615 280
69.35627 289
69.37638 280
69.39649 284
69.41661 294
69.43672 251
69.45683 232
69.47695 259
69.49706 248
69.51718 214
69.53729 247
69.5574 238
69.57752 224
69.59763 276
69.61774 274
69.63786 245
69.65797 276
69.67809 268
69.6982 264
69.71831 274
69.73843 295
69.75854 271
69.77865 303
69.79877 268
69.81888 247
69.839 243
69.85911 290
69.87922 256
69.89934 249
69.91945 261
69.93956 253
69.95968 265
69.97979 227
69.9999 225
70.02002 208
70.04013 204
70.06025 208
70.08036 203
70.10047 220
70.12059 219
70.1407 216
70.16081 188
70.18093 203
70.20104 218
70.22116 227
70.24127 200
70.26138 209
70.2815 189
70.30161 207
70.32172 207
70.34184 209
70.36195 189
70.38207 185
70.40218 181
70.42229 201
70.44241 222
70.46252 184
70.48263 189
70.50275 190
70.52286 216
70.54297 198
70.56309 221
70.5832 215
70.60332 215
70.62343 212
70.64354 220
70.66366 224
70.68377 213
70.70388 200
70.724 226
70.74411 202
70.76423 223
70.78434 229
70.80445 243
70.82457 223
70.84468 210
70.86479 232
70.88491 224
70.90502 255
70.92513 222
70.94525 224
70.96536 221
70.98548 230
71.00559 232
71.0257 227
71.04582 237
71.06593 240
71.08604 260
71.10616 251
71.12627 217
71.14639 200
71.1665 233
71.18661 267
71.20673 222
71.22684 214
71.24695 220
71.26707 226
71.28718 272
71.3073 259
71.32741 258
71.34752 235
71.36764 269
71.38775 248
71.40786 246
71.42798 241
71.44809 242
71.4682 256
71.48832 255
71.50843 208
71.52855 197
71.54866 217
71.56877 244
71.58889 223
71.609 215
71.62911 226
71.64923 218
71.66934 195
71.68946 219
71.70957 236
71.72968 212
71.7498 184
71.76991 211
71.79002 213
71.81014 213
71.83025 186
71.85037 209
71.87048 208
71.89059 190
71.91071 208
71.93082 221
71.95093 209
71.97105 232
71.99116 209
72.01127 203
72.03139 233
72.0515 224
72.07162 253
72.09173 215
72.11184 203
72.13196 185
72.15207 203
72.17218 180
72.1923 203
72.21241 216
72.23253 220
72.25264 215
72.27275 197
72.29287 217
72.31298 198
72.33309 178
72.35321 197
72.37332 200
72.39344 192
72.41355 180
72.43366 208
72.45378 206
72.47389 207
72.494 229
72.51412 201
72.53423 187
72.55434 194
72.57446 231
72.59457 200
72.61469 209
72.6348 188
72.65491 206
72.67503 212
72.69514 211
72.71525 178
72.73537 232
72.75548 200
72.7756 229
72.79571 168
72.81582 201
72.83594 224
72.85605 202
72.87616 209
72.89628 195
72.91639 213
72.9365 215
72.95662 209
72.97673 234
72.99685 216
73.01696 211
73.03707 216
73.05719 222
73.0773 237
73.09741 243
73.11753 246
73.13764 220
73.15776 249
73.17787 254
73.19798 262
73.2181 257
73.23821 239
73.25832 275
73.27844 258
73.29855 281
73.31867 304
73.33878 304
73.35889 340
73.37901 347
73.39912 351
73.41923 369
73.43935 364
73.45946 344
73.47957 320
73.49969 265
73.5198 268
73.53992 296
73.56003 281
73.58014 278
73.60026 280
73.62037 273
73.64048 289
73.6606 308
73.68071 295
73.70083 267
73.72094 255
73.74105 250
73.76117 226
73.78128 253
73.80139 266
73.82151 225
73.84162 282
73.86174 236
73.88185 238
73.90196 223
73.92208 227
73.94219 242
73.9623 230
73.98242 211
74.00253 228
74.02264 257
74.04276 225
74.06287 262
74.08299 200
74.1031 220
74.12321 227
74.14333 223
74.16344 237
74.18355 208
74.20367 224
74.22378 185
74.2439 201
74.26401 218
74.28412 207
74.30424 235
74.32435 230
74.34446 218
74.36458 213
74.38469 220
74.40481 198
74.42492 229
74.44503 239
74.46515 233
74.48526 206
74.50537 222
74.52549 225
74.5456 238
74.56571 231
74.58583 221
74.60594 250
74.62606 250
74.64617 233
74.66628 187
74.6864 244
74.70651 240
74.72662 243
74.74674 240
74.76685 246
74.78697 242
74.80708 212
74.82719 236
74.84731 229
74.86742 229
74.88753 222
74.90765 234
74.92776 247
74.94787 234
74.96799 213
74.9881 216
75.00822 197
