3.00117 23129
3.02128 22147
3.0414 21858
3.06151 21494
3.08162 20303
3.10174 20273
3.12185 19563
3.14197 18847
3.16208 18566
3.18219 17618
3.20231 17590
3.22242 16767
3.24253 16336
3.26265 16080
3.28276 15106
3.30288 14923
3.32299 14459
3.3431 13918
3.36322 13472
3.38333 13045
3.40344 12601
3.42356 12241
3.44367 11824
3.46379 11414
3.4839 10911
3.50401 10930
3.52413 10207
3.54424 9706
3.56435 9387
3.58447 8896
3.60458 8958
3.62469 8723
3.64481 8122
3.66492 8018
3.68504 7466
3.70515 7582
3.72526 7025
3.74538 6796
3.76549 6662
3.7856 6122
3.80572 5844
3.82583 5853
3.84595 5482
3.86606 5344
3.88617 5130
3.90629 4853
3.9264 4532
3.94651 4191
3.96663 4119
3.98674 4060
4.00686 3983
4.02697 3795
4.04708 3509
4.0672 3543
4.08731 3073
4.10742 3141
4.12754 2982
4.14765 2774
4.16776 2741
4.18788 2534
4.20799 2561
4.22811 2508
4.24822 2223
4.26833 2254
4.28845 2042
4.30856 2154
4.32867 2097
4.34879 1830
4.3689 1866
4.38902 1737
4.40913 1793
4.42924 1766
4.44936 1699
4.46947 1650
4.48958 1586
4.5097 1458
4.52981 1651
4.54992 1445
4.57004 1423
4.59015 1363
4.61027 1413
4.63038 1453
4.65049 1252
4.67061 1269
4.69072 1312
4.71083 1181
4.73095 1297
4.75106 1120
4.77118 1132
4.79129 1135
4.8114 1079
4.83152 1178
4.85163 1041
4.87174 1035
4.89186 992
4.91197 996
4.93209 1010
4.9522 888
4.97231 944
4.99243 906
5.01254 866
5.03265 883
5.05277 792
5.07288 735
5.09299 817
5.11311 784
5.13322 780
5.15334 665
5.17345 704
5.19356 715
5.21368 688
5.23379 724
5.2539 641
5.27402 678
5.29413 687
5.31425 633
5.33436 632
5.35447 580
5.37459 566
5.3947 639
5.41481 554
5.43493 538
5.45504 565
5.47516 537
5.49527 564
5.51538 497
5.5355 511
5.55561 484
5.57572 479
5.59584 492
5.61595 480
5.63606 481
5.65618 477
5.67629 405
5.69641 475
5.71652 432
5.73663 404
5.75675 415
5.77686 394
5.79697 435
5.81709 440
5.8372 386
5.85732 412
5.87743 387
5.89754 409
5.91766 402
5.93777 406
5.95788 396
5.978 390
5.99811 368
6.01823 379
6.03834 364
6.05845 361
6.07857 359
6.09868 388
6.11879 359
6.13891 352
6.15902 358
6.17913 380
6.19925 375
6.21936 347
6.23948 378
6.25959 340
6.2797 376
6.29982 386
6.31993 346
6.34004 334
6.36016 388
6.38027 330
6.40039 353
6.4205 353
6.44061 351
6.46073 288
6.48084 337
6.50095 352
6.52107 320
6.54118 368
6.56129 304
6.58141 341
6.60152 343
6.62164 312
6.64175 351
6.66186 299
6.68198 337
6.70209 349
6.7222 316
6.74232 314
6.76243 319
6.78255 340
6.80266 382
6.82277 298
6.84289 366
6.863 313
6.88311 337
6.90323 325
6.92334 339
6.94346 319
6.96357 367
6.98368 321
7.0038 315
7.02391 334
7.04402 330
7.06414 363
7.08425 352
7.10436 318
7.12448 326
7.14459 356
7.16471 323
7.18482 351
7.20493 363
7.22505 315
7.24516 333
7.26527 343
7.28539 363
7.3055 375
7.32562 373
7.34573 362
7.36584 343
7.38596 384
7.40607 408
7.42618 335
7.4463 333
7.46641 326
7.48653 382
7.50664 337
7.52675 327
7.54687 327
7.56698 344
7.58709 328
7.60721 331
7.62732 339
7.64743 373
7.66755 348
7.68766 365
7.70778 346
7.72789 364
7.748 320
7.76812 352
7.78823 362
7.80834 381
7.82846 338
7.84857 354
7.86869 344
7.8888 356
7.90891 359
7.92903 369
7.94914 317
7.96925 341
7.98937 345
8.00948 349
8.0296 354
8.04971 330
8.06982 339
8.08994 342
8.11005 327
8.13016 388
8.15028 380
8.17039 340
8.1905 370
8.21062 361
8.23073 358
8.25085 361
8.27096 365
8.29107 359
8.31119 379
8.3313 387
8.35141 373
8.37153 401
8.39164 359
8.41176 431
8.43187 389
8.45198 409
8.4721 362
8.49221 406
8.51232 336
8.53244 390
8.55255 376
8.57266 366
8.59278 396
8.61289 406
8.63301 404
8.65312 356
8.67323 390
8.69335 373
8.71346 364
8.73357 373
8.75369 392
8.7738 379
8.79392 378
8.81403 392
8.83414 402
8.85426 345
8.87437 354
8.89448 378
8.9146 374
8.93471 334
8.95483 328
8.97494 367
8.99505 336
9.01517 303
9.03528 284
9.05539 326
9.07551 357
9.09562 307
9.11573 325
9.13585 310
9.15596 309
9.17608 280
9.19619 343
9.2163 315
9.23642 286
9.25653 312
9.27664 319
9.29676 322
9.31687 297
9.33699 302
9.3571 288
9.37721 299
9.39733 261
9.41744 306
9.43755 310
9.45767 279
9.47778 307
9.4979 286
9.51801 276
9.53812 285
9.55824 289
9.57835 283
9.59846 266
9.61858 259
9.63869 283
9.6588 256
9.67892 266
9.69903 267
9.71915 282
9.73926 307
9.75937 286
9.77949 293
9.7996 273
9.81971 317
9.83983 269
9.85994 250
9.88006 322
9.90017 290
9.92028 271
9.9404 280
9.96051 252
9.98062 279
10.00074 272
10.02085 291
10.04097 281
10.06108 255
10.08119 292
10.10131 265
10.12142 295
10.14153 290
10.16165 255
10.18176 272
10.20187 241
10.22199 282
10.2421 304
10.26222 270
10.28233 299
10.30244 281
10.32256 287
10.34267 312
10.36278 287
10.3829 298
10.40301 293
10.42313 313
10.44324 373
10.46335 315
10.48347 337
10.50358 315
10.52369 296
10.54381 293
10.56392 295
10.58403 290
10.60415 288
10.62426 296
10.64438 251
10.66449 285
10.6846 283
10.70472 278
10.72483 272
10.74494 274
10.76506 304
10.78517 249
10.80529 271
10.8254 277
10.84551 271
10.86563 289
10.88574 288
10.90585 274
10.92597 256
10.94608 275
10.9662 266
10.98631 291
11.00642 277
11.02654 277
11.04665 229
11.06676 281
11.08688 259
11.10699 285
11.1271 259
11.14722 290
11.16733 279
11.18745 277
11.20756 250
11.22767 285
11.24779 272
11.2679 271
11.28801 267
11.30813 242
11.32824 257
11.34836 271
11.36847 293
11.38858 300
11.4087 291
11.42881 283
11.44892 304
11.46904 283
11.48915 264
11.50927 294
11.52938 275
11.54949 292
11.56961 260
11.58972 275
11.60983 263
11.62995 260
11.65006 263
11.67017 273
11.69029 282
11.7104 287
11.73052 266
11.75063 275
11.77074 265
11.79086 288
11.81097 270
11.83108 263
11.8512 260
11.87131 275
11.89143 289
11.91154 301
11.93165 272
11.95177 284
11.97188 262
11.99199 272
12.01211 290
12.03222 286
12.05234 279
12.07245 307
12.09256 282
12.11268 284
12.13279 265
12.1529 287
12.17302 302
12.19313 292
12.21324 244
12.23336 261
12.25347 293
12.27359 254
12.2937 305
12.31381 265
12.33393 257
12.35404 266
12.37415 299
12.39427 271
12.41438 232
12.4345 276
12.45461 300
12.47472 263
12.49484 290
12.51495 301
12.53506 275
12.55518 268
12.57529 277
12.5954 259
12.61552 301
12.63563 233
12.65575 253
12.67586 278
12.69597 241
12.71609 268
12.7362 286
12.75631 270
12.77643 266
12.79654 277
12.81666 246
12.83677 285
12.85688 257
12.877 251
12.89711 294
12.91722 240
12.93734 270
12.95745 229
12.97757 293
12.99768 277
13.01779 277
13.03791 280
13.05802 270
13.07813 240
13.09825 281
13.11836 252
13.13847 248
13.15859 279
13.1787 284
13.19882 234
13.21893 272
13.23904 234
13.25916 302
13.27927 243
13.29938 280
13.3195 258
13.33961 282
13.35973 257
13.37984 267
13.39995 254
13.42007 296
13.44018 284
13.46029 282
13.48041 294
13.50052 314
13.52064 305
13.54075 322
13.56086 333
13.58098 321
13.60109 333
13.6212 315
13.64132 348
13.66143 298
13.68154 294
13.70166 286
13.72177 293
13.74189 308
13.762 331
13.78211 342
13.80223 329
13.82234 346
13.84245 369
13.86257 332
13.88268 334
13.9028 357
13.92291 327
13.94302 288
13.96314 305
13.98325 281
14.00336 304
14.02348 302
14.04359 260
14.06371 262
14.08382 260
14.10393 270
14.12405 235
14.14416 257
14.16427 288
14.18439 278
14.2045 258
14.22461 245
14.24473 230
14.26484 263
14.28496 240
14.30507 265
14.32518 273
14.3453 252
14.36541 240
14.38552 216
14.40564 234
14.42575 274
14.44587 254
14.46598 245
14.48609 243
14.50621 228
14.52632 228
14.54643 287
14.56655 236
14.58666 245
14.60677 246
14.62689 231
14.647 277
14.66712 261
14.68723 255
14.70734 278
14.72746 253
14.74757 275
14.76768 240
14.7878 273
14.80791 263
14.82803 277
14.84814 278
14.86825 309
14.88837 273
14.90848 296
14.92859 293
14.94871 287
14.96882 297
14.98894 282
15.00905 311
15.02916 287
15.04928 259
15.06939 275
15.0895 249
15.10962 270
15.12973 293
15.14984 265
15.16996 264
15.19007 258
15.21019 238
15.2303 269
15.25041 258
15.27053 259
15.29064 223
15.31075 229
15.33087 239
15.35098 262
15.3711 273
15.39121 257
15.41132 242
15.43144 238
15.45155 269
15.47166 243
15.49178 225
15.51189 232
15.53201 234
15.55212 262
15.57223 241
15.59235 255
15.61246 235
15.63257 238
15.65269 250
15.6728 247
15.69291 231
15.71303 271
15.73314 260
15.75326 265
15.77337 228
15.79348 253
15.8136 278
15.83371 236
15.85382 218
15.87394 236
15.89405 260
15.91417 258
15.93428 233
15.95439 233
15.97451 235
15.99462 242
16.01473 268
16.03485 206
16.05496 233
16.07508 244
16.09519 239
16.1153 240
16.13542 243
16.15553 239
16.17564 243
16.19576 236
16.21587 270
16.23598 240
16.2561 254
16.27621 247
16.29633 223
16.31644 257
16.33655 264
16.35667 234
16.37678 235
16.39689 252
16.41701 253
16.43712 239
16.45724 221
16.47735 256
16.49746 257
16.51758 255
16.53769 240
16.5578 208
16.57792 218
16.59803 254
16.61814 239
16.63826 224
16.65837 267
16.67849 264
16.6986 267
16.71871 246
16.73883 266
16.75894 232
16.77905 252
16.79917 240
16.81928 250
16.8394 251
16.85951 247
16.87962 231
16.89974 223
16.91985 219
16.93996 246
16.96008 247
16.98019 225
17.00031 243
17.02042 223
17.04053 221
17.06065 242
17.08076 238
17.10087 274
17.12099 226
17.1411 281
17.16121 245
17.18133 226
17.20144 237
17.22156 245
17.24167 254
17.26178 218
17.2819 239
17.30201 250
17.32212 223
17.34224 270
17.36235 271
17.38247 246
17.40258 249
17.42269 221
17.44281 238
17.46292 244
17.48303 272
17.50315 250
17.52326 239
17.54338 282
17.56349 236
17.5836 282
17.60372 235
17.62383 274
17.64394 279
17.66406 286
17.68417 275
17.70428 253
17.7244 269
17.74451 272
17.76463 257
17.78474 265
17.80485 291
17.82497 265
17.84508 237
17.86519 260
17.88531 237
17.90542 258
17.92554 256
17.94565 237
17.96576 236
17.98588 263
18.00599 277
18.0261 274
18.04622 264
18.06633 271
18.08645 248
18.10656 263
18.12667 269
18.14679 267
18.1669 253
18.18701 253
18.20713 254
18.22724 220
18.24735 264
18.26747 234
18.28758 262
18.3077 225
18.32781 262
18.34792 257
18.36804 247
18.38815 241
18.40826 251
18.42838 218
18.44849 248
18.46861 242
18.48872 219
18.50883 259
18.52895 267
18.54906 274
18.56917 270
18.58929 258
18.6094 255
18.62951 249
18.64963 285
18.66974 276
18.68986 300
18.70997 270
18.73008 263
18.7502 242
18.77031 277
18.79042 254
18.81054 260
18.83065 250
18.85077 277
18.87088 254
18.89099 246
18.91111 291
18.93122 237
18.95133 238
18.97145 263
18.99156 263
19.01168 227
19.03179 244
19.0519 246
19.07202 239
19.09213 257
19.11224 268
19.13236 256
19.15247 282
19.17258 285
19.1927 285
19.21281 276
19.23293 303
19.25304 312
19.27315 289
19.29327 266
19.31338 286
19.33349 305
19.35361 306
19.37372 313
19.39384 291
19.41395 303
19.43406 306
19.45418 334
19.47429 322
19.4944 328
19.51452 295
19.53463 357
19.55475 352
19.57486 347
19.59497 378
19.61509 367
19.6352 375
19.65531 390
19.67543 415
19.69554 408
19.71565 471
19.73577 465
19.75588 459
19.776 442
19.79611 455
19.81622 452
19.83634 446
19.85645 445
19.87656 432
19.89668 392
19.91679 396
19.93691 389
19.95702 388
19.97713 395
19.99725 386
20.01736 353
20.03747 383
20.05759 406
20.0777 357
20.09782 353
20.11793 380
20.13804 404
20.15816 385
20.17827 394
20.19838 382
20.2185 378
20.23861 371
20.25872 326
20.27884 368
20.29895 381
20.31907 391
20.33918 417
20.35929 398
20.37941 424
20.39952 396
20.41963 384
20.43975 425
20.45986 405
20.47998 438
20.50009 444
20.5202 445
20.54032 470
20.56043 514
20.58054 531
20.60066 591
20.62077 747
20.64088 832
20.661 1014
20.68111 1298
20.70123 1703
20.72134 2175
20.74145 2711
20.76157 3288
20.78168 3711
20.80179 4065
20.82191 4115
20.84202 3873
20.86214 3286
20.88225 2776
20.90236 1957
20.92248 1567
20.94259 1146
20.9627 893
20.98282 831
21.00293 704
21.02305 657
21.04316 627
21.06327 592
21.08339 508
21.1035 477
21.12361 399
21.14373 392
21.16384 416
21.18395 419
21.20407 373
21.22418 369
21.2443 369
21.26441 387
21.28452 366
21.30464 343
21.32475 356
21.34486 382
21.36498 371
21.38509 333
21.40521 334
21.42532 372
21.44543 323
21.46555 318
21.48566 347
21.50577 321
21.52589 332
21.546 338
21.56612 354
21.58623 337
21.60634 363
21.62646 306
21.64657 349
21.66668 313
21.6868 319
21.70691 334
21.72702 330
21.74714 337
21.76725 369
21.78737 404
21.80748 396
21.82759 385
21.84771 498
21.86782 520
21.88793 595
21.90805 659
21.92816 620
21.94828 696
21.96839 812
21.9885 744
22.00862 700
22.02873 694
22.04884 581
22.06896 530
22.08907 467
22.10919 439
22.1293 399
22.14941 353
22.16953 390
22.18964 328
22.20975 356
22.22987 417
22.24998 371
22.27009 402
22.29021 390
22.31032 358
22.33044 360
22.35055 343
22.37066 341
22.39078 339
22.41089 347
22.431 291
22.45112 332
22.47123 334
22.49135 318
22.51146 311
22.53157 323
22.55169 326
22.5718 305
22.59191 357
22.61203 315
22.63214 331
22.65225 335
22.67237 367
22.69248 327
22.7126 350
22.73271 319
22.75282 374
22.77294 352
22.79305 369
22.81316 355
22.83328 364
22.85339 344
22.87351 357
22.89362 371
22.91373 396
22.93385 389
22.95396 364
22.97407 424
22.99419 368
23.0143 416
23.03442 411
23.05453 413
23.07464 409
23.09476 440
23.11487 420
23.13498 434
23.1551 451
23.17521 438
23.19532 423
23.21544 415
23.23555 361
23.25567 413
23.27578 365
23.29589 349
23.31601 358
23.33612 385
23.35623 404
23.37635 440
23.39646 413
23.41658 483
23.43669 472
23.4568 513
23.47692 590
23.49703 564
23.51714 569
23.53726 589
23.55737 545
23.57749 577
23.5976 486
23.61771 500
23.63783 441
23.65794 432
23.67805 470
23.69817 440
23.71828 416
23.73839 436
23.75851 401
23.77862 437
23.79874 439
23.81885 446
23.83896 484
23.85908 509
23.87919 477
23.8993 498
23.91942 472
23.93953 509
23.95965 544
23.97976 530
23.99987 512
24.01999 540
24.0401 538
24.06021 507
24.08033 482
24.10044 516
24.12056 590
24.14067 550
24.16078 595
24.1809 575
24.20101 549
24.22112 619
24.24124 551
24.26135 598
24.28146 614
24.30158 539
24.32169 522
24.34181 480
24.36192 460
24.38203 432
24.40215 447
24.42226 425
24.44237 366
24.46249 340
24.4826 420
24.50272 346
24.52283 349
24.54294 361
24.56306 352
24.58317 399
24.60328 375
24.6234 383
24.64351 338
24.66362 339
24.68374 358
24.70385 375
24.72397 305
24.74408 322
24.76419 361
24.78431 350
24.80442 385
24.82453 339
24.84465 320
24.86476 342
24.88488 379
24.90499 337
24.9251 356
24.94522 355
24.96533 346
24.98544 361
25.00556 354
25.02567 331
25.04579 339
25.0659 357
25.08601 357
25.10613 343
25.12624 368
25.14635 345
25.16647 355
25.18658 320
25.20669 397
25.22681 366
25.24692 395
25.26704 396
25.28715 410
25.30726 379
25.32738 455
25.34749 486
25.3676 450
25.38772 462
25.40783 500
25.42795 525
25.44806 494
25.46817 527
25.48829 523
25.5084 546
25.52851 614
25.54863 612
25.56874 553
25.58886 581
25.60897 557
25.62908 553
25.6492 536
25.66931 523
25.68942 504
25.70954 493
25.72965 485
25.74976 522
25.76988 495
25.78999 477
25.81011 473
25.83022 481
25.85033 419
25.87045 512
25.89056 477
25.91067 489
25.93079 469
25.9509 491
25.97102 491
25.99113 514
26.01124 515
26.03136 531
26.05147 578
26.07158 602
26.0917 601
26.11181 623
26.13193 658
26.15204 704
26.17215 724
26.19227 816
26.21238 860
26.23249 945
26.25261 1059
26.27272 1155
26.29283 1331
26.31295 1476
26.33306 1655
26.35318 1944
26.37329 2355
26.3934 2943
26.41352 3780
26.43363 4728
26.45374 6115
26.47386 7652
26.49397 9711
26.51409 12314
26.5342 14640
26.55431 16646
26.57443 17708
26.59454 17778
26.61465 16825
26.63477 14579
26.65488 11701
26.67499 8744
26.69511 6392
26.71522 4407
26.73534 2827
26.75545 1941
26.77556 1472
26.79568 1301
26.81579 1215
26.8359 1052
26.85602 971
26.87613 990
26.89625 973
26.91636 935
26.93647 926
26.95659 859
26.9767 887
26.99681 829
27.01693 837
27.03704 804
27.05716 806
27.07727 777
27.09738 723
27.1175 659
27.13761 700
27.15772 594
27.17784 620
27.19795 589
27.21806 567
27.23818 659
27.25829 689
27.27841 738
27.29852 776
27.31863 830
27.33875 869
27.35886 928
27.37897 960
27.39909 1050
27.4192 987
27.43932 983
27.45943 965
27.47954 951
27.49966 905
27.51977 801
27.53988 844
27.56 878
27.58011 828
27.60023 834
27.62034 830
27.64045 885
27.66057 944
27.68068 958
27.70079 1031
27.72091 1088
27.74102 1120
27.76113 1073
27.78125 1076
27.80136 1153
27.82148 1135
27.84159 1205
27.8617 1213
27.88182 1280
27.90193 1268
27.92204 1137
27.94216 1118
27.96227 961
27.98239 944
28.0025 773
28.02261 790
28.04273 738
28.06284 671
28.08295 608
28.10307 647
28.12318 591
28.1433 662
28.16341 625
28.18352 574
28.20364 587
28.22375 533
28.24386 558
28.26398 510
28.28409 558
28.3042 506
28.32432 460
28.34443 428
28.36455 467
28.38466 456
28.40477 443
28.42489 388
28.445 427
28.46511 379
28.48523 393
28.50534 396
28.52546 363
28.54557 366
28.56568 375
28.5858 386
28.60591 366
28.62602 354
28.64614 341
28.66625 340
28.68636 328
28.70648 387
28.72659 392
28.74671 354
28.76682 363
28.78693 327
28.80705 326
28.82716 327
28.84727 367
28.86739 370
28.8875 357
28.90762 373
28.92773 314
28.94784 337
28.96796 342
28.98807 321
29.00818 351
29.0283 330
29.04841 328
29.06853 316
29.08864 355
29.10875 321
29.12887 344
29.14898 326
29.16909 345
29.18921 339
29.20932 344
29.22943 355
29.24955 370
29.26966 387
29.28978 362
29.30989 418
29.33 416
29.35012 425
29.37023 455
29.39034 443
29.41046 398
29.43057 414
29.45069 451
29.4708 424
29.49091 395
29.51103 389
29.53114 402
29.55125 377
29.57137 410
29.59148 423
29.6116 398
29.63171 428
29.65182 432
29.67194 381
29.69205 388
29.71216 382
29.73228 425
29.75239 438
29.7725 401
29.79262 446
29.81273 389
29.83285 423
29.85296 396
29.87307 417
29.89319 403
29.9133 455
29.93341 389
29.95353 455
29.97364 396
29.99376 480
30.01387 441
30.03398 420
30.0541 462
30.07421 464
30.09432 494
30.11444 523
30.13455 462
30.15467 501
30.17478 523
30.19489 513
30.21501 486
30.23512 492
30.25523 478
30.27535 458
30.29546 477
30.31557 481
30.33569 514
30.3558 486
30.37592 472
30.39603 453
30.41614 491
30.43626 479
30.45637 495
30.47648 441
30.4966 434
30.51671 431
30.53683 405
30.55694 376
30.57705 413
30.59717 374
30.61728 397
30.63739 421
30.65751 416
30.67762 440
30.69773 468
30.71785 453
30.73796 486
30.75808 450
30.77819 438
30.7983 495
30.81842 449
30.83853 447
30.85864 434
30.87876 362
30.89887 375
30.91899 362
30.9391 401
30.95921 369
30.97933 347
30.99944 328
31.01955 327
31.03967 316
31.05978 277
31.0799 348
31.10001 306
31.12012 322
31.14024 373
31.16035 312
31.18046 342
31.20058 314
31.22069 360
31.2408 330
31.26092 344
31.28103 292
31.30115 338
31.32126 330
31.34137 317
31.36149 339
31.3816 327
31.40171 312
31.42183 326
31.44194 297
31.46206 334
31.48217 312
31.50228 286
31.5224 286
31.54251 291
31.56262 261
31.58274 312
31.60285 279
31.62297 293
31.64308 257
31.66319 285
31.68331 306
31.70342 257
31.72353 306
31.74365 257
31.76376 284
31.78387 314
31.80399 287
31.8241 306
31.84422 308
31.86433 282
31.88444 313
31.90456 277
31.92467 296
31.94478 302
31.9649 284
31.98501 322
32.00513 293
32.02524 291
32.04535 270
32.06547 319
32.08558 297
32.10569 281
32.12581 320
32.14592 306
32.16604 320
32.18615 311
32.20626 348
32.22638 315
32.24649 322
32.2666 346
32.28672 349
32.30683 324
32.32694 351
32.34706 347
32.36717 366
32.38729 334
32.4074 350
32.42751 370
32.44763 369
32.46774 362
32.48785 338
32.50797 366
32.52808 355
32.5482 347
32.56831 325
32.58842 331
32.60854 290
32.62865 283
32.64876 287
32.66888 307
32.68899 332
32.7091 293
32.72922 294
32.74933 340
32.76945 333
32.78956 274
32.80967 294
32.82979 311
32.8499 309
32.87001 289
32.89013 363
32.91024 326
32.93036 325
32.95047 330
32.97058 348
32.9907 325
33.01081 339
33.03092 299
33.05104 344
33.07115 313
33.09127 306
33.11138 328
33.13149 318
33.15161 343
33.17172 315
33.19183 325
33.21195 317
33.23206 284
33.25217 305
33.27229 308
33.2924 292
33.31252 298
33.33263 302
33.35274 294
33.37286 274
33.39297 269
33.41308 301
33.4332 250
33.45331 284
33.47343 311
33.49354 290
33.51365 286
33.53377 293
33.55388 306
33.57399 278
33.59411 283
33.61422 297
33.63434 339
33.65445 291
33.67456 307
33.69468 300
33.71479 298
33.7349 305
33.75502 334
33.77513 330
33.79524 312
33.81536 316
33.83547 310
33.85559 343
33.8757 345
33.89581 323
33.91593 316
33.93604 314
33.95615 323
33.97627 320
33.99638 319
34.0165 354
34.03661 333
34.05672 359
34.07684 374
34.09695 326
34.11706 367
34.13718 361
34.15729 367
34.17741 367
34.19752 406
34.21763 387
34.23775 373
34.25786 391
34.27797 358
34.29809 367
34.3182 403
34.33831 400
34.35843 392
34.37854 387
34.39866 406
34.41877 448
34.43888 430
34.459 465
34.47911 452
34.49922 515
34.51934 474
34.53945 451
34.55957 530
34.57968 511
34.59979 565
34.61991 563
34.64002 560
34.66013 539
34.68025 538
34.70036 535
34.72047 488
34.74059 505
34.7607 511
34.78082 491
34.80093 467
34.82104 510
34.84116 508
34.86127 468
34.88138 540
34.9015 523
34.92161 502
34.94173 521
34.96184 501
34.98195 502
35.00207 439
35.02218 468
35.04229 497
35.06241 462
35.08252 504
35.10264 462
35.12275 429
35.14286 451
35.16298 476
35.18309 445
35.2032 439
35.22332 498
35.24343 442
35.26354 444
35.28366 421
35.30377 479
35.32389 496
35.344 484
35.36411 466
35.38423 479
35.40434 484
35.42445 482
35.44457 477
35.46468 476
35.4848 467
35.50491 466
35.52502 433
35.54514 490
35.56525 409
35.58536 473
35.60548 442
35.62559 459
35.64571 393
35.66582 398
35.68593 384
35.70605 395
35.72616 385
35.74627 386
35.76639 379
35.7865 346
35.80661 371
35.82673 385
35.84684 360
35.86696 351
35.88707 348
35.90718 342
35.9273 386
35.94741 333
35.96752 358
35.98764 344
36.00775 352
36.02787 332
36.04798 360
36.06809 357
36.08821 349
36.10832 325
36.12843 362
36.14855 411
36.16866 393
36.18878 354
36.20889 396
36.229 404
36.24912 404
36.26923 483
36.28934 516
36.30946 560
36.32957 655
36.34968 773
36.3698 865
36.38991 1003
36.41003 1140
36.43014 1214
36.45025 1408
36.47037 1464
36.49048 1435
36.51059 1352
36.53071 1356
36.55082 1126
36.57094 978
36.59105 880
36.61116 784
36.63128 639
36.65139 535
36.6715 483
36.69162 472
36.71173 414
36.73184 423
36.75196 407
36.77207 391
36.79219 368
36.8123 384
36.83241 390
36.85253 381
36.87264 371
36.89275 389
36.91287 355
36.93298 350
36.9531 386
36.97321 357
36.99332 355
37.01344 347
37.03355 363
37.05366 320
37.07378 335
37.09389 318
37.11401 308
37.13412 340
37.15423 303
37.17435 297
37.19446 327
37.21457 307
37.23469 299
37.2548 344
37.27491 355
37.29503 327
37.31514 335
37.33526 322
37.35537 356
37.37548 297
37.3956 350
37.41571 333
37.43582 333
37.45594 362
37.47605 345
37.49617 329
37.51628 325
37.53639 347
37.55651 352
37.57662 342
37.59673 342
37.61685 335
37.63696 338
37.65708 352
37.67719 322
37.6973 305
37.71742 307
37.73753 313
37.75764 313
37.77776 303
37.79787 289
37.81798 313
37.8381 274
37.85821 314
37.87833 288
37.89844 332
37.91855 297
37.93867 299
37.95878 281
37.97889 316
37.99901 263
38.01912 297
38.03924 281
38.05935 261
38.07946 272
38.09958 304
38.11969 293
38.1398 318
38.15992 319
38.18003 288
38.20015 271
38.22026 303
38.24037 298
38.26049 309
38.2806 274
38.30071 294
38.32083 315
38.34094 274
38.36105 317
38.38117 333
38.40128 311
38.4214 301
38.44151 281
38.46162 336
38.48174 316
38.50185 299
38.52196 288
38.54208 282
38.56219 325
38.58231 311
38.60242 345
38.62253 300
38.64265 317
38.66276 289
38.68287 307
38.70299 325
38.7231 293
38.74321 302
38.76333 303
38.78344 291
38.80356 304
38.82367 329
38.84378 298
38.8639 305
38.88401 271
38.90412 286
38.92424 309
38.94435 296
38.96447 298
38.98458 281
39.00469 327
39.02481 355
39.04492 351
39.06503 314
39.08515 367
39.10526 326
39.12538 380
39.14549 377
39.1656 419
39.18572 446
39.20583 488
39.22594 550
39.24606 562
39.26617 667
39.28628 785
39.3064 866
39.32651 1026
39.34663 1133
39.36674 1294
39.38685 1216
39.40697 1317
39.42708 1269
39.44719 1200
39.46731 1141
39.48742 932
39.50754 797
39.52765 710
39.54776 618
39.56788 548
39.58799 450
39.6081 403
39.62822 371
39.64833 379
39.66845 366
39.68856 349
39.70867 343
39.72879 306
39.7489 319
39.76901 327
39.78913 339
39.80924 319
39.82935 323
39.84947 318
39.86958 322
39.8897 320
39.90981 327
39.92992 379
39.95004 343
39.97015 371
39.99026 366
40.01038 404
40.03049 391
40.05061 417
40.07072 448
40.09083 476
40.11095 591
40.13106 603
40.15117 665
40.17129 704
40.1914 794
40.21152 802
40.23163 771
40.25174 748
40.27186 699
40.29197 692
40.31208 595
40.3322 506
40.35231 534
40.37242 465
40.39254 427
40.41265 371
40.43277 333
40.45288 321
40.47299 299
40.49311 305
40.51322 302
40.53333 302
40.55345 299
40.57356 286
40.59368 300
40.61379 277
40.6339 268
40.65402 282
40.67413 287
40.69424 301
40.71436 298
40.73447 292
40.75458 293
40.7747 302
40.79481 310
40.81493 267
40.83504 287
40.85515 279
40.87527 285
40.89538 296
40.91549 310
40.93561 290
40.95572 288
40.97584 293
40.99595 308
41.01606 307
41.03618 331
41.05629 299
41.0764 308
41.09652 286
41.11663 292
41.13675 313
41.15686 297
41.17697 292
41.19709 306
41.2172 280
41.23731 310
41.25743 273
41.27754 312
41.29765 301
41.31777 321
41.33788 291
41.358 269
41.37811 280
41.39822 304
41.41834 302
41.43845 269
41.45856 276
41.47868 314
41.49879 325
41.51891 297
41.53902 336
41.55913 348
41.57925 307
41.59936 359
41.61947 341
41.63959 379
41.6597 370
41.67982 365
41.69993 389
41.72004 369
41.74016 416
41.76027 374
41.78038 390
41.8005 342
41.82061 359
41.84072 369
41.86084 356
41.88095 356
41.90107 355
41.92118 287
41.94129 346
41.96141 332
41.98152 337
42.00163 315
42.02175 294
42.04186 344
42.06198 338
42.08209 359
42.1022 368
42.12232 383
42.14243 397
42.16254 396
42.18266 458
42.20277 488
42.22289 532
42.243 593
42.26311 665
42.28323 722
42.30334 843
42.32345 882
42.34357 967
42.36368 1022
42.38379 1039
42.40391 1092
42.42402 967
42.44414 895
42.46425 857
42.48436 703
42.50448 684
42.52459 602
42.5447 542
42.56482 491
42.58493 413
42.60505 358
42.62516 369
42.64527 360
42.66539 317
42.6855 349
42.70561 338
42.72573 326
42.74584 317
42.76595 332
42.78607 297
42.80618 337
42.8263 335
42.84641 269
42.86652 282
42.88664 276
42.90675 310
42.92686 310
42.94698 275
42.96709 287
42.98721 269
43.00732 273
43.02743 274
43.04755 256
43.06766 256
43.08777 286
43.10789 327
43.128 290
43.14812 303
43.16823 271
43.18834 264
43.20846 270
43.22857 269
43.24868 254
43.2688 276
43.28891 273
43.30902 296
43.32914 291
43.34925 279
43.36937 311
43.38948 272
43.40959 270
43.42971 277
43.44982 270
43.46993 263
43.49005 288
43.51016 283
43.53028 272
43.55039 280
43.5705 294
43.59062 265
43.61073 263
43.63084 260
43.65096 237
43.67107 265
43.69119 253
43.7113 266
43.73141 250
43.75153 242
43.77164 234
43.79175 253
43.81187 250
43.83198 272
43.85209 252
43.87221 276
43.89232 274
43.91244 257
43.93255 273
43.95266 246
43.97278 259
43.99289 263
44.013 255
44.03312 256
44.05323 296
44.07335 260
44.09346 287
44.11357 273
44.13369 273
44.1538 260
44.17391 251
44.19403 244
44.21414 228
44.23426 274
44.25437 280
44.27448 254
44.2946 255
44.31471 260
44.33482 227
44.35494 265
44.37505 287
44.39516 259
44.41528 238
44.43539 260
44.45551 255
44.47562 285
44.49573 256
44.51585 241
44.53596 253
44.55607 242
44.57619 264
44.5963 251
44.61642 287
44.63653 275
44.65664 256
44.67676 254
44.69687 280
44.71698 247
44.7371 289
44.75721 262
44.77732 246
44.79744 263
44.81755 261
44.83767 267
44.85778 299
44.87789 283
44.89801 271
44.91812 289
44.93823 264
44.95835 286
44.97846 266
44.99858 245
45.01869 265
45.0388 257
45.05892 265
45.07903 290
45.09914 306
45.11926 281
45.13937 276
45.15949 285
45.1796 296
45.19971 279
45.21983 272
45.23994 297
45.26005 261
45.28017 255
45.30028 292
45.32039 329
45.34051 299
45.36062 332
45.38074 328
45.40085 344
45.42096 317
45.44108 361
45.46119 362
45.4813 350
45.50142 397
45.52153 403
45.54165 438
45.56176 418
45.58187 505
45.60199 525
45.6221 541
45.64221 602
45.66233 692
45.68244 726
45.70256 778
45.72267 768
45.74278 764
45.7629 651
45.78301 649
45.80312 580
45.82324 512
45.84335 485
45.86346 481
45.88358 460
45.90369 394
45.92381 338
45.94392 299
45.96403 313
45.98415 301
46.00426 283
46.02437 279
46.04449 275
46.0646 292
46.08472 289
46.10483 272
46.12494 284
46.14506 287
46.16517 274
46.18528 252
46.2054 247
46.22551 251
46.24563 264
46.26574 259
46.28585 276
46.30597 249
46.32608 244
46.34619 255
46.36631 237
46.38642 242
46.40653 232
46.42665 264
46.44676 244
46.46688 241
46.48699 216
46.5071 271
46.52722 243
46.54733 256
46.56744 255
46.58756 221
46.60767 263
46.62779 263
46.6479 249
46.66801 248
46.68813 283
46.70824 265
46.72835 226
46.74847 257
46.76858 239
46.78869 259
46.80881 250
46.82892 258
46.84904 240
46.86915 281
46.88926 265
46.90938 279
46.92949 248
46.9496 260
46.96972 287
46.98983 277
47.00995 250
47.03006 277
47.05017 253
47.07029 304
47.0904 257
47.11051 271
47.13063 265
47.15074 281
47.17086 248
47.19097 255
47.21108 257
47.2312 274
47.25131 258
47.27142 242
47.29154 284
47.31165 227
47.33176 252
47.35188 278
47.37199 277
47.39211 251
47.41222 282
47.43233 288
47.45245 269
47.47256 267
47.49267 245
47.51279 270
47.5329 245
47.55302 256
47.57313 247
47.59324 228
47.61336 249
47.63347 268
47.65358 229
47.6737 257
47.69381 269
47.71393 262
47.73404 265
47.75415 230
47.77427 251
47.79438 278
47.81449 290
47.83461 259
47.85472 277
47.87483 292
47.89495 274
47.91506 259
47.93518 284
47.95529 255
47.9754 267
47.99552 237
48.01563 303
48.03574 248
48.05586 282
48.07597 246
48.09609 225
48.1162 261
48.13631 268
48.15643 246
48.17654 320
48.19665 305
48.21677 315
48.23688 285
48.257 250
48.27711 241
48.29722 275
48.31734 270
48.33745 301
48.35756 277
48.37768 286
48.39779 271
48.4179 297
48.43802 270
48.45813 317
48.47825 282
48.49836 288
48.51847 293
48.53859 261
48.5587 262
48.57881 277
48.59893 286
48.61904 275
48.63916 302
48.65927 287
48.67938 289
48.6995 310
48.71961 294
48.73972 277
48.75984 304
48.77995 287
48.80006 281
48.82018 273
48.84029 288
48.86041 278
48.88052 259
48.90063 281
48.92075 322
48.94086 277
48.96097 306
48.98109 280
49.0012 300
49.02132 277
49.04143 303
49.06154 306
49.08166 316
49.10177 304
49.12188 327
49.142 308
49.16211 319
49.18223 344
49.20234 303
49.22245 292
49.24257 301
49.26268 279
49.28279 264
49.30291 317
49.32302 307
49.34313 297
49.36325 285
49.38336 284
49.40348 277
49.42359 296
49.4437 320
49.46382 252
49.48393 329
49.50404 297
49.52416 310
49.54427 310
49.56439 346
49.5845 337
49.60461 352
49.62473 346
49.64484 350
49.66495 366
49.68507 434
49.70518 423
49.7253 474
49.74541 430
49.76552 496
49.78564 519
49.80575 616
49.82586 601
49.84598 612
49.86609 720
49.8862 840
49.90632 1002
49.92643 1053
49.94655 1201
49.96666 1451
49.98677 1617
50.00689 1685
50.027 1977
50.04711 2027
50.06723 2076
50.08734 1876
50.10746 1814
50.12757 1685
50.14768 1429
50.1678 1231
50.18791 1157
50.20802 1024
50.22814 998
50.24825 854
50.26837 704
50.28848 541
50.30859 452
50.32871 405
50.34882 390
50.36893 380
50.38905 417
50.40916 404
50.42927 394
50.44939 449
50.4695 398
50.48962 433
50.50973 434
50.52984 420
50.54996 422
50.57007 421
50.59018 416
50.6103 408
50.63041 343
50.65053 356
50.67064 378
50.69075 352
50.71087 355
50.73098 341
50.75109 311
50.77121 343
50.79132 335
50.81143 290
50.83155 295
50.85166 292
50.87178 273
50.89189 277
50.912 285
50.93212 302
50.95223 287
50.97234 295
50.99246 293
51.01257 305
51.03269 312
51.0528 327
51.07291 257
51.09303 287
51.11314 309
51.13325 309
51.15337 275
51.17348 318
51.1936 306
51.21371 292
51.23382 270
51.25394 263
51.27405 293
51.29416 285
51.31428 266
51.33439 271
51.3545 258
51.37462 264
51.39473 276
51.41485 257
51.43496 250
51.45507 260
51.47519 262
51.4953 277
51.51541 246
51.53553 221
51.55564 226
51.57576 235
51.59587 249
51.61598 260
51.6361 275
51.65621 266
51.67632 247
51.69644 246
51.71655 220
51.73667 250
51.75678 247
51.77689 207
51.79701 240
51.81712 242
51.83723 244
51.85735 241
51.87746 231
51.89757 247
51.91769 282
51.9378 253
51.95792 255
51.97803 221
51.99814 236
52.01826 283
52.03837 244
52.05848 241
52.0786 276
52.09871 236
52.11883 270
52.13894 263
52.15905 245
52.17917 267
52.19928 260
52.21939 288
52.23951 262
52.25962 267
52.27974 265
52.29985 257
52.31996 253
52.34008 243
52.36019 278
52.3803 265
52.40042 232
52.42053 253
52.44064 275
52.46076 254
52.48087 228
52.50099 269
52.5211 258
52.54121 264
52.56133 257
52.58144 256
52.60155 244
52.62167 272
52.64178 246
52.6619 253
52.68201 280
52.70212 271
52.72224 278
52.74235 281
52.76246 266
52.78258 247
52.80269 292
52.8228 270
52.84292 251
52.86303 244
52.88315 288
52.90326 263
52.92337 279
52.94349 268
52.9636 309
52.98371 282
53.00383 300
53.02394 305
53.04406 308
53.06417 306
53.08428 310
53.1044 284
53.12451 310
53.14462 279
53.16474 296
53.18485 349
53.20497 299
53.22508 286
53.24519 313
53.26531 304
53.28542 263
53.30553 291
53.32565 270
53.34576 290
53.36587 275
53.38599 254
53.4061 301
53.42622 273
53.44633 278
53.46644 274
53.48656 246
53.50667 272
53.52678 290
53.5469 286
53.56701 258
53.58713 280
53.60724 257
53.62735 285
53.64747 280
53.66758 280
53.68769 272
53.70781 272
53.72792 260
53.74804 287
53.76815 288
53.78826 273
53.80838 249
53.82849 264
53.8486 255
53.86872 276
53.88883 301
53.90894 268
53.92906 278
53.94917 302
53.96929 288
53.9894 307
54.00951 314
54.02963 287
54.04974 292
54.06985 277
54.08997 263
54.11008 306
54.1302 268
54.15031 260
54.17042 270
54.19054 294
54.21065 270
54.23076 291
54.25088 289
54.27099 270
54.29111 272
54.31122 323
54.33133 297
54.35145 293
54.37156 297
54.39167 316
54.41179 293
54.4319 319
54.45201 300
54.47213 280
54.49224 318
54.51236 343
54.53247 367
54.55258 374
54.5727 353
54.59281 403
54.61292 410
54.63304 423
54.65315 486
54.67327 542
54.69338 557
54.71349 607
54.73361 657
54.75372 722
54.77383 747
54.79395 770
54.81406 755
54.83417 700
54.85429 665
54.8744 607
54.89452 585
54.91463 532
54.93474 542
54.95486 530
54.97497 481
54.99508 490
55.0152 385
55.03531 442
55.05543 360
55.07554 386
55.09565 386
55.11577 398
55.13588 437
55.15599 377
55.17611 426
55.19622 462
55.21634 505
55.23645 501
55.25656 484
55.27668 434
55.29679 454
55.3169 453
55.33702 421
55.35713 400
55.37724 398
55.39736 401
55.41747 329
55.43759 326
55.4577 326
55.47781 307
55.49793 310
55.51804 286
55.53815 303
55.55827 290
55.57838 275
55.5985 255
55.61861 265
55.63872 251
55.65884 257
55.67895 285
55.69906 281
55.71918 273
55.73929 293
55.75941 276
55.77952 266
55.79963 261
55.81975 243
55.83986 279
55.85997 241
55.88009 298
55.9002 304
55.92031 290
55.94043 256
55.96054 261
55.98066 292
56.00077 243
56.02088 266
56.041 297
56.06111 255
56.08122 251
56.10134 224
56.12145 268
56.14157 282
56.16168 243
56.18179 251
56.20191 254
56.22202 251
56.24213 261
56.26225 236
56.28236 277
56.30248 253
56.32259 268
56.3427 250
56.36282 246
56.38293 256
56.40304 264
56.42316 253
56.44327 255
56.46338 280
56.4835 278
56.50361 265
56.52373 265
56.54384 254
56.56395 267
56.58407 252
56.60418 266
56.62429 246
56.64441 273
56.66452 255
56.68464 245
56.70475 250
56.72486 219
56.74498 292
56.76509 259
56.7852 272
56.80532 246
56.82543 258
56.84554 262
56.86566 235
56.88577 243
56.90589 272
56.926 262
56.94611 250
56.96623 253
56.98634 266
57.00645 265
57.02657 247
57.04668 269
57.0668 250
57.08691 240
57.10702 284
57.12714 287
57.14725 254
57.16736 285
57.18748 262
57.20759 278
57.22771 283
57.24782 304
57.26793 268
57.28805 326
57.30816 270
57.32827 278
57.34839 304
57.3685 315
57.38861 274
57.40873 263
57.42884 259
57.44896 251
57.46907 265
57.48918 251
57.5093 277
57.52941 252
57.54952 256
57.56964 268
57.58975 292
57.60987 253
57.62998 248
57.65009 248
57.67021 251
57.69032 245
57.71043 256
57.73055 250
57.75066 256
57.77078 232
57.79089 256
57.811 253
57.83112 266
57.85123 264
57.87134 239
57.89146 257
57.91157 279
57.93168 268
57.9518 250
57.97191 258
57.99203 246
58.01214 234
58.03225 255
58.05237 288
58.07248 278
58.09259 266
58.11271 289
58.13282 236
58.15294 262
58.17305 253
58.19316 267
58.21328 236
58.23339 219
58.2535 242
58.27362 263
58.29373 252
58.31385 250
58.33396 253
58.35407 251
58.37419 256
58.3943 246
58.41441 252
58.43453 250
58.45464 277
58.47475 241
58.49487 274
58.51498 284
58.5351 254
58.55521 257
58.57532 286
58.59544 281
58.61555 279
58.63566 263
58.65578 266
58.67589 286
58.69601 265
58.71612 276
58.73623 269
58.75635 257
58.77646 260
58.79657 248
58.81669 216
58.8368 214
58.85691 240
58.87703 255
58.89714 233
58.91726 272
58.93737 243
58.95748 246
58.9776 266
58.99771 265
59.01782 268
59.03794 253
59.05805 267
59.07817 274
59.09828 225
59.11839 255
59.13851 228
59.15862 257
59.17873 264
59.19885 256
59.21896 265
59.23908 246
59.25919 269
59.2793 285
59.29942 283
59.31953 250
59.33964 274
59.35976 303
59.37987 290
59.39998 317
59.4201 331
59.44021 303
59.46033 317
59.48044 312
59.50055 334
59.52067 316
59.54078 371
59.56089 390
59.58101 426
59.60112 411
59.62124 455
59.64135 559
59.66146 531
59.68158 585
59.70169 617
59.7218 749
59.74192 830
59.76203 910
59.78215 988
59.80226 1110
59.82237 1231
59.84249 1299
59.8626 1315
59.88271 1382
59.90283 1317
59.92294 1227
59.94305 1104
59.96317 1019
59.98328 856
60.0034 892
60.02351 867
60.04362 760
60.06374 731
60.08385 614
60.10396 631
60.12408 477
60.14419 412
60.16431 374
60.18442 303
60.20453 321
60.22465 318
60.24476 307
60.26487 290
60.28499 301
60.3051 276
60.32522 310
60.34533 308
60.36544 276
60.38556 265
60.40567 292
60.42578 275
60.4459 281
60.46601 277
60.48612 289
60.50624 277
60.52635 244
60.54647 288
60.56658 253
60.58669 286
60.60681 258
60.62692 265
60.64703 282
60.66715 263
60.68726 287
60.70738 275
60.72749 252
60.7476 274
60.76772 253
60.78783 270
60.80794 273
60.82806 280
60.84817 254
60.86828 256
60.8884 253
60.90851 252
60.92863 244
60.94874 255
60.96885 294
60.98897 281
61.00908 287
61.02919 303
61.04931 283
61.06942 294
61.08954 299
61.10965 276
61.12976 286
61.14988 296
61.16999 276
61.1901 262
61.21022 300
61.23033 294
61.25045 294
61.27056 296
61.29067 302
61.31079 292
61.3309 280
61.35101 282
61.37113 310
61.39124 324
61.41135 271
61.43147 311
61.45158 323
61.4717 314
61.49181 331
61.51192 306
61.53204 289
61.55215 329
61.57226 296
61.59238 321
61.61249 322
61.63261 321
61.65272 313
61.67283 297
61.69295 299
61.71306 306
61.73317 320
61.75329 288
61.7734 333
61.79352 263
61.81363 292
61.83374 294
61.85386 265
61.87397 288
61.89408 284
61.9142 311
61.93431 289
61.95442 278
61.97454 308
61.99465 268
62.01477 309
62.03488 253
62.05499 279
62.07511 277
62.09522 255
62.11533 280
62.13545 262
62.15556 272
62.17568 271
62.19579 285
62.2159 282
62.23602 277
62.25613 249
62.27624 276
62.29636 258
62.31647 270
62.33659 263
62.3567 285
62.37681 302
62.39693 287
62.41704 275
62.43715 264
62.45727 260
62.47738 273
62.49749 247
62.51761 280
62.53772 279
62.55784 282
62.57795 283
62.59806 243
62.61818 254
62.63829 266
62.6584 232
62.67852 251
62.69863 256
62.71875 246
62.73886 263
62.75897 260
62.77909 282
62.7992 264
62.81931 272
62.83943 258
62.85954 282
62.87965 279
62.89977 266
62.91988 270
62.94 269
62.96011 273
62.98022 272
63.00034 270
63.02045 286
63.04056 271
63.06068 257
63.08079 292
63.10091 281
63.12102 303
63.14113 267
63.16125 278
63.18136 280
63.20147 275
63.22159 246
63.2417 284
63.26182 283
63.28193 289
63.30204 279
63.32216 299
63.34227 285
63.36238 310
63.3825 296
63.40261 283
63.42272 255
63.44284 270
63.46295 299
63.48307 275
63.50318 261
63.52329 254
63.54341 293
63.56352 294
63.58363 281
63.60375 313
63.62386 305
63.64398 308
63.66409 314
63.6842 326
63.70432 336
63.72443 316
63.74454 354
63.76466 350
63.78477 373
63.80489 365
63.825 379
63.84511 413
63.86523 455
63.88534 479
63.90545 466
63.92557 438
63.94568 450
63.96579 481
63.98591 464
64.00602 430
64.02614 408
64.04625 413
64.06636 357
64.08648 359
64.10659 381
64.1267 366
64.14682 339
64.16693 338
64.18705 310
64.20716 326
64.22727 297
64.24739 257
64.2675 300
64.28761 271
64.30773 264
64.32784 262
64.34796 248
64.36807 270
64.38818 245
64.4083 260
64.42841 224
64.44852 240
64.46864 232
64.48875 232
64.50886 231
64.52898 257
64.54909 270
64.56921 258
64.58932 266
64.60943 248
64.62955 232
64.64966 252
64.66977 230
64.68989 258
64.71 252
64.73012 269
64.75023 252
64.77034 235
64.79046 248
64.81057 234
64.83068 266
64.8508 270
64.87091 262
64.89102 264
64.91114 251
64.93125 273
64.95137 242
64.97148 266
64.99159 250
65.01171 268
65.03182 281
65.05193 308
65.07205 266
65.09216 284
65.11228 250
65.13239 298
65.1525 269
65.17262 237
65.19273 249
65.21284 288
65.23296 298
65.25307 243
65.27319 282
65.2933 270
65.31341 261
65.33353 275
65.35364 256
65.37375 261
65.39387 274
65.41398 257
65.43409 255
65.45421 260
65.47432 253
65.49444 251
65.51455 271
65.53466 270
65.55478 265
65.57489 281
65.595 284
65.61512 269
65.63523 268
65.65535 267
65.67546 299
65.69557 290
65.71569 244
65.7358 288
65.75591 273
65.77603 268
65.79614 260
65.81626 258
65.83637 260
65.85648 268
65.8766 235
65.89671 269
65.91682 276
65.93694 239
65.95705 275
65.97716 270
65.99728 257
66.01739 247
66.03751 248
66.05762 234
66.07773 239
66.09785 256
66.11796 250
66.13807 257
66.15819 241
66.1783 253
66.19842 287
66.21853 244
66.23864 234
66.25876 258
66.27887 257
66.29898 251
66.3191 286
66.33921 246
66.35933 232
66.37944 232
66.39955 247
66.41967 239
66.43978 241
66.45989 257
66.48001 247
66.50012 266
66.52023 253
66.54035 213
66.56046 225
66.58058 268
66.60069 241
66.6208 238
66.64092 235
66.66103 211
66.68114 241
66.70126 248
66.72137 234
66.74149 256
66.7616 250
66.78171 253
66.80183 224
66.82194 253
66.84205 226
66.86217 242
66.88228 244
66.90239 221
66.92251 274
66.94262 257
66.96274 272
66.98285 282
67.00296 254
67.02308 242
67.04319 258
67.0633 275
67.08342 254
67.10353 285
67.12365 270
67.14376 251
67.16387 283
67.18399 288
67.2041 276
67.22421 299
67.24433 296
67.26444 290
67.28456 331
67.30467 326
67.32478 325
67.3449 340
67.36501 355
67.38512 331
67.40524 391
67.42535 381
67.44546 417
67.46558 426
67.48569 522
67.50581 558
67.52592 611
67.54603 625
67.56615 669
67.58626 799
67.60637 809
67.62649 906
67.6466 909
67.66672 915
67.68683 880
67.70694 874
67.72706 760
67.74717 728
67.76728 678
67.7874 715
67.80751 752
67.82763 755
67.84774 791
67.86785 829
67.88797 814
67.90808 872
67.92819 847
67.94831 868
67.96842 966
67.98853 976
68.00865 1077
68.02876 1114
68.04888 1145
68.06899 1216
68.0891 1150
68.10922 1193
68.12933 1094
68.14944 1071
68.16956 1076
68.18967 1047
68.20979 1067
68.2299 1047
68.25001 1039
68.27013 902
68.29024 854
68.31035 760
68.33047 703
68.35058 607
68.3707 516
68.39081 520
68.41092 486
68.43104 469
68.45115 452
68.47126 412
68.49138 406
68.51149 324
68.5316 330
68.55172 294
68.57183 327
68.59195 275
68.61206 302
68.63217 258
68.65229 252
68.6724 291
68.69251 263
68.71263 263
68.73274 269
68.75286 279
68.77297 276
68.79308 263
68.8132 280
68.83331 247
68.85342 251
68.87354 272
68.89365 250
68.91376 251
68.93388 267
68.95399 250
68.97411 256
68.99422 224
69.01433 227
69.03445 267
69.05456 262
69.07467 264
69.09479 246
69.1149 248
69.13502 261
69.15513 265
69.17524 238
69.19536 219
69.21547 232
69.23558 260
69.2557 244
69.27581 244
69.29593 265
69.31604 271
69.33615 268
69.35627 267
69.37638 270
69.39649 256
69.41661 277
69.43672 253
69.45683 271
69.47695 276
69.49706 249
69.51718 281
69.53729 284
69.5574 237
69.57752 261
69.59763 262
69.61774 247
69.63786 254
69.65797 254
69.67809 246
69.6982 242
69.71831 259
69.73843 243
69.75854 252
69.77865 226
69.79877 236
69.81888 238
69.839 237
69.85911 234
69.87922 215
69.89934 239
69.91945 274
69.93956 251
69.95968 235
69.97979 257
69.9999 273
70.02002 242
70.04013 221
70.06025 235
70.08036 230
70.10047 263
70.12059 239
70.1407 223
70.16081 232
70.18093 244
70.20104 227
70.22116 220
70.24127 246
70.26138 218
70.2815 251
70.30161 215
70.32172 248
70.34184 226
70.36195 224
70.38207 220
70.40218 242
70.42229 232
70.44241 213
70.46252 219
70.48263 217
70.50275 235
70.52286 223
70.54297 264
70.56309 253
70.5832 232
70.60332 237
70.62343 215
70.64354 233
70.66366 209
70.68377 225
70.70388 240
70.724 242
70.74411 229
70.76423 252
70.78434 231
70.80445 264
70.82457 235
70.84468 225
70.86479 215
70.88491 262
70.90502 263
70.92513 246
70.94525 235
70.96536 215
70.98548 234
71.00559 245
71.0257 234
71.04582 225
71.06593 235
71.08604 243
71.10616 257
71.12627 212
71.14639 221
71.1665 228
71.18661 222
71.20673 225
71.22684 225
71.24695 259
71.26707 230
71.28718 249
71.3073 243
71.32741 217
71.34752 219
71.36764 231
71.38775 218
71.40786 240
71.42798 235
71.44809 243
71.4682 236
71.48832 245
71.50843 243
71.52855 249
71.54866 234
71.56877 240
71.58889 217
71.609 247
71.62911 234
71.64923 236
71.66934 213
71.68946 229
71.70957 227
71.72968 227
71.7498 225
71.76991 239
71.79002 206
71.81014 233
71.83025 221
71.85037 250
71.87048 249
71.89059 240
71.91071 239
71.93082 251
71.95093 226
71.97105 244
71.99116 284
72.01127 222
72.03139 235
72.0515 233
72.07162 231
72.09173 224
72.11184 224
72.13196 230
72.15207 214
72.17218 247
72.1923 246
72.21241 238
72.23253 241
72.25264 236
72.27275 217
72.29287 234
72.31298 243
72.33309 233
72.35321 250
72.37332 229
72.39344 250
72.41355 228
72.43366 261
72.45378 217
72.47389 234
72.494 240
72.51412 263
72.53423 242
72.55434 226
72.57446 237
72.59457 216
72.61469 220
72.6348 240
72.65491 241
72.67503 251
72.69514 251
72.71525 240
72.73537 255
72.75548 247
72.7756 208
72.79571 263
72.81582 257
72.83594 246
72.85605 239
72.87616 244
72.89628 254
72.91639 265
72.9365 277
72.95662 230
72.97673 262
72.99685 271
73.01696 265
73.03707 269
73.05719 263
73.0773 295
73.09741 270
73.11753 296
73.13764 275
73.15776 275
73.17787 321
73.19798 307
73.2181 346
73.23821 345
73.25832 341
73.27844 389
73.29855 394
73.31867 431
73.33878 467
73.35889 495
73.37901 454
73.39912 467
73.41923 416
73.43935 428
73.45946 374
73.47957 370
73.49969 337
73.5198 365
73.53992 315
73.56003 350
73.58014 345
73.60026 309
73.62037 336
73.64048 318
73.6606 279
73.68071 302
73.70083 256
73.72094 270
73.74105 248
73.76117 252
73.78128 266
73.80139 284
73.82151 262
73.84162 241
73.86174 259
73.88185 257
73.90196 241
73.92208 254
73.94219 242
73.9623 238
73.98242 239
74.00253 240
74.02264 261
74.04276 271
74.06287 232
74.08299 253
74.1031 260
74.12321 240
74.14333 244
74.16344 255
74.18355 243
74.20367 249
74.22378 220
74.2439 233
74.26401 234
74.28412 215
74.30424 223
74.32435 241
74.34446 260
74.36458 227
74.38469 243
74.40481 246
74.42492 254
74.44503 240
74.46515 233
74.48526 231
74.50537 249
74.52549 241
74.5456 238
74.56571 230
74.58583 235
74.60594 242
74.62606 221
74.64617 235
74.66628 232
74.6864 248
74.70651 271
74.72662 247
74.74674 261
74.76685 255
74.78697 277
74.80708 240
74.82719 252
74.84731 230
74.86742 237
74.88753 232
74.90765 250
74.92776 233
74.94787 245
74.96799 246
74.9881 259
75.00822 231
