3.00117 18825
3.02128 18387
3.0414 17999
3.06151 17259
3.08162 17004
3.10174 16386
3.12185 16058
3.14197 15601
3.16208 14942
3.18219 14835
3.20231 13779
3.22242 13840
3.24253 13520
3.26265 12528
3.28276 12511
3.30288 11779
3.32299 11723
3.3431 11293
3.36322 10939
3.38333 10592
3.40344 9882
3.42356 9877
3.44367 9284
3.46379 9009
3.4839 8951
3.50401 8315
3.52413 8361
3.54424 7944
3.56435 7499
3.58447 7505
3.60458 6947
3.62469 6847
3.64481 6648
3.66492 6275
3.68504 6097
3.70515 5667
3.72526 5463
3.74538 5347
3.76549 5069
3.7856 4839
3.80572 4623
3.82583 4551
3.84595 4237
3.86606 4049
3.88617 3829
3.90629 3630
3.9264 3606
3.94651 3387
3.96663 3222
3.98674 3087
4.00686 2779
4.02697 2908
4.04708 2763
4.0672 2588
4.08731 2501
4.10742 2358
4.12754 2286
4.14765 2320
4.16776 2055
4.18788 1996
4.20799 1922
4.22811 1852
4.24822 1780
4.26833 1696
4.28845 1624
4.30856 1622
4.32867 1553
4.34879 1473
4.3689 1358
4.38902 1395
4.40913 1309
4.42924 1324
4.44936 1397
4.46947 1262
4.48958 1291
4.5097 1171
4.52981 1187
4.54992 1163
4.57004 1071
4.59015 1056
4.61027 1051
4.63038 1102
4.65049 1132
4.67061 988
4.69072 988
4.71083 895
4.73095 894
4.75106 905
4.77118 847
4.79129 864
4.8114 812
4.83152 818
4.85163 835
4.87174 792
4.89186 825
4.91197 779
4.93209 731
4.9522 708
4.97231 656
4.99243 655
5.01254 656
5.03265 674
5.05277 655
5.07288 557
5.09299 571
5.11311 558
5.13322 592
5.15334 558
5.17345 552
5.19356 532
5.21368 538
5.23379 539
5.2539 508
5.27402 471
5.29413 463
5.31425 487
5.33436 475
5.35447 447
5.37459 420
5.3947 413
5.41481 428
5.43493 391
5.45504 420
5.47516 381
5.49527 412
5.51538 437
5.5355 356
5.55561 403
5.57572 380
5.59584 344
5.61595 328
5.63606 312
5.65618 325
5.67629 319
5.69641 321
5.71652 361
5.73663 305
5.75675 288
5.77686 326
5.79697 318
5.81709 306
5.8372 332
5.85732 319
5.87743 330
5.89754 284
5.91766 249
5.93777 277
5.95788 252
5.978 297
5.99811 256
6.01823 249
6.03834 289
6.05845 254
6.07857 242
6.09868 224
6.11879 247
6.13891 237
6.15902 241
6.17913 263
6.19925 256
6.21936 243
6.23948 234
6.25959 245
6.2797 222
6.29982 238
6.31993 233
6.34004 211
6.36016 236
6.38027 223
6.40039 195
6.4205 226
6.44061 241
6.46073 239
6.48084 234
6.50095 230
6.52107 247
6.54118 211
6.56129 227
6.58141 195
6.60152 248
6.62164 256
6.64175 215
6.66186 206
6.68198 188
6.70209 211
6.7222 243
6.74232 198
6.76243 223
6.78255 219
6.80266 204
6.82277 193
6.84289 201
6.863 212
6.88311 193
6.90323 206
6.92334 185
6.94346 216
6.96357 247
6.98368 221
7.0038 223
7.02391 236
7.04402 181
7.06414 196
7.08425 231
7.10436 197
7.12448 194
7.14459 207
7.16471 199
7.18482 244
7.20493 200
7.22505 192
7.24516 220
7.26527 239
7.28539 211
7.3055 209
7.32562 210
7.34573 208
7.36584 196
7.38596 204
7.40607 238
7.42618 259
7.4463 197
7.46641 199
7.48653 213
7.50664 203
7.52675 209
7.54687 210
7.56698 208
7.58709 200
7.60721 240
7.62732 228
7.64743 226
7.66755 234
7.68766 219
7.70778 223
7.72789 219
7.748 229
7.76812 242
7.78823 221
7.80834 250
7.82846 211
7.84857 214
7.86869 205
7.8888 224
7.90891 224
7.92903 203
7.94914 237
7.96925 215
7.98937 206
8.00948 250
8.0296 229
8.04971 212
8.06982 206
8.08994 219
8.11005 228
8.13016 204
8.15028 245
8.17039 220
8.1905 223
8.21062 196
8.23073 198
8.25085 244
8.27096 242
8.29107 233
8.31119 209
8.3313 203
8.35141 230
8.37153 239
8.39164 223
8.41176 222
8.43187 235
8.45198 219
8.4721 213
8.49221 213
8.51232 188
8.53244 233
8.55255 232
8.57266 226
8.59278 221
8.61289 217
8.63301 235
8.65312 215
8.67323 210
8.69335 203
8.71346 265
8.73357 223
8.75369 263
8.7738 224
8.79392 226
8.81403 232
8.83414 230
8.85426 264
8.87437 220
8.89448 209
8.9146 261
8.93471 212
8.95483 250
8.97494 239
8.99505 230
9.01517 227
9.03528 235
9.05539 208
9.07551 258
9.09562 242
9.11573 235
9.13585 229
9.15596 227
9.17608 224
9.19619 201
9.2163 237
9.23642 217
9.25653 210
9.27664 245
9.29676 239
9.31687 233
9.33699 209
9.3571 244
9.37721 234
9.39733 233
9.41744 232
9.43755 222
9.45767 243
9.47778 236
9.4979 231
9.51801 252
9.53812 221
9.55824 224
9.57835 246
9.59846 222
9.61858 224
9.63869 226
9.6588 211
9.67892 193
9.69903 242
9.71915 238
9.73926 203
9.75937 229
9.77949 217
9.7996 225
9.81971 224
9.83983 246
9.85994 267
9.88006 229
9.90017 209
9.92028 229
9.9404 229
9.96051 207
9.98062 229
10.00074 254
10.02085 235
10.04097 233
10.06108 209
10.08119 239
10.10131 234
10.12142 245
10.14153 218
10.16165 221
10.18176 196
10.20187 216
10.22199 216
10.2421 206
10.26222 204
10.28233 226
10.30244 204
10.32256 248
10.34267 221
10.36278 238
10.3829 219
10.40301 197
10.42313 220
10.44324 222
10.46335 229
10.48347 201
10.50358 261
10.52369 225
10.54381 212
10.56392 194
10.58403 226
10.60415 237
10.62426 226
10.64438 228
10.66449 208
10.6846 228
10.70472 237
10.72483 220
10.74494 215
10.76506 231
10.78517 219
10.80529 232
10.8254 232
10.84551 225
10.86563 225
10.88574 242
10.90585 246
10.92597 200
10.94608 223
10.9662 210
10.98631 259
11.00642 219
11.02654 224
11.04665 227
11.06676 188
11.08688 242
11.10699 201
11.1271 217
11.14722 205
11.16733 210
11.18745 238
11.20756 258
11.22767 214
11.24779 205
11.2679 238
11.28801 232
11.30813 230
11.32824 217
11.34836 213
11.36847 187
11.38858 205
11.4087 248
11.42881 197
11.44892 209
11.46904 216
11.48915 250
11.50927 228
11.52938 230
11.54949 194
11.56961 219
11.58972 229
11.60983 226
11.62995 224
11.65006 229
11.67017 191
11.69029 229
11.7104 253
11.73052 222
11.75063 250
11.77074 209
11.79086 265
11.81097 227
11.83108 250
11.8512 209
11.87131 239
11.89143 204
11.91154 242
11.93165 239
11.95177 258
11.97188 246
11.99199 224
12.01211 205
12.03222 251
12.05234 250
12.07245 229
12.09256 249
12.11268 235
12.13279 244
12.1529 250
12.17302 219
12.19313 278
12.21324 256
12.23336 271
12.25347 285
12.27359 308
12.2937 241
12.31381 266
12.33393 289
12.35404 237
12.37415 226
12.39427 258
12.41438 265
12.4345 268
12.45461 254
12.47472 228
12.49484 231
12.51495 239
12.53506 230
12.55518 206
12.57529 226
12.5954 225
12.61552 206
12.63563 209
12.65575 196
12.67586 216
12.69597 181
12.71609 201
12.7362 218
12.75631 189
12.77643 179
12.79654 215
12.81666 233
12.83677 200
12.85688 213
12.877 206
12.89711 207
12.91722 222
12.93734 201
12.95745 227
12.97757 181
12.99768 205
13.01779 179
13.03791 195
13.05802 212
13.07813 199
13.09825 197
13.11836 216
13.13847 199
13.15859 204
13.1787 215
13.19882 204
13.21893 201
13.23904 182
13.25916 171
13.27927 208
13.29938 200
13.3195 199
13.33961 211
13.35973 175
13.37984 203
13.39995 193
13.42007 186
13.44018 196
13.46029 198
13.48041 185
13.50052 170
13.52064 202
13.54075 199
13.56086 168
13.58098 165
13.60109 186
13.6212 207
13.64132 217
13.66143 200
13.68154 177
13.70166 222
13.72177 191
13.74189 180
13.762 187
13.78211 170
13.80223 194
13.82234 191
13.84245 184
13.86257 195
13.88268 208
13.9028 214
13.92291 197
13.94302 196
13.96314 199
13.98325 201
14.00336 202
14.02348 201
14.04359 188
14.06371 201
14.08382 209
14.10393 182
14.12405 178
14.14416 210
14.16427 184
14.18439 186
14.2045 183
14.22461 191
14.24473 182
14.26484 190
14.28496 151
14.30507 188
14.32518 191
14.3453 213
14.36541 185
14.38552 177
14.40564 165
14.42575 186
14.44587 169
14.46598 181
14.48609 184
14.50621 186
14.52632 170
14.54643 196
14.56655 172
14.58666 182
14.60677 202
14.62689 188
14.647 165
14.66712 175
14.68723 191
14.70734 183
14.72746 181
14.74757 174
14.76768 171
14.7878 195
14.80791 182
14.82803 164
14.84814 167
14.86825 195
14.88837 203
14.90848 173
14.92859 174
14.94871 178
14.96882 157
14.98894 181
15.00905 168
15.02916 179
15.04928 178
15.06939 172
15.0895 179
15.10962 173
15.12973 151
15.14984 157
15.16996 171
15.19007 157
15.21019 185
15.2303 167
15.25041 175
15.27053 175
15.29064 167
15.31075 175
15.33087 174
15.35098 161
15.3711 166
15.39121 157
15.41132 186
15.43144 188
15.45155 193
15.47166 150
15.49178 161
15.51189 154
15.53201 182
15.55212 181
15.57223 203
15.59235 187
15.61246 171
15.63257 169
15.65269 207
15.6728 158
15.69291 179
15.71303 185
15.73314 189
15.75326 185
15.77337 188
15.79348 163
15.8136 178
15.83371 182
15.85382 192
15.87394 164
15.89405 173
15.91417 155
15.93428 163
15.95439 189
15.97451 188
15.99462 164
16.01473 166
16.03485 156
16.05496 177
16.07508 176
16.09519 162
16.1153 177
16.13542 157
16.15553 158
16.17564 163
16.19576 177
16.21587 152
16.23598 165
16.2561 180
16.27621 190
16.29633 151
16.31644 171
16.33655 165
16.35667 167
16.37678 180
16.39689 151
16.41701 158
16.43712 193
16.45724 174
16.47735 165
16.49746 152
16.51758 137
16.53769 154
16.5578 169
16.57792 164
16.59803 166
16.61814 155
16.63826 159
16.65837 159
16.67849 174
16.6986 185
16.71871 137
16.73883 148
16.75894 173
16.77905 146
16.79917 167
16.81928 168
16.8394 145
16.85951 178
16.87962 170
16.89974 162
16.91985 176
16.93996 163
16.96008 177
16.98019 164
17.00031 182
17.02042 181
17.04053 157
17.06065 165
17.08076 164
17.10087 148
17.12099 170
17.1411 162
17.16121 171
17.18133 158
17.20144 182
17.22156 152
17.24167 150
17.26178 153
17.2819 166
17.30201 170
17.32212 164
17.34224 173
17.36235 170
17.38247 171
17.40258 156
17.42269 166
17.44281 163
17.46292 182
17.48303 130
17.50315 170
17.52326 145
17.54338 154
17.56349 171
17.5836 178
17.60372 166
17.62383 176
17.64394 162
17.66406 147
17.68417 184
17.70428 166
17.7244 158
17.74451 165
17.76463 151
17.78474 168
17.80485 160
17.82497 186
17.84508 176
17.86519 185
17.88531 171
17.90542 141
17.92554 153
17.94565 162
17.96576 157
17.98588 149
18.00599 162
18.0261 172
18.04622 144
18.06633 160
18.08645 181
18.10656 170
18.12667 172
18.14679 153
18.1669 176
18.18701 140
18.20713 165
18.22724 157
18.24735 147
18.26747 186
18.28758 140
18.3077 163
18.32781 151
18.34792 160
18.36804 136
18.38815 174
18.40826 158
18.42838 164
18.44849 153
18.46861 184
18.48872 160
18.50883 164
18.52895 171
18.54906 154
18.56917 186
18.58929 171
18.6094 181
18.62951 176
18.64963 161
18.66974 157
18.68986 167
18.70997 156
18.73008 171
18.7502 158
18.77031 167
18.79042 165
18.81054 179
18.83065 172
18.85077 175
18.87088 149
18.89099 175
18.91111 137
18.93122 171
18.95133 172
18.97145 159
18.99156 158
19.01168 166
19.03179 189
19.0519 178
19.07202 146
19.09213 158
19.11224 164
19.13236 166
19.15247 148
19.17258 166
19.1927 188
19.21281 184
19.23293 197
19.25304 163
19.27315 165
19.29327 159
19.31338 156
19.33349 178
19.35361 191
19.37372 193
19.39384 188
19.41395 165
19.43406 183
19.45418 191
19.47429 179
19.4944 189
19.51452 177
19.53463 167
19.55475 229
19.57486 208
19.59497 208
19.61509 191
19.6352 193
19.65531 215
19.67543 201
19.69554 237
19.71565 232
19.73577 234
19.75588 238
19.776 236
19.79611 256
19.81622 256
19.83634 261
19.85645 276
19.87656 258
19.89668 268
19.91679 275
19.93691 291
19.95702 282
19.97713 250
19.99725 257
20.01736 249
20.03747 269
20.05759 284
20.0777 287
20.09782 305
20.11793 287
20.13804 290
20.15816 289
20.17827 287
20.19838 339
20.2185 275
20.23861 288
20.25872 294
20.27884 318
20.29895 304
20.31907 291
20.33918 326
20.35929 324
20.37941 309
20.39952 385
20.41963 353
20.43975 414
20.45986 366
20.47998 385
20.50009 408
20.5202 390
20.54032 410
20.56043 453
20.58054 449
20.60066 469
20.62077 557
20.64088 625
20.661 762
20.68111 938
20.70123 1319
20.72134 1709
20.74145 2506
20.76157 3607
20.78168 5048
20.80179 6791
20.82191 8483
20.84202 9360
20.86214 9171
20.88225 7660
20.90236 5563
20.92248 3785
20.94259 2366
20.9627 1287
20.98282 804
21.00293 682
21.02305 569
21.04316 526
21.06327 489
21.08339 415
21.1035 396
21.12361 402
21.14373 355
21.16384 343
21.18395 360
21.20407 345
21.22418 345
21.2443 303
21.26441 283
21.28452 260
21.30464 243
21.32475 275
21.34486 270
21.36498 302
21.38509 273
21.40521 233
21.42532 267
21.44543 248
21.46555 249
21.48566 255
21.50577 232
21.52589 245
21.546 233
21.56612 262
21.58623 254
21.60634 245
21.62646 224
21.64657 218
21.66668 225
21.6868 250
21.70691 226
21.72702 233
21.74714 282
21.76725 213
21.78737 237
21.80748 215
21.82759 206
21.84771 218
21.86782 241
21.88793 205
21.90805 227
21.92816 220
21.94828 240
21.96839 220
21.9885 226
22.00862 244
22.02873 208
22.04884 220
22.06896 207
22.08907 206
22.10919 228
22.1293 212
22.14941 207
22.16953 220
22.18964 209
22.20975 207
22.22987 232
22.24998 207
22.27009 207
22.29021 203
22.31032 208
22.33044 210
22.35055 187
22.37066 208
22.39078 221
22.41089 200
22.431 198
22.45112 183
22.47123 211
22.49135 202
22.51146 230
22.53157 204
22.55169 231
22.5718 204
22.59191 198
22.61203 206
22.63214 194
22.65225 193
22.67237 179
22.69248 175
22.7126 191
22.73271 217
22.75282 197
22.77294 184
22.79305 196
22.81316 211
22.83328 235
22.85339 198
22.87351 184
22.89362 192
22.91373 210
22.93385 241
22.95396 185
22.97407 215
22.99419 192
23.0143 200
23.03442 210
23.05453 218
23.07464 165
23.09476 191
23.11487 187
23.13498 195
23.1551 189
23.17521 193
23.19532 200
23.21544 185
23.23555 204
23.25567 219
23.27578 171
23.29589 196
23.31601 190
23.33612 198
23.35623 213
23.37635 189
23.39646 203
23.41658 188
23.43669 207
23.4568 198
23.47692 194
23.49703 214
23.51714 199
23.53726 187
23.55737 213
23.57749 179
23.5976 212
23.61771 208
23.63783 229
23.65794 195
23.67805 208
23.69817 193
23.71828 184
23.73839 213
23.75851 219
23.77862 219
23.79874 212
23.81885 221
23.83896 223
23.85908 198
23.87919 231
23.8993 232
23.91942 255
23.93953 266
23.95965 295
23.97976 304
23.99987 320
24.01999 276
24.0401 238
24.06021 246
24.08033 246
24.10044 208
24.12056 195
24.14067 197
24.16078 196
24.1809 190
24.20101 227
24.22112 234
24.24124 210
24.26135 202
24.28146 190
24.30158 197
24.32169 230
24.34181 196
24.36192 204
24.38203 195
24.40215 189
24.42226 182
24.44237 220
24.46249 189
24.4826 201
24.50272 189
24.52283 216
24.54294 198
24.56306 207
24.58317 180
24.60328 183
24.6234 207
24.64351 208
24.66362 213
24.68374 249
24.70385 227
24.72397 214
24.74408 218
24.76419 220
24.78431 224
24.80442 209
24.82453 215
24.84465 229
24.86476 250
24.88488 244
24.90499 251
24.9251 230
24.94522 189
24.96533 191
24.98544 219
25.00556 238
25.02567 236
25.04579 214
25.0659 210
25.08601 234
25.10613 210
25.12624 223
25.14635 226
25.16647 210
25.18658 193
25.20669 222
25.22681 245
25.24692 228
25.26704 222
25.28715 240
25.30726 244
25.32738 222
25.34749 233
25.3676 221
25.38772 247
25.40783 233
25.42795 232
25.44806 258
25.46817 261
25.48829 251
25.5084 246
25.52851 225
25.54863 286
25.56874 271
25.58886 271
25.60897 282
25.62908 307
25.6492 331
25.66931 359
25.68942 353
25.70954 403
25.72965 423
25.74976 427
25.76988 417
25.78999 476
25.81011 456
25.83022 426
25.85033 410
25.87045 415
25.89056 453
25.91067 421
25.93079 432
25.9509 488
25.97102 459
25.99113 498
26.01124 495
26.03136 544
26.05147 545
26.07158 539
26.0917 542
26.11181 597
26.13193 662
26.15204 643
26.17215 707
26.19227 796
26.21238 872
26.23249 937
26.25261 983
26.27272 1078
26.29283 1133
26.31295 1217
26.33306 1393
26.35318 1549
26.37329 1746
26.3934 2111
26.41352 2559
26.43363 3256
26.45374 4304
26.47386 6028
26.49397 8536
26.51409 12032
26.5342 17189
26.55431 23096
26.57443 30553
26.59454 37797
26.61465 42261
26.63477 41476
26.65488 34502
26.67499 27012
26.69511 20281
26.71522 14469
26.73534 8559
26.75545 4590
26.77556 2746
26.79568 2075
26.81579 1776
26.8359 1571
26.85602 1427
26.87613 1293
26.89625 1175
26.91636 1101
26.93647 903
26.95659 875
26.9767 797
26.99681 732
27.01693 708
27.03704 614
27.05716 563
27.07727 565
27.09738 532
27.1175 535
27.13761 475
27.15772 479
27.17784 447
27.19795 444
27.21806 414
27.23818 420
27.25829 407
27.27841 396
27.29852 407
27.31863 380
27.33875 411
27.35886 395
27.37897 437
27.39909 377
27.4192 399
27.43932 381
27.45943 389
27.47954 386
27.49966 385
27.51977 344
27.53988 321
27.56 365
27.58011 312
27.60023 340
27.62034 275
27.64045 309
27.66057 329
27.68068 331
27.70079 301
27.72091 300
27.74102 298
27.76113 254
27.78125 325
27.80136 310
27.82148 289
27.84159 275
27.8617 320
27.88182 278
27.90193 328
27.92204 321
27.94216 297
27.96227 272
27.98239 270
28.0025 304
28.02261 286
28.04273 261
28.06284 253
28.08295 271
28.10307 259
28.12318 277
28.1433 289
28.16341 275
28.18352 310
28.20364 251
28.22375 247
28.24386 276
28.26398 255
28.28409 279
28.3042 272
28.32432 257
28.34443 258
28.36455 269
28.38466 253
28.40477 247
28.42489 233
28.445 258
28.46511 210
28.48523 238
28.50534 236
28.52546 240
28.54557 251
28.56568 222
28.5858 251
28.60591 239
28.62602 289
28.64614 251
28.66625 251
28.68636 245
28.70648 265
28.72659 223
28.74671 247
28.76682 236
28.78693 206
28.80705 240
28.82716 252
28.84727 227
28.86739 210
28.8875 228
28.90762 211
28.92773 224
28.94784 221
28.96796 246
28.98807 219
29.00818 236
29.0283 215
29.04841 245
29.06853 228
29.08864 227
29.10875 226
29.12887 237
29.14898 215
29.16909 226
29.18921 188
29.20932 202
29.22943 222
29.24955 209
29.26966 209
29.28978 232
29.30989 207
29.33 223
29.35012 218
29.37023 205
29.39034 212
29.41046 210
29.43057 224
29.45069 221
29.4708 214
29.49091 228
29.51103 218
29.53114 206
29.55125 224
29.57137 220
29.59148 229
29.6116 223
29.63171 194
29.65182 195
29.67194 208
29.69205 223
29.71216 230
29.73228 203
29.75239 203
29.7725 219
29.79262 197
29.81273 238
29.83285 215
29.85296 183
29.87307 189
29.89319 232
29.9133 232
29.93341 183
29.95353 227
29.97364 204
29.99376 205
30.01387 204
30.03398 188
30.0541 210
30.07421 221
30.09432 192
30.11444 208
30.13455 204
30.15467 204
30.17478 194
30.19489 207
30.21501 212
30.23512 181
30.25523 191
30.27535 199
30.29546 226
30.31557 196
30.33569 203
30.3558 204
30.37592 203
30.39603 203
30.41614 207
30.43626 207
30.45637 201
30.47648 221
30.4966 211
30.51671 194
30.53683 201
30.55694 167
30.57705 204
30.59717 172
30.61728 169
30.63739 220
30.65751 187
30.67762 188
30.69773 199
30.71785 208
30.73796 220
30.75808 208
30.77819 224
30.7983 189
30.81842 196
30.83853 165
30.85864 179
30.87876 179
30.89887 194
30.91899 182
30.9391 186
30.95921 211
30.97933 190
30.99944 180
31.01955 198
31.03967 180
31.05978 183
31.0799 203
31.10001 178
31.12012 195
31.14024 170
31.16035 160
31.18046 187
31.20058 202
31.22069 194
31.2408 177
31.26092 168
31.28103 191
31.30115 190
31.32126 199
31.34137 170
31.36149 180
31.3816 186
31.40171 161
31.42183 204
31.44194 154
31.46206 175
31.48217 189
31.50228 150
31.5224 165
31.54251 168
31.56262 174
31.58274 176
31.60285 153
31.62297 152
31.64308 180
31.66319 185
31.68331 171
31.70342 175
31.72353 175
31.74365 176
31.76376 160
31.78387 197
31.80399 162
31.8241 171
31.84422 202
31.86433 164
31.88444 174
31.90456 155
31.92467 178
31.94478 175
31.9649 183
31.98501 162
32.00513 186
32.02524 173
32.04535 164
32.06547 193
32.08558 156
32.10569 144
32.12581 166
32.14592 151
32.16604 176
32.18615 166
32.20626 165
32.22638 195
32.24649 150
32.2666 163
32.28672 171
32.30683 179
32.32694 153
32.34706 148
32.36717 164
32.38729 159
32.4074 166
32.42751 161
32.44763 167
32.46774 173
32.48785 173
32.50797 178
32.52808 149
32.5482 142
32.56831 143
32.58842 145
32.60854 159
32.62865 168
32.64876 153
32.66888 169
32.68899 143
32.7091 171
32.72922 152
32.74933 159
32.76945 161
32.78956 159
32.80967 153
32.82979 167
32.8499 161
32.87001 159
32.89013 178
32.91024 183
32.93036 165
32.95047 171
32.97058 143
32.9907 196
33.01081 186
33.03092 167
33.05104 171
33.07115 179
33.09127 206
33.11138 166
33.13149 164
33.15161 172
33.17172 154
33.19183 150
33.21195 146
33.23206 143
33.25217 170
33.27229 134
33.2924 159
33.31252 170
33.33263 153
33.35274 150
33.37286 156
33.39297 149
33.41308 153
33.4332 155
33.45331 155
33.47343 149
33.49354 143
33.51365 159
33.53377 159
33.55388 153
33.57399 165
33.59411 144
33.61422 143
33.63434 142
33.65445 154
33.67456 137
33.69468 154
33.71479 163
33.7349 153
33.75502 158
33.77513 163
33.79524 141
33.81536 118
33.83547 141
33.85559 143
33.8757 140
33.89581 158
33.91593 154
33.93604 170
33.95615 154
33.97627 132
33.99638 141
34.0165 141
34.03661 139
34.05672 149
34.07684 157
34.09695 122
34.11706 129
34.13718 145
34.15729 144
34.17741 159
34.19752 154
34.21763 147
34.23775 168
34.25786 154
34.27797 157
34.29809 159
34.3182 176
34.33831 155
34.35843 149
34.37854 138
34.39866 170
34.41877 157
34.43888 181
34.459 155
34.47911 174
34.49922 178
34.51934 180
34.53945 180
34.55957 157
34.57968 150
34.59979 150
34.61991 169
34.64002 178
34.66013 169
34.68025 163
34.70036 183
34.72047 179
34.74059 157
34.7607 189
34.78082 198
34.80093 198
34.82104 196
34.84116 176
34.86127 209
34.88138 197
34.9015 213
34.92161 204
34.94173 210
34.96184 209
34.98195 205
35.00207 185
35.02218 202
35.04229 182
35.06241 214
35.08252 192
35.10264 192
35.12275 190
35.14286 167
35.16298 190
35.18309 206
35.2032 185
35.22332 170
35.24343 170
35.26354 190
35.28366 199
35.30377 180
35.32389 196
35.344 200
35.36411 191
35.38423 194
35.40434 198
35.42445 165
35.44457 204
35.46468 198
35.4848 200
35.50491 213
35.52502 203
35.54514 188
35.56525 198
35.58536 200
35.60548 172
35.62559 205
35.64571 198
35.66582 186
35.68593 211
35.70605 176
35.72616 167
35.74627 195
35.76639 178
35.7865 180
35.80661 186
35.82673 177
35.84684 162
35.86696 200
35.88707 176
35.90718 161
35.9273 174
35.94741 209
35.96752 210
35.98764 204
36.00775 199
36.02787 224
36.04798 212
36.06809 214
36.08821 212
36.10832 216
36.12843 223
36.14855 223
36.16866 232
36.18878 277
36.20889 235
36.229 279
36.24912 271
36.26923 315
36.28934 374
36.30946 364
36.32957 454
36.34968 553
36.3698 653
36.38991 857
36.41003 1105
36.43014 1411
36.45025 1769
36.47037 2297
36.49048 2654
36.51059 2870
36.53071 2801
36.55082 2384
36.57094 1969
36.59105 1703
36.61116 1483
36.63128 1272
36.65139 926
36.6715 603
36.69162 364
36.71173 300
36.73184 286
36.75196 288
36.77207 265
36.79219 280
36.8123 214
36.83241 224
36.85253 222
36.87264 234
36.89275 209
36.91287 227
36.93298 169
36.9531 172
36.97321 191
36.99332 172
37.01344 179
37.03355 215
37.05366 168
37.07378 173
37.09389 179
37.11401 186
37.13412 170
37.15423 160
37.17435 164
37.19446 169
37.21457 173
37.23469 177
37.2548 186
37.27491 168
37.29503 176
37.31514 169
37.33526 166
37.35537 160
37.37548 164
37.3956 186
37.41571 184
37.43582 177
37.45594 162
37.47605 153
37.49617 137
37.51628 158
37.53639 170
37.55651 184
37.57662 149
37.59673 169
37.61685 159
37.63696 190
37.65708 149
37.67719 156
37.6973 188
37.71742 174
37.73753 169
37.75764 176
37.77776 171
37.79787 189
37.81798 172
37.8381 192
37.85821 174
37.87833 167
37.89844 177
37.91855 191
37.93867 170
37.95878 153
37.97889 167
37.99901 144
38.01912 195
38.03924 166
38.05935 158
38.07946 197
38.09958 161
38.11969 182
38.1398 183
38.15992 187
38.18003 197
38.20015 161
38.22026 156
38.24037 170
38.26049 181
38.2806 192
38.30071 164
38.32083 177
38.34094 201
38.36105 202
38.38117 177
38.40128 184
38.4214 190
38.44151 184
38.46162 209
38.48174 161
38.50185 183
38.52196 199
38.54208 183
38.56219 199
38.58231 174
38.60242 193
38.62253 166
38.64265 195
38.66276 147
38.68287 182
38.70299 135
38.7231 173
38.74321 194
38.76333 161
38.78344 186
38.80356 199
38.82367 198
38.84378 155
38.8639 171
38.88401 176
38.90412 196
38.92424 170
38.94435 160
38.96447 207
38.98458 207
39.00469 207
39.02481 232
39.04492 207
39.06503 213
39.08515 200
39.10526 234
39.12538 231
39.14549 251
39.1656 259
39.18572 292
39.20583 366
39.22594 350
39.24606 439
39.26617 518
39.28628 600
39.3064 790
39.32651 977
39.34663 1228
39.36674 1538
39.38685 1878
39.40697 2304
39.42708 2539
39.44719 2605
39.46731 2286
39.48742 1917
39.50754 1535
39.52765 1379
39.54776 1273
39.56788 1058
39.58799 754
39.6081 503
39.62822 342
39.64833 318
39.66845 316
39.68856 293
39.70867 239
39.72879 256
39.7489 227
39.76901 203
39.78913 205
39.80924 211
39.82935 208
39.84947 184
39.86958 195
39.8897 218
39.90981 209
39.92992 245
39.95004 198
39.97015 235
39.99026 215
40.01038 223
40.03049 284
40.05061 266
40.07072 331
40.09083 313
40.11095 410
40.13106 476
40.15117 593
40.17129 737
40.1914 825
40.21152 985
40.23163 1235
40.25174 1331
40.27186 1304
40.29197 1153
40.31208 1044
40.3322 827
40.35231 787
40.37242 677
40.39254 590
40.41265 481
40.43277 309
40.45288 264
40.47299 235
40.49311 214
40.51322 198
40.53333 206
40.55345 190
40.57356 190
40.59368 172
40.61379 183
40.6339 185
40.65402 197
40.67413 187
40.69424 130
40.71436 149
40.73447 162
40.75458 175
40.7747 173
40.79481 174
40.81493 175
40.83504 171
40.85515 181
40.87527 166
40.89538 185
40.91549 155
40.93561 193
40.95572 163
40.97584 178
40.99595 172
41.01606 156
41.03618 159
41.05629 157
41.0764 177
41.09652 181
41.11663 169
41.13675 169
41.15686 188
41.17697 190
41.19709 156
41.2172 180
41.23731 163
41.25743 168
41.27754 168
41.29765 149
41.31777 169
41.33788 171
41.358 164
41.37811 165
41.39822 167
41.41834 163
41.43845 172
41.45856 162
41.47868 167
41.49879 159
41.51891 149
41.53902 161
41.55913 175
41.57925 159
41.59936 187
41.61947 177
41.63959 163
41.6597 158
41.67982 187
41.69993 172
41.72004 164
41.74016 166
41.76027 162
41.78038 159
41.8005 174
41.82061 168
41.84072 156
41.86084 161
41.88095 168
41.90107 163
41.92118 174
41.94129 169
41.96141 189
41.98152 202
42.00163 195
42.02175 182
42.04186 193
42.06198 180
42.08209 233
42.1022 226
42.12232 221
42.14243 257
42.16254 234
42.18266 253
42.20277 300
42.22289 351
42.243 419
42.26311 486
42.28323 591
42.30334 768
42.32345 923
42.34357 1110
42.36368 1415
42.38379 1617
42.40391 1791
42.42402 1949
42.44414 1783
42.46425 1475
42.48436 1202
42.50448 1090
42.52459 970
42.5447 936
42.56482 742
42.58493 526
42.60505 361
42.62516 285
42.64527 233
42.66539 216
42.6855 190
42.70561 197
42.72573 183
42.74584 181
42.76595 186
42.78607 178
42.80618 182
42.8263 196
42.84641 206
42.86652 174
42.88664 151
42.90675 180
42.92686 153
42.94698 172
42.96709 182
42.98721 137
43.00732 163
43.02743 160
43.04755 162
43.06766 162
43.08777 161
43.10789 172
43.128 146
43.14812 174
43.16823 154
43.18834 153
43.20846 152
43.22857 160
43.24868 152
43.2688 145
43.28891 160
43.30902 172
43.32914 158
43.34925 149
43.36937 154
43.38948 142
43.40959 153
43.42971 153
43.44982 158
43.46993 137
43.49005 157
43.51016 155
43.53028 151
43.55039 120
43.5705 134
43.59062 159
43.61073 131
43.63084 130
43.65096 141
43.67107 149
43.69119 141
43.7113 131
43.73141 141
43.75153 163
43.77164 167
43.79175 141
43.81187 127
43.83198 151
43.85209 152
43.87221 160
43.89232 156
43.91244 146
43.93255 149
43.95266 123
43.97278 147
43.99289 140
44.013 153
44.03312 157
44.05323 155
44.07335 147
44.09346 125
44.11357 155
44.13369 165
44.1538 160
44.17391 150
44.19403 138
44.21414 131
44.23426 155
44.25437 144
44.27448 152
44.2946 155
44.31471 163
44.33482 152
44.35494 136
44.37505 153
44.39516 145
44.41528 139
44.43539 151
44.45551 147
44.47562 142
44.49573 140
44.51585 133
44.53596 163
44.55607 145
44.57619 141
44.5963 149
44.61642 138
44.63653 152
44.65664 154
44.67676 157
44.69687 145
44.71698 155
44.7371 136
44.75721 143
44.77732 161
44.79744 154
44.81755 138
44.83767 148
44.85778 157
44.87789 155
44.89801 160
44.91812 144
44.93823 150
44.95835 139
44.97846 160
44.99858 155
45.01869 133
45.0388 142
45.05892 158
45.07903 151
45.09914 125
45.11926 170
45.13937 157
45.15949 138
45.1796 161
45.19971 153
45.21983 155
45.23994 149
45.26005 173
45.28017 156
45.30028 168
45.32039 184
45.34051 164
45.36062 175
45.38074 167
45.40085 162
45.42096 215
45.44108 190
45.46119 208
45.4813 215
45.50142 206
45.52153 238
45.54165 255
45.56176 279
45.58187 315
45.60199 386
45.6221 475
45.64221 542
45.66233 658
45.68244 759
45.70256 897
45.72267 1060
45.74278 1204
45.7629 1283
45.78301 1212
45.80312 1020
45.82324 823
45.84335 720
45.86346 700
45.88358 727
45.90369 604
45.92381 473
45.94392 330
45.96403 269
45.98415 199
46.00426 189
46.02437 185
46.04449 183
46.0646 160
46.08472 156
46.10483 175
46.12494 149
46.14506 166
46.16517 167
46.18528 140
46.2054 141
46.22551 142
46.24563 146
46.26574 138
46.28585 147
46.30597 144
46.32608 151
46.34619 131
46.36631 137
46.38642 147
46.40653 135
46.42665 146
46.44676 147
46.46688 140
46.48699 151
46.5071 145
46.52722 136
46.54733 147
46.56744 129
46.58756 128
46.60767 158
46.62779 110
46.6479 153
46.66801 141
46.68813 136
46.70824 136
46.72835 137
46.74847 127
46.76858 139
46.78869 137
46.80881 154
46.82892 151
46.84904 149
46.86915 135
46.88926 136
46.90938 155
46.92949 144
46.9496 142
46.96972 131
46.98983 127
47.00995 136
47.03006 149
47.05017 125
47.07029 138
47.0904 139
47.11051 135
47.13063 147
47.15074 154
47.17086 139
47.19097 149
47.21108 139
47.2312 142
47.25131 133
47.27142 146
47.29154 140
47.31165 135
47.33176 154
47.35188 149
47.37199 133
47.39211 162
47.41222 148
47.43233 160
47.45245 118
47.47256 145
47.49267 136
47.51279 117
47.5329 148
47.55302 151
47.57313 137
47.59324 149
47.61336 148
47.63347 131
47.65358 140
47.6737 144
47.69381 124
47.71393 137
47.73404 141
47.75415 135
47.77427 147
47.79438 135
47.81449 129
47.83461 135
47.85472 126
47.87483 147
47.89495 136
47.91506 125
47.93518 141
47.95529 139
47.9754 144
47.99552 125
48.01563 131
48.03574 118
48.05586 127
48.07597 126
48.09609 147
48.1162 129
48.13631 136
48.15643 131
48.17654 128
48.19665 144
48.21677 137
48.23688 140
48.257 143
48.27711 139
48.29722 134
48.31734 135
48.33745 153
48.35756 134
48.37768 153
48.39779 147
48.4179 139
48.43802 142
48.45813 140
48.47825 145
48.49836 158
48.51847 149
48.53859 137
48.5587 151
48.57881 140
48.59893 148
48.61904 136
48.63916 133
48.65927 147
48.67938 158
48.6995 138
48.71961 143
48.73972 147
48.75984 146
48.77995 155
48.80006 152
48.82018 136
48.84029 165
48.86041 133
48.88052 155
48.90063 154
48.92075 159
48.94086 131
48.96097 146
48.98109 135
49.0012 138
49.02132 157
49.04143 142
49.06154 166
49.08166 158
49.10177 162
49.12188 169
49.142 153
49.16211 158
49.18223 187
49.20234 186
49.22245 142
49.24257 155
49.26268 158
49.28279 170
49.30291 165
49.32302 163
49.34313 164
49.36325 180
49.38336 148
49.40348 165
49.42359 154
49.4437 177
49.46382 167
49.48393 159
49.50404 168
49.52416 175
49.54427 168
49.56439 179
49.5845 197
49.60461 192
49.62473 209
49.64484 208
49.66495 252
49.68507 223
49.70518 251
49.7253 255
49.74541 270
49.76552 289
49.78564 350
49.80575 355
49.82586 392
49.84598 421
49.86609 545
49.8862 597
49.90632 755
49.92643 877
49.94655 1097
49.96666 1250
49.98677 1617
50.00689 1989
50.027 2532
50.04711 2976
50.06723 3492
50.08734 3922
50.10746 4129
50.12757 3822
50.14768 3252
50.1678 2405
50.18791 2143
50.20802 2109
50.22814 2130
50.24825 1977
50.26837 1605
50.28848 1162
50.30859 749
50.32871 478
50.34882 417
50.36893 351
50.38905 316
50.40916 311
50.42927 270
50.44939 309
50.4695 257
50.48962 244
50.50973 264
50.52984 260
50.54996 269
50.57007 278
50.59018 267
50.6103 277
50.63041 281
50.65053 231
50.67064 186
50.69075 237
50.71087 231
50.73098 189
50.75109 189
50.77121 202
50.79132 161
50.81143 163
50.83155 143
50.85166 140
50.87178 153
50.89189 145
50.912 135
50.93212 150
50.95223 153
50.97234 148
50.99246 141
51.01257 135
51.03269 140
51.0528 154
51.07291 137
51.09303 132
51.11314 157
51.13325 131
51.15337 132
51.17348 149
51.1936 150
51.21371 125
51.23382 173
51.25394 127
51.27405 118
51.29416 120
51.31428 143
51.33439 127
51.3545 132
51.37462 151
51.39473 140
51.41485 157
51.43496 139
51.45507 122
51.47519 135
51.4953 130
51.51541 125
51.53553 147
51.55564 144
51.57576 125
51.59587 123
51.61598 132
51.6361 127
51.65621 138
51.67632 117
51.69644 118
51.71655 115
51.73667 124
51.75678 111
51.77689 123
51.79701 135
51.81712 122
51.83723 142
51.85735 130
51.87746 131
51.89757 139
51.91769 136
51.9378 134
51.95792 119
51.97803 110
51.99814 128
52.01826 151
52.03837 126
52.05848 134
52.0786 124
52.09871 101
52.11883 144
52.13894 127
52.15905 140
52.17917 126
52.19928 124
52.21939 132
52.23951 164
52.25962 104
52.27974 102
52.29985 150
52.31996 102
52.34008 127
52.36019 122
52.3803 129
52.40042 131
52.42053 124
52.44064 126
52.46076 117
52.48087 126
52.50099 108
52.5211 123
52.54121 135
52.56133 127
52.58144 136
52.60155 130
52.62167 117
52.64178 116
52.6619 124
52.68201 141
52.70212 111
52.72224 137
52.74235 136
52.76246 119
52.78258 143
52.80269 102
52.8228 129
52.84292 134
52.86303 156
52.88315 142
52.90326 139
52.92337 138
52.94349 158
52.9636 135
52.98371 123
53.00383 144
53.02394 129
53.04406 131
53.06417 129
53.08428 151
53.1044 129
53.12451 140
53.14462 149
53.16474 158
53.18485 129
53.20497 129
53.22508 124
53.24519 151
53.26531 129
53.28542 142
53.30553 136
53.32565 138
53.34576 155
53.36587 127
53.38599 127
53.4061 153
53.42622 174
53.44633 172
53.46644 142
53.48656 133
53.50667 151
53.52678 154
53.5469 153
53.56701 144
53.58713 134
53.60724 161
53.62735 136
53.64747 131
53.66758 155
53.68769 161
53.70781 125
53.72792 145
53.74804 155
53.76815 145
53.78826 134
53.80838 158
53.82849 175
53.8486 147
53.86872 173
53.88883 148
53.90894 154
53.92906 143
53.94917 149
53.96929 119
53.9894 148
54.00951 159
54.02963 164
54.04974 167
54.06985 150
54.08997 142
54.11008 145
54.1302 162
54.15031 166
54.17042 168
54.19054 137
54.21065 168
54.23076 143
54.25088 162
54.27099 158
54.29111 168
54.31122 156
54.33133 169
54.35145 171
54.37156 164
54.39167 137
54.41179 180
54.4319 162
54.45201 187
54.47213 193
54.49224 195
54.51236 211
54.53247 208
54.55258 236
54.5727 257
54.59281 257
54.61292 293
54.63304 331
54.65315 386
54.67327 407
54.69338 472
54.71349 599
54.73361 676
54.75372 835
54.77383 958
54.79395 1073
54.81406 1172
54.83417 1278
54.85429 1188
54.8744 1001
54.89452 889
54.91463 727
54.93474 647
54.95486 709
54.97497 703
54.99508 666
55.0152 634
55.03531 520
55.05543 405
55.07554 343
55.09565 287
55.11577 328
55.13588 310
55.15599 356
55.17611 378
55.19622 405
55.21634 500
55.23645 524
55.25656 562
55.27668 639
55.29679 647
55.3169 596
55.33702 496
55.35713 373
55.37724 376
55.39736 345
55.41747 376
55.43759 361
55.4577 379
55.47781 348
55.49793 230
55.51804 231
55.53815 187
55.55827 187
55.57838 160
55.5985 167
55.61861 148
55.63872 146
55.65884 161
55.67895 155
55.69906 146
55.71918 153
55.73929 140
55.75941 154
55.77952 150
55.79963 140
55.81975 147
55.83986 113
55.85997 144
55.88009 135
55.9002 164
55.92031 133
55.94043 144
55.96054 150
55.98066 139
56.00077 139
56.02088 153
56.041 139
56.06111 133
56.08122 129
56.10134 151
56.12145 141
56.14157 124
56.16168 139
56.18179 115
56.20191 128
56.22202 139
56.24213 147
56.26225 130
56.28236 131
56.30248 147
56.32259 124
56.3427 124
56.36282 130
56.38293 145
56.40304 103
56.42316 136
56.44327 121
56.46338 157
56.4835 147
56.50361 138
56.52373 165
56.54384 107
56.56395 132
56.58407 137
56.60418 134
56.62429 128
56.64441 129
56.66452 126
56.68464 117
56.70475 131
56.72486 131
56.74498 129
56.76509 135
56.7852 134
56.80532 128
56.82543 121
56.84554 125
56.86566 132
56.88577 139
56.90589 153
56.926 147
56.94611 129
56.96623 155
56.98634 140
57.00645 128
57.02657 140
57.04668 127
57.0668 145
57.08691 153
57.10702 167
57.12714 172
57.14725 189
57.16736 192
57.18748 212
57.20759 179
57.22771 185
57.24782 139
57.26793 167
57.28805 160
57.30816 149
57.32827 154
57.34839 158
57.3685 188
57.38861 137
57.40873 135
57.42884 123
57.44896 125
57.46907 132
57.48918 128
57.5093 142
57.52941 118
57.54952 130
57.56964 143
57.58975 132
57.60987 127
57.62998 126
57.65009 127
57.67021 119
57.69032 137
57.71043 128
57.73055 139
57.75066 137
57.77078 158
57.79089 134
57.811 128
57.83112 154
57.85123 148
57.87134 157
57.89146 142
57.91157 130
57.93168 129
57.9518 132
57.97191 138
57.99203 126
58.01214 134
58.03225 133
58.05237 129
58.07248 133
58.09259 125
58.11271 120
58.13282 130
58.15294 144
58.17305 138
58.19316 115
58.21328 110
58.23339 136
58.2535 139
58.27362 128
58.29373 156
58.31385 128
58.33396 144
58.35407 141
58.37419 123
58.3943 125
58.41441 145
58.43453 135
58.45464 137
58.47475 147
58.49487 149
58.51498 130
58.5351 127
58.55521 136
58.57532 117
58.59544 141
58.61555 135
58.63566 127
58.65578 112
58.67589 139
58.69601 143
58.71612 119
58.73623 143
58.75635 146
58.77646 130
58.79657 132
58.81669 127
58.8368 140
58.85691 137
58.87703 145
58.89714 142
58.91726 139
58.93737 152
58.95748 158
58.9776 144
58.99771 153
59.01782 161
59.03794 154
59.05805 154
59.07817 139
59.09828 157
59.11839 149
59.13851 149
59.15862 135
59.17873 137
59.19885 139
59.21896 149
59.23908 155
59.25919 172
59.2793 166
59.29942 158
59.31953 179
59.33964 167
59.35976 151
59.37987 158
59.39998 196
59.4201 172
59.44021 193
59.46033 195
59.48044 193
59.50055 222
59.52067 228
59.54078 244
59.56089 260
59.58101 270
59.60112 341
59.62124 328
59.64135 318
59.66146 398
59.68158 423
59.70169 511
59.7218 580
59.74192 742
59.76203 852
59.78215 1103
59.80226 1317
59.82237 1626
59.84249 1871
59.8626 2145
59.88271 2399
59.90283 2629
59.92294 2604
59.94305 2541
59.96317 2104
59.98328 1672
60.0034 1433
60.02351 1351
60.04362 1338
60.06374 1381
60.08385 1369
60.10396 1227
60.12408 1033
60.14419 727
60.16431 476
60.18442 388
60.20453 289
60.22465 294
60.24476 251
60.26487 228
60.28499 198
60.3051 206
60.32522 185
60.34533 195
60.36544 174
60.38556 185
60.40567 149
60.42578 161
60.4459 158
60.46601 167
60.48612 152
60.50624 165
60.52635 156
60.54647 153
60.56658 143
60.58669 156
60.60681 121
60.62692 142
60.64703 163
60.66715 136
60.68726 138
60.70738 161
60.72749 168
60.7476 137
60.76772 164
60.78783 151
60.80794 130
60.82806 137
60.84817 136
60.86828 127
60.8884 133
60.90851 147
60.92863 137
60.94874 152
60.96885 139
60.98897 145
61.00908 140
61.02919 133
61.04931 150
61.06942 119
61.08954 138
61.10965 135
61.12976 143
61.14988 146
61.16999 134
61.1901 125
61.21022 140
61.23033 114
61.25045 134
61.27056 132
61.29067 138
61.31079 138
61.3309 123
61.35101 130
61.37113 134
61.39124 153
61.41135 123
61.43147 164
61.45158 142
61.4717 132
61.49181 152
61.51192 160
61.53204 156
61.55215 143
61.57226 142
61.59238 139
61.61249 141
61.63261 129
61.65272 132
61.67283 157
61.69295 139
61.71306 149
61.73317 127
61.75329 137
61.7734 120
61.79352 157
61.81363 143
61.83374 120
61.85386 131
61.87397 146
61.89408 156
61.9142 144
61.93431 150
61.95442 152
61.97454 151
61.99465 143
62.01477 155
62.03488 157
62.05499 150
62.07511 140
62.09522 144
62.11533 146
62.13545 153
62.15556 133
62.17568 158
62.19579 158
62.2159 131
62.23602 135
62.25613 132
62.27624 142
62.29636 168
62.31647 144
62.33659 143
62.3567 134
62.37681 129
62.39693 135
62.41704 121
62.43715 148
62.45727 149
62.47738 144
62.49749 139
62.51761 136
62.53772 157
62.55784 129
62.57795 147
62.59806 147
62.61818 134
62.63829 150
62.6584 125
62.67852 153
62.69863 137
62.71875 113
62.73886 129
62.75897 134
62.77909 128
62.7992 157
62.81931 118
62.83943 141
62.85954 138
62.87965 127
62.89977 132
62.91988 125
62.94 139
62.96011 143
62.98022 123
63.00034 125
63.02045 124
63.04056 143
63.06068 128
63.08079 141
63.10091 128
63.12102 134
63.14113 120
63.16125 111
63.18136 136
63.20147 120
63.22159 110
63.2417 135
63.26182 149
63.28193 124
63.30204 152
63.32216 126
63.34227 119
63.36238 127
63.3825 144
63.40261 134
63.42272 154
63.44284 118
63.46295 130
63.48307 120
63.50318 118
63.52329 146
63.54341 125
63.56352 136
63.58363 141
63.60375 146
63.62386 151
63.64398 156
63.66409 167
63.6842 154
63.70432 174
63.72443 189
63.74454 168
63.76466 168
63.78477 203
63.80489 225
63.825 210
63.84511 247
63.86523 320
63.88534 373
63.90545 384
63.92557 436
63.94568 484
63.96579 525
63.98591 541
64.00602 581
64.02614 471
64.04625 429
64.06636 401
64.08648 351
64.10659 322
64.1267 305
64.14682 328
64.16693 350
64.18705 326
64.20716 299
64.22727 239
64.24739 191
64.2675 181
64.28761 156
64.30773 141
64.32784 145
64.34796 135
64.36807 138
64.38818 131
64.4083 133
64.42841 134
64.44852 127
64.46864 132
64.48875 124
64.50886 125
64.52898 121
64.54909 115
64.56921 124
64.58932 115
64.60943 111
64.62955 147
64.64966 125
64.66977 132
64.68989 131
64.71 141
64.73012 111
64.75023 114
64.77034 129
64.79046 102
64.81057 130
64.83068 118
64.8508 120
64.87091 127
64.89102 139
64.91114 110
64.93125 130
64.95137 109
64.97148 113
64.99159 119
65.01171 107
65.03182 112
65.05193 136
65.07205 133
65.09216 126
65.11228 112
65.13239 127
65.1525 138
65.17262 131
65.19273 135
65.21284 136
65.23296 113
65.25307 136
65.27319 137
65.2933 134
65.31341 130
65.33353 147
65.35364 122
65.37375 139
65.39387 133
65.41398 124
65.43409 137
65.45421 111
65.47432 132
65.49444 140
65.51455 162
65.53466 155
65.55478 166
65.57489 196
65.595 167
65.61512 182
65.63523 199
65.65535 202
65.67546 210
65.69557 239
65.71569 266
65.7358 234
65.75591 225
65.77603 218
65.79614 199
65.81626 195
65.83637 196
65.85648 195
65.8766 206
65.89671 185
65.91682 171
65.93694 182
65.95705 200
65.97716 165
65.99728 136
66.01739 149
66.03751 154
66.05762 141
66.07773 150
66.09785 156
66.11796 155
66.13807 142
66.15819 143
66.1783 139
66.19842 143
66.21853 151
66.23864 128
66.25876 129
66.27887 135
66.29898 161
66.3191 124
66.33921 132
66.35933 119
66.37944 164
66.39955 162
66.41967 131
66.43978 140
66.45989 140
66.48001 153
66.50012 143
66.52023 141
66.54035 121
66.56046 143
66.58058 152
66.60069 134
66.6208 140
66.64092 146
66.66103 146
66.68114 144
66.70126 123
66.72137 137
66.74149 148
66.7616 152
66.78171 139
66.80183 132
66.82194 154
66.84205 150
66.86217 137
66.88228 156
66.90239 146
66.92251 146
66.94262 133
66.96274 147
66.98285 143
67.00296 171
67.02308 163
67.04319 165
67.0633 169
67.08342 130
67.10353 170
67.12365 146
67.14376 168
67.16387 165
67.18399 154
67.2041 152
67.22421 158
67.24433 187
67.26444 183
67.28456 169
67.30467 207
67.32478 211
67.3449 248
67.36501 214
67.38512 242
67.40524 263
67.42535 281
67.44546 309
67.46558 331
67.48569 367
67.50581 460
67.52592 541
67.54603 601
67.56615 689
67.58626 818
67.60637 968
67.62649 1147
67.6466 1311
67.66672 1450
67.68683 1535
67.70694 1591
67.72706 1497
67.74717 1316
67.76728 1137
67.7874 953
67.80751 911
67.82763 968
67.84774 984
67.86785 1070
67.88797 1127
67.90808 1133
67.92819 1135
67.94831 1105
67.96842 1096
67.98853 1166
68.00865 1361
68.02876 1451
68.04888 1571
68.06899 1917
68.0891 2085
68.10922 2117
68.12933 2114
68.14944 1895
68.16956 1670
68.18967 1622
68.20979 1671
68.2299 1800
68.25001 1889
68.27013 2002
68.29024 1905
68.31035 1698
68.33047 1457
68.35058 1120
68.3707 916
68.39081 797
68.41092 728
68.43104 787
68.45115 733
68.47126 698
68.49138 613
68.51149 489
68.5316 394
68.55172 316
68.57183 286
68.59195 264
68.61206 217
68.63217 222
68.65229 212
68.6724 196
68.69251 194
68.71263 195
68.73274 163
68.75286 166
68.77297 183
68.79308 165
68.8132 160
68.83331 183
68.85342 162
68.87354 171
68.89365 149
68.91376 174
68.93388 161
68.95399 159
68.97411 137
68.99422 138
69.01433 147
69.03445 150
69.05456 128
69.07467 135
69.09479 141
69.1149 150
69.13502 143
69.15513 137
69.17524 133
69.19536 136
69.21547 155
69.23558 142
69.2557 130
69.27581 125
69.29593 147
69.31604 150
69.33615 132
69.35627 129
69.37638 141
69.39649 124
69.41661 125
69.43672 106
69.45683 129
69.47695 121
69.49706 135
69.51718 150
69.53729 138
69.5574 145
69.57752 97
69.59763 126
69.61774 124
69.63786 121
69.65797 138
69.67809 118
69.6982 122
69.71831 122
69.73843 111
69.75854 113
69.77865 142
69.79877 124
69.81888 120
69.839 117
69.85911 118
69.87922 113
69.89934 117
69.91945 139
69.93956 117
69.95968 123
69.97979 111
69.9999 112
70.02002 123
70.04013 116
70.06025 127
70.08036 138
70.10047 134
70.12059 130
70.1407 134
70.16081 125
70.18093 125
70.20104 151
70.22116 138
70.24127 127
70.26138 126
70.2815 115
70.30161 123
70.32172 129
70.34184 130
70.36195 140
70.38207 113
70.40218 117
70.42229 133
70.44241 131
70.46252 122
70.48263 111
70.50275 133
70.52286 130
70.54297 110
70.56309 124
70.5832 128
70.60332 108
70.62343 109
70.64354 125
70.66366 102
70.68377 137
70.70388 133
70.724 121
70.74411 113
70.76423 113
70.78434 119
70.80445 117
70.82457 136
70.84468 127
70.86479 109
70.88491 113
70.90502 114
70.92513 109
70.94525 104
70.96536 119
70.98548 141
71.00559 133
71.0257 114
71.04582 107
71.06593 124
71.08604 129
71.10616 98
71.12627 120
71.14639 110
71.1665 116
71.18661 122
71.20673 102
71.22684 124
71.24695 121
71.26707 112
71.28718 120
71.3073 111
71.32741 120
71.34752 121
71.36764 139
71.38775 113
71.40786 125
71.42798 120
71.44809 147
71.4682 120
71.48832 118
71.50843 128
71.52855 129
71.54866 124
71.56877 116
71.58889 140
71.609 139
71.62911 128
71.64923 127
71.66934 130
71.68946 109
71.70957 130
71.72968 128
71.7498 118
71.76991 136
71.79002 115
71.81014 116
71.83025 119
71.85037 131
71.87048 129
71.89059 114
71.91071 110
71.93082 113
71.95093 137
71.97105 123
71.99116 110
72.01127 113
72.03139 121
72.0515 108
72.07162 112
72.09173 122
72.11184 125
72.13196 115
72.15207 130
72.17218 124
72.1923 109
72.21241 124
72.23253 118
72.25264 118
72.27275 108
72.29287 114
72.31298 106
72.33309 116
72.35321 116
72.37332 121
72.39344 134
72.41355 135
72.43366 134
72.45378 133
72.47389 128
72.494 122
72.51412 106
72.53423 137
72.55434 132
72.57446 126
72.59457 130
72.61469 105
72.6348 121
72.65491 136
72.67503 119
72.69514 104
72.71525 114
72.73537 100
72.75548 108
72.7756 116
72.79571 143
72.81582 136
72.83594 132
72.85605 122
72.87616 124
72.89628 113
72.91639 121
72.9365 128
72.95662 121
72.97673 133
72.99685 134
73.01696 139
73.03707 152
73.05719 153
73.0773 164
73.09741 155
73.11753 153
73.13764 145
73.15776 192
73.17787 180
73.19798 196
73.2181 227
73.23821 231
73.25832 245
73.27844 308
73.29855 313
73.31867 393
73.33878 411
73.35889 482
73.37901 567
73.39912 626
73.41923 600
73.43935 594
73.45946 582
73.47957 455
73.49969 384
73.5198 357
73.53992 307
73.56003 308
73.58014 358
73.60026 360
73.62037 399
73.64048 373
73.6606 356
73.68071 337
73.70083 229
73.72094 230
73.74105 196
73.76117 172
73.78128 180
73.80139 146
73.82151 151
73.84162 143
73.86174 151
73.88185 139
73.90196 138
73.92208 123
73.94219 136
73.9623 135
73.98242 122
74.00253 125
74.02264 129
74.04276 134
74.06287 114
74.08299 122
74.1031 111
74.12321 119
74.14333 117
74.16344 136
74.18355 117
74.20367 113
74.22378 114
74.2439 102
74.26401 136
74.28412 116
74.30424 140
74.32435 119
74.34446 143
74.36458 126
74.38469 120
74.40481 122
74.42492 111
74.44503 119
74.46515 130
74.48526 123
74.50537 115
74.52549 119
74.5456 123
74.56571 111
74.58583 111
74.60594 130
74.62606 102
74.64617 121
74.66628 115
74.6864 121
74.70651 129
74.72662 136
74.74674 129
74.76685 126
74.78697 122
74.80708 120
74.82719 133
74.84731 121
74.86742 118
74.88753 109
74.90765 111
74.92776 132
74.94787 122
74.96799 124
74.9881 123
75.00822 136
