3.00117 17184
3.02128 16491
3.0414 16340
3.06151 15529
3.08162 15218
3.10174 15074
3.12185 14081
3.14197 13973
3.16208 13225
3.18219 12990
3.20231 12380
3.22242 11962
3.24253 11863
3.26265 11259
3.28276 11119
3.30288 10699
3.32299 10004
3.3431 9996
3.36322 9475
3.38333 9271
3.40344 8877
3.42356 8455
3.44367 8291
3.46379 7994
3.4839 7689
3.50401 7246
3.52413 6831
3.54424 6648
3.56435 6485
3.58447 6183
3.60458 6092
3.62469 5644
3.64481 5532
3.66492 5219
3.68504 4932
3.70515 4796
3.72526 4629
3.74538 4582
3.76549 4303
3.7856 3895
3.80572 3924
3.82583 3592
3.84595 3600
3.86606 3361
3.88617 3112
3.90629 3015
3.9264 2924
3.94651 2872
3.96663 2688
3.98674 2453
4.00686 2389
4.02697 2227
4.04708 2180
4.0672 2116
4.08731 1882
4.10742 1914
4.12754 1745
4.14765 1743
4.16776 1787
4.18788 1627
4.20799 1476
4.22811 1420
4.24822 1496
4.26833 1453
4.28845 1362
4.30856 1300
4.32867 1236
4.34879 1347
4.3689 1277
4.38902 1160
4.40913 1200
4.42924 1163
4.44936 1065
4.46947 1133
4.48958 975
4.5097 965
4.52981 948
4.54992 916
4.57004 952
4.59015 883
4.61027 842
4.63038 794
4.65049 845
4.67061 852
4.69072 741
4.71083 757
4.73095 753
4.75106 734
4.77118 708
4.79129 714
4.8114 676
4.83152 662
4.85163 597
4.87174 669
4.89186 573
4.91197 574
4.93209 568
4.9522 517
4.97231 582
4.99243 504
5.01254 512
5.03265 557
5.05277 433
5.07288 508
5.09299 424
5.11311 437
5.13322 452
5.15334 389
5.17345 450
5.19356 378
5.21368 385
5.23379 417
5.2539 348
5.27402 350
5.29413 328
5.31425 360
5.33436 385
5.35447 367
5.37459 314
5.3947 310
5.41481 277
5.43493 330
5.45504 298
5.47516 270
5.49527 275
5.51538 273
5.5355 274
5.55561 244
5.57572 264
5.59584 225
5.61595 230
5.63606 218
5.65618 244
5.67629 191
5.69641 213
5.71652 217
5.73663 185
5.75675 191
5.77686 192
5.79697 195
5.81709 199
5.8372 180
5.85732 201
5.87743 180
5.89754 202
5.91766 195
5.93777 176
5.95788 148
5.978 179
5.99811 167
6.01823 176
6.03834 179
6.05845 156
6.07857 171
6.09868 164
6.11879 179
6.13891 177
6.15902 167
6.17913 166
6.19925 182
6.21936 179
6.23948 151
6.25959 148
6.2797 170
6.29982 172
6.31993 162
6.34004 166
6.36016 171
6.38027 160
6.40039 152
6.4205 152
6.44061 169
6.46073 164
6.48084 146
6.50095 167
6.52107 140
6.54118 132
6.56129 167
6.58141 159
6.60152 171
6.62164 188
6.64175 143
6.66186 153
6.68198 151
6.70209 156
6.7222 152
6.74232 158
6.76243 157
6.78255 182
6.80266 145
6.82277 141
6.84289 153
6.863 155
6.88311 155
6.90323 148
6.92334 170
6.94346 155
6.96357 162
6.98368 160
7.0038 156
7.02391 147
7.04402 172
7.06414 138
7.08425 152
7.10436 165
7.12448 166
7.14459 145
7.16471 147
7.18482 142
7.20493 128
7.22505 172
7.24516 141
7.26527 145
7.28539 137
7.3055 171
7.32562 164
7.34573 152
7.36584 141
7.38596 164
7.40607 172
7.42618 157
7.4463 157
7.46641 151
7.48653 136
7.50664 169
7.52675 179
7.54687 146
7.56698 153
7.58709 148
7.60721 157
7.62732 161
7.64743 171
7.66755 173
7.68766 151
7.70778 161
7.72789 152
7.748 184
7.76812 167
7.78823 165
7.80834 154
7.82846 171
7.84857 191
7.86869 152
7.8888 153
7.90891 180
7.92903 169
7.94914 171
7.96925 166
7.98937 168
8.00948 163
8.0296 199
8.04971 202
8.06982 184
8.08994 148
8.11005 182
8.13016 193
8.15028 140
8.17039 147
8.1905 171
8.21062 162
8.23073 156
8.25085 169
8.27096 168
8.29107 185
8.31119 185
8.3313 201
8.35141 187
8.37153 191
8.39164 190
8.41176 156
8.43187 194
8.45198 164
8.4721 187
8.49221 181
8.51232 160
8.53244 183
8.55255 190
8.57266 188
8.59278 183
8.61289 196
8.63301 176
8.65312 187
8.67323 191
8.69335 195
8.71346 195
8.73357 196
8.75369 190
8.7738 203
8.79392 208
8.81403 207
8.83414 194
8.85426 220
8.87437 191
8.89448 220
8.9146 197
8.93471 188
8.95483 196
8.97494 184
8.99505 217
9.01517 193
9.03528 197
9.05539 186
9.07551 211
9.09562 183
9.11573 180
9.13585 210
9.15596 193
9.17608 186
9.19619 199
9.2163 172
9.23642 184
9.25653 170
9.27664 184
9.29676 208
9.31687 203
9.33699 187
9.3571 190
9.37721 203
9.39733 180
9.41744 186
9.43755 197
9.45767 191
9.47778 205
9.4979 195
9.51801 192
9.53812 180
9.55824 178
9.57835 173
9.59846 195
9.61858 181
9.63869 199
9.6588 172
9.67892 183
9.69903 205
9.71915 204
9.73926 223
9.75937 204
9.77949 190
9.7996 171
9.81971 191
9.83983 188
9.85994 214
9.88006 197
9.90017 189
9.92028 190
9.9404 205
9.96051 183
9.98062 193
10.00074 207
10.02085 209
10.04097 184
10.06108 184
10.08119 197
10.10131 207
10.12142 199
10.14153 204
10.16165 210
10.18176 194
10.20187 175
10.22199 177
10.2421 184
10.26222 200
10.28233 200
10.30244 196
10.32256 192
10.34267 190
10.36278 180
10.3829 218
10.40301 181
10.42313 198
10.44324 220
10.46335 222
10.48347 203
10.50358 187
10.52369 196
10.54381 195
10.56392 174
10.58403 174
10.60415 177
10.62426 197
10.64438 187
10.66449 184
10.6846 182
10.70472 201
10.72483 187
10.74494 207
10.76506 224
10.78517 226
10.80529 183
10.8254 208
10.84551 191
10.86563 181
10.88574 188
10.90585 216
10.92597 180
10.94608 179
10.9662 207
10.98631 185
11.00642 201
11.02654 185
11.04665 191
11.06676 212
11.08688 223
11.10699 204
11.1271 206
11.14722 215
11.16733 203
11.18745 180
11.20756 214
11.22767 208
11.24779 198
11.2679 203
11.28801 221
11.30813 158
11.32824 167
11.34836 191
11.36847 174
11.38858 183
11.4087 212
11.42881 183
11.44892 198
11.46904 176
11.48915 182
11.50927 201
11.52938 190
11.54949 206
11.56961 205
11.58972 183
11.60983 211
11.62995 198
11.65006 169
11.67017 194
11.69029 198
11.7104 218
11.73052 217
11.75063 207
11.77074 231
11.79086 191
11.81097 182
11.83108 184
11.8512 153
11.87131 189
11.89143 176
11.91154 175
11.93165 180
11.95177 174
11.97188 199
11.99199 212
12.01211 177
12.03222 180
12.05234 217
12.07245 203
12.09256 186
12.11268 202
12.13279 198
12.1529 209
12.17302 177
12.19313 207
12.21324 203
12.23336 208
12.25347 184
12.27359 215
12.2937 195
12.31381 199
12.33393 168
12.35404 198
12.37415 206
12.39427 170
12.41438 189
12.4345 177
12.45461 187
12.47472 163
12.49484 191
12.51495 171
12.53506 183
12.55518 178
12.57529 162
12.5954 182
12.61552 172
12.63563 188
12.65575 187
12.67586 163
12.69597 194
12.71609 192
12.7362 159
12.75631 178
12.77643 178
12.79654 207
12.81666 188
12.83677 188
12.85688 187
12.877 200
12.89711 166
12.91722 168
12.93734 176
12.95745 178
12.97757 162
12.99768 171
13.01779 198
13.03791 183
13.05802 192
13.07813 189
13.09825 176
13.11836 193
13.13847 186
13.15859 211
13.1787 184
13.19882 200
13.21893 202
13.23904 187
13.25916 173
13.27927 165
13.29938 202
13.3195 185
13.33961 192
13.35973 170
13.37984 168
13.39995 181
13.42007 202
13.44018 154
13.46029 176
13.48041 195
13.50052 165
13.52064 172
13.54075 165
13.56086 197
13.58098 185
13.60109 193
13.6212 225
13.64132 201
13.66143 259
13.68154 221
13.70166 231
13.72177 226
13.74189 212
13.762 171
13.78211 219
13.80223 198
13.82234 216
13.84245 221
13.86257 215
13.88268 226
13.9028 211
13.92291 225
13.94302 232
13.96314 191
13.98325 175
14.00336 180
14.02348 191
14.04359 174
14.06371 194
14.08382 172
14.10393 181
14.12405 167
14.14416 172
14.16427 158
14.18439 158
14.2045 133
14.22461 188
14.24473 150
14.26484 196
14.28496 171
14.30507 144
14.32518 166
14.3453 154
14.36541 166
14.38552 138
14.40564 161
14.42575 160
14.44587 164
14.46598 150
14.48609 149
14.50621 175
14.52632 170
14.54643 178
14.56655 185
14.58666 168
14.60677 158
14.62689 173
14.647 134
14.66712 184
14.68723 171
14.70734 169
14.72746 176
14.74757 154
14.76768 156
14.7878 163
14.80791 156
14.82803 137
14.84814 143
14.86825 151
14.88837 204
14.90848 203
14.92859 201
14.94871 203
14.96882 183
14.98894 178
15.00905 164
15.02916 207
15.04928 197
15.06939 200
15.0895 174
15.10962 180
15.12973 194
15.14984 187
15.16996 156
15.19007 156
15.21019 181
15.2303 195
15.25041 153
15.27053 168
15.29064 162
15.31075 170
15.33087 152
15.35098 167
15.3711 168
15.39121 188
15.41132 162
15.43144 152
15.45155 137
15.47166 145
15.49178 162
15.51189 130
15.53201 154
15.55212 165
15.57223 172
15.59235 171
15.61246 162
15.63257 169
15.65269 143
15.6728 135
15.69291 151
15.71303 154
15.73314 181
15.75326 169
15.77337 172
15.79348 168
15.8136 162
15.83371 168
15.85382 168
15.87394 157
15.89405 149
15.91417 134
15.93428 169
15.95439 164
15.97451 143
15.99462 158
16.01473 153
16.03485 123
16.05496 171
16.07508 158
16.09519 176
16.1153 141
16.13542 153
16.15553 155
16.17564 161
16.19576 140
16.21587 152
16.23598 158
16.2561 184
16.27621 148
16.29633 167
16.31644 153
16.33655 135
16.35667 139
16.37678 125
16.39689 129
16.41701 147
16.43712 136
16.45724 150
16.47735 134
16.49746 143
16.51758 128
16.53769 138
16.5578 144
16.57792 135
16.59803 133
16.61814 150
16.63826 140
16.65837 177
16.67849 145
16.6986 134
16.71871 156
16.73883 135
16.75894 128
16.77905 152
16.79917 145
16.81928 158
16.8394 137
16.85951 132
16.87962 145
16.89974 146
16.91985 147
16.93996 138
16.96008 131
16.98019 164
17.00031 121
17.02042 151
17.04053 138
17.06065 161
17.08076 153
17.10087 146
17.12099 142
17.1411 138
17.16121 138
17.18133 152
17.20144 146
17.22156 124
17.24167 147
17.26178 144
17.2819 142
17.30201 117
17.32212 153
17.34224 131
17.36235 136
17.38247 152
17.40258 147
17.42269 156
17.44281 145
17.46292 152
17.48303 179
17.50315 126
17.52326 145
17.54338 134
17.56349 156
17.5836 131
17.60372 140
17.62383 129
17.64394 141
17.66406 120
17.68417 124
17.70428 147
17.7244 148
17.74451 137
17.76463 124
17.78474 152
17.80485 142
17.82497 164
17.84508 115
17.86519 141
17.88531 162
17.90542 147
17.92554 143
17.94565 147
17.96576 153
17.98588 147
18.00599 147
18.0261 152
18.04622 152
18.06633 127
18.08645 134
18.10656 154
18.12667 141
18.14679 153
18.1669 100
18.18701 160
18.20713 123
18.22724 141
18.24735 107
18.26747 165
18.28758 127
18.3077 138
18.32781 148
18.34792 122
18.36804 126
18.38815 147
18.40826 159
18.42838 133
18.44849 159
18.46861 121
18.48872 135
18.50883 150
18.52895 136
18.54906 138
18.56917 136
18.58929 142
18.6094 151
18.62951 145
18.64963 122
18.66974 161
18.68986 138
18.70997 143
18.73008 173
18.7502 145
18.77031 125
18.79042 156
18.81054 151
18.83065 150
18.85077 184
18.87088 183
18.89099 172
18.91111 152
18.93122 128
18.95133 135
18.97145 139
18.99156 124
19.01168 148
19.03179 122
19.0519 139
19.07202 150
19.09213 122
19.11224 146
19.13236 146
19.15247 146
19.17258 145
19.1927 139
19.21281 141
19.23293 146
19.25304 152
19.27315 158
19.29327 142
19.31338 152
19.33349 143
19.35361 158
19.37372 163
19.39384 149
19.41395 147
19.43406 141
19.45418 134
19.47429 150
19.4944 163
19.51452 155
19.53463 155
19.55475 160
19.57486 152
19.59497 138
19.61509 155
19.6352 144
19.65531 149
19.67543 148
19.69554 194
19.71565 165
19.73577 159
19.75588 170
19.776 161
19.79611 167
19.81622 168
19.83634 198
19.85645 165
19.87656 168
19.89668 167
19.91679 205
19.93691 161
19.95702 172
19.97713 158
19.99725 202
20.01736 180
20.03747 170
20.05759 181
20.0777 196
20.09782 176
20.11793 204
20.13804 227
20.15816 201
20.17827 232
20.19838 192
20.2185 217
20.23861 220
20.25872 227
20.27884 213
20.29895 229
20.31907 241
20.33918 198
20.35929 228
20.37941 226
20.39952 265
20.41963 264
20.43975 271
20.45986 259
20.47998 280
20.50009 287
20.5202 292
20.54032 277
20.56043 312
20.58054 342
20.60066 323
20.62077 371
20.64088 401
20.661 426
20.68111 523
20.70123 651
20.72134 832
20.74145 1160
20.76157 1616
20.78168 2276
20.80179 3395
20.82191 4804
20.84202 6275
20.86214 7865
20.88225 8242
20.90236 7238
20.92248 5434
20.94259 3672
20.9627 2473
20.98282 1353
21.00293 937
21.02305 779
21.04316 721
21.06327 733
21.08339 613
21.1035 570
21.12361 482
21.14373 419
21.16384 365
21.18395 348
21.20407 315
21.22418 284
21.2443 273
21.26441 263
21.28452 222
21.30464 225
21.32475 229
21.34486 240
21.36498 220
21.38509 200
21.40521 196
21.42532 228
21.44543 193
21.46555 230
21.48566 180
21.50577 190
21.52589 206
21.546 211
21.56612 179
21.58623 185
21.60634 213
21.62646 209
21.64657 210
21.66668 186
21.6868 191
21.70691 190
21.72702 179
21.74714 191
21.76725 212
21.78737 181
21.80748 202
21.82759 198
21.84771 223
21.86782 211
21.88793 238
21.90805 245
21.92816 298
21.94828 352
21.96839 406
21.9885 515
22.00862 558
22.02873 552
22.04884 445
22.06896 393
22.08907 298
22.10919 265
22.1293 233
22.14941 217
22.16953 227
22.18964 212
22.20975 183
22.22987 235
22.24998 223
22.27009 256
22.29021 258
22.31032 238
22.33044 254
22.35055 243
22.37066 218
22.39078 217
22.41089 203
22.431 207
22.45112 198
22.47123 186
22.49135 217
22.51146 208
22.53157 204
22.55169 188
22.5718 202
22.59191 201
22.61203 205
22.63214 209
22.65225 223
22.67237 187
22.69248 200
22.7126 181
22.73271 185
22.75282 213
22.77294 179
22.79305 183
22.81316 186
22.83328 182
22.85339 184
22.87351 199
22.89362 235
22.91373 221
22.93385 244
22.95396 271
22.97407 266
22.99419 251
23.0143 250
23.03442 226
23.05453 226
23.07464 282
23.09476 247
23.11487 261
23.13498 232
23.1551 246
23.17521 246
23.19532 292
23.21544 306
23.23555 278
23.25567 266
23.27578 292
23.29589 256
23.31601 224
23.33612 213
23.35623 219
23.37635 239
23.39646 240
23.41658 238
23.43669 200
23.4568 245
23.47692 220
23.49703 248
23.51714 231
23.53726 292
23.55737 318
23.57749 364
23.5976 337
23.61771 367
23.63783 370
23.65794 328
23.67805 351
23.69817 292
23.71828 254
23.73839 234
23.75851 239
23.77862 270
23.79874 228
23.81885 240
23.83896 249
23.85908 228
23.87919 259
23.8993 305
23.91942 324
23.93953 364
23.95965 458
23.97976 414
23.99987 489
24.01999 511
24.0401 468
24.06021 401
24.08033 345
24.10044 300
24.12056 239
24.14067 244
24.16078 253
24.1809 225
24.20101 266
24.22112 271
24.24124 321
24.26135 313
24.28146 369
24.30158 304
24.32169 345
24.34181 309
24.36192 333
24.38203 306
24.40215 288
24.42226 251
24.44237 237
24.46249 253
24.4826 230
24.50272 194
24.52283 194
24.54294 208
24.56306 226
24.58317 213
24.60328 197
24.6234 175
24.64351 204
24.66362 205
24.68374 204
24.70385 198
24.72397 188
24.74408 226
24.76419 214
24.78431 197
24.80442 210
24.82453 206
24.84465 204
24.86476 212
24.88488 198
24.90499 189
24.9251 205
24.94522 200
24.96533 205
24.98544 185
25.00556 185
25.02567 171
25.04579 176
25.0659 179
25.08601 166
25.10613 190
25.12624 191
25.14635 182
25.16647 180
25.18658 179
25.20669 209
25.22681 211
25.24692 194
25.26704 196
25.28715 199
25.30726 186
25.32738 210
25.34749 233
25.3676 191
25.38772 228
25.40783 240
25.42795 261
25.44806 292
25.46817 341
25.48829 370
25.5084 391
25.52851 452
25.54863 406
25.56874 452
25.58886 432
25.60897 443
25.62908 437
25.6492 499
25.66931 378
25.68942 403
25.70954 426
25.72965 478
25.74976 411
25.76988 431
25.78999 408
25.81011 379
25.83022 368
25.85033 403
25.87045 384
25.89056 373
25.91067 384
25.93079 409
25.9509 381
25.97102 459
25.99113 419
26.01124 427
26.03136 443
26.05147 455
26.07158 466
26.0917 469
26.11181 492
26.13193 475
26.15204 535
26.17215 595
26.19227 594
26.21238 691
26.23249 714
26.25261 767
26.27272 855
26.29283 956
26.31295 1016
26.33306 1058
26.35318 1128
26.37329 1337
26.3934 1476
26.41352 1825
26.43363 2041
26.45374 2518
26.47386 3164
26.49397 4108
26.51409 5604
26.5342 7858
26.55431 11261
26.57443 15899
26.59454 22176
26.61465 29515
26.63477 35279
26.65488 37367
26.67499 32912
26.69511 25120
26.71522 19588
26.73534 14717
26.75545 8881
26.77556 4577
26.79568 2658
26.81579 1954
26.8359 1640
26.85602 1451
26.87613 1320
26.89625 1195
26.91636 1124
26.93647 1036
26.95659 961
26.9767 830
26.99681 809
27.01693 814
27.03704 825
27.05716 841
27.07727 878
27.09738 790
27.1175 787
27.13761 713
27.15772 632
27.17784 580
27.19795 547
27.21806 520
27.23818 492
27.25829 488
27.27841 482
27.29852 511
27.31863 510
27.33875 530
27.35886 629
27.37897 741
27.39909 760
27.4192 858
27.43932 955
27.45943 1007
27.47954 983
27.49966 940
27.51977 854
27.53988 827
27.56 708
27.58011 641
27.60023 528
27.62034 509
27.64045 494
27.66057 443
27.68068 482
27.70079 474
27.72091 568
27.74102 651
27.76113 748
27.78125 728
27.80136 733
27.82148 739
27.84159 771
27.8617 820
27.88182 796
27.90193 754
27.92204 750
27.94216 851
27.96227 819
27.98239 810
28.0025 757
28.02261 757
28.04273 570
28.06284 496
28.08295 453
28.10307 374
28.12318 330
28.1433 302
28.16341 335
28.18352 331
28.20364 311
28.22375 355
28.24386 336
28.26398 396
28.28409 400
28.3042 346
28.32432 336
28.34443 335
28.36455 338
28.38466 272
28.40477 264
28.42489 244
28.445 233
28.46511 247
28.48523 209
28.50534 243
28.52546 218
28.54557 233
28.56568 231
28.5858 204
28.60591 199
28.62602 195
28.64614 221
28.66625 252
28.68636 177
28.70648 212
28.72659 193
28.74671 216
28.76682 209
28.78693 222
28.80705 233
28.82716 231
28.84727 235
28.86739 219
28.8875 193
28.90762 215
28.92773 198
28.94784 206
28.96796 201
28.98807 210
29.00818 196
29.0283 221
29.04841 226
29.06853 183
29.08864 216
29.10875 218
29.12887 199
29.14898 210
29.16909 207
29.18921 184
29.20932 184
29.22943 185
29.24955 213
29.26966 183
29.28978 211
29.30989 206
29.33 213
29.35012 222
29.37023 228
29.39034 251
29.41046 263
29.43057 275
29.45069 266
29.4708 284
29.49091 280
29.51103 251
29.53114 240
29.55125 234
29.57137 226
29.59148 238
29.6116 256
29.63171 215
29.65182 243
29.67194 223
29.69205 238
29.71216 263
29.73228 249
29.75239 265
29.7725 259
29.79262 283
29.81273 286
29.83285 278
29.85296 316
29.87307 295
29.89319 277
29.9133 244
29.93341 236
29.95353 242
29.97364 231
29.99376 233
30.01387 209
30.03398 254
30.0541 254
30.07421 268
30.09432 250
30.11444 259
30.13455 261
30.15467 261
30.17478 268
30.19489 300
30.21501 313
30.23512 314
30.25523 326
30.27535 300
30.29546 288
30.31557 298
30.33569 288
30.3558 308
30.37592 369
30.39603 329
30.41614 351
30.43626 344
30.45637 316
30.47648 355
30.4966 309
30.51671 285
30.53683 274
30.55694 236
30.57705 260
30.59717 212
30.61728 239
30.63739 209
30.65751 239
30.67762 244
30.69773 246
30.71785 236
30.73796 283
30.75808 288
30.77819 311
30.7983 280
30.81842 308
30.83853 290
30.85864 262
30.87876 311
30.89887 284
30.91899 249
30.9391 264
30.95921 251
30.97933 210
30.99944 204
31.01955 191
31.03967 163
31.05978 174
31.0799 193
31.10001 187
31.12012 163
31.14024 173
31.16035 193
31.18046 178
31.20058 159
31.22069 152
31.2408 189
31.26092 183
31.28103 184
31.30115 200
31.32126 215
31.34137 224
31.36149 222
31.3816 223
31.40171 228
31.42183 216
31.44194 207
31.46206 166
31.48217 163
31.50228 185
31.5224 170
31.54251 174
31.56262 160
31.58274 181
31.60285 189
31.62297 178
31.64308 205
31.66319 176
31.68331 165
31.70342 168
31.72353 166
31.74365 154
31.76376 151
31.78387 137
31.80399 145
31.8241 153
31.84422 173
31.86433 159
31.88444 151
31.90456 168
31.92467 153
31.94478 174
31.9649 137
31.98501 158
32.00513 160
32.02524 161
32.04535 153
32.06547 173
32.08558 169
32.10569 172
32.12581 179
32.14592 170
32.16604 165
32.18615 172
32.20626 177
32.22638 177
32.24649 155
32.2666 191
32.28672 178
32.30683 183
32.32694 180
32.34706 183
32.36717 157
32.38729 197
32.4074 159
32.42751 214
32.44763 178
32.46774 216
32.48785 201
32.50797 169
32.52808 180
32.5482 166
32.56831 194
32.58842 175
32.60854 152
32.62865 158
32.64876 146
32.66888 150
32.68899 153
32.7091 118
32.72922 131
32.74933 118
32.76945 140
32.78956 142
32.80967 129
32.82979 152
32.8499 148
32.87001 123
32.89013 156
32.91024 137
32.93036 118
32.95047 136
32.97058 140
32.9907 130
33.01081 166
33.03092 141
33.05104 152
33.07115 153
33.09127 139
33.11138 141
33.13149 148
33.15161 150
33.17172 132
33.19183 152
33.21195 128
33.23206 152
33.25217 120
33.27229 140
33.2924 140
33.31252 151
33.33263 129
33.35274 122
33.37286 144
33.39297 136
33.41308 129
33.4332 147
33.45331 143
33.47343 132
33.49354 122
33.51365 147
33.53377 129
33.55388 109
33.57399 126
33.59411 123
33.61422 142
33.63434 150
33.65445 140
33.67456 155
33.69468 119
33.71479 130
33.7349 137
33.75502 135
33.77513 146
33.79524 175
33.81536 163
33.83547 190
33.85559 189
33.8757 170
33.89581 161
33.91593 157
33.93604 163
33.95615 173
33.97627 146
33.99638 154
34.0165 152
34.03661 160
34.05672 147
34.07684 167
34.09695 154
34.11706 163
34.13718 170
34.15729 206
34.17741 201
34.19752 200
34.21763 204
34.23775 214
34.25786 218
34.27797 210
34.29809 185
34.3182 208
34.33831 200
34.35843 156
34.37854 190
34.39866 165
34.41877 141
34.43888 163
34.459 181
34.47911 149
34.49922 164
34.51934 160
34.53945 168
34.55957 155
34.57968 165
34.59979 161
34.61991 193
34.64002 164
34.66013 187
34.68025 180
34.70036 179
34.72047 164
34.74059 169
34.7607 168
34.78082 179
34.80093 169
34.82104 180
34.84116 161
34.86127 189
34.88138 174
34.9015 169
34.92161 211
34.94173 159
34.96184 188
34.98195 174
35.00207 177
35.02218 192
35.04229 164
35.06241 191
35.08252 180
35.10264 186
35.12275 187
35.14286 180
35.16298 214
35.18309 206
35.2032 200
35.22332 217
35.24343 185
35.26354 227
35.28366 258
35.30377 247
35.32389 236
35.344 223
35.36411 227
35.38423 227
35.40434 200
35.42445 208
35.44457 196
35.46468 199
35.4848 200
35.50491 205
35.52502 234
35.54514 209
35.56525 227
35.58536 232
35.60548 234
35.62559 219
35.64571 212
35.66582 210
35.68593 192
35.70605 204
35.72616 188
35.74627 186
35.76639 184
35.7865 173
35.80661 188
35.82673 168
35.84684 162
35.86696 183
35.88707 194
35.90718 167
35.9273 174
35.94741 181
35.96752 166
35.98764 170
36.00775 163
36.02787 164
36.04798 171
36.06809 167
36.08821 169
36.10832 161
36.12843 182
36.14855 203
36.16866 206
36.18878 243
36.20889 218
36.229 258
36.24912 251
36.26923 278
36.28934 269
36.30946 282
36.32957 330
36.34968 363
36.3698 379
36.38991 474
36.41003 598
36.43014 750
36.45025 963
36.47037 1319
36.49048 1709
36.51059 2129
36.53071 2398
36.55082 2593
36.57094 2168
36.59105 1728
36.61116 1386
36.63128 1326
36.65139 1293
36.6715 921
36.69162 578
36.71173 368
36.73184 281
36.75196 278
36.77207 244
36.79219 214
36.8123 235
36.83241 220
36.85253 228
36.87264 194
36.89275 228
36.91287 225
36.93298 213
36.9531 211
36.97321 175
36.99332 213
37.01344 223
37.03355 229
37.05366 206
37.07378 192
37.09389 197
37.11401 189
37.13412 198
37.15423 188
37.17435 159
37.19446 169
37.21457 156
37.23469 162
37.2548 198
37.27491 139
37.29503 143
37.31514 179
37.33526 155
37.35537 173
37.37548 166
37.3956 177
37.41571 168
37.43582 150
37.45594 152
37.47605 152
37.49617 166
37.51628 172
37.53639 165
37.55651 178
37.57662 154
37.59673 171
37.61685 160
37.63696 174
37.65708 155
37.67719 161
37.6973 154
37.71742 142
37.73753 156
37.75764 141
37.77776 146
37.79787 132
37.81798 159
37.8381 153
37.85821 144
37.87833 158
37.89844 126
37.91855 124
37.93867 135
37.95878 147
37.97889 126
37.99901 125
38.01912 136
38.03924 126
38.05935 145
38.07946 145
38.09958 153
38.11969 155
38.1398 141
38.15992 141
38.18003 153
38.20015 136
38.22026 141
38.24037 122
38.26049 152
38.2806 148
38.30071 134
38.32083 157
38.34094 143
38.36105 146
38.38117 158
38.40128 138
38.4214 147
38.44151 173
38.46162 157
38.48174 159
38.50185 183
38.52196 190
38.54208 205
38.56219 190
38.58231 213
38.60242 163
38.62253 199
38.64265 184
38.66276 156
38.68287 155
38.70299 149
38.7231 163
38.74321 166
38.76333 134
38.78344 147
38.80356 151
38.82367 141
38.84378 162
38.8639 157
38.88401 147
38.90412 148
38.92424 150
38.94435 162
38.96447 156
38.98458 153
39.00469 156
39.02481 186
39.04492 204
39.06503 222
39.08515 197
39.10526 227
39.12538 187
39.14549 209
39.1656 236
39.18572 213
39.20583 285
39.22594 254
39.24606 293
39.26617 329
39.28628 392
39.3064 458
39.32651 545
39.34663 686
39.36674 869
39.38685 1171
39.40697 1398
39.42708 1809
39.44719 2168
39.46731 2255
39.48742 2169
39.50754 1614
39.52765 1323
39.54776 1255
39.56788 1137
39.58799 1019
39.6081 689
39.62822 446
39.64833 330
39.66845 286
39.68856 247
39.70867 227
39.72879 225
39.7489 206
39.76901 204
39.78913 209
39.80924 191
39.82935 177
39.84947 172
39.86958 202
39.8897 169
39.90981 188
39.92992 188
39.95004 172
39.97015 188
39.99026 205
40.01038 210
40.03049 223
40.05061 215
40.07072 219
40.09083 251
40.11095 260
40.13106 299
40.15117 317
40.17129 422
40.1914 502
40.21152 682
40.23163 810
40.25174 1004
40.27186 1194
40.29197 1206
40.31208 1024
40.3322 863
40.35231 673
40.37242 715
40.39254 618
40.41265 579
40.43277 399
40.45288 282
40.47299 222
40.49311 217
40.51322 180
40.53333 191
40.55345 177
40.57356 178
40.59368 177
40.61379 179
40.6339 157
40.65402 165
40.67413 186
40.69424 158
40.71436 145
40.73447 137
40.75458 162
40.7747 168
40.79481 139
40.81493 159
40.83504 183
40.85515 175
40.87527 157
40.89538 132
40.91549 157
40.93561 162
40.95572 135
40.97584 146
40.99595 170
41.01606 149
41.03618 162
41.05629 140
41.0764 141
41.09652 141
41.11663 148
41.13675 151
41.15686 160
41.17697 136
41.19709 139
41.2172 164
41.23731 156
41.25743 137
41.27754 160
41.29765 146
41.31777 148
41.33788 167
41.358 127
41.37811 133
41.39822 176
41.41834 134
41.43845 159
41.45856 163
41.47868 150
41.49879 148
41.51891 140
41.53902 173
41.55913 172
41.57925 183
41.59936 149
41.61947 151
41.63959 180
41.6597 183
41.67982 210
41.69993 213
41.72004 226
41.74016 229
41.76027 242
41.78038 238
41.8005 268
41.82061 257
41.84072 259
41.86084 231
41.88095 207
41.90107 228
41.92118 222
41.94129 206
41.96141 196
41.98152 181
42.00163 169
42.02175 175
42.04186 157
42.06198 187
42.08209 188
42.1022 184
42.12232 175
42.14243 183
42.16254 230
42.18266 228
42.20277 271
42.22289 254
42.243 324
42.26311 337
42.28323 411
42.30334 459
42.32345 554
42.34357 656
42.36368 817
42.38379 1048
42.40391 1299
42.42402 1526
42.44414 1624
42.46425 1592
42.48436 1279
42.50448 1076
42.52459 884
42.5447 868
42.56482 867
42.58493 703
42.60505 512
42.62516 308
42.64527 267
42.66539 254
42.6855 228
42.70561 228
42.72573 237
42.74584 230
42.76595 229
42.78607 216
42.80618 207
42.8263 241
42.84641 200
42.86652 199
42.88664 183
42.90675 178
42.92686 201
42.94698 161
42.96709 198
42.98721 167
43.00732 155
43.02743 201
43.04755 172
43.06766 168
43.08777 174
43.10789 159
43.128 168
43.14812 154
43.16823 157
43.18834 161
43.20846 165
43.22857 157
43.24868 156
43.2688 144
43.28891 138
43.30902 166
43.32914 133
43.34925 125
43.36937 138
43.38948 146
43.40959 150
43.42971 141
43.44982 141
43.46993 140
43.49005 124
43.51016 174
43.53028 124
43.55039 167
43.5705 146
43.59062 131
43.61073 148
43.63084 157
43.65096 149
43.67107 137
43.69119 122
43.7113 151
43.73141 115
43.75153 139
43.77164 134
43.79175 115
43.81187 121
43.83198 134
43.85209 149
43.87221 121
43.89232 119
43.91244 130
43.93255 142
43.95266 119
43.97278 134
43.99289 126
44.013 139
44.03312 140
44.05323 121
44.07335 139
44.09346 152
44.11357 138
44.13369 141
44.1538 143
44.17391 144
44.19403 140
44.21414 137
44.23426 140
44.25437 138
44.27448 154
44.2946 136
44.31471 121
44.33482 155
44.35494 137
44.37505 136
44.39516 139
44.41528 126
44.43539 112
44.45551 145
44.47562 124
44.49573 137
44.51585 132
44.53596 111
44.55607 149
44.57619 126
44.5963 153
44.61642 126
44.63653 140
44.65664 108
44.67676 130
44.69687 147
44.71698 138
44.7371 142
44.75721 135
44.77732 131
44.79744 163
44.81755 136
44.83767 150
44.85778 152
44.87789 135
44.89801 155
44.91812 145
44.93823 138
44.95835 134
44.97846 141
44.99858 153
45.01869 138
45.0388 138
45.05892 140
45.07903 137
45.09914 139
45.11926 154
45.13937 139
45.15949 136
45.1796 136
45.19971 160
45.21983 157
45.23994 155
45.26005 134
45.28017 152
45.30028 156
45.32039 161
45.34051 135
45.36062 162
45.38074 165
45.40085 180
45.42096 193
45.44108 174
45.46119 196
45.4813 212
45.50142 211
45.52153 195
45.54165 229
45.56176 218
45.58187 265
45.60199 296
45.6221 341
45.64221 340
45.66233 410
45.68244 512
45.70256 619
45.72267 743
45.74278 867
45.7629 1044
45.78301 1051
45.80312 1038
45.82324 939
45.84335 728
45.86346 592
45.88358 555
45.90369 624
45.92381 556
45.94392 422
45.96403 293
45.98415 220
46.00426 173
46.02437 193
46.04449 186
46.0646 161
46.08472 150
46.10483 156
46.12494 152
46.14506 139
46.16517 154
46.18528 142
46.2054 173
46.22551 143
46.24563 154
46.26574 162
46.28585 133
46.30597 139
46.32608 124
46.34619 124
46.36631 126
46.38642 145
46.40653 134
46.42665 147
46.44676 144
46.46688 138
46.48699 140
46.5071 145
46.52722 125
46.54733 133
46.56744 107
46.58756 149
46.60767 128
46.62779 128
46.6479 144
46.66801 116
46.68813 130
46.70824 137
46.72835 113
46.74847 112
46.76858 128
46.78869 132
46.80881 123
46.82892 138
46.84904 153
46.86915 148
46.88926 151
46.90938 126
46.92949 146
46.9496 151
46.96972 131
46.98983 133
47.00995 152
47.03006 129
47.05017 160
47.07029 122
47.0904 142
47.11051 154
47.13063 145
47.15074 142
47.17086 140
47.19097 147
47.21108 148
47.2312 123
47.25131 143
47.27142 158
47.29154 151
47.31165 139
47.33176 128
47.35188 136
47.37199 155
47.39211 143
47.41222 123
47.43233 157
47.45245 143
47.47256 160
47.49267 149
47.51279 172
47.5329 172
47.55302 156
47.57313 162
47.59324 153
47.61336 141
47.63347 133
47.65358 147
47.6737 122
47.69381 131
47.71393 145
47.73404 143
47.75415 130
47.77427 112
47.79438 115
47.81449 135
47.83461 110
47.85472 109
47.87483 138
47.89495 122
47.91506 114
47.93518 118
47.95529 135
47.9754 117
47.99552 128
48.01563 108
48.03574 127
48.05586 116
48.07597 123
48.09609 142
48.1162 138
48.13631 127
48.15643 109
48.17654 133
48.19665 132
48.21677 136
48.23688 123
48.257 152
48.27711 152
48.29722 151
48.31734 144
48.33745 147
48.35756 134
48.37768 147
48.39779 139
48.4179 140
48.43802 142
48.45813 133
48.47825 142
48.49836 109
48.51847 125
48.53859 147
48.5587 127
48.57881 147
48.59893 128
48.61904 151
48.63916 127
48.65927 113
48.67938 146
48.6995 155
48.71961 138
48.73972 134
48.75984 143
48.77995 159
48.80006 162
48.82018 147
48.84029 142
48.86041 137
48.88052 136
48.90063 154
48.92075 152
48.94086 143
48.96097 162
48.98109 155
49.0012 168
49.02132 140
49.04143 156
49.06154 158
49.08166 175
49.10177 181
49.12188 177
49.142 200
49.16211 190
49.18223 213
49.20234 187
49.22245 168
49.24257 182
49.26268 151
49.28279 175
49.30291 164
49.32302 141
49.34313 174
49.36325 148
49.38336 157
49.40348 139
49.42359 143
49.4437 177
49.46382 122
49.48393 142
49.50404 171
49.52416 145
49.54427 165
49.56439 167
49.5845 166
49.60461 195
49.62473 187
49.64484 209
49.66495 193
49.68507 199
49.70518 234
49.7253 231
49.74541 251
49.76552 279
49.78564 299
49.80575 315
49.82586 336
49.84598 370
49.86609 404
49.8862 438
49.90632 524
49.92643 551
49.94655 625
49.96666 785
49.98677 922
50.00689 1202
50.027 1512
50.04711 1878
50.06723 2275
50.08734 2867
50.10746 3195
50.12757 3512
50.14768 3307
50.1678 2718
50.18791 2019
50.20802 1640
50.22814 1691
50.24825 1719
50.26837 1753
50.28848 1475
50.30859 1059
50.32871 640
50.34882 500
50.36893 350
50.38905 359
50.40916 311
50.42927 270
50.44939 314
50.4695 332
50.48962 348
50.50973 312
50.52984 355
50.54996 324
50.57007 325
50.59018 337
50.6103 333
50.63041 326
50.65053 316
50.67064 295
50.69075 316
50.71087 255
50.73098 250
50.75109 254
50.77121 235
50.79132 212
50.81143 182
50.83155 237
50.85166 192
50.87178 192
50.89189 167
50.912 171
50.93212 168
50.95223 152
50.97234 135
50.99246 176
51.01257 150
51.03269 176
51.0528 159
51.07291 146
51.09303 146
51.11314 142
51.13325 149
51.15337 144
51.17348 181
51.1936 184
51.21371 173
51.23382 171
51.25394 160
51.27405 192
51.29416 192
51.31428 170
51.33439 158
51.3545 158
51.37462 164
51.39473 181
51.41485 146
51.43496 156
51.45507 167
51.47519 146
51.4953 133
51.51541 116
51.53553 113
51.55564 112
51.57576 120
51.59587 127
51.61598 152
51.6361 125
51.65621 132
51.67632 121
51.69644 126
51.71655 114
51.73667 120
51.75678 131
51.77689 122
51.79701 131
51.81712 120
51.83723 105
51.85735 110
51.87746 127
51.89757 116
51.91769 116
51.9378 119
51.95792 107
51.97803 116
51.99814 106
52.01826 104
52.03837 110
52.05848 116
52.0786 132
52.09871 111
52.11883 126
52.13894 146
52.15905 125
52.17917 111
52.19928 122
52.21939 118
52.23951 129
52.25962 111
52.27974 117
52.29985 137
52.31996 111
52.34008 134
52.36019 122
52.3803 133
52.40042 128
52.42053 127
52.44064 107
52.46076 120
52.48087 136
52.50099 138
52.5211 126
52.54121 118
52.56133 135
52.58144 133
52.60155 128
52.62167 129
52.64178 137
52.6619 131
52.68201 155
52.70212 139
52.72224 159
52.74235 138
52.76246 127
52.78258 167
52.80269 158
52.8228 121
52.84292 132
52.86303 118
52.88315 130
52.90326 134
52.92337 143
52.94349 137
52.9636 121
52.98371 120
53.00383 146
53.02394 130
53.04406 148
53.06417 125
53.08428 117
53.1044 124
53.12451 122
53.14462 137
53.16474 124
53.18485 111
53.20497 123
53.22508 138
53.24519 138
53.26531 123
53.28542 103
53.30553 102
53.32565 148
53.34576 129
53.36587 117
53.38599 128
53.4061 141
53.42622 99
53.44633 124
53.46644 138
53.48656 130
53.50667 134
53.52678 114
53.5469 110
53.56701 121
53.58713 111
53.60724 142
53.62735 128
53.64747 127
53.66758 143
53.68769 148
53.70781 129
53.72792 150
53.74804 119
53.76815 128
53.78826 126
53.80838 119
53.82849 128
53.8486 117
53.86872 124
53.88883 115
53.90894 135
53.92906 123
53.94917 128
53.96929 139
53.9894 134
54.00951 128
54.02963 131
54.04974 129
54.06985 140
54.08997 127
54.11008 115
54.1302 132
54.15031 117
54.17042 138
54.19054 135
54.21065 143
54.23076 129
54.25088 140
54.27099 171
54.29111 146
54.31122 141
54.33133 134
54.35145 150
54.37156 125
54.39167 152
54.41179 140
54.4319 163
54.45201 163
54.47213 161
54.49224 150
54.51236 142
54.53247 170
54.55258 184
54.5727 166
54.59281 193
54.61292 202
54.63304 207
54.65315 200
54.67327 255
54.69338 289
54.71349 331
54.73361 424
54.75372 479
54.77383 592
54.79395 719
54.81406 840
54.83417 924
54.85429 997
54.8744 1060
54.89452 906
54.91463 759
54.93474 545
54.95486 512
54.97497 543
54.99508 578
55.0152 608
55.03531 561
55.05543 393
55.07554 309
55.09565 246
55.11577 232
55.13588 238
55.15599 253
55.17611 252
55.19622 288
55.21634 331
55.23645 356
55.25656 376
55.27668 473
55.29679 482
55.3169 527
55.33702 498
55.35713 417
55.37724 317
55.39736 313
55.41747 307
55.43759 291
55.4577 331
55.47781 300
55.49793 273
55.51804 205
55.53815 195
55.55827 172
55.57838 144
55.5985 134
55.61861 128
55.63872 156
55.65884 130
55.67895 135
55.69906 125
55.71918 123
55.73929 126
55.75941 113
55.77952 117
55.79963 132
55.81975 132
55.83986 107
55.85997 118
55.88009 119
55.9002 132
55.92031 129
55.94043 104
55.96054 137
55.98066 116
56.00077 124
56.02088 124
56.041 119
56.06111 139
56.08122 105
56.10134 106
56.12145 113
56.14157 120
56.16168 125
56.18179 114
56.20191 119
56.22202 112
56.24213 115
56.26225 104
56.28236 112
56.30248 113
56.32259 119
56.3427 117
56.36282 111
56.38293 121
56.40304 120
56.42316 128
56.44327 124
56.46338 103
56.4835 103
56.50361 118
56.52373 105
56.54384 99
56.56395 115
56.58407 117
56.60418 106
56.62429 113
56.64441 94
56.66452 129
56.68464 113
56.70475 118
56.72486 111
56.74498 115
56.76509 141
56.7852 104
56.80532 137
56.82543 114
56.84554 124
56.86566 118
56.88577 118
56.90589 112
56.926 108
56.94611 130
56.96623 105
56.98634 114
57.00645 126
57.02657 93
57.04668 101
57.0668 116
57.08691 123
57.10702 129
57.12714 140
57.14725 146
57.16736 143
57.18748 163
57.20759 168
57.22771 175
57.24782 151
57.26793 142
57.28805 131
57.30816 145
57.32827 154
57.34839 168
57.3685 147
57.38861 130
57.40873 134
57.42884 134
57.44896 137
57.46907 122
57.48918 125
57.5093 147
57.52941 120
57.54952 134
57.56964 111
57.58975 119
57.60987 107
57.62998 120
57.65009 108
57.67021 93
57.69032 119
57.71043 115
57.73055 124
57.75066 118
57.77078 128
57.79089 124
57.811 121
57.83112 112
57.85123 95
57.87134 111
57.89146 106
57.91157 116
57.93168 114
57.9518 101
57.97191 93
57.99203 112
58.01214 106
58.03225 112
58.05237 102
58.07248 131
58.09259 138
58.11271 126
58.13282 129
58.15294 110
58.17305 128
58.19316 97
58.21328 118
58.23339 116
58.2535 104
58.27362 130
58.29373 120
58.31385 116
58.33396 130
58.35407 108
58.37419 130
58.3943 117
58.41441 124
58.43453 143
58.45464 142
58.47475 126
58.49487 126
58.51498 129
58.5351 104
58.55521 140
58.57532 171
58.59544 147
58.61555 130
58.63566 157
58.65578 137
58.67589 156
58.69601 148
58.71612 138
58.73623 119
58.75635 128
58.77646 100
58.79657 117
58.81669 114
58.8368 98
58.85691 142
58.87703 115
58.89714 103
58.91726 109
58.93737 149
58.95748 130
58.9776 137
58.99771 114
59.01782 112
59.03794 132
59.05805 120
59.07817 102
59.09828 114
59.11839 117
59.13851 133
59.15862 128
59.17873 133
59.19885 134
59.21896 139
59.23908 120
59.25919 136
59.2793 117
59.29942 134
59.31953 138
59.33964 147
59.35976 118
59.37987 137
59.39998 155
59.4201 171
59.44021 155
59.46033 158
59.48044 162
59.50055 205
59.52067 170
59.54078 162
59.56089 225
59.58101 234
59.60112 230
59.62124 214
59.64135 274
59.66146 289
59.68158 283
59.70169 312
59.7218 360
59.74192 409
59.76203 539
59.78215 548
59.80226 657
59.82237 860
59.84249 1056
59.8626 1260
59.88271 1551
59.90283 1818
59.92294 2072
59.94305 2119
59.96317 2042
59.98328 1730
60.0034 1217
60.02351 972
60.04362 953
60.06374 991
60.08385 1064
60.10396 1082
60.12408 1041
60.14419 864
60.16431 623
60.18442 455
60.20453 300
60.22465 267
60.24476 259
60.26487 209
60.28499 184
60.3051 171
60.32522 181
60.34533 155
60.36544 169
60.38556 148
60.40567 132
60.42578 151
60.4459 156
60.46601 161
60.48612 139
60.50624 150
60.52635 142
60.54647 132
60.56658 124
60.58669 127
60.60681 129
60.62692 127
60.64703 128
60.66715 121
60.68726 149
60.70738 125
60.72749 126
60.7476 131
60.76772 109
60.78783 123
60.80794 125
60.82806 111
60.84817 127
60.86828 138
60.8884 137
60.90851 105
60.92863 146
60.94874 134
60.96885 125
60.98897 106
61.00908 139
61.02919 124
61.04931 121
61.06942 136
61.08954 125
61.10965 159
61.12976 124
61.14988 133
61.16999 138
61.1901 116
61.21022 119
61.23033 133
61.25045 121
61.27056 125
61.29067 120
61.31079 130
61.3309 134
61.35101 130
61.37113 132
61.39124 136
61.41135 122
61.43147 101
61.45158 119
61.4717 112
61.49181 120
61.51192 119
61.53204 118
61.55215 119
61.57226 106
61.59238 137
61.61249 118
61.63261 131
61.65272 115
61.67283 131
61.69295 123
61.71306 120
61.73317 123
61.75329 126
61.7734 110
61.79352 130
61.81363 114
61.83374 119
61.85386 110
61.87397 113
61.89408 132
61.9142 121
61.93431 107
61.95442 111
61.97454 124
61.99465 120
62.01477 139
62.03488 128
62.05499 107
62.07511 116
62.09522 118
62.11533 127
62.13545 115
62.15556 136
62.17568 106
62.19579 130
62.2159 116
62.23602 99
62.25613 104
62.27624 88
62.29636 126
62.31647 142
62.33659 122
62.3567 110
62.37681 119
62.39693 107
62.41704 106
62.43715 117
62.45727 122
62.47738 115
62.49749 123
62.51761 118
62.53772 115
62.55784 120
62.57795 110
62.59806 119
62.61818 104
62.63829 102
62.6584 121
62.67852 125
62.69863 90
62.71875 140
62.73886 130
62.75897 123
62.77909 131
62.7992 111
62.81931 137
62.83943 128
62.85954 124
62.87965 127
62.89977 127
62.91988 116
62.94 101
62.96011 114
62.98022 130
63.00034 124
63.02045 121
63.04056 127
63.06068 141
63.08079 129
63.10091 152
63.12102 114
63.14113 127
63.16125 129
63.18136 135
63.20147 109
63.22159 138
63.2417 124
63.26182 141
63.28193 139
63.30204 111
63.32216 133
63.34227 120
63.36238 135
63.3825 124
63.40261 144
63.42272 111
63.44284 137
63.46295 121
63.48307 134
63.50318 125
63.52329 136
63.54341 128
63.56352 124
63.58363 130
63.60375 134
63.62386 142
63.64398 152
63.66409 168
63.6842 141
63.70432 168
63.72443 159
63.74454 172
63.76466 187
63.78477 190
63.80489 189
63.825 215
63.84511 231
63.86523 215
63.88534 238
63.90545 281
63.92557 347
63.94568 410
63.96579 412
63.98591 428
64.00602 423
64.02614 462
64.04625 419
64.06636 358
64.08648 321
64.10659 243
64.1267 257
64.14682 250
64.16693 311
64.18705 308
64.20716 283
64.22727 239
64.24739 219
64.2675 163
64.28761 163
64.30773 138
64.32784 131
64.34796 117
64.36807 137
64.38818 126
64.4083 107
64.42841 121
64.44852 119
64.46864 91
64.48875 102
64.50886 90
64.52898 117
64.54909 112
64.56921 112
64.58932 100
64.60943 107
64.62955 105
64.64966 98
64.66977 93
64.68989 102
64.71 100
64.73012 98
64.75023 115
64.77034 107
64.79046 93
64.81057 106
64.83068 110
64.8508 100
64.87091 102
64.89102 123
64.91114 138
64.93125 119
64.95137 107
64.97148 116
64.99159 135
65.01171 125
65.03182 114
65.05193 121
65.07205 113
65.09216 133
65.11228 115
65.13239 124
65.1525 135
65.17262 127
65.19273 142
65.21284 140
65.23296 139
65.25307 116
65.27319 137
65.2933 119
65.31341 145
65.33353 131
65.35364 121
65.37375 140
65.39387 130
65.41398 124
65.43409 142
65.45421 127
65.47432 115
65.49444 143
65.51455 126
65.53466 138
65.55478 140
65.57489 132
65.595 155
65.61512 135
65.63523 161
65.65535 148
65.67546 159
65.69557 179
65.71569 184
65.7358 175
65.75591 185
65.77603 197
65.79614 215
65.81626 180
65.83637 168
65.85648 146
65.8766 158
65.89671 140
65.91682 145
65.93694 141
65.95705 158
65.97716 145
65.99728 147
66.01739 148
66.03751 122
66.05762 115
66.07773 123
66.09785 123
66.11796 107
66.13807 123
66.15819 144
66.1783 130
66.19842 124
66.21853 124
66.23864 115
66.25876 125
66.27887 128
66.29898 128
66.3191 133
66.33921 130
66.35933 127
66.37944 142
66.39955 114
66.41967 124
66.43978 116
66.45989 117
66.48001 147
66.50012 133
66.52023 117
66.54035 112
66.56046 119
66.58058 119
66.60069 125
66.6208 105
66.64092 118
66.66103 145
66.68114 113
66.70126 124
66.72137 116
66.74149 147
66.7616 130
66.78171 132
66.80183 151
66.82194 108
66.84205 122
66.86217 122
66.88228 138
66.90239 129
66.92251 128
66.94262 122
66.96274 138
66.98285 142
67.00296 134
67.02308 132
67.04319 129
67.0633 135
67.08342 120
67.10353 142
67.12365 141
67.14376 143
67.16387 157
67.18399 131
67.2041 123
67.22421 142
67.24433 161
67.26444 158
67.28456 176
67.30467 161
67.32478 156
67.3449 199
67.36501 197
67.38512 188
67.40524 188
67.42535 218
67.44546 227
67.46558 226
67.48569 270
67.50581 286
67.52592 314
67.54603 387
67.56615 442
67.58626 513
67.60637 643
67.62649 659
67.6466 809
67.66672 956
67.68683 1024
67.70694 1116
67.72706 1181
67.74717 1125
67.76728 1021
67.7874 804
67.80751 722
67.82763 633
67.84774 673
67.86785 732
67.88797 816
67.90808 821
67.92819 903
67.94831 885
67.96842 811
67.98853 772
68.00865 854
68.02876 990
68.04888 1117
68.06899 1220
68.0891 1407
68.10922 1504
68.12933 1555
68.14944 1537
68.16956 1399
68.18967 1259
68.20979 1165
68.2299 1138
68.25001 1318
68.27013 1428
68.29024 1439
68.31035 1458
68.33047 1404
68.35058 1127
68.3707 860
68.39081 640
68.41092 546
68.43104 584
68.45115 580
68.47126 519
68.49138 545
68.51149 520
68.5316 409
68.55172 329
68.57183 229
68.59195 225
68.61206 195
68.63217 187
68.65229 152
68.6724 155
68.69251 178
68.71263 144
68.73274 152
68.75286 153
68.77297 168
68.79308 149
68.8132 142
68.83331 142
68.85342 121
68.87354 143
68.89365 135
68.91376 121
68.93388 127
68.95399 137
68.97411 118
68.99422 136
69.01433 133
69.03445 152
69.05456 130
69.07467 127
69.09479 124
69.1149 114
69.13502 128
69.15513 131
69.17524 120
69.19536 137
69.21547 138
69.23558 145
69.2557 135
69.27581 136
69.29593 133
69.31604 129
69.33615 120
69.35627 121
69.37638 127
69.39649 121
69.41661 111
69.43672 127
69.45683 110
69.47695 105
69.49706 118
69.51718 95
69.53729 112
69.5574 126
69.57752 116
69.59763 113
69.61774 118
69.63786 112
69.65797 117
69.67809 113
69.6982 111
69.71831 120
69.73843 111
69.75854 114
69.77865 113
69.79877 113
69.81888 106
69.839 99
69.85911 112
69.87922 113
69.89934 83
69.91945 112
69.93956 106
69.95968 102
69.97979 97
69.9999 110
70.02002 102
70.04013 122
70.06025 98
70.08036 110
70.10047 87
70.12059 95
70.1407 105
70.16081 120
70.18093 107
70.20104 100
70.22116 94
70.24127 86
70.26138 105
70.2815 110
70.30161 97
70.32172 102
70.34184 103
70.36195 95
70.38207 84
70.40218 112
70.42229 90
70.44241 99
70.46252 108
70.48263 116
70.50275 97
70.52286 110
70.54297 117
70.56309 110
70.5832 94
70.60332 116
70.62343 118
70.64354 101
70.66366 92
70.68377 118
70.70388 92
70.724 90
70.74411 113
70.76423 117
70.78434 106
70.80445 110
70.82457 112
70.84468 101
70.86479 92
70.88491 104
70.90502 87
70.92513 110
70.94525 100
70.96536 103
70.98548 103
71.00559 120
71.0257 100
71.04582 117
71.06593 98
71.08604 100
71.10616 105
71.12627 95
71.14639 104
71.1665 92
71.18661 113
71.20673 113
71.22684 102
71.24695 112
71.26707 106
71.28718 101
71.3073 111
71.32741 109
71.34752 108
71.36764 119
71.38775 104
71.40786 141
71.42798 126
71.44809 100
71.4682 119
71.48832 108
71.50843 98
71.52855 127
71.54866 124
71.56877 117
71.58889 115
71.609 114
71.62911 104
71.64923 109
71.66934 111
71.68946 98
71.70957 107
71.72968 119
71.7498 107
71.76991 113
71.79002 120
71.81014 114
71.83025 102
71.85037 108
71.87048 114
71.89059 102
71.91071 109
71.93082 119
71.95093 93
71.97105 99
71.99116 116
72.01127 98
72.03139 127
72.0515 104
72.07162 111
72.09173 102
72.11184 127
72.13196 109
72.15207 96
72.17218 116
72.1923 94
72.21241 100
72.23253 118
72.25264 117
72.27275 112
72.29287 108
72.31298 105
72.33309 110
72.35321 113
72.37332 110
72.39344 122
72.41355 95
72.43366 109
72.45378 113
72.47389 103
72.494 85
72.51412 101
72.53423 101
72.55434 93
72.57446 103
72.59457 98
72.61469 115
72.6348 114
72.65491 110
72.67503 100
72.69514 87
72.71525 92
72.73537 106
72.75548 107
72.7756 119
72.79571 94
72.81582 120
72.83594 116
72.85605 105
72.87616 129
72.89628 129
72.91639 117
72.9365 130
72.95662 104
72.97673 123
72.99685 140
73.01696 127
73.03707 124
73.05719 130
73.0773 125
73.09741 109
73.11753 129
73.13764 154
73.15776 150
73.17787 148
73.19798 160
73.2181 173
73.23821 178
73.25832 199
73.27844 193
73.29855 223
73.31867 261
73.33878 294
73.35889 309
73.37901 362
73.39912 391
73.41923 474
73.43935 457
73.45946 487
73.47957 387
73.49969 365
73.5198 281
73.53992 242
73.56003 239
73.58014 238
73.60026 274
73.62037 254
73.64048 281
73.6606 256
73.68071 280
73.70083 247
73.72094 217
73.74105 172
73.76117 143
73.78128 142
73.80139 129
73.82151 123
73.84162 123
73.86174 111
73.88185 145
73.90196 136
73.92208 110
73.94219 103
73.9623 122
73.98242 116
74.00253 111
74.02264 116
74.04276 107
74.06287 108
74.08299 98
74.1031 100
74.12321 110
74.14333 115
74.16344 97
74.18355 78
74.20367 109
74.22378 116
74.2439 97
74.26401 97
74.28412 96
74.30424 108
74.32435 96
74.34446 106
74.36458 119
74.38469 114
74.40481 89
74.42492 117
74.44503 106
74.46515 98
74.48526 113
74.50537 114
74.52549 116
74.5456 124
74.56571 126
74.58583 110
74.60594 126
74.62606 133
74.64617 100
74.66628 104
74.6864 106
74.70651 94
74.72662 134
74.74674 110
74.76685 127
74.78697 120
74.80708 90
74.82719 104
74.84731 97
74.86742 111
74.88753 98
74.90765 105
74.92776 108
74.94787 101
74.96799 110
74.9881 108
75.00822 127
