3.00117 16449
3.02128 15867
3.0414 15229
3.06151 15208
3.08162 14173
3.10174 14377
3.12185 13669
3.14197 13301
3.16208 12719
3.18219 12236
3.20231 12335
3.22242 11658
3.24253 11118
3.26265 10910
3.28276 10312
3.30288 10284
3.32299 9752
3.3431 9553
3.36322 9280
3.38333 8968
3.40344 8906
3.42356 8314
3.44367 8063
3.46379 7675
3.4839 7304
3.50401 7040
3.52413 6680
3.54424 6348
3.56435 6476
3.58447 5903
3.60458 5768
3.62469 5538
3.64481 5432
3.66492 5155
3.68504 4716
3.70515 4833
3.72526 4383
3.74538 4392
3.76549 4313
3.7856 3933
3.80572 3803
3.82583 3534
3.84595 3392
3.86606 3422
3.88617 3237
3.90629 3166
3.9264 2918
3.94651 2814
3.96663 2689
3.98674 2554
4.00686 2547
4.02697 2306
4.04708 2175
4.0672 2209
4.08731 2063
4.10742 2053
4.12754 1891
4.14765 1788
4.16776 1856
4.18788 1851
4.20799 1686
4.22811 1647
4.24822 1549
4.26833 1611
4.28845 1538
4.30856 1524
4.32867 1379
4.34879 1364
4.3689 1454
4.38902 1327
4.40913 1292
4.42924 1268
4.44936 1215
4.46947 1360
4.48958 1290
4.5097 1122
4.52981 1164
4.54992 1095
4.57004 1083
4.59015 1150
4.61027 979
4.63038 997
4.65049 976
4.67061 1001
4.69072 1027
4.71083 945
4.73095 968
4.75106 902
4.77118 836
4.79129 829
4.8114 826
4.83152 703
4.85163 799
4.87174 789
4.89186 860
4.91197 740
4.93209 711
4.9522 709
4.97231 684
4.99243 697
5.01254 617
5.03265 687
5.05277 668
5.07288 633
5.09299 619
5.11311 566
5.13322 586
5.15334 596
5.17345 563
5.19356 601
5.21368 532
5.23379 547
5.2539 481
5.27402 516
5.29413 501
5.31425 555
5.33436 472
5.35447 502
5.37459 484
5.3947 511
5.41481 459
5.43493 421
5.45504 495
5.47516 405
5.49527 466
5.51538 434
5.5355 409
5.55561 420
5.57572 417
5.59584 431
5.61595 380
5.63606 385
5.65618 395
5.67629 416
5.69641 397
5.71652 395
5.73663 366
5.75675 403
5.77686 386
5.79697 392
5.81709 415
5.8372 369
5.85732 366
5.87743 334
5.89754 350
5.91766 376
5.93777 340
5.95788 334
5.978 365
5.99811 330
6.01823 327
6.03834 354
6.05845 325
6.07857 363
6.09868 365
6.11879 340
6.13891 324
6.15902 327
6.17913 355
6.19925 325
6.21936 320
6.23948 354
6.25959 306
6.2797 353
6.29982 308
6.31993 294
6.34004 292
6.36016 271
6.38027 303
6.40039 312
6.4205 280
6.44061 296
6.46073 296
6.48084 331
6.50095 323
6.52107 329
6.54118 360
6.56129 312
6.58141 314
6.60152 300
6.62164 284
6.64175 286
6.66186 304
6.68198 265
6.70209 295
6.7222 307
6.74232 330
6.76243 260
6.78255 310
6.80266 280
6.82277 322
6.84289 310
6.863 295
6.88311 303
6.90323 289
6.92334 274
6.94346 306
6.96357 267
6.98368 311
7.0038 290
7.02391 309
7.04402 299
7.06414 290
7.08425 299
7.10436 305
7.12448 276
7.14459 286
7.16471 269
7.18482 305
7.20493 261
7.22505 313
7.24516 301
7.26527 249
7.28539 257
7.3055 270
7.32562 297
7.34573 295
7.36584 292
7.38596 288
7.40607 288
7.42618 302
7.4463 267
7.46641 247
7.48653 261
7.50664 283
7.52675 281
7.54687 301
7.56698 287
7.58709 291
7.60721 277
7.62732 280
7.64743 313
7.66755 288
7.68766 301
7.70778 266
7.72789 271
7.748 284
7.76812 302
7.78823 294
7.80834 268
7.82846 325
7.84857 273
7.86869 297
7.8888 271
7.90891 246
7.92903 287
7.94914 249
7.96925 339
7.98937 314
8.00948 299
8.0296 298
8.04971 312
8.06982 267
8.08994 325
8.11005 311
8.13016 303
8.15028 316
8.17039 331
8.1905 299
8.21062 283
8.23073 339
8.25085 316
8.27096 333
8.29107 355
8.31119 363
8.3313 316
8.35141 386
8.37153 330
8.39164 342
8.41176 345
8.43187 369
8.45198 378
8.4721 370
8.49221 342
8.51232 363
8.53244 395
8.55255 407
8.57266 401
8.59278 436
8.61289 477
8.63301 474
8.65312 481
8.67323 485
8.69335 521
8.71346 481
8.73357 494
8.75369 438
8.7738 490
8.79392 440
8.81403 479
8.83414 474
8.85426 405
8.87437 408
8.89448 366
8.9146 413
8.93471 394
8.95483 346
8.97494 351
8.99505 304
9.01517 333
9.03528 290
9.05539 327
9.07551 303
9.09562 304
9.11573 306
9.13585 280
9.15596 263
9.17608 306
9.19619 291
9.2163 288
9.23642 302
9.25653 302
9.27664 255
9.29676 272
9.31687 286
9.33699 307
9.3571 267
9.37721 287
9.39733 247
9.41744 289
9.43755 261
9.45767 298
9.47778 249
9.4979 282
9.51801 282
9.53812 271
9.55824 275
9.57835 262
9.59846 313
9.61858 295
9.63869 267
9.6588 333
9.67892 287
9.69903 305
9.71915 285
9.73926 257
9.75937 274
9.77949 258
9.7996 257
9.81971 253
9.83983 278
9.85994 286
9.88006 254
9.90017 267
9.92028 272
9.9404 282
9.96051 252
9.98062 280
10.00074 315
10.02085 271
10.04097 288
10.06108 266
10.08119 255
10.10131 241
10.12142 258
10.14153 251
10.16165 278
10.18176 256
10.20187 271
10.22199 278
10.2421 259
10.26222 299
10.28233 284
10.30244 321
10.32256 335
10.34267 337
10.36278 342
10.3829 348
10.40301 347
10.42313 326
10.44324 354
10.46335 335
10.48347 337
10.50358 287
10.52369 298
10.54381 278
10.56392 262
10.58403 267
10.60415 273
10.62426 267
10.64438 261
10.66449 258
10.6846 243
10.70472 271
10.72483 282
10.74494 245
10.76506 313
10.78517 291
10.80529 265
10.8254 281
10.84551 287
10.86563 260
10.88574 288
10.90585 283
10.92597 315
10.94608 311
10.9662 291
10.98631 270
11.00642 264
11.02654 288
11.04665 299
11.06676 284
11.08688 261
11.10699 281
11.1271 264
11.14722 253
11.16733 257
11.18745 285
11.20756 296
11.22767 272
11.24779 252
11.2679 292
11.28801 288
11.30813 252
11.32824 259
11.34836 283
11.36847 249
11.38858 276
11.4087 274
11.42881 272
11.44892 248
11.46904 264
11.48915 270
11.50927 259
11.52938 244
11.54949 284
11.56961 264
11.58972 279
11.60983 282
11.62995 278
11.65006 281
11.67017 281
11.69029 265
11.7104 274
11.73052 253
11.75063 242
11.77074 250
11.79086 268
11.81097 270
11.83108 262
11.8512 266
11.87131 271
11.89143 285
11.91154 257
11.93165 286
11.95177 277
11.97188 290
11.99199 284
12.01211 287
12.03222 255
12.05234 284
12.07245 289
12.09256 267
12.11268 251
12.13279 272
12.1529 303
12.17302 290
12.19313 252
12.21324 255
12.23336 290
12.25347 291
12.27359 273
12.2937 285
12.31381 282
12.33393 291
12.35404 275
12.37415 271
12.39427 271
12.41438 286
12.4345 280
12.45461 270
12.47472 251
12.49484 278
12.51495 250
12.53506 256
12.55518 245
12.57529 238
12.5954 235
12.61552 273
12.63563 272
12.65575 236
12.67586 277
12.69597 273
12.71609 295
12.7362 299
12.75631 240
12.77643 237
12.79654 205
12.81666 235
12.83677 247
12.85688 255
12.877 257
12.89711 253
12.91722 266
12.93734 263
12.95745 266
12.97757 272
12.99768 254
13.01779 240
13.03791 232
13.05802 283
13.07813 255
13.09825 274
13.11836 275
13.13847 257
13.15859 223
13.1787 224
13.19882 236
13.21893 246
13.23904 238
13.25916 216
13.27927 234
13.29938 267
13.3195 263
13.33961 233
13.35973 239
13.37984 232
13.39995 258
13.42007 255
13.44018 245
13.46029 276
13.48041 250
13.50052 268
13.52064 246
13.54075 282
13.56086 296
13.58098 267
13.60109 279
13.6212 272
13.64132 295
13.66143 318
13.68154 317
13.70166 399
13.72177 373
13.74189 399
13.762 465
13.78211 424
13.80223 452
13.82234 451
13.84245 427
13.86257 390
13.88268 356
13.9028 338
13.92291 300
13.94302 324
13.96314 331
13.98325 290
14.00336 311
14.02348 287
14.04359 261
14.06371 246
14.08382 271
14.10393 287
14.12405 241
14.14416 262
14.16427 231
14.18439 236
14.2045 255
14.22461 245
14.24473 266
14.26484 250
14.28496 249
14.30507 261
14.32518 232
14.3453 271
14.36541 245
14.38552 246
14.40564 254
14.42575 232
14.44587 226
14.46598 223
14.48609 219
14.50621 222
14.52632 232
14.54643 245
14.56655 228
14.58666 216
14.60677 245
14.62689 201
14.647 229
14.66712 234
14.68723 235
14.70734 254
14.72746 267
14.74757 287
14.76768 258
14.7878 304
14.80791 303
14.82803 287
14.84814 269
14.86825 293
14.88837 303
14.90848 293
14.92859 311
14.94871 310
14.96882 294
14.98894 292
15.00905 270
15.02916 268
15.04928 244
15.06939 253
15.0895 241
15.10962 266
15.12973 278
15.14984 246
15.16996 235
15.19007 265
15.21019 238
15.2303 227
15.25041 262
15.27053 255
15.29064 198
15.31075 249
15.33087 232
15.35098 233
15.3711 216
15.39121 250
15.41132 231
15.43144 228
15.45155 238
15.47166 253
15.49178 225
15.51189 231
15.53201 229
15.55212 227
15.57223 226
15.59235 231
15.61246 245
15.63257 250
15.65269 265
15.6728 290
15.69291 253
15.71303 276
15.73314 253
15.75326 275
15.77337 270
15.79348 280
15.8136 255
15.83371 259
15.85382 268
15.87394 245
15.89405 234
15.91417 236
15.93428 225
15.95439 233
15.97451 232
15.99462 250
16.01473 233
16.03485 242
16.05496 226
16.07508 231
16.09519 250
16.1153 203
16.13542 233
16.15553 252
16.17564 242
16.19576 238
16.21587 200
16.23598 228
16.2561 239
16.27621 231
16.29633 228
16.31644 219
16.33655 237
16.35667 235
16.37678 209
16.39689 227
16.41701 199
16.43712 237
16.45724 225
16.47735 237
16.49746 235
16.51758 218
16.53769 202
16.5578 211
16.57792 224
16.59803 235
16.61814 225
16.63826 230
16.65837 232
16.67849 214
16.6986 196
16.71871 234
16.73883 215
16.75894 222
16.77905 211
16.79917 250
16.81928 219
16.8394 220
16.85951 229
16.87962 243
16.89974 243
16.91985 217
16.93996 265
16.96008 252
16.98019 214
17.00031 224
17.02042 225
17.04053 246
17.06065 225
17.08076 243
17.10087 224
17.12099 257
17.1411 259
17.16121 245
17.18133 243
17.20144 235
17.22156 230
17.24167 232
17.26178 262
17.2819 230
17.30201 238
17.32212 279
17.34224 246
17.36235 250
17.38247 260
17.40258 229
17.42269 230
17.44281 266
17.46292 277
17.48303 269
17.50315 337
17.52326 306
17.54338 316
17.56349 330
17.5836 303
17.60372 309
17.62383 333
17.64394 296
17.66406 279
17.68417 313
17.70428 278
17.7244 253
17.74451 252
17.76463 258
17.78474 265
17.80485 219
17.82497 271
17.84508 247
17.86519 229
17.88531 250
17.90542 262
17.92554 272
17.94565 257
17.96576 243
17.98588 258
18.00599 264
18.0261 245
18.04622 265
18.06633 228
18.08645 238
18.10656 199
18.12667 240
18.14679 265
18.1669 247
18.18701 202
18.20713 243
18.22724 243
18.24735 195
18.26747 205
18.28758 231
18.3077 251
18.32781 236
18.34792 226
18.36804 249
18.38815 221
18.40826 236
18.42838 263
18.44849 266
18.46861 248
18.48872 236
18.50883 220
18.52895 244
18.54906 236
18.56917 242
18.58929 224
18.6094 231
18.62951 242
18.64963 235
18.66974 241
18.68986 217
18.70997 256
18.73008 250
18.7502 222
18.77031 218
18.79042 231
18.81054 239
18.83065 233
18.85077 232
18.87088 275
18.89099 240
18.91111 242
18.93122 237
18.95133 250
18.97145 265
18.99156 226
19.01168 244
19.03179 259
19.0519 244
19.07202 280
19.09213 291
19.11224 267
19.13236 324
19.15247 321
19.17258 330
19.1927 293
19.21281 307
19.23293 335
19.25304 323
19.27315 318
19.29327 281
19.31338 322
19.33349 322
19.35361 288
19.37372 292
19.39384 335
19.41395 325
19.43406 353
19.45418 328
19.47429 350
19.4944 304
19.51452 374
19.53463 355
19.55475 371
19.57486 351
19.59497 387
19.61509 374
19.6352 409
19.65531 362
19.67543 400
19.69554 402
19.71565 389
19.73577 400
19.75588 394
19.776 383
19.79611 358
19.81622 349
19.83634 380
19.85645 389
19.87656 323
19.89668 359
19.91679 341
19.93691 305
19.95702 346
19.97713 337
19.99725 333
20.01736 327
20.03747 343
20.05759 318
20.0777 323
20.09782 354
20.11793 319
20.13804 339
20.15816 327
20.17827 332
20.19838 344
20.2185 337
20.23861 389
20.25872 313
20.27884 314
20.29895 295
20.31907 305
20.33918 330
20.35929 329
20.37941 342
20.39952 339
20.41963 327
20.43975 302
20.45986 324
20.47998 344
20.50009 358
20.5202 382
20.54032 383
20.56043 419
20.58054 465
20.60066 532
20.62077 591
20.64088 725
20.661 843
20.68111 944
20.70123 1216
20.72134 1348
20.74145 1468
20.76157 1558
20.78168 1456
20.80179 1412
20.82191 1247
20.84202 1088
20.86214 968
20.88225 793
20.90236 674
20.92248 584
20.94259 553
20.9627 451
20.98282 433
21.00293 454
21.02305 415
21.04316 400
21.06327 365
21.08339 359
21.1035 327
21.12361 301
21.14373 322
21.16384 339
21.18395 353
21.20407 310
21.22418 305
21.2443 299
21.26441 318
21.28452 315
21.30464 295
21.32475 313
21.34486 294
21.36498 320
21.38509 316
21.40521 323
21.42532 313
21.44543 365
21.46555 312
21.48566 325
21.50577 356
21.52589 317
21.546 325
21.56612 330
21.58623 332
21.60634 346
21.62646 323
21.64657 329
21.66668 363
21.6868 400
21.70691 393
21.72702 420
21.74714 427
21.76725 566
21.78737 638
21.80748 674
21.82759 874
21.84771 980
21.86782 1066
21.88793 1194
21.90805 1302
21.92816 1355
21.94828 1335
21.96839 1274
21.9885 1119
22.00862 1036
22.02873 946
22.04884 845
22.06896 724
22.08907 595
22.10919 498
22.1293 479
22.14941 468
22.16953 456
22.18964 423
22.20975 383
22.22987 385
22.24998 397
22.27009 374
22.29021 345
22.31032 355
22.33044 357
22.35055 316
22.37066 307
22.39078 303
22.41089 276
22.431 312
22.45112 322
22.47123 317
22.49135 340
22.51146 312
22.53157 304
22.55169 304
22.5718 348
22.59191 315
22.61203 314
22.63214 313
22.65225 333
22.67237 301
22.69248 369
22.7126 338
22.73271 384
22.75282 410
22.77294 405
22.79305 416
22.81316 442
22.83328 384
22.85339 460
22.87351 467
22.89362 508
22.91373 491
22.93385 495
22.95396 458
22.97407 480
22.99419 430
23.0143 486
23.03442 390
23.05453 457
23.07464 419
23.09476 378
23.11487 422
23.13498 387
23.1551 346
23.17521 340
23.19532 380
23.21544 349
23.23555 371
23.25567 385
23.27578 373
23.29589 406
23.31601 466
23.33612 464
23.35623 539
23.37635 575
23.39646 639
23.41658 723
23.43669 743
23.4568 767
23.47692 772
23.49703 689
23.51714 740
23.53726 631
23.55737 595
23.57749 603
23.5976 545
23.61771 539
23.63783 445
23.65794 414
23.67805 423
23.69817 465
23.71828 447
23.73839 450
23.75851 532
23.77862 519
23.79874 497
23.81885 540
23.83896 558
23.85908 640
23.87919 595
23.8993 570
23.91942 566
23.93953 618
23.95965 626
23.97976 563
23.99987 644
24.01999 636
24.0401 735
24.06021 761
24.08033 848
24.10044 887
24.12056 924
24.14067 937
24.16078 933
24.1809 951
24.20101 986
24.22112 934
24.24124 883
24.26135 793
24.28146 769
24.30158 660
24.32169 578
24.34181 479
24.36192 460
24.38203 450
24.40215 424
24.42226 383
24.44237 367
24.46249 382
24.4826 361
24.50272 347
24.52283 304
24.54294 334
24.56306 306
24.58317 342
24.60328 356
24.6234 340
24.64351 349
24.66362 326
24.68374 323
24.70385 349
24.72397 337
24.74408 319
24.76419 291
24.78431 330
24.80442 336
24.82453 310
24.84465 337
24.86476 314
24.88488 354
24.90499 333
24.9251 319
24.94522 378
24.96533 336
24.98544 322
25.00556 332
25.02567 360
25.04579 321
25.0659 379
25.08601 337
25.10613 345
25.12624 370
25.14635 394
25.16647 316
25.18658 377
25.20669 394
25.22681 447
25.24692 466
25.26704 503
25.28715 561
25.30726 574
25.32738 583
25.34749 627
25.3676 608
25.38772 641
25.40783 660
25.42795 651
25.44806 657
25.46817 625
25.48829 597
25.5084 605
25.52851 559
25.54863 547
25.56874 512
25.58886 465
25.60897 449
25.62908 462
25.6492 402
25.66931 399
25.68942 364
25.70954 404
25.72965 405
25.74976 383
25.76988 367
25.78999 394
25.81011 390
25.83022 374
25.85033 406
25.87045 353
25.89056 392
25.91067 378
25.93079 403
25.9509 420
25.97102 444
25.99113 426
26.01124 482
26.03136 489
26.05147 496
26.07158 534
26.0917 551
26.11181 577
26.13193 597
26.15204 652
26.17215 683
26.19227 671
26.21238 782
26.23249 839
26.25261 918
26.27272 1029
26.29283 1195
26.31295 1263
26.33306 1475
26.35318 1670
26.37329 1886
26.3934 2341
26.41352 2843
26.43363 3396
26.45374 4264
26.47386 4977
26.49397 5712
26.51409 6127
26.5342 6478
26.55431 6341
26.57443 5918
26.59454 5147
26.61465 4359
26.63477 3576
26.65488 2726
26.67499 1951
26.69511 1568
26.71522 1136
26.73534 922
26.75545 836
26.77556 749
26.79568 715
26.81579 650
26.8359 610
26.85602 567
26.87613 594
26.89625 601
26.91636 593
26.93647 563
26.95659 537
26.9767 603
26.99681 570
27.01693 561
27.03704 528
27.05716 453
27.07727 493
27.09738 502
27.1175 523
27.13761 483
27.15772 481
27.17784 463
27.19795 521
27.21806 550
27.23818 589
27.25829 616
27.27841 685
27.29852 648
27.31863 723
27.33875 696
27.35886 740
27.37897 719
27.39909 738
27.4192 745
27.43932 777
27.45943 818
27.47954 854
27.49966 867
27.51977 949
27.53988 1024
27.56 1160
27.58011 1341
27.60023 1479
27.62034 1611
27.64045 1759
27.66057 1914
27.68068 2008
27.70079 2087
27.72091 2065
27.74102 2318
27.76113 2355
27.78125 2294
27.80136 2485
27.82148 2498
27.84159 2394
27.8617 2353
27.88182 2295
27.90193 2054
27.92204 1853
27.94216 1608
27.96227 1414
27.98239 1305
28.0025 1167
28.02261 1049
28.04273 1032
28.06284 955
28.08295 936
28.10307 881
28.12318 827
28.1433 862
28.16341 900
28.18352 870
28.20364 851
28.22375 801
28.24386 717
28.26398 723
28.28409 655
28.3042 585
28.32432 557
28.34443 547
28.36455 452
28.38466 420
28.40477 419
28.42489 426
28.445 381
28.46511 397
28.48523 350
28.50534 348
28.52546 316
28.54557 319
28.56568 341
28.5858 299
28.60591 321
28.62602 324
28.64614 326
28.66625 304
28.68636 324
28.70648 313
28.72659 304
28.74671 309
28.76682 332
28.78693 287
28.80705 289
28.82716 325
28.84727 301
28.86739 331
28.8875 357
28.90762 307
28.92773 305
28.94784 340
28.96796 326
28.98807 305
29.00818 288
29.0283 295
29.04841 282
29.06853 272
29.08864 323
29.10875 305
29.12887 281
29.14898 278
29.16909 295
29.18921 327
29.20932 297
29.22943 334
29.24955 316
29.26966 345
29.28978 325
29.30989 365
29.33 359
29.35012 345
29.37023 340
29.39034 347
29.41046 322
29.43057 340
29.45069 351
29.4708 359
29.49091 383
29.51103 341
29.53114 330
29.55125 378
29.57137 365
29.59148 396
29.6116 418
29.63171 416
29.65182 435
29.67194 449
29.69205 467
29.71216 443
29.73228 484
29.75239 437
29.7725 451
29.79262 459
29.81273 444
29.83285 441
29.85296 420
29.87307 444
29.89319 480
29.9133 533
29.93341 521
29.95353 547
29.97364 553
29.99376 536
30.01387 589
30.03398 584
30.0541 611
30.07421 598
30.09432 630
30.11444 642
30.13455 629
30.15467 652
30.17478 634
30.19489 631
30.21501 629
30.23512 615
30.25523 668
30.27535 656
30.29546 675
30.31557 745
30.33569 747
30.3558 730
30.37592 698
30.39603 747
30.41614 693
30.43626 624
30.45637 706
30.47648 580
30.4966 572
30.51671 526
30.53683 538
30.55694 528
30.57705 523
30.59717 560
30.61728 562
30.63739 566
30.65751 633
30.67762 652
30.69773 646
30.71785 655
30.73796 628
30.75808 578
30.77819 625
30.7983 502
30.81842 528
30.83853 403
30.85864 449
30.87876 394
30.89887 402
30.91899 374
30.9391 382
30.95921 366
30.97933 349
30.99944 327
31.01955 350
31.03967 414
31.05978 394
31.0799 409
31.10001 396
31.12012 431
31.14024 370
31.16035 410
31.18046 440
31.20058 437
31.22069 428
31.2408 394
31.26092 417
31.28103 424
31.30115 404
31.32126 358
31.34137 375
31.36149 366
31.3816 358
31.40171 371
31.42183 368
31.44194 362
31.46206 324
31.48217 303
31.50228 348
31.5224 321
31.54251 355
31.56262 370
31.58274 368
31.60285 372
31.62297 379
31.64308 370
31.66319 406
31.68331 363
31.70342 360
31.72353 383
31.74365 361
31.76376 382
31.78387 367
31.80399 337
31.8241 337
31.84422 333
31.86433 300
31.88444 310
31.90456 306
31.92467 321
31.94478 323
31.9649 310
31.98501 339
32.00513 352
32.02524 364
32.04535 313
32.06547 317
32.08558 317
32.10569 298
32.12581 309
32.14592 306
32.16604 276
32.18615 284
32.20626 296
32.22638 297
32.24649 299
32.2666 320
32.28672 322
32.30683 283
32.32694 269
32.34706 294
32.36717 342
32.38729 305
32.4074 303
32.42751 301
32.44763 289
32.46774 304
32.48785 269
32.50797 271
32.52808 309
32.5482 324
32.56831 266
32.58842 246
32.60854 263
32.62865 276
32.64876 281
32.66888 289
32.68899 257
32.7091 271
32.72922 269
32.74933 319
32.76945 278
32.78956 316
32.80967 334
32.82979 333
32.8499 310
32.87001 315
32.89013 336
32.91024 324
32.93036 320
32.95047 350
32.97058 300
32.9907 305
33.01081 310
33.03092 341
33.05104 302
33.07115 317
33.09127 310
33.11138 341
33.13149 351
33.15161 362
33.17172 364
33.19183 352
33.21195 352
33.23206 395
33.25217 375
33.27229 367
33.2924 361
33.31252 382
33.33263 343
33.35274 335
33.37286 332
33.39297 327
33.41308 340
33.4332 300
33.45331 292
33.47343 325
33.49354 292
33.51365 313
33.53377 314
33.55388 330
33.57399 335
33.59411 392
33.61422 352
33.63434 406
33.65445 411
33.67456 391
33.69468 436
33.71479 432
33.7349 437
33.75502 428
33.77513 451
33.79524 451
33.81536 438
33.83547 396
33.85559 413
33.8757 379
33.89581 408
33.91593 384
33.93604 409
33.95615 373
33.97627 408
33.99638 420
34.0165 416
34.03661 454
34.05672 456
34.07684 487
34.09695 477
34.11706 540
34.13718 530
34.15729 556
34.17741 522
34.19752 544
34.21763 510
34.23775 513
34.25786 538
34.27797 499
34.29809 509
34.3182 541
34.33831 506
34.35843 577
34.37854 508
34.39866 508
34.41877 481
34.43888 472
34.459 459
34.47911 438
34.49922 399
34.51934 429
34.53945 431
34.55957 428
34.57968 409
34.59979 371
34.61991 384
34.64002 375
34.66013 394
34.68025 403
34.70036 386
34.72047 409
34.74059 381
34.7607 411
34.78082 435
34.80093 449
34.82104 474
34.84116 485
34.86127 484
34.88138 491
34.9015 539
34.92161 482
34.94173 519
34.96184 479
34.98195 475
35.00207 470
35.02218 499
35.04229 420
35.06241 459
35.08252 492
35.10264 427
35.12275 416
35.14286 421
35.16298 448
35.18309 460
35.2032 485
35.22332 422
35.24343 459
35.26354 498
35.28366 468
35.30377 438
35.32389 462
35.344 415
35.36411 401
35.38423 456
35.40434 407
35.42445 407
35.44457 413
35.46468 382
35.4848 373
35.50491 430
35.52502 400
35.54514 376
35.56525 339
35.58536 364
35.60548 366
35.62559 383
35.64571 358
35.66582 334
35.68593 376
35.70605 300
35.72616 319
35.74627 322
35.76639 323
35.7865 317
35.80661 306
35.82673 365
35.84684 341
35.86696 335
35.88707 295
35.90718 317
35.9273 321
35.94741 342
35.96752 341
35.98764 352
36.00775 333
36.02787 355
36.04798 352
36.06809 333
36.08821 369
36.10832 354
36.12843 329
36.14855 366
36.16866 374
36.18878 362
36.20889 390
36.229 390
36.24912 395
36.26923 459
36.28934 467
36.30946 516
36.32957 528
36.34968 623
36.3698 667
36.38991 721
36.41003 742
36.43014 806
36.45025 763
36.47037 780
36.49048 775
36.51059 695
36.53071 659
36.55082 606
36.57094 559
36.59105 543
36.61116 511
36.63128 487
36.65139 485
36.6715 383
36.69162 436
36.71173 432
36.73184 449
36.75196 460
36.77207 419
36.79219 472
36.8123 428
36.83241 471
36.85253 465
36.87264 447
36.89275 462
36.91287 392
36.93298 440
36.9531 422
36.97321 393
36.99332 416
37.01344 399
37.03355 374
37.05366 387
37.07378 360
37.09389 352
37.11401 378
37.13412 413
37.15423 394
37.17435 413
37.19446 430
37.21457 449
37.23469 435
37.2548 482
37.27491 471
37.29503 500
37.31514 498
37.33526 446
37.35537 498
37.37548 470
37.3956 495
37.41571 465
37.43582 424
37.45594 430
37.47605 415
37.49617 394
37.51628 398
37.53639 414
37.55651 381
37.57662 346
37.59673 380
37.61685 372
37.63696 376
37.65708 344
37.67719 340
37.6973 351
37.71742 332
37.73753 317
37.75764 315
37.77776 296
37.79787 302
37.81798 276
37.8381 296
37.85821 260
37.87833 221
37.89844 297
37.91855 294
37.93867 279
37.95878 257
37.97889 236
37.99901 287
38.01912 264
38.03924 260
38.05935 272
38.07946 268
38.09958 314
38.11969 270
38.1398 309
38.15992 249
38.18003 265
38.20015 289
38.22026 275
38.24037 290
38.26049 281
38.2806 281
38.30071 317
38.32083 296
38.34094 317
38.36105 332
38.38117 289
38.40128 283
38.4214 298
38.44151 300
38.46162 301
38.48174 289
38.50185 324
38.52196 293
38.54208 328
38.56219 300
38.58231 299
38.60242 313
38.62253 331
38.64265 351
38.66276 342
38.68287 345
38.70299 344
38.7231 316
38.74321 337
38.76333 347
38.78344 349
38.80356 327
38.82367 318
38.84378 311
38.8639 354
38.88401 347
38.90412 370
38.92424 342
38.94435 393
38.96447 368
38.98458 376
39.00469 369
39.02481 360
39.04492 383
39.06503 387
39.08515 419
39.10526 405
39.12538 417
39.14549 444
39.1656 439
39.18572 436
39.20583 485
39.22594 519
39.24606 523
39.26617 559
39.28628 613
39.3064 611
39.32651 653
39.34663 714
39.36674 675
39.38685 627
39.40697 605
39.42708 627
39.44719 518
39.46731 502
39.48742 466
39.50754 459
39.52765 379
39.54776 403
39.56788 344
39.58799 296
39.6081 309
39.62822 287
39.64833 306
39.66845 315
39.68856 287
39.70867 281
39.72879 293
39.7489 275
39.76901 266
39.78913 280
39.80924 316
39.82935 298
39.84947 298
39.86958 311
39.8897 301
39.90981 320
39.92992 328
39.95004 335
39.97015 317
39.99026 325
40.01038 327
40.03049 360
40.05061 364
40.07072 366
40.09083 381
40.11095 410
40.13106 383
40.15117 436
40.17129 427
40.1914 430
40.21152 448
40.23163 388
40.25174 400
40.27186 377
40.29197 360
40.31208 370
40.3322 379
40.35231 306
40.37242 300
40.39254 278
40.41265 290
40.43277 305
40.45288 281
40.47299 255
40.49311 272
40.51322 283
40.53333 290
40.55345 292
40.57356 280
40.59368 283
40.61379 293
40.6339 279
40.65402 287
40.67413 314
40.69424 284
40.71436 234
40.73447 311
40.75458 279
40.7747 282
40.79481 271
40.81493 257
40.83504 273
40.85515 268
40.87527 261
40.89538 273
40.91549 303
40.93561 263
40.95572 291
40.97584 297
40.99595 265
41.01606 273
41.03618 313
41.05629 311
41.0764 319
41.09652 317
41.11663 328
41.13675 293
41.15686 325
41.17697 341
41.19709 338
41.2172 314
41.23731 332
41.25743 308
41.27754 317
41.29765 328
41.31777 294
41.33788 355
41.358 319
41.37811 319
41.39822 332
41.41834 344
41.43845 356
41.45856 360
41.47868 388
41.49879 378
41.51891 406
41.53902 375
41.55913 376
41.57925 407
41.59936 375
41.61947 410
41.63959 400
41.6597 416
41.67982 440
41.69993 376
41.72004 374
41.74016 389
41.76027 386
41.78038 374
41.8005 382
41.82061 319
41.84072 359
41.86084 338
41.88095 316
41.90107 324
41.92118 296
41.94129 291
41.96141 265
41.98152 291
42.00163 300
42.02175 298
42.04186 306
42.06198 326
42.08209 326
42.1022 355
42.12232 345
42.14243 405
42.16254 383
42.18266 399
42.20277 469
42.22289 460
42.243 484
42.26311 567
42.28323 596
42.30334 590
42.32345 610
42.34357 620
42.36368 601
42.38379 588
42.40391 574
42.42402 528
42.44414 535
42.46425 484
42.48436 495
42.50448 419
42.52459 444
42.5447 419
42.56482 391
42.58493 427
42.60505 378
42.62516 413
42.64527 408
42.66539 370
42.6855 412
42.70561 375
42.72573 391
42.74584 394
42.76595 339
42.78607 424
42.80618 356
42.8263 410
42.84641 349
42.86652 356
42.88664 319
42.90675 321
42.92686 319
42.94698 316
42.96709 307
42.98721 300
43.00732 282
43.02743 272
43.04755 281
43.06766 301
43.08777 283
43.10789 270
43.128 285
43.14812 291
43.16823 276
43.18834 284
43.20846 291
43.22857 289
43.24868 277
43.2688 279
43.28891 273
43.30902 265
43.32914 280
43.34925 279
43.36937 269
43.38948 278
43.40959 282
43.42971 281
43.44982 292
43.46993 297
43.49005 284
43.51016 297
43.53028 292
43.55039 295
43.5705 274
43.59062 312
43.61073 268
43.63084 281
43.65096 254
43.67107 244
43.69119 287
43.7113 262
43.73141 263
43.75153 246
43.77164 260
43.79175 239
43.81187 237
43.83198 240
43.85209 277
43.87221 242
43.89232 251
43.91244 269
43.93255 266
43.95266 257
43.97278 226
43.99289 255
44.013 281
44.03312 263
44.05323 266
44.07335 242
44.09346 252
44.11357 274
44.13369 268
44.1538 262
44.17391 266
44.19403 274
44.21414 276
44.23426 250
44.25437 244
44.27448 273
44.2946 262
44.31471 246
44.33482 240
44.35494 269
44.37505 253
44.39516 264
44.41528 277
44.43539 276
44.45551 264
44.47562 264
44.49573 276
44.51585 254
44.53596 276
44.55607 258
44.57619 266
44.5963 256
44.61642 250
44.63653 237
44.65664 289
44.67676 299
44.69687 273
44.71698 288
44.7371 287
44.75721 309
44.77732 303
44.79744 276
44.81755 284
44.83767 288
44.85778 291
44.87789 307
44.89801 287
44.91812 295
44.93823 307
44.95835 322
44.97846 295
44.99858 300
45.01869 295
45.0388 314
45.05892 288
45.07903 315
45.09914 305
45.11926 301
45.13937 332
45.15949 302
45.1796 335
45.19971 271
45.21983 303
45.23994 306
45.26005 283
45.28017 325
45.30028 352
45.32039 341
45.34051 275
45.36062 344
45.38074 352
45.40085 346
45.42096 336
45.44108 349
45.46119 355
45.4813 366
45.50142 372
45.52153 403
45.54165 413
45.56176 435
45.58187 427
45.60199 469
45.6221 472
45.64221 480
45.66233 490
45.68244 478
45.70256 456
45.72267 427
45.74278 432
45.7629 425
45.78301 405
45.80312 382
45.82324 324
45.84335 348
45.86346 311
45.88358 341
45.90369 276
45.92381 308
45.94392 298
45.96403 285
45.98415 266
46.00426 285
46.02437 260
46.04449 257
46.0646 296
46.08472 265
46.10483 258
46.12494 260
46.14506 260
46.16517 257
46.18528 276
46.2054 267
46.22551 250
46.24563 233
46.26574 240
46.28585 237
46.30597 266
46.32608 245
46.34619 254
46.36631 235
46.38642 230
46.40653 236
46.42665 255
46.44676 254
46.46688 261
46.48699 255
46.5071 267
46.52722 216
46.54733 237
46.56744 263
46.58756 261
46.60767 252
46.62779 245
46.6479 247
46.66801 259
46.68813 244
46.70824 215
46.72835 248
46.74847 263
46.76858 291
46.78869 248
46.80881 248
46.82892 260
46.84904 296
46.86915 277
46.88926 258
46.90938 261
46.92949 277
46.9496 218
46.96972 316
46.98983 236
47.00995 284
47.03006 271
47.05017 266
47.07029 256
47.0904 267
47.11051 273
47.13063 285
47.15074 266
47.17086 276
47.19097 253
47.21108 263
47.2312 249
47.25131 262
47.27142 277
47.29154 269
47.31165 288
47.33176 277
47.35188 284
47.37199 311
47.39211 280
47.41222 278
47.43233 252
47.45245 291
47.47256 264
47.49267 278
47.51279 250
47.5329 266
47.55302 246
47.57313 258
47.59324 287
47.61336 296
47.63347 307
47.65358 269
47.6737 257
47.69381 278
47.71393 329
47.73404 309
47.75415 277
47.77427 287
47.79438 318
47.81449 324
47.83461 315
47.85472 289
47.87483 294
47.89495 318
47.91506 315
47.93518 313
47.95529 329
47.9754 318
47.99552 337
48.01563 329
48.03574 353
48.05586 364
48.07597 304
48.09609 323
48.1162 319
48.13631 282
48.15643 301
48.17654 340
48.19665 288
48.21677 342
48.23688 320
48.257 309
48.27711 339
48.29722 342
48.31734 304
48.33745 326
48.35756 316
48.37768 287
48.39779 287
48.4179 320
48.43802 321
48.45813 318
48.47825 283
48.49836 275
48.51847 317
48.53859 287
48.5587 298
48.57881 293
48.59893 318
48.61904 289
48.63916 310
48.65927 272
48.67938 311
48.6995 284
48.71961 290
48.73972 277
48.75984 301
48.77995 293
48.80006 277
48.82018 269
48.84029 284
48.86041 312
48.88052 293
48.90063 324
48.92075 307
48.94086 301
48.96097 317
48.98109 325
49.0012 342
49.02132 351
49.04143 370
49.06154 340
49.08166 361
49.10177 359
49.12188 353
49.142 360
49.16211 338
49.18223 325
49.20234 322
49.22245 320
49.24257 303
49.26268 309
49.28279 308
49.30291 285
49.32302 276
49.34313 280
49.36325 306
49.38336 276
49.40348 269
49.42359 313
49.4437 290
49.46382 312
49.48393 333
49.50404 306
49.52416 352
49.54427 331
49.56439 362
49.5845 418
49.60461 403
49.62473 372
49.64484 394
49.66495 397
49.68507 427
49.70518 425
49.7253 463
49.74541 525
49.76552 490
49.78564 514
49.80575 574
49.82586 559
49.84598 605
49.86609 579
49.8862 653
49.90632 777
49.92643 790
49.94655 796
49.96666 834
49.98677 936
50.00689 954
50.027 948
50.04711 878
50.06723 886
50.08734 800
50.10746 780
50.12757 651
50.14768 627
50.1678 580
50.18791 511
50.20802 495
50.22814 456
50.24825 398
50.26837 367
50.28848 357
50.30859 355
50.32871 329
50.34882 316
50.36893 359
50.38905 378
50.40916 367
50.42927 400
50.44939 399
50.4695 377
50.48962 360
50.50973 389
50.52984 376
50.54996 382
50.57007 370
50.59018 340
50.6103 347
50.63041 328
50.65053 304
50.67064 328
50.69075 328
50.71087 332
50.73098 302
50.75109 309
50.77121 309
50.79132 303
50.81143 271
50.83155 292
50.85166 290
50.87178 307
50.89189 303
50.912 329
50.93212 371
50.95223 356
50.97234 349
50.99246 344
51.01257 368
51.03269 386
51.0528 375
51.07291 393
51.09303 351
51.11314 385
51.13325 336
51.15337 391
51.17348 363
51.1936 360
51.21371 348
51.23382 358
51.25394 322
51.27405 316
51.29416 296
51.31428 312
51.33439 298
51.3545 320
51.37462 265
51.39473 292
51.41485 253
51.43496 249
51.45507 265
51.47519 293
51.4953 241
51.51541 262
51.53553 239
51.55564 246
51.57576 272
51.59587 245
51.61598 234
51.6361 238
51.65621 270
51.67632 221
51.69644 249
51.71655 249
51.73667 215
51.75678 212
51.77689 251
51.79701 254
51.81712 208
51.83723 262
51.85735 241
51.87746 221
51.89757 267
51.91769 266
51.9378 231
51.95792 266
51.97803 250
51.99814 268
52.01826 255
52.03837 292
52.05848 295
52.0786 264
52.09871 284
52.11883 259
52.13894 261
52.15905 298
52.17917 281
52.19928 272
52.21939 271
52.23951 279
52.25962 279
52.27974 297
52.29985 293
52.31996 285
52.34008 297
52.36019 300
52.3803 310
52.40042 290
52.42053 296
52.44064 334
52.46076 261
52.48087 293
52.50099 294
52.5211 286
52.54121 285
52.56133 269
52.58144 293
52.60155 266
52.62167 294
52.64178 277
52.6619 321
52.68201 255
52.70212 234
52.72224 237
52.74235 263
52.76246 312
52.78258 268
52.80269 259
52.8228 293
52.84292 304
52.86303 296
52.88315 262
52.90326 291
52.92337 314
52.94349 325
52.9636 308
52.98371 300
53.00383 283
53.02394 309
53.04406 316
53.06417 349
53.08428 292
53.1044 325
53.12451 330
53.14462 326
53.16474 288
53.18485 320
53.20497 308
53.22508 313
53.24519 329
53.26531 280
53.28542 313
53.30553 259
53.32565 286
53.34576 261
53.36587 268
53.38599 232
53.4061 273
53.42622 252
53.44633 248
53.46644 289
53.48656 275
53.50667 262
53.52678 264
53.5469 277
53.56701 292
53.58713 287
53.60724 282
53.62735 287
53.64747 261
53.66758 265
53.68769 287
53.70781 304
53.72792 278
53.74804 291
53.76815 264
53.78826 270
53.80838 283
53.82849 297
53.8486 266
53.86872 285
53.88883 286
53.90894 288
53.92906 293
53.94917 299
53.96929 293
53.9894 282
54.00951 310
54.02963 295
54.04974 299
54.06985 294
54.08997 307
54.11008 289
54.1302 311
54.15031 286
54.17042 303
54.19054 291
54.21065 336
54.23076 303
54.25088 329
54.27099 348
54.29111 314
54.31122 295
54.33133 328
54.35145 318
54.37156 314
54.39167 308
54.41179 294
54.4319 294
54.45201 323
54.47213 320
54.49224 325
54.51236 331
54.53247 323
54.55258 362
54.5727 329
54.59281 355
54.61292 409
54.63304 395
54.65315 422
54.67327 454
54.69338 474
54.71349 520
54.73361 484
54.75372 474
54.77383 462
54.79395 484
54.81406 426
54.83417 460
54.85429 454
54.8744 420
54.89452 387
54.91463 423
54.93474 396
54.95486 358
54.97497 362
54.99508 341
55.0152 326
55.03531 318
55.05543 317
55.07554 330
55.09565 328
55.11577 323
55.13588 364
55.15599 360
55.17611 346
55.19622 354
55.21634 364
55.23645 350
55.25656 322
55.27668 343
55.29679 344
55.3169 371
55.33702 344
55.35713 322
55.37724 349
55.39736 324
55.41747 317
55.43759 327
55.4577 273
55.47781 258
55.49793 285
55.51804 315
55.53815 308
55.55827 272
55.57838 292
55.5985 265
55.61861 267
55.63872 293
55.65884 280
55.67895 301
55.69906 312
55.71918 299
55.73929 290
55.75941 297
55.77952 277
55.79963 306
55.81975 295
55.83986 286
55.85997 312
55.88009 327
55.9002 316
55.92031 336
55.94043 314
55.96054 323
55.98066 329
56.00077 292
56.02088 337
56.041 312
56.06111 326
56.08122 299
56.10134 305
56.12145 311
56.14157 311
56.16168 313
56.18179 306
56.20191 268
56.22202 302
56.24213 285
56.26225 252
56.28236 286
56.30248 290
56.32259 288
56.3427 281
56.36282 302
56.38293 287
56.40304 278
56.42316 314
56.44327 255
56.46338 288
56.4835 273
56.50361 283
56.52373 267
56.54384 284
56.56395 267
56.58407 263
56.60418 290
56.62429 246
56.64441 263
56.66452 266
56.68464 262
56.70475 243
56.72486 277
56.74498 279
56.76509 258
56.7852 274
56.80532 271
56.82543 300
56.84554 245
56.86566 250
56.88577 249
56.90589 250
56.926 239
56.94611 232
56.96623 247
56.98634 244
57.00645 248
57.02657 249
57.04668 227
57.0668 192
57.08691 243
57.10702 299
57.12714 250
57.14725 252
57.16736 263
57.18748 276
57.20759 258
57.22771 273
57.24782 246
57.26793 250
57.28805 249
57.30816 233
57.32827 263
57.34839 265
57.3685 247
57.38861 262
57.40873 286
57.42884 298
57.44896 255
57.46907 256
57.48918 275
57.5093 273
57.52941 251
57.54952 260
57.56964 267
57.58975 249
57.60987 260
57.62998 263
57.65009 263
57.67021 278
57.69032 289
57.71043 241
57.73055 271
57.75066 280
57.77078 271
57.79089 265
57.811 297
57.83112 290
57.85123 296
57.87134 316
57.89146 277
57.91157 285
57.93168 288
57.9518 300
57.97191 269
57.99203 275
58.01214 317
58.03225 278
58.05237 280
58.07248 307
58.09259 278
58.11271 300
58.13282 289
58.15294 297
58.17305 282
58.19316 286
58.21328 304
58.23339 281
58.2535 281
58.27362 315
58.29373 283
58.31385 294
58.33396 299
58.35407 307
58.37419 304
58.3943 266
58.41441 306
58.43453 315
58.45464 311
58.47475 276
58.49487 297
58.51498 272
58.5351 329
58.55521 302
58.57532 290
58.59544 308
58.61555 292
58.63566 309
58.65578 305
58.67589 283
58.69601 290
58.71612 269
58.73623 273
58.75635 266
58.77646 255
58.79657 265
58.81669 266
58.8368 275
58.85691 264
58.87703 251
58.89714 251
58.91726 274
58.93737 255
58.95748 242
58.9776 254
58.99771 213
59.01782 238
59.03794 280
59.05805 257
59.07817 286
59.09828 278
59.11839 274
59.13851 269
59.15862 272
59.17873 254
59.19885 245
59.21896 267
59.23908 258
59.25919 267
59.2793 269
59.29942 253
59.31953 285
59.33964 308
59.35976 255
59.37987 278
59.39998 276
59.4201 273
59.44021 299
59.46033 284
59.48044 263
59.50055 293
59.52067 312
59.54078 324
59.56089 333
59.58101 352
59.60112 350
59.62124 350
59.64135 399
59.66146 373
59.68158 420
59.70169 468
59.7218 478
59.74192 527
59.76203 592
59.78215 654
59.80226 652
59.82237 696
59.84249 675
59.8626 646
59.88271 611
59.90283 606
59.92294 550
59.94305 597
59.96317 505
59.98328 540
60.0034 522
60.02351 460
60.04362 478
60.06374 419
60.08385 389
60.10396 423
60.12408 403
60.14419 369
60.16431 371
60.18442 348
60.20453 368
60.22465 362
60.24476 350
60.26487 326
60.28499 328
60.3051 290
60.32522 353
60.34533 303
60.36544 352
60.38556 320
60.40567 305
60.42578 303
60.4459 321
60.46601 314
60.48612 285
60.50624 285
60.52635 290
60.54647 311
60.56658 270
60.58669 284
60.60681 283
60.62692 293
60.64703 235
60.66715 253
60.68726 258
60.70738 284
60.72749 274
60.7476 258
60.76772 284
60.78783 270
60.80794 254
60.82806 295
60.84817 295
60.86828 286
60.8884 300
60.90851 275
60.92863 299
60.94874 289
60.96885 303
60.98897 271
61.00908 300
61.02919 300
61.04931 294
61.06942 291
61.08954 292
61.10965 298
61.12976 306
61.14988 275
61.16999 326
61.1901 313
61.21022 283
61.23033 305
61.25045 307
61.27056 272
61.29067 275
61.31079 299
61.3309 327
61.35101 303
61.37113 329
61.39124 288
61.41135 300
61.43147 276
61.45158 291
61.4717 319
61.49181 303
61.51192 298
61.53204 297
61.55215 302
61.57226 298
61.59238 325
61.61249 278
61.63261 292
61.65272 295
61.67283 288
61.69295 312
61.71306 275
61.73317 271
61.75329 309
61.7734 254
61.79352 298
61.81363 276
61.83374 296
61.85386 285
61.87397 282
61.89408 278
61.9142 265
61.93431 269
61.95442 283
61.97454 304
61.99465 242
62.01477 245
62.03488 272
62.05499 282
62.07511 273
62.09522 272
62.11533 251
62.13545 292
62.15556 271
62.17568 269
62.19579 275
62.2159 279
62.23602 278
62.25613 262
62.27624 257
62.29636 256
62.31647 253
62.33659 271
62.3567 245
62.37681 239
62.39693 256
62.41704 227
62.43715 243
62.45727 263
62.47738 251
62.49749 242
62.51761 248
62.53772 265
62.55784 264
62.57795 261
62.59806 249
62.61818 280
62.63829 273
62.6584 262
62.67852 230
62.69863 243
62.71875 286
62.73886 286
62.75897 254
62.77909 255
62.7992 260
62.81931 274
62.83943 254
62.85954 255
62.87965 303
62.89977 287
62.91988 256
62.94 259
62.96011 257
62.98022 292
63.00034 260
63.02045 277
63.04056 288
63.06068 278
63.08079 244
63.10091 254
63.12102 271
63.14113 266
63.16125 304
63.18136 294
63.20147 271
63.22159 284
63.2417 282
63.26182 271
63.28193 304
63.30204 294
63.32216 285
63.34227 320
63.36238 300
63.3825 307
63.40261 309
63.42272 325
63.44284 330
63.46295 341
63.48307 327
63.50318 370
63.52329 324
63.54341 326
63.56352 374
63.58363 375
63.60375 350
63.62386 352
63.64398 375
63.66409 371
63.6842 383
63.70432 339
63.72443 368
63.74454 413
63.76466 391
63.78477 375
63.80489 373
63.825 406
63.84511 370
63.86523 407
63.88534 369
63.90545 371
63.92557 360
63.94568 382
63.96579 322
63.98591 344
64.00602 336
64.02614 313
64.04625 293
64.06636 316
64.08648 294
64.10659 291
64.1267 315
64.14682 337
64.16693 250
64.18705 282
64.20716 249
64.22727 288
64.24739 278
64.2675 246
64.28761 240
64.30773 270
64.32784 275
64.34796 243
64.36807 267
64.38818 243
64.4083 257
64.42841 260
64.44852 259
64.46864 259
64.48875 277
64.50886 288
64.52898 270
64.54909 263
64.56921 282
64.58932 255
64.60943 289
64.62955 279
64.64966 268
64.66977 312
64.68989 312
64.71 269
64.73012 276
64.75023 311
64.77034 246
64.79046 263
64.81057 251
64.83068 265
64.8508 275
64.87091 295
64.89102 286
64.91114 287
64.93125 298
64.95137 285
64.97148 297
64.99159 251
65.01171 256
65.03182 327
65.05193 287
65.07205 286
65.09216 316
65.11228 313
65.13239 274
65.1525 255
65.17262 281
65.19273 298
65.21284 293
65.23296 287
65.25307 287
65.27319 303
65.2933 281
65.31341 286
65.33353 275
65.35364 288
65.37375 251
65.39387 277
65.41398 259
65.43409 239
65.45421 268
65.47432 261
65.49444 303
65.51455 273
65.53466 261
65.55478 267
65.57489 267
65.595 242
65.61512 252
65.63523 273
65.65535 255
65.67546 245
65.69557 249
65.71569 269
65.7358 260
65.75591 246
65.77603 262
65.79614 256
65.81626 277
65.83637 264
65.85648 291
65.8766 281
65.89671 258
65.91682 257
65.93694 259
65.95705 265
65.97716 274
65.99728 243
66.01739 247
66.03751 247
66.05762 235
66.07773 272
66.09785 246
66.11796 269
66.13807 302
66.15819 275
66.1783 272
66.19842 287
66.21853 266
66.23864 261
66.25876 249
66.27887 256
66.29898 284
66.3191 281
66.33921 283
66.35933 264
66.37944 270
66.39955 272
66.41967 271
66.43978 282
66.45989 259
66.48001 270
66.50012 273
66.52023 267
66.54035 268
66.56046 259
66.58058 229
66.60069 256
66.6208 259
66.64092 252
66.66103 253
66.68114 229
66.70126 251
66.72137 279
66.74149 267
66.7616 293
66.78171 268
66.80183 260
66.82194 276
66.84205 261
66.86217 278
66.88228 282
66.90239 306
66.92251 303
66.94262 293
66.96274 297
66.98285 285
67.00296 277
67.02308 329
67.04319 307
67.0633 295
67.08342 280
67.10353 296
67.12365 298
67.14376 314
67.16387 279
67.18399 305
67.2041 285
67.22421 310
67.24433 302
67.26444 263
67.28456 298
67.30467 330
67.32478 286
67.3449 306
67.36501 309
67.38512 348
67.40524 304
67.42535 364
67.44546 319
67.46558 348
67.48569 386
67.50581 411
67.52592 435
67.54603 439
67.56615 489
67.58626 516
67.60637 528
67.62649 538
67.6466 475
67.66672 505
67.68683 442
67.70694 458
67.72706 428
67.74717 446
67.76728 457
67.7874 493
67.80751 454
67.82763 459
67.84774 483
67.86785 462
67.88797 478
67.90808 483
67.92819 515
67.94831 548
67.96842 558
67.98853 587
68.00865 597
68.02876 657
68.04888 615
68.06899 595
68.0891 604
68.10922 576
68.12933 578
68.14944 611
68.16956 591
68.18967 585
68.20979 558
68.2299 534
68.25001 474
68.27013 463
68.29024 416
68.31035 429
68.33047 425
68.35058 424
68.3707 349
68.39081 340
68.41092 370
68.43104 340
68.45115 324
68.47126 308
68.49138 291
68.51149 263
68.5316 287
68.55172 283
68.57183 265
68.59195 278
68.61206 290
68.63217 295
68.65229 285
68.6724 282
68.69251 256
68.71263 267
68.73274 232
68.75286 278
68.77297 252
68.79308 273
68.8132 294
68.83331 259
68.85342 262
68.87354 265
68.89365 275
68.91376 253
68.93388 313
68.95399 258
68.97411 291
68.99422 294
69.01433 261
69.03445 269
69.05456 271
69.07467 308
69.09479 281
69.1149 263
69.13502 260
69.15513 256
69.17524 303
69.19536 299
69.21547 280
69.23558 300
69.2557 290
69.27581 314
69.29593 277
69.31604 313
69.33615 316
69.35627 287
69.37638 334
69.39649 342
69.41661 330
69.43672 306
69.45683 286
69.47695 282
69.49706 295
69.51718 329
69.53729 306
69.5574 294
69.57752 293
69.59763 286
69.61774 283
69.63786 288
69.65797 306
69.67809 292
69.6982 278
69.71831 258
69.73843 306
69.75854 274
69.77865 285
69.79877 317
69.81888 281
69.839 288
69.85911 264
69.87922 281
69.89934 265
69.91945 262
69.93956 229
69.95968 269
69.97979 264
69.9999 237
70.02002 277
70.04013 240
70.06025 251
70.08036 257
70.10047 235
70.12059 223
70.1407 222
70.16081 249
70.18093 239
70.20104 231
70.22116 222
70.24127 233
70.26138 193
70.2815 238
70.30161 243
70.32172 232
70.34184 216
70.36195 214
70.38207 224
70.40218 233
70.42229 247
70.44241 240
70.46252 237
70.48263 242
70.50275 270
70.52286 214
70.54297 229
70.56309 255
70.5832 219
70.60332 241
70.62343 264
70.64354 261
70.66366 256
70.68377 280
70.70388 255
70.724 266
70.74411 268
70.76423 272
70.78434 258
70.80445 271
70.82457 295
70.84468 258
70.86479 265
70.88491 278
70.90502 283
70.92513 250
70.94525 291
70.96536 240
70.98548 261
71.00559 247
71.0257 279
71.04582 273
71.06593 269
71.08604 252
71.10616 257
71.12627 242
71.14639 251
71.1665 277
71.18661 262
71.20673 293
71.22684 272
71.24695 284
71.26707 259
71.28718 290
71.3073 240
71.32741 236
71.34752 281
71.36764 256
71.38775 264
71.40786 254
71.42798 231
71.44809 251
71.4682 236
71.48832 231
71.50843 256
71.52855 261
71.54866 270
71.56877 230
71.58889 234
71.609 225
71.62911 235
71.64923 225
71.66934 243
71.68946 248
71.70957 237
71.72968 219
71.7498 236
71.76991 260
71.79002 237
71.81014 229
71.83025 223
71.85037 233
71.87048 251
71.89059 225
71.91071 254
71.93082 272
71.95093 245
71.97105 243
71.99116 242
72.01127 245
72.03139 262
72.0515 236
72.07162 257
72.09173 228
72.11184 261
72.13196 231
72.15207 237
72.17218 245
72.1923 232
72.21241 241
72.23253 228
72.25264 248
72.27275 234
72.29287 237
72.31298 237
72.33309 227
72.35321 229
72.37332 234
72.39344 240
72.41355 265
72.43366 236
72.45378 255
72.47389 237
72.494 222
72.51412 250
72.53423 248
72.55434 237
72.57446 290
72.59457 228
72.61469 265
72.6348 256
72.65491 267
72.67503 257
72.69514 260
72.71525 195
72.73537 238
72.75548 247
72.7756 255
72.79571 263
72.81582 264
72.83594 272
72.85605 229
72.87616 259
72.89628 254
72.91639 277
72.9365 249
72.95662 242
72.97673 258
72.99685 266
73.01696 218
73.03707 270
73.05719 235
73.0773 271
73.09741 242
73.11753 301
73.13764 254
73.15776 268
73.17787 265
73.19798 276
73.2181 296
73.23821 319
73.25832 300
73.27844 306
73.29855 309
73.31867 279
73.33878 322
73.35889 326
73.37901 325
73.39912 309
73.41923 279
73.43935 311
73.45946 281
73.47957 289
73.49969 294
73.5198 295
73.53992 299
73.56003 259
73.58014 262
73.60026 289
73.62037 282
73.64048 275
73.6606 253
73.68071 248
73.70083 273
73.72094 228
73.74105 257
73.76117 244
73.78128 265
73.80139 277
73.82151 266
73.84162 284
73.86174 274
73.88185 263
73.90196 251
73.92208 240
73.94219 262
73.9623 258
73.98242 284
74.00253 272
74.02264 258
74.04276 234
74.06287 279
74.08299 259
74.1031 260
74.12321 239
74.14333 233
74.16344 249
74.18355 232
74.20367 251
74.22378 248
74.2439 263
74.26401 253
74.28412 251
74.30424 240
74.32435 229
74.34446 270
74.36458 251
74.38469 229
74.40481 246
74.42492 249
74.44503 277
74.46515 257
74.48526 272
74.50537 260
74.52549 241
74.5456 288
74.56571 306
74.58583 273
74.60594 268
74.62606 285
74.64617 291
74.66628 320
74.6864 255
74.70651 278
74.72662 307
74.74674 280
74.76685 272
74.78697 293
74.80708 313
74.82719 295
74.84731 281
74.86742 256
74.88753 268
74.90765 249
74.92776 281
74.94787 270
74.96799 268
74.9881 253
75.00822 278
