3.00117 20730
3.02128 20173
3.0414 19626
3.06151 18990
3.08162 18546
3.10174 17683
3.12185 17506
3.14197 17108
3.16208 16433
3.18219 16087
3.20231 15310
3.22242 15261
3.24253 14700
3.26265 13967
3.28276 13825
3.30288 13242
3.32299 13249
3.3431 12595
3.36322 12019
3.38333 11676
3.40344 11202
3.42356 11189
3.44367 10528
3.46379 10174
3.4839 10083
3.50401 9423
3.52413 9326
3.54424 8625
3.56435 8586
3.58447 8412
3.60458 7848
3.62469 7729
3.64481 7304
3.66492 7048
3.68504 6944
3.70515 6583
3.72526 6454
3.74538 5999
3.76549 5822
3.7856 5809
3.80572 5321
3.82583 5263
3.84595 4864
3.86606 4775
3.88617 4642
3.90629 4514
3.9264 4306
3.94651 3998
3.96663 3854
3.98674 3788
4.00686 3562
4.02697 3505
4.04708 3140
4.0672 3153
4.08731 3053
4.10742 2984
4.12754 2911
4.14765 2541
4.16776 2453
4.18788 2463
4.20799 2380
4.22811 2268
4.24822 2111
4.26833 2002
4.28845 2091
4.30856 2003
4.32867 1942
4.34879 1805
4.3689 1837
4.38902 1863
4.40913 1827
4.42924 1721
4.44936 1659
4.46947 1629
4.48958 1591
4.5097 1576
4.52981 1493
4.54992 1410
4.57004 1387
4.59015 1411
4.61027 1447
4.63038 1314
4.65049 1294
4.67061 1322
4.69072 1276
4.71083 1282
4.73095 1208
4.75106 1221
4.77118 1136
4.79129 1158
4.8114 1153
4.83152 1053
4.85163 1058
4.87174 995
4.89186 977
4.91197 1018
4.93209 1001
4.9522 949
4.97231 937
4.99243 904
5.01254 989
5.03265 908
5.05277 921
5.07288 899
5.09299 764
5.11311 778
5.13322 777
5.15334 819
5.17345 810
5.19356 723
5.21368 779
5.23379 676
5.2539 743
5.27402 669
5.29413 647
5.31425 751
5.33436 606
5.35447 638
5.37459 584
5.3947 701
5.41481 613
5.43493 590
5.45504 562
5.47516 613
5.49527 572
5.51538 558
5.5355 512
5.55561 548
5.57572 553
5.59584 544
5.61595 546
5.63606 507
5.65618 501
5.67629 515
5.69641 475
5.71652 539
5.73663 471
5.75675 506
5.77686 487
5.79697 469
5.81709 486
5.8372 464
5.85732 464
5.87743 448
5.89754 440
5.91766 454
5.93777 439
5.95788 444
5.978 388
5.99811 427
6.01823 414
6.03834 436
6.05845 437
6.07857 405
6.09868 416
6.11879 408
6.13891 453
6.15902 419
6.17913 386
6.19925 368
6.21936 363
6.23948 402
6.25959 368
6.2797 406
6.29982 393
6.31993 423
6.34004 388
6.36016 378
6.38027 403
6.40039 420
6.4205 372
6.44061 453
6.46073 360
6.48084 388
6.50095 340
6.52107 385
6.54118 356
6.56129 385
6.58141 372
6.60152 402
6.62164 395
6.64175 382
6.66186 368
6.68198 358
6.70209 394
6.7222 353
6.74232 367
6.76243 317
6.78255 359
6.80266 359
6.82277 341
6.84289 364
6.863 338
6.88311 337
6.90323 361
6.92334 395
6.94346 324
6.96357 374
6.98368 342
7.0038 368
7.02391 347
7.04402 394
7.06414 382
7.08425 334
7.10436 386
7.12448 353
7.14459 421
7.16471 309
7.18482 372
7.20493 339
7.22505 354
7.24516 335
7.26527 324
7.28539 363
7.3055 355
7.32562 343
7.34573 349
7.36584 332
7.38596 375
7.40607 342
7.42618 328
7.4463 334
7.46641 379
7.48653 371
7.50664 339
7.52675 365
7.54687 360
7.56698 351
7.58709 373
7.60721 353
7.62732 368
7.64743 335
7.66755 373
7.68766 371
7.70778 378
7.72789 320
7.748 329
7.76812 334
7.78823 353
7.80834 332
7.82846 347
7.84857 315
7.86869 354
7.8888 375
7.90891 362
7.92903 336
7.94914 339
7.96925 345
7.98937 324
8.00948 337
8.0296 359
8.04971 343
8.06982 365
8.08994 357
8.11005 324
8.13016 336
8.15028 347
8.17039 405
8.1905 326
8.21062 333
8.23073 358
8.25085 382
8.27096 336
8.29107 398
8.31119 314
8.3313 337
8.35141 362
8.37153 330
8.39164 365
8.41176 349
8.43187 372
8.45198 347
8.4721 363
8.49221 347
8.51232 354
8.53244 384
8.55255 359
8.57266 378
8.59278 344
8.61289 329
8.63301 371
8.65312 354
8.67323 385
8.69335 331
8.71346 344
8.73357 368
8.75369 374
8.7738 372
8.79392 441
8.81403 400
8.83414 330
8.85426 370
8.87437 351
8.89448 369
8.9146 388
8.93471 333
8.95483 351
8.97494 354
8.99505 369
9.01517 356
9.03528 345
9.05539 386
9.07551 337
9.09562 300
9.11573 335
9.13585 347
9.15596 352
9.17608 318
9.19619 336
9.2163 344
9.23642 357
9.25653 355
9.27664 363
9.29676 313
9.31687 325
9.33699 330
9.3571 390
9.37721 361
9.39733 360
9.41744 336
9.43755 344
9.45767 388
9.47778 373
9.4979 329
9.51801 322
9.53812 348
9.55824 345
9.57835 339
9.59846 344
9.61858 343
9.63869 370
9.6588 358
9.67892 336
9.69903 329
9.71915 353
9.73926 335
9.75937 363
9.77949 339
9.7996 301
9.81971 343
9.83983 349
9.85994 378
9.88006 319
9.90017 359
9.92028 341
9.9404 325
9.96051 388
9.98062 341
10.00074 360
10.02085 375
10.04097 382
10.06108 356
10.08119 335
10.10131 367
10.12142 323
10.14153 317
10.16165 340
10.18176 360
10.20187 353
10.22199 366
10.2421 308
10.26222 345
10.28233 350
10.30244 354
10.32256 369
10.34267 362
10.36278 320
10.3829 353
10.40301 319
10.42313 342
10.44324 343
10.46335 306
10.48347 351
10.50358 328
10.52369 323
10.54381 341
10.56392 364
10.58403 322
10.60415 392
10.62426 332
10.64438 332
10.66449 368
10.6846 326
10.70472 370
10.72483 316
10.74494 352
10.76506 313
10.78517 348
10.80529 351
10.8254 356
10.84551 361
10.86563 345
10.88574 348
10.90585 381
10.92597 382
10.94608 349
10.9662 378
10.98631 337
11.00642 374
11.02654 377
11.04665 359
11.06676 353
11.08688 337
11.10699 349
11.1271 353
11.14722 372
11.16733 349
11.18745 345
11.20756 368
11.22767 394
11.24779 376
11.2679 347
11.28801 377
11.30813 323
11.32824 399
11.34836 352
11.36847 377
11.38858 406
11.4087 359
11.42881 355
11.44892 367
11.46904 375
11.48915 409
11.50927 429
11.52938 410
11.54949 434
11.56961 413
11.58972 393
11.60983 372
11.62995 414
11.65006 445
11.67017 446
11.69029 468
11.7104 484
11.73052 449
11.75063 470
11.77074 410
11.79086 522
11.81097 441
11.83108 482
11.8512 482
11.87131 529
11.89143 532
11.91154 559
11.93165 589
11.95177 602
11.97188 575
11.99199 648
12.01211 677
12.03222 677
12.05234 736
12.07245 748
12.09256 768
12.11268 881
12.13279 855
12.1529 928
12.17302 955
12.19313 998
12.21324 978
12.23336 1068
12.25347 1046
12.27359 1138
12.2937 1059
12.31381 1126
12.33393 1085
12.35404 1001
12.37415 1053
12.39427 967
12.41438 958
12.4345 920
12.45461 855
12.47472 843
12.49484 759
12.51495 743
12.53506 690
12.55518 649
12.57529 569
12.5954 618
12.61552 541
12.63563 515
12.65575 523
12.67586 536
12.69597 490
12.71609 477
12.7362 394
12.75631 434
12.77643 432
12.79654 429
12.81666 447
12.83677 400
12.85688 352
12.877 372
12.89711 389
12.91722 351
12.93734 371
12.95745 362
12.97757 349
12.99768 356
13.01779 361
13.03791 347
13.05802 336
13.07813 342
13.09825 346
13.11836 311
13.13847 325
13.15859 335
13.1787 324
13.19882 311
13.21893 314
13.23904 332
13.25916 303
13.27927 319
13.29938 317
13.3195 335
13.33961 284
13.35973 324
13.37984 291
13.39995 362
13.42007 313
13.44018 321
13.46029 315
13.48041 302
13.50052 323
13.52064 302
13.54075 310
13.56086 284
13.58098 333
13.60109 302
13.6212 318
13.64132 333
13.66143 293
13.68154 335
13.70166 305
13.72177 315
13.74189 290
13.762 272
13.78211 333
13.80223 278
13.82234 267
13.84245 323
13.86257 293
13.88268 312
13.9028 279
13.92291 287
13.94302 305
13.96314 267
13.98325 279
14.00336 282
14.02348 310
14.04359 290
14.06371 288
14.08382 273
14.10393 284
14.12405 320
14.14416 288
14.16427 259
14.18439 263
14.2045 293
14.22461 274
14.24473 293
14.26484 324
14.28496 293
14.30507 299
14.32518 267
14.3453 284
14.36541 318
14.38552 262
14.40564 292
14.42575 308
14.44587 277
14.46598 278
14.48609 289
14.50621 264
14.52632 298
14.54643 301
14.56655 288
14.58666 303
14.60677 274
14.62689 291
14.647 274
14.66712 282
14.68723 274
14.70734 281
14.72746 277
14.74757 289
14.76768 305
14.7878 275
14.80791 260
14.82803 281
14.84814 288
14.86825 306
14.88837 281
14.90848 299
14.92859 274
14.94871 307
14.96882 307
14.98894 280
15.00905 321
15.02916 284
15.04928 250
15.06939 262
15.0895 263
15.10962 289
15.12973 260
15.14984 284
15.16996 272
15.19007 278
15.21019 287
15.2303 278
15.25041 255
15.27053 274
15.29064 280
15.31075 252
15.33087 241
15.35098 283
15.3711 303
15.39121 326
15.41132 264
15.43144 285
15.45155 274
15.47166 288
15.49178 283
15.51189 249
15.53201 263
15.55212 286
15.57223 296
15.59235 273
15.61246 299
15.63257 249
15.65269 295
15.6728 280
15.69291 258
15.71303 274
15.73314 285
15.75326 293
15.77337 261
15.79348 289
15.8136 260
15.83371 285
15.85382 283
15.87394 263
15.89405 264
15.91417 244
15.93428 287
15.95439 262
15.97451 281
15.99462 241
16.01473 271
16.03485 303
16.05496 284
16.07508 260
16.09519 287
16.1153 266
16.13542 300
16.15553 270
16.17564 301
16.19576 261
16.21587 273
16.23598 272
16.2561 267
16.27621 238
16.29633 254
16.31644 293
16.33655 277
16.35667 258
16.37678 248
16.39689 266
16.41701 270
16.43712 282
16.45724 300
16.47735 270
16.49746 275
16.51758 262
16.53769 285
16.5578 267
16.57792 295
16.59803 290
16.61814 265
16.63826 282
16.65837 268
16.67849 287
16.6986 265
16.71871 275
16.73883 271
16.75894 275
16.77905 251
16.79917 271
16.81928 282
16.8394 278
16.85951 270
16.87962 305
16.89974 264
16.91985 266
16.93996 295
16.96008 293
16.98019 247
17.00031 286
17.02042 282
17.04053 279
17.06065 255
17.08076 298
17.10087 281
17.12099 282
17.1411 309
17.16121 318
17.18133 255
17.20144 278
17.22156 270
17.24167 301
17.26178 298
17.2819 324
17.30201 312
17.32212 262
17.34224 253
17.36235 294
17.38247 246
17.40258 325
17.42269 265
17.44281 257
17.46292 264
17.48303 288
17.50315 304
17.52326 288
17.54338 280
17.56349 254
17.5836 287
17.60372 265
17.62383 294
17.64394 285
17.66406 272
17.68417 289
17.70428 310
17.7244 321
17.74451 311
17.76463 301
17.78474 294
17.80485 305
17.82497 306
17.84508 312
17.86519 301
17.88531 340
17.90542 272
17.92554 298
17.94565 336
17.96576 338
17.98588 290
18.00599 334
18.0261 314
18.04622 334
18.06633 361
18.08645 366
18.10656 387
18.12667 396
18.14679 420
18.1669 480
18.18701 548
18.20713 634
18.22724 681
18.24735 762
18.26747 806
18.28758 914
18.3077 839
18.32781 765
18.34792 686
18.36804 567
18.38815 512
18.40826 503
18.42838 420
18.44849 396
18.46861 395
18.48872 376
18.50883 322
18.52895 347
18.54906 320
18.56917 340
18.58929 330
18.6094 310
18.62951 318
18.64963 292
18.66974 286
18.68986 311
18.70997 305
18.73008 308
18.7502 329
18.77031 297
18.79042 332
18.81054 307
18.83065 311
18.85077 287
18.87088 288
18.89099 297
18.91111 302
18.93122 309
18.95133 328
18.97145 312
18.99156 299
19.01168 281
19.03179 280
19.0519 308
19.07202 299
19.09213 308
19.11224 301
19.13236 312
19.15247 306
19.17258 330
19.1927 335
19.21281 322
19.23293 306
19.25304 345
19.27315 281
19.29327 321
19.31338 317
19.33349 350
19.35361 331
19.37372 341
19.39384 317
19.41395 370
19.43406 315
19.45418 335
19.47429 368
19.4944 368
19.51452 443
19.53463 373
19.55475 386
19.57486 421
19.59497 403
19.61509 460
19.6352 449
19.65531 487
19.67543 529
19.69554 590
19.71565 561
19.73577 612
19.75588 713
19.776 787
19.79611 861
19.81622 898
19.83634 883
19.85645 931
19.87656 875
19.89668 920
19.91679 898
19.93691 927
19.95702 947
19.97713 866
19.99725 890
20.01736 837
20.03747 872
20.05759 900
20.0777 829
20.09782 880
20.11793 921
20.13804 914
20.15816 880
20.17827 868
20.19838 881
20.2185 903
20.23861 984
20.25872 987
20.27884 926
20.29895 951
20.31907 995
20.33918 981
20.35929 944
20.37941 934
20.39952 935
20.41963 925
20.43975 879
20.45986 911
20.47998 879
20.50009 917
20.5202 926
20.54032 903
20.56043 869
20.58054 891
20.60066 998
20.62077 909
20.64088 978
20.661 1101
20.68111 1238
20.70123 1437
20.72134 1675
20.74145 2059
20.76157 2584
20.78168 3226
20.80179 3736
20.82191 4021
20.84202 4011
20.86214 3672
20.88225 2983
20.90236 2500
20.92248 1794
20.94259 1391
20.9627 1144
20.98282 986
21.00293 1005
21.02305 1001
21.04316 934
21.06327 903
21.08339 838
21.1035 850
21.12361 830
21.14373 777
21.16384 763
21.18395 778
21.20407 743
21.22418 727
21.2443 741
21.26441 702
21.28452 696
21.30464 753
21.32475 787
21.34486 748
21.36498 697
21.38509 729
21.40521 733
21.42532 675
21.44543 780
21.46555 743
21.48566 740
21.50577 740
21.52589 721
21.546 776
21.56612 682
21.58623 679
21.60634 705
21.62646 690
21.64657 642
21.66668 670
21.6868 665
21.70691 636
21.72702 558
21.74714 610
21.76725 605
21.78737 574
21.80748 540
21.82759 618
21.84771 573
21.86782 583
21.88793 529
21.90805 554
21.92816 533
21.94828 556
21.96839 574
21.9885 490
22.00862 547
22.02873 496
22.04884 563
22.06896 477
22.08907 573
22.10919 556
22.1293 542
22.14941 560
22.16953 535
22.18964 503
22.20975 508
22.22987 567
22.24998 536
22.27009 524
22.29021 509
22.31032 555
22.33044 468
22.35055 492
22.37066 491
22.39078 546
22.41089 501
22.431 511
22.45112 446
22.47123 447
22.49135 496
22.51146 470
22.53157 471
22.55169 500
22.5718 501
22.59191 553
22.61203 474
22.63214 495
22.65225 476
22.67237 482
22.69248 480
22.7126 448
22.73271 486
22.75282 517
22.77294 466
22.79305 473
22.81316 471
22.83328 433
22.85339 469
22.87351 434
22.89362 455
22.91373 432
22.93385 447
22.95396 465
22.97407 461
22.99419 509
23.0143 472
23.03442 442
23.05453 476
23.07464 474
23.09476 454
23.11487 533
23.13498 501
23.1551 532
23.17521 507
23.19532 511
23.21544 435
23.23555 457
23.25567 444
23.27578 391
23.29589 446
23.31601 391
23.33612 478
23.35623 412
23.37635 435
23.39646 421
23.41658 413
23.43669 398
23.4568 409
23.47692 425
23.49703 393
23.51714 442
23.53726 415
23.55737 412
23.57749 436
23.5976 440
23.61771 425
23.63783 459
23.65794 449
23.67805 443
23.69817 448
23.71828 432
23.73839 485
23.75851 463
23.77862 440
23.79874 476
23.81885 426
23.83896 497
23.85908 444
23.87919 453
23.8993 521
23.91942 492
23.93953 529
23.95965 539
23.97976 532
23.99987 583
24.01999 537
24.0401 524
24.06021 500
24.08033 458
24.10044 474
24.12056 503
24.14067 467
24.16078 483
24.1809 456
24.20101 511
24.22112 479
24.24124 528
24.26135 456
24.28146 518
24.30158 517
24.32169 560
24.34181 531
24.36192 534
24.38203 511
24.40215 509
24.42226 523
24.44237 573
24.46249 607
24.4826 580
24.50272 626
24.52283 624
24.54294 682
24.56306 681
24.58317 675
24.60328 716
24.6234 698
24.64351 788
24.66362 815
24.68374 802
24.70385 829
24.72397 920
24.74408 846
24.76419 896
24.78431 911
24.80442 930
24.82453 942
24.84465 926
24.86476 975
24.88488 858
24.90499 891
24.9251 878
24.94522 909
24.96533 832
24.98544 800
25.00556 770
25.02567 798
25.04579 711
25.0659 757
25.08601 759
25.10613 712
25.12624 697
25.14635 670
25.16647 687
25.18658 660
25.20669 679
25.22681 640
25.24692 702
25.26704 608
25.28715 631
25.30726 639
25.32738 597
25.34749 572
25.3676 587
25.38772 562
25.40783 584
25.42795 561
25.44806 586
25.46817 543
25.48829 567
25.5084 548
25.52851 587
25.54863 511
25.56874 519
25.58886 569
25.60897 529
25.62908 553
25.6492 527
25.66931 540
25.68942 561
25.70954 530
25.72965 558
25.74976 532
25.76988 538
25.78999 548
25.81011 528
25.83022 579
25.85033 536
25.87045 532
25.89056 508
25.91067 537
25.93079 575
25.9509 554
25.97102 547
25.99113 586
26.01124 542
26.03136 593
26.05147 563
26.07158 587
26.0917 641
26.11181 670
26.13193 693
26.15204 726
26.17215 742
26.19227 738
26.21238 751
26.23249 779
26.25261 858
26.27272 906
26.29283 984
26.31295 1100
26.33306 1078
26.35318 1253
26.37329 1480
26.3934 1694
26.41352 1964
26.43363 2429
26.45374 3069
26.47386 3903
26.49397 5247
26.51409 7125
26.5342 9519
26.55431 11882
26.57443 14395
26.59454 15862
26.61465 15562
26.63477 14563
26.65488 12279
26.67499 9563
26.69511 7230
26.71522 5091
26.73534 3391
26.75545 2298
26.77556 1683
26.79568 1399
26.81579 1221
26.8359 1059
26.85602 1010
26.87613 985
26.89625 902
26.91636 890
26.93647 803
26.95659 785
26.9767 766
26.99681 733
27.01693 773
27.03704 717
27.05716 656
27.07727 641
27.09738 561
27.1175 592
27.13761 564
27.15772 532
27.17784 587
27.19795 505
27.21806 558
27.23818 503
27.25829 502
27.27841 554
27.29852 588
27.31863 619
27.33875 613
27.35886 643
27.37897 688
27.39909 690
27.4192 663
27.43932 611
27.45943 665
27.47954 656
27.49966 612
27.51977 534
27.53988 537
27.56 472
27.58011 472
27.60023 490
27.62034 419
27.64045 467
27.66057 431
27.68068 446
27.70079 397
27.72091 452
27.74102 405
27.76113 436
27.78125 433
27.80136 436
27.82148 395
27.84159 373
27.8617 423
27.88182 439
27.90193 402
27.92204 428
27.94216 399
27.96227 433
27.98239 399
28.0025 417
28.02261 368
28.04273 387
28.06284 399
28.08295 351
28.10307 325
28.12318 359
28.1433 368
28.16341 379
28.18352 361
28.20364 350
28.22375 343
28.24386 331
28.26398 377
28.28409 348
28.3042 375
28.32432 382
28.34443 346
28.36455 333
28.38466 338
28.40477 372
28.42489 381
28.445 360
28.46511 329
28.48523 373
28.50534 394
28.52546 376
28.54557 353
28.56568 373
28.5858 319
28.60591 351
28.62602 328
28.64614 364
28.66625 387
28.68636 336
28.70648 387
28.72659 349
28.74671 326
28.76682 315
28.78693 332
28.80705 333
28.82716 365
28.84727 321
28.86739 330
28.8875 342
28.90762 355
28.92773 320
28.94784 325
28.96796 359
28.98807 349
29.00818 320
29.0283 332
29.04841 336
29.06853 342
29.08864 361
29.10875 359
29.12887 348
29.14898 328
29.16909 348
29.18921 351
29.20932 343
29.22943 378
29.24955 376
29.26966 327
29.28978 357
29.30989 358
29.33 334
29.35012 344
29.37023 371
29.39034 364
29.41046 373
29.43057 357
29.45069 360
29.4708 365
29.49091 360
29.51103 366
29.53114 367
29.55125 343
29.57137 326
29.59148 346
29.6116 364
29.63171 308
29.65182 310
29.67194 333
29.69205 313
29.71216 337
29.73228 342
29.75239 339
29.7725 332
29.79262 367
29.81273 342
29.83285 348
29.85296 350
29.87307 337
29.89319 348
29.9133 313
29.93341 322
29.95353 367
29.97364 355
29.99376 355
30.01387 327
30.03398 338
30.0541 321
30.07421 343
30.09432 354
30.11444 350
30.13455 385
30.15467 351
30.17478 353
30.19489 386
30.21501 395
30.23512 352
30.25523 364
30.27535 343
30.29546 311
30.31557 349
30.33569 311
30.3558 314
30.37592 355
30.39603 288
30.41614 312
30.43626 311
30.45637 338
30.47648 322
30.4966 304
30.51671 322
30.53683 313
30.55694 352
30.57705 339
30.59717 315
30.61728 311
30.63739 356
30.65751 342
30.67762 359
30.69773 392
30.71785 342
30.73796 352
30.75808 347
30.77819 363
30.7983 352
30.81842 371
30.83853 337
30.85864 314
30.87876 315
30.89887 346
30.91899 310
30.9391 320
30.95921 301
30.97933 301
30.99944 316
31.01955 295
31.03967 318
31.05978 310
31.0799 310
31.10001 307
31.12012 330
31.14024 318
31.16035 324
31.18046 315
31.20058 342
31.22069 317
31.2408 318
31.26092 338
31.28103 299
31.30115 319
31.32126 296
31.34137 282
31.36149 283
31.3816 276
31.40171 305
31.42183 280
31.44194 297
31.46206 291
31.48217 308
31.50228 320
31.5224 273
31.54251 288
31.56262 271
31.58274 283
31.60285 328
31.62297 306
31.64308 307
31.66319 272
31.68331 293
31.70342 302
31.72353 320
31.74365 303
31.76376 294
31.78387 274
31.80399 305
31.8241 275
31.84422 280
31.86433 288
31.88444 309
31.90456 281
31.92467 280
31.94478 320
31.9649 266
31.98501 301
32.00513 308
32.02524 308
32.04535 299
32.06547 291
32.08558 287
32.10569 291
32.12581 305
32.14592 322
32.16604 298
32.18615 304
32.20626 304
32.22638 291
32.24649 311
32.2666 311
32.28672 296
32.30683 295
32.32694 300
32.34706 316
32.36717 321
32.38729 312
32.4074 284
32.42751 305
32.44763 284
32.46774 309
32.48785 309
32.50797 295
32.52808 314
32.5482 311
32.56831 324
32.58842 295
32.60854 288
32.62865 297
32.64876 305
32.66888 321
32.68899 319
32.7091 330
32.72922 301
32.74933 329
32.76945 294
32.78956 305
32.80967 299
32.82979 304
32.8499 283
32.87001 279
32.89013 324
32.91024 313
32.93036 351
32.95047 328
32.97058 326
32.9907 354
33.01081 363
33.03092 324
33.05104 359
33.07115 313
33.09127 348
33.11138 348
33.13149 346
33.15161 341
33.17172 325
33.19183 342
33.21195 304
33.23206 365
33.25217 305
33.27229 322
33.2924 338
33.31252 339
33.33263 306
33.35274 334
33.37286 327
33.39297 307
33.41308 333
33.4332 326
33.45331 330
33.47343 325
33.49354 340
33.51365 325
33.53377 358
33.55388 337
33.57399 345
33.59411 322
33.61422 350
33.63434 357
33.65445 343
33.67456 332
33.69468 316
33.71479 314
33.7349 321
33.75502 340
33.77513 354
33.79524 321
33.81536 300
33.83547 352
33.85559 358
33.8757 297
33.89581 351
33.91593 328
33.93604 342
33.95615 315
33.97627 315
33.99638 341
34.0165 324
34.03661 341
34.05672 342
34.07684 353
34.09695 348
34.11706 321
34.13718 305
34.15729 321
34.17741 356
34.19752 346
34.21763 386
34.23775 343
34.25786 325
34.27797 328
34.29809 327
34.3182 348
34.33831 337
34.35843 321
34.37854 346
34.39866 377
34.41877 358
34.43888 365
34.459 324
34.47911 414
34.49922 340
34.51934 377
34.53945 368
34.55957 382
34.57968 398
34.59979 407
34.61991 434
34.64002 431
34.66013 433
34.68025 465
34.70036 483
34.72047 510
34.74059 491
34.7607 539
34.78082 537
34.80093 596
34.82104 569
34.84116 597
34.86127 557
34.88138 638
34.9015 643
34.92161 621
34.94173 607
34.96184 586
34.98195 589
35.00207 567
35.02218 547
35.04229 493
35.06241 525
35.08252 543
35.10264 522
35.12275 529
35.14286 473
35.16298 476
35.18309 488
35.2032 470
35.22332 503
35.24343 492
35.26354 518
35.28366 492
35.30377 502
35.32389 506
35.344 525
35.36411 522
35.38423 510
35.40434 514
35.42445 500
35.44457 545
35.46468 560
35.4848 539
35.50491 569
35.52502 550
35.54514 534
35.56525 574
35.58536 517
35.60548 541
35.62559 547
35.64571 575
35.66582 567
35.68593 523
35.70605 588
35.72616 589
35.74627 541
35.76639 562
35.7865 600
35.80661 546
35.82673 561
35.84684 582
35.86696 613
35.88707 614
35.90718 574
35.9273 588
35.94741 518
35.96752 564
35.98764 512
36.00775 580
36.02787 511
36.04798 564
36.06809 520
36.08821 499
36.10832 462
36.12843 501
36.14855 489
36.16866 501
36.18878 523
36.20889 569
36.229 539
36.24912 540
36.26923 559
36.28934 620
36.30946 601
36.32957 643
36.34968 655
36.3698 745
36.38991 867
36.41003 928
36.43014 1143
36.45025 1228
36.47037 1315
36.49048 1442
36.51059 1476
36.53071 1288
36.55082 1154
36.57094 1145
36.59105 955
36.61116 907
36.63128 803
36.65139 722
36.6715 629
36.69162 531
36.71173 521
36.73184 501
36.75196 450
36.77207 531
36.79219 483
36.8123 523
36.83241 508
36.85253 479
36.87264 500
36.89275 503
36.91287 503
36.93298 497
36.9531 505
36.97321 467
36.99332 504
37.01344 488
37.03355 471
37.05366 535
37.07378 528
37.09389 525
37.11401 481
37.13412 521
37.15423 493
37.17435 483
37.19446 489
37.21457 513
37.23469 513
37.2548 535
37.27491 494
37.29503 494
37.31514 519
37.33526 503
37.35537 467
37.37548 524
37.3956 520
37.41571 567
37.43582 534
37.45594 544
37.47605 557
37.49617 532
37.51628 568
37.53639 595
37.55651 560
37.57662 573
37.59673 565
37.61685 567
37.63696 568
37.65708 614
37.67719 548
37.6973 538
37.71742 589
37.73753 556
37.75764 545
37.77776 528
37.79787 519
37.81798 518
37.8381 534
37.85821 477
37.87833 489
37.89844 470
37.91855 493
37.93867 502
37.95878 484
37.97889 530
37.99901 509
38.01912 546
38.03924 506
38.05935 487
38.07946 495
38.09958 534
38.11969 523
38.1398 537
38.15992 550
38.18003 583
38.20015 490
38.22026 550
38.24037 498
38.26049 561
38.2806 554
38.30071 567
38.32083 586
38.34094 555
38.36105 587
38.38117 589
38.40128 595
38.4214 607
38.44151 617
38.46162 557
38.48174 529
38.50185 538
38.52196 565
38.54208 561
38.56219 546
38.58231 548
38.60242 525
38.62253 528
38.64265 528
38.66276 533
38.68287 487
38.70299 513
38.7231 460
38.74321 506
38.76333 492
38.78344 477
38.80356 475
38.82367 507
38.84378 442
38.8639 498
38.88401 491
38.90412 475
38.92424 445
38.94435 465
38.96447 494
38.98458 454
39.00469 478
39.02481 478
39.04492 492
39.06503 480
39.08515 486
39.10526 499
39.12538 521
39.14549 499
39.1656 551
39.18572 505
39.20583 529
39.22594 587
39.24606 596
39.26617 627
39.28628 690
39.3064 755
39.32651 887
39.34663 984
39.36674 1088
39.38685 1249
39.40697 1292
39.42708 1261
39.44719 1209
39.46731 1056
39.48742 1003
39.50754 933
39.52765 806
39.54776 740
39.56788 636
39.58799 581
39.6081 520
39.62822 451
39.64833 385
39.66845 373
39.68856 408
39.70867 354
39.72879 402
39.7489 364
39.76901 358
39.78913 367
39.80924 376
39.82935 360
39.84947 390
39.86958 358
39.8897 377
39.90981 386
39.92992 349
39.95004 349
39.97015 380
39.99026 403
40.01038 439
40.03049 415
40.05061 400
40.07072 451
40.09083 456
40.11095 503
40.13106 529
40.15117 596
40.17129 655
40.1914 682
40.21152 796
40.23163 767
40.25174 824
40.27186 795
40.29197 743
40.31208 653
40.3322 617
40.35231 587
40.37242 543
40.39254 470
40.41265 461
40.43277 405
40.45288 423
40.47299 398
40.49311 377
40.51322 369
40.53333 378
40.55345 406
40.57356 406
40.59368 381
40.61379 367
40.6339 383
40.65402 403
40.67413 360
40.69424 388
40.71436 359
40.73447 359
40.75458 328
40.7747 372
40.79481 359
40.81493 367
40.83504 374
40.85515 355
40.87527 382
40.89538 350
40.91549 366
40.93561 345
40.95572 364
40.97584 372
40.99595 387
41.01606 351
41.03618 345
41.05629 371
41.0764 351
41.09652 380
41.11663 359
41.13675 345
41.15686 327
41.17697 352
41.19709 351
41.2172 367
41.23731 359
41.25743 314
41.27754 369
41.29765 367
41.31777 361
41.33788 365
41.358 328
41.37811 403
41.39822 338
41.41834 341
41.43845 352
41.45856 345
41.47868 365
41.49879 363
41.51891 367
41.53902 382
41.55913 336
41.57925 375
41.59936 396
41.61947 351
41.63959 405
41.6597 364
41.67982 377
41.69993 394
41.72004 377
41.74016 416
41.76027 402
41.78038 401
41.8005 394
41.82061 342
41.84072 360
41.86084 389
41.88095 371
41.90107 379
41.92118 361
41.94129 334
41.96141 405
41.98152 365
42.00163 360
42.02175 347
42.04186 347
42.06198 347
42.08209 389
42.1022 365
42.12232 365
42.14243 369
42.16254 390
42.18266 377
42.20277 406
42.22289 434
42.243 435
42.26311 527
42.28323 551
42.30334 568
42.32345 664
42.34357 773
42.36368 846
42.38379 924
42.40391 920
42.42402 948
42.44414 883
42.46425 755
42.48436 709
42.50448 667
42.52459 637
42.5447 530
42.56482 457
42.58493 437
42.60505 361
42.62516 337
42.64527 310
42.66539 328
42.6855 316
42.70561 320
42.72573 322
42.74584 326
42.76595 305
42.78607 322
42.80618 328
42.8263 322
42.84641 316
42.86652 324
42.88664 298
42.90675 303
42.92686 273
42.94698 287
42.96709 290
42.98721 303
43.00732 313
43.02743 290
43.04755 289
43.06766 305
43.08777 290
43.10789 307
43.128 285
43.14812 262
43.16823 289
43.18834 297
43.20846 274
43.22857 276
43.24868 309
43.2688 291
43.28891 303
43.30902 306
43.32914 284
43.34925 266
43.36937 282
43.38948 291
43.40959 306
43.42971 308
43.44982 264
43.46993 295
43.49005 261
43.51016 270
43.53028 290
43.55039 292
43.5705 280
43.59062 296
43.61073 253
43.63084 264
43.65096 278
43.67107 309
43.69119 276
43.7113 287
43.73141 285
43.75153 278
43.77164 271
43.79175 291
43.81187 297
43.83198 278
43.85209 318
43.87221 286
43.89232 294
43.91244 284
43.93255 301
43.95266 315
43.97278 316
43.99289 336
44.013 307
44.03312 317
44.05323 324
44.07335 319
44.09346 324
44.11357 346
44.13369 319
44.1538 345
44.17391 344
44.19403 326
44.21414 335
44.23426 294
44.25437 330
44.27448 327
44.2946 318
44.31471 322
44.33482 327
44.35494 307
44.37505 334
44.39516 307
44.41528 288
44.43539 297
44.45551 280
44.47562 315
44.49573 288
44.51585 296
44.53596 325
44.55607 302
44.57619 304
44.5963 320
44.61642 291
44.63653 283
44.65664 297
44.67676 287
44.69687 278
44.71698 272
44.7371 300
44.75721 286
44.77732 297
44.79744 299
44.81755 304
44.83767 334
44.85778 280
44.87789 316
44.89801 310
44.91812 297
44.93823 276
44.95835 301
44.97846 324
44.99858 267
45.01869 350
45.0388 294
45.05892 305
45.07903 309
45.09914 353
45.11926 335
45.13937 380
45.15949 348
45.1796 321
45.19971 373
45.21983 350
45.23994 353
45.26005 351
45.28017 341
45.30028 376
45.32039 370
45.34051 388
45.36062 373
45.38074 413
45.40085 357
45.42096 370
45.44108 459
45.46119 377
45.4813 418
45.50142 424
45.52153 429
45.54165 448
45.56176 400
45.58187 436
45.60199 492
45.6221 524
45.64221 561
45.66233 610
45.68244 666
45.70256 673
45.72267 740
45.74278 777
45.7629 726
45.78301 689
45.80312 616
45.82324 605
45.84335 596
45.86346 533
45.88358 539
45.90369 481
45.92381 451
45.94392 398
45.96403 366
45.98415 362
46.00426 339
46.02437 326
46.04449 388
46.0646 344
46.08472 332
46.10483 345
46.12494 341
46.14506 350
46.16517 350
46.18528 343
46.2054 357
46.22551 333
46.24563 322
46.26574 326
46.28585 338
46.30597 321
46.32608 298
46.34619 308
46.36631 348
46.38642 298
46.40653 325
46.42665 350
46.44676 311
46.46688 327
46.48699 336
46.5071 336
46.52722 305
46.54733 331
46.56744 366
46.58756 324
46.60767 347
46.62779 271
46.6479 334
46.66801 331
46.68813 311
46.70824 278
46.72835 307
46.74847 345
46.76858 308
46.78869 305
46.80881 307
46.82892 307
46.84904 322
46.86915 310
46.88926 328
46.90938 340
46.92949 309
46.9496 345
46.96972 320
46.98983 318
47.00995 303
47.03006 350
47.05017 298
47.07029 337
47.0904 305
47.11051 337
47.13063 298
47.15074 340
47.17086 326
47.19097 319
47.21108 317
47.2312 324
47.25131 304
47.27142 344
47.29154 326
47.31165 291
47.33176 333
47.35188 357
47.37199 327
47.39211 370
47.41222 311
47.43233 302
47.45245 326
47.47256 285
47.49267 315
47.51279 321
47.5329 328
47.55302 315
47.57313 323
47.59324 344
47.61336 334
47.63347 314
47.65358 305
47.6737 349
47.69381 323
47.71393 309
47.73404 321
47.75415 349
47.77427 353
47.79438 331
47.81449 279
47.83461 328
47.85472 285
47.87483 344
47.89495 334
47.91506 341
47.93518 356
47.95529 339
47.9754 355
47.99552 276
48.01563 301
48.03574 323
48.05586 284
48.07597 275
48.09609 339
48.1162 323
48.13631 292
48.15643 327
48.17654 304
48.19665 307
48.21677 314
48.23688 284
48.257 307
48.27711 298
48.29722 283
48.31734 327
48.33745 295
48.35756 293
48.37768 275
48.39779 332
48.4179 302
48.43802 285
48.45813 295
48.47825 313
48.49836 298
48.51847 300
48.53859 311
48.5587 270
48.57881 306
48.59893 280
48.61904 322
48.63916 298
48.65927 311
48.67938 284
48.6995 299
48.71961 307
48.73972 285
48.75984 329
48.77995 304
48.80006 329
48.82018 331
48.84029 310
48.86041 301
48.88052 269
48.90063 311
48.92075 292
48.94086 287
48.96097 302
48.98109 308
49.0012 329
49.02132 308
49.04143 278
49.06154 326
49.08166 298
49.10177 300
49.12188 289
49.142 288
49.16211 303
49.18223 295
49.20234 291
49.22245 303
49.24257 298
49.26268 326
49.28279 282
49.30291 321
49.32302 305
49.34313 338
49.36325 326
49.38336 336
49.40348 309
49.42359 323
49.4437 309
49.46382 278
49.48393 313
49.50404 312
49.52416 299
49.54427 324
49.56439 306
49.5845 307
49.60461 333
49.62473 323
49.64484 327
49.66495 309
49.68507 355
49.70518 340
49.7253 346
49.74541 362
49.76552 364
49.78564 383
49.80575 410
49.82586 458
49.84598 508
49.86609 510
49.8862 504
49.90632 583
49.92643 697
49.94655 754
49.96666 909
49.98677 1034
50.00689 1178
50.027 1414
50.04711 1565
50.06723 1765
50.08734 1796
50.10746 1632
50.12757 1572
50.14768 1447
50.1678 1209
50.18791 1156
50.20802 1010
50.22814 1069
50.24825 907
50.26837 716
50.28848 619
50.30859 527
50.32871 468
50.34882 411
50.36893 427
50.38905 404
50.40916 408
50.42927 359
50.44939 405
50.4695 414
50.48962 400
50.50973 381
50.52984 400
50.54996 379
50.57007 418
50.59018 389
50.6103 395
50.63041 339
50.65053 362
50.67064 373
50.69075 367
50.71087 325
50.73098 340
50.75109 344
50.77121 329
50.79132 316
50.81143 334
50.83155 306
50.85166 314
50.87178 336
50.89189 293
50.912 284
50.93212 347
50.95223 320
50.97234 332
50.99246 322
51.01257 291
51.03269 315
51.0528 280
51.07291 287
51.09303 235
51.11314 324
51.13325 317
51.15337 291
51.17348 300
51.1936 320
51.21371 267
51.23382 289
51.25394 312
51.27405 281
51.29416 289
51.31428 271
51.33439 289
51.3545 296
51.37462 299
51.39473 264
51.41485 269
51.43496 257
51.45507 308
51.47519 284
51.4953 286
51.51541 277
51.53553 268
51.55564 262
51.57576 251
51.59587 291
51.61598 295
51.6361 293
51.65621 293
51.67632 307
51.69644 266
51.71655 301
51.73667 265
51.75678 269
51.77689 248
51.79701 280
51.81712 243
51.83723 252
51.85735 298
51.87746 276
51.89757 239
51.91769 260
51.9378 267
51.95792 282
51.97803 278
51.99814 255
52.01826 296
52.03837 310
52.05848 257
52.0786 304
52.09871 291
52.11883 289
52.13894 296
52.15905 331
52.17917 277
52.19928 270
52.21939 286
52.23951 308
52.25962 312
52.27974 275
52.29985 291
52.31996 306
52.34008 279
52.36019 266
52.3803 270
52.40042 295
52.42053 288
52.44064 277
52.46076 256
52.48087 299
52.50099 287
52.5211 272
52.54121 253
52.56133 264
52.58144 277
52.60155 294
52.62167 281
52.64178 278
52.6619 248
52.68201 267
52.70212 264
52.72224 269
52.74235 267
52.76246 268
52.78258 279
52.80269 283
52.8228 241
52.84292 293
52.86303 248
52.88315 279
52.90326 280
52.92337 251
52.94349 261
52.9636 267
52.98371 299
53.00383 267
53.02394 275
53.04406 278
53.06417 283
53.08428 271
53.1044 252
53.12451 314
53.14462 286
53.16474 279
53.18485 275
53.20497 295
53.22508 282
53.24519 274
53.26531 273
53.28542 288
53.30553 278
53.32565 258
53.34576 284
53.36587 307
53.38599 258
53.4061 290
53.42622 282
53.44633 292
53.46644 284
53.48656 299
53.50667 311
53.52678 273
53.5469 301
53.56701 314
53.58713 307
53.60724 310
53.62735 351
53.64747 348
53.66758 349
53.68769 292
53.70781 348
53.72792 284
53.74804 365
53.76815 323
53.78826 383
53.80838 368
53.82849 362
53.8486 359
53.86872 354
53.88883 364
53.90894 388
53.92906 375
53.94917 353
53.96929 381
53.9894 397
54.00951 373
54.02963 412
54.04974 367
54.06985 409
54.08997 425
54.11008 388
54.1302 430
54.15031 378
54.17042 404
54.19054 433
54.21065 450
54.23076 441
54.25088 398
54.27099 448
54.29111 441
54.31122 400
54.33133 408
54.35145 465
54.37156 444
54.39167 393
54.41179 475
54.4319 443
54.45201 426
54.47213 430
54.49224 424
54.51236 418
54.53247 455
54.55258 446
54.5727 449
54.59281 476
54.61292 499
54.63304 511
54.65315 499
54.67327 520
54.69338 556
54.71349 610
54.73361 636
54.75372 681
54.77383 779
54.79395 806
54.81406 833
54.83417 843
54.85429 770
54.8744 707
54.89452 652
54.91463 649
54.93474 629
54.95486 628
54.97497 645
54.99508 628
55.0152 559
55.03531 557
55.05543 477
55.07554 514
55.09565 504
55.11577 485
55.13588 478
55.15599 525
55.17611 509
55.19622 546
55.21634 551
55.23645 532
55.25656 563
55.27668 577
55.29679 620
55.3169 502
55.33702 499
55.35713 499
55.37724 518
55.39736 454
55.41747 475
55.43759 475
55.4577 420
55.47781 437
55.49793 438
55.51804 411
55.53815 367
55.55827 385
55.57838 400
55.5985 391
55.61861 377
55.63872 384
55.65884 367
55.67895 375
55.69906 332
55.71918 389
55.73929 370
55.75941 325
55.77952 339
55.79963 358
55.81975 323
55.83986 336
55.85997 335
55.88009 349
55.9002 346
55.92031 314
55.94043 341
55.96054 371
55.98066 334
56.00077 351
56.02088 333
56.041 329
56.06111 362
56.08122 319
56.10134 314
56.12145 358
56.14157 329
56.16168 299
56.18179 314
56.20191 301
56.22202 336
56.24213 341
56.26225 328
56.28236 322
56.30248 362
56.32259 305
56.3427 314
56.36282 338
56.38293 328
56.40304 295
56.42316 329
56.44327 327
56.46338 323
56.4835 336
56.50361 332
56.52373 314
56.54384 340
56.56395 358
56.58407 322
56.60418 326
56.62429 330
56.64441 316
56.66452 320
56.68464 306
56.70475 319
56.72486 318
56.74498 303
56.76509 310
56.7852 313
56.80532 316
56.82543 307
56.84554 354
56.86566 324
56.88577 318
56.90589 294
56.926 329
56.94611 308
56.96623 348
56.98634 317
57.00645 306
57.02657 350
57.04668 300
57.0668 303
57.08691 313
57.10702 311
57.12714 337
57.14725 355
57.16736 323
57.18748 304
57.20759 317
57.22771 314
57.24782 296
57.26793 316
57.28805 318
57.30816 316
57.32827 356
57.34839 323
57.3685 333
57.38861 312
57.40873 304
57.42884 280
57.44896 298
57.46907 274
57.48918 298
57.5093 256
57.52941 284
57.54952 289
57.56964 282
57.58975 303
57.60987 291
57.62998 305
57.65009 339
57.67021 278
57.69032 272
57.71043 269
57.73055 299
57.75066 283
57.77078 304
57.79089 310
57.811 292
57.83112 295
57.85123 263
57.87134 303
57.89146 320
57.91157 285
57.93168 276
57.9518 311
57.97191 270
57.99203 287
58.01214 283
58.03225 289
58.05237 299
58.07248 300
58.09259 302
58.11271 304
58.13282 300
58.15294 290
58.17305 318
58.19316 314
58.21328 282
58.23339 277
58.2535 329
58.27362 288
58.29373 304
58.31385 299
58.33396 322
58.35407 278
58.37419 256
58.3943 291
58.41441 301
58.43453 284
58.45464 269
58.47475 306
58.49487 300
58.51498 305
58.5351 267
58.55521 318
58.57532 300
58.59544 323
58.61555 301
58.63566 313
58.65578 268
58.67589 305
58.69601 277
58.71612 274
58.73623 300
58.75635 300
58.77646 286
58.79657 266
58.81669 291
58.8368 300
58.85691 293
58.87703 292
58.89714 297
58.91726 288
58.93737 296
58.95748 296
58.9776 292
58.99771 273
59.01782 317
59.03794 282
59.05805 307
59.07817 297
59.09828 296
59.11839 279
59.13851 299
59.15862 293
59.17873 309
59.19885 292
59.21896 304
59.23908 273
59.25919 303
59.2793 299
59.29942 305
59.31953 313
59.33964 285
59.35976 300
59.37987 277
59.39998 304
59.4201 296
59.44021 348
59.46033 327
59.48044 304
59.50055 348
59.52067 356
59.54078 369
59.56089 344
59.58101 369
59.60112 381
59.62124 386
59.64135 386
59.66146 395
59.68158 438
59.70169 477
59.7218 516
59.74192 587
59.76203 649
59.78215 752
59.80226 810
59.82237 925
59.84249 1054
59.8626 1201
59.88271 1258
59.90283 1249
59.92294 1219
59.94305 1114
59.96317 985
59.98328 818
60.0034 794
60.02351 801
60.04362 795
60.06374 777
60.08385 718
60.10396 653
60.12408 578
60.14419 529
60.16431 420
60.18442 421
60.20453 367
60.22465 344
60.24476 356
60.26487 326
60.28499 350
60.3051 304
60.32522 332
60.34533 348
60.36544 321
60.38556 301
60.40567 271
60.42578 309
60.4459 312
60.46601 314
60.48612 316
60.50624 272
60.52635 298
60.54647 296
60.56658 306
60.58669 300
60.60681 318
60.62692 255
60.64703 310
60.66715 305
60.68726 276
60.70738 273
60.72749 284
60.7476 259
60.76772 290
60.78783 290
60.80794 274
60.82806 282
60.84817 279
60.86828 271
60.8884 274
60.90851 282
60.92863 283
60.94874 253
60.96885 292
60.98897 282
61.00908 259
61.02919 265
61.04931 323
61.06942 274
61.08954 306
61.10965 307
61.12976 293
61.14988 300
61.16999 285
61.1901 326
61.21022 300
61.23033 246
61.25045 305
61.27056 261
61.29067 292
61.31079 284
61.3309 296
61.35101 301
61.37113 302
61.39124 306
61.41135 303
61.43147 306
61.45158 302
61.4717 296
61.49181 315
61.51192 327
61.53204 296
61.55215 286
61.57226 307
61.59238 325
61.61249 319
61.63261 297
61.65272 333
61.67283 300
61.69295 271
61.71306 337
61.73317 325
61.75329 338
61.7734 328
61.79352 360
61.81363 353
61.83374 330
61.85386 353
61.87397 347
61.89408 373
61.9142 359
61.93431 374
61.95442 382
61.97454 387
61.99465 361
62.01477 412
62.03488 423
62.05499 443
62.07511 433
62.09522 455
62.11533 489
62.13545 501
62.15556 522
62.17568 508
62.19579 493
62.2159 504
62.23602 523
62.25613 509
62.27624 490
62.29636 513
62.31647 526
62.33659 511
62.3567 455
62.37681 478
62.39693 440
62.41704 457
62.43715 452
62.45727 431
62.47738 433
62.49749 400
62.51761 411
62.53772 389
62.55784 391
62.57795 372
62.59806 355
62.61818 400
62.63829 360
62.6584 365
62.67852 347
62.69863 352
62.71875 340
62.73886 338
62.75897 344
62.77909 338
62.7992 316
62.81931 326
62.83943 337
62.85954 314
62.87965 309
62.89977 331
62.91988 320
62.94 294
62.96011 319
62.98022 309
63.00034 332
63.02045 330
63.04056 346
63.06068 331
63.08079 324
63.10091 313
63.12102 317
63.14113 340
63.16125 307
63.18136 333
63.20147 325
63.22159 330
63.2417 331
63.26182 331
63.28193 332
63.30204 290
63.32216 335
63.34227 332
63.36238 322
63.3825 325
63.40261 325
63.42272 325
63.44284 287
63.46295 306
63.48307 337
63.50318 311
63.52329 314
63.54341 336
63.56352 346
63.58363 331
63.60375 355
63.62386 371
63.64398 379
63.66409 365
63.6842 333
63.70432 367
63.72443 344
63.74454 344
63.76466 413
63.78477 384
63.80489 370
63.825 445
63.84511 393
63.86523 413
63.88534 430
63.90545 433
63.92557 474
63.94568 498
63.96579 469
63.98591 467
64.00602 449
64.02614 443
64.04625 463
64.06636 427
64.08648 418
64.10659 409
64.1267 434
64.14682 400
64.16693 392
64.18705 348
64.20716 327
64.22727 356
64.24739 336
64.2675 322
64.28761 333
64.30773 294
64.32784 305
64.34796 297
64.36807 282
64.38818 303
64.4083 257
64.42841 278
64.44852 328
64.46864 289
64.48875 296
64.50886 302
64.52898 280
64.54909 273
64.56921 290
64.58932 292
64.60943 291
64.62955 301
64.64966 286
64.66977 272
64.68989 299
64.71 287
64.73012 286
64.75023 269
64.77034 312
64.79046 305
64.81057 263
64.83068 265
64.8508 307
64.87091 279
64.89102 300
64.91114 271
64.93125 291
64.95137 286
64.97148 282
64.99159 268
65.01171 268
65.03182 286
65.05193 297
65.07205 269
65.09216 270
65.11228 276
65.13239 301
65.1525 279
65.17262 298
65.19273 287
65.21284 273
65.23296 276
65.25307 262
65.27319 291
65.2933 265
65.31341 274
65.33353 300
65.35364 305
65.37375 321
65.39387 291
65.41398 260
65.43409 298
65.45421 313
65.47432 270
65.49444 286
65.51455 265
65.53466 269
65.55478 307
65.57489 273
65.595 292
65.61512 288
65.63523 292
65.65535 286
65.67546 285
65.69557 299
65.71569 309
65.7358 311
65.75591 315
65.77603 303
65.79614 313
65.81626 278
65.83637 306
65.85648 292
65.8766 296
65.89671 290
65.91682 280
65.93694 264
65.95705 280
65.97716 299
65.99728 288
66.01739 298
66.03751 289
66.05762 264
66.07773 272
66.09785 283
66.11796 293
66.13807 297
66.15819 307
66.1783 300
66.19842 263
66.21853 291
66.23864 297
66.25876 287
66.27887 294
66.29898 252
66.3191 304
66.33921 263
66.35933 277
66.37944 312
66.39955 307
66.41967 271
66.43978 291
66.45989 300
66.48001 245
66.50012 249
66.52023 288
66.54035 259
66.56046 273
66.58058 261
66.60069 303
66.6208 301
66.64092 293
66.66103 261
66.68114 294
66.70126 298
66.72137 265
66.74149 262
66.7616 294
66.78171 267
66.80183 272
66.82194 292
66.84205 255
66.86217 292
66.88228 283
66.90239 265
66.92251 258
66.94262 281
66.96274 309
66.98285 304
67.00296 289
67.02308 268
67.04319 296
67.0633 316
67.08342 274
67.10353 289
67.12365 299
67.14376 283
67.16387 303
67.18399 275
67.2041 300
67.22421 314
67.24433 297
67.26444 304
67.28456 300
67.30467 296
67.32478 349
67.3449 303
67.36501 316
67.38512 355
67.40524 311
67.42535 409
67.44546 353
67.46558 381
67.48569 402
67.50581 430
67.52592 472
67.54603 461
67.56615 521
67.58626 590
67.60637 654
67.62649 725
67.6466 793
67.66672 846
67.68683 908
67.70694 845
67.72706 762
67.74717 680
67.76728 637
67.7874 669
67.80751 603
67.82763 662
67.84774 639
67.86785 683
67.88797 697
67.90808 695
67.92819 659
67.94831 734
67.96842 693
67.98853 766
68.00865 892
68.02876 886
68.04888 1000
68.06899 1053
68.0891 1101
68.10922 1024
68.12933 1001
68.14944 937
68.16956 858
68.18967 885
68.20979 904
68.2299 971
68.25001 1004
68.27013 996
68.29024 873
68.31035 840
68.33047 690
68.35058 617
68.3707 572
68.39081 511
68.41092 515
68.43104 480
68.45115 508
68.47126 480
68.49138 431
68.51149 404
68.5316 378
68.55172 345
68.57183 319
68.59195 306
68.61206 334
68.63217 274
68.65229 307
68.6724 296
68.69251 309
68.71263 311
68.73274 311
68.75286 310
68.77297 294
68.79308 275
68.8132 279
68.83331 312
68.85342 298
68.87354 271
68.89365 285
68.91376 261
68.93388 295
68.95399 291
68.97411 260
68.99422 271
69.01433 315
69.03445 294
69.05456 269
69.07467 299
69.09479 282
69.1149 270
69.13502 274
69.15513 292
69.17524 260
69.19536 288
69.21547 267
69.23558 242
69.2557 280
69.27581 282
69.29593 287
69.31604 278
69.33615 280
69.35627 268
69.37638 253
69.39649 264
69.41661 271
69.43672 283
69.45683 274
69.47695 279
69.49706 262
69.51718 262
69.53729 242
69.5574 237
69.57752 275
69.59763 263
69.61774 261
69.63786 240
69.65797 271
69.67809 292
69.6982 285
69.71831 279
69.73843 251
69.75854 261
69.77865 262
69.79877 277
69.81888 286
69.839 300
69.85911 260
69.87922 276
69.89934 239
69.91945 260
69.93956 266
69.95968 253
69.97979 247
69.9999 252
70.02002 255
70.04013 257
70.06025 275
70.08036 258
70.10047 305
70.12059 261
70.1407 248
70.16081 285
70.18093 272
70.20104 249
70.22116 286
70.24127 278
70.26138 261
70.2815 270
70.30161 283
70.32172 272
70.34184 272
70.36195 251
70.38207 276
70.40218 277
70.42229 260
70.44241 265
70.46252 273
70.48263 263
70.50275 270
70.52286 249
70.54297 230
70.56309 262
70.5832 252
70.60332 282
70.62343 243
70.64354 264
70.66366 262
70.68377 264
70.70388 249
70.724 282
70.74411 269
70.76423 281
70.78434 269
70.80445 255
70.82457 264
70.84468 246
70.86479 234
70.88491 235
70.90502 255
70.92513 252
70.94525 260
70.96536 261
70.98548 230
71.00559 241
71.0257 241
71.04582 263
71.06593 236
71.08604 260
71.10616 259
71.12627 261
71.14639 255
71.1665 248
71.18661 260
71.20673 243
71.22684 237
71.24695 223
71.26707 291
71.28718 268
71.3073 259
71.32741 273
71.34752 253
71.36764 239
71.38775 255
71.40786 260
71.42798 251
71.44809 273
71.4682 269
71.48832 282
71.50843 278
71.52855 234
71.54866 276
71.56877 253
71.58889 260
71.609 273
71.62911 295
71.64923 284
71.66934 268
71.68946 221
71.70957 254
71.72968 263
71.7498 274
71.76991 243
71.79002 242
71.81014 255
71.83025 266
71.85037 284
71.87048 277
71.89059 268
71.91071 260
71.93082 253
71.95093 291
71.97105 254
71.99116 270
72.01127 284
72.03139 296
72.0515 278
72.07162 248
72.09173 275
72.11184 243
72.13196 243
72.15207 299
72.17218 264
72.1923 288
72.21241 265
72.23253 302
72.25264 291
72.27275 281
72.29287 240
72.31298 292
72.33309 298
72.35321 263
72.37332 269
72.39344 273
72.41355 250
72.43366 266
72.45378 271
72.47389 288
72.494 271
72.51412 272
72.53423 271
72.55434 294
72.57446 250
72.59457 269
72.61469 287
72.6348 297
72.65491 272
72.67503 265
72.69514 273
72.71525 283
72.73537 249
72.75548 281
72.7756 247
72.79571 260
72.81582 274
72.83594 274
72.85605 252
72.87616 261
72.89628 265
72.91639 282
72.9365 258
72.95662 257
72.97673 297
72.99685 275
73.01696 304
73.03707 290
73.05719 287
73.0773 275
73.09741 278
73.11753 326
73.13764 299
73.15776 321
73.17787 312
73.19798 352
73.2181 318
73.23821 330
73.25832 352
73.27844 350
73.29855 358
73.31867 413
73.33878 430
73.35889 446
73.37901 427
73.39912 485
73.41923 502
73.43935 464
73.45946 421
73.47957 398
73.49969 413
73.5198 392
73.53992 381
73.56003 395
73.58014 377
73.60026 390
73.62037 388
73.64048 361
73.6606 362
73.68071 367
73.70083 306
73.72094 311
73.74105 291
73.76117 285
73.78128 282
73.80139 293
73.82151 281
73.84162 289
73.86174 305
73.88185 288
73.90196 250
73.92208 276
73.94219 237
73.9623 259
73.98242 285
74.00253 288
74.02264 270
74.04276 275
74.06287 288
74.08299 271
74.1031 267
74.12321 257
74.14333 246
74.16344 264
74.18355 259
74.20367 243
74.22378 234
74.2439 245
74.26401 269
74.28412 263
74.30424 257
74.32435 275
74.34446 262
74.36458 279
74.38469 270
74.40481 289
74.42492 253
74.44503 275
74.46515 266
74.48526 263
74.50537 237
74.52549 273
74.5456 287
74.56571 296
74.58583 263
74.60594 257
74.62606 283
74.64617 286
74.66628 244
74.6864 253
74.70651 270
74.72662 261
74.74674 250
74.76685 266
74.78697 266
74.80708 285
74.82719 259
74.84731 294
74.86742 276
74.88753 262
74.90765 292
74.92776 263
74.94787 262
74.96799 309
74.9881 267
75.00822 279
