3.00117 20243
3.02128 19884
3.0414 19174
3.06151 18944
3.08162 18359
3.10174 18112
3.12185 17484
3.14197 16745
3.16208 16530
3.18219 15911
3.20231 15562
3.22242 15155
3.24253 14447
3.26265 14186
3.28276 13944
3.30288 13353
3.32299 13003
3.3431 12271
3.36322 12234
3.38333 11636
3.40344 11386
3.42356 10952
3.44367 10316
3.46379 10136
3.4839 9766
3.50401 9565
3.52413 9405
3.54424 8784
3.56435 8602
3.58447 8273
3.60458 7782
3.62469 7903
3.64481 7356
3.66492 7277
3.68504 6856
3.70515 6725
3.72526 6512
3.74538 5950
3.76549 6010
3.7856 5656
3.80572 5356
3.82583 5313
3.84595 4775
3.86606 4648
3.88617 4633
3.90629 4397
3.9264 4349
3.94651 3821
3.96663 3971
3.98674 3680
4.00686 3511
4.02697 3552
4.04708 3064
4.0672 3048
4.08731 3001
4.10742 2977
4.12754 2928
4.14765 2594
4.16776 2574
4.18788 2525
4.20799 2336
4.22811 2377
4.24822 2073
4.26833 2218
4.28845 1986
4.30856 1987
4.32867 2130
4.34879 1841
4.3689 1835
4.38902 1840
4.40913 1850
4.42924 1817
4.44936 1603
4.46947 1701
4.48958 1621
4.5097 1568
4.52981 1587
4.54992 1452
4.57004 1478
4.59015 1378
4.61027 1423
4.63038 1361
4.65049 1329
4.67061 1264
4.69072 1358
4.71083 1236
4.73095 1330
4.75106 1139
4.77118 1221
4.79129 1245
4.8114 1112
4.83152 1169
4.85163 1120
4.87174 1082
4.89186 1129
4.91197 1007
4.93209 1035
4.9522 967
4.97231 973
4.99243 1016
5.01254 947
5.03265 917
5.05277 965
5.07288 887
5.09299 928
5.11311 904
5.13322 910
5.15334 835
5.17345 863
5.19356 844
5.21368 798
5.23379 813
5.2539 823
5.27402 880
5.29413 866
5.31425 818
5.33436 757
5.35447 736
5.37459 687
5.3947 690
5.41481 746
5.43493 655
5.45504 735
5.47516 630
5.49527 657
5.51538 666
5.5355 633
5.55561 652
5.57572 717
5.59584 673
5.61595 652
5.63606 600
5.65618 630
5.67629 614
5.69641 610
5.71652 602
5.73663 585
5.75675 624
5.77686 618
5.79697 561
5.81709 609
5.8372 567
5.85732 588
5.87743 665
5.89754 584
5.91766 570
5.93777 602
5.95788 600
5.978 656
5.99811 614
6.01823 704
6.03834 653
6.05845 747
6.07857 730
6.09868 757
6.11879 791
6.13891 793
6.15902 878
6.17913 987
6.19925 968
6.21936 997
6.23948 1032
6.25959 1014
6.2797 926
6.29982 867
6.31993 882
6.34004 789
6.36016 708
6.38027 656
6.40039 643
6.4205 646
6.44061 587
6.46073 535
6.48084 553
6.50095 531
6.52107 566
6.54118 568
6.56129 522
6.58141 551
6.60152 543
6.62164 482
6.64175 531
6.66186 540
6.68198 507
6.70209 514
6.7222 519
6.74232 576
6.76243 527
6.78255 532
6.80266 509
6.82277 502
6.84289 526
6.863 522
6.88311 540
6.90323 506
6.92334 535
6.94346 503
6.96357 551
6.98368 534
7.0038 512
7.02391 510
7.04402 502
7.06414 575
7.08425 544
7.10436 571
7.12448 570
7.14459 520
7.16471 507
7.18482 562
7.20493 544
7.22505 564
7.24516 578
7.26527 552
7.28539 605
7.3055 583
7.32562 613
7.34573 594
7.36584 643
7.38596 614
7.40607 590
7.42618 570
7.4463 632
7.46641 585
7.48653 608
7.50664 609
7.52675 593
7.54687 642
7.56698 673
7.58709 616
7.60721 635
7.62732 574
7.64743 642
7.66755 637
7.68766 641
7.70778 666
7.72789 673
7.748 632
7.76812 645
7.78823 593
7.80834 695
7.82846 577
7.84857 641
7.86869 629
7.8888 655
7.90891 646
7.92903 632
7.94914 676
7.96925 619
7.98937 612
8.00948 629
8.0296 614
8.04971 638
8.06982 640
8.08994 654
8.11005 587
8.13016 680
8.15028 585
8.17039 628
8.1905 611
8.21062 619
8.23073 619
8.25085 615
8.27096 608
8.29107 599
8.31119 593
8.3313 621
8.35141 610
8.37153 544
8.39164 626
8.41176 614
8.43187 658
8.45198 598
8.4721 616
8.49221 553
8.51232 578
8.53244 613
8.55255 634
8.57266 657
8.59278 604
8.61289 604
8.63301 667
8.65312 655
8.67323 751
8.69335 726
8.71346 773
8.73357 832
8.75369 959
8.7738 1035
8.79392 1122
8.81403 1262
8.83414 1360
8.85426 1346
8.87437 1289
8.89448 1131
8.9146 1038
8.93471 832
8.95483 698
8.97494 668
8.99505 629
9.01517 557
9.03528 540
9.05539 523
9.07551 481
9.09562 557
9.11573 517
9.13585 513
9.15596 540
9.17608 489
9.19619 490
9.2163 506
9.23642 499
9.25653 518
9.27664 483
9.29676 499
9.31687 504
9.33699 535
9.3571 502
9.37721 462
9.39733 528
9.41744 542
9.43755 486
9.45767 493
9.47778 468
9.4979 464
9.51801 494
9.53812 461
9.55824 482
9.57835 495
9.59846 484
9.61858 494
9.63869 472
9.6588 447
9.67892 455
9.69903 473
9.71915 509
9.73926 434
9.75937 481
9.77949 443
9.7996 423
9.81971 458
9.83983 451
9.85994 473
9.88006 485
9.90017 439
9.92028 425
9.9404 439
9.96051 444
9.98062 449
10.00074 478
10.02085 467
10.04097 478
10.06108 482
10.08119 425
10.10131 461
10.12142 465
10.14153 450
10.16165 471
10.18176 438
10.20187 442
10.22199 439
10.2421 472
10.26222 448
10.28233 495
10.30244 434
10.32256 435
10.34267 446
10.36278 433
10.3829 454
10.40301 431
10.42313 472
10.44324 477
10.46335 428
10.48347 464
10.50358 437
10.52369 427
10.54381 473
10.56392 411
10.58403 466
10.60415 419
10.62426 442
10.64438 438
10.66449 411
10.6846 458
10.70472 459
10.72483 462
10.74494 440
10.76506 460
10.78517 422
10.80529 404
10.8254 428
10.84551 462
10.86563 440
10.88574 468
10.90585 427
10.92597 440
10.94608 416
10.9662 435
10.98631 437
11.00642 410
11.02654 454
11.04665 441
11.06676 437
11.08688 437
11.10699 408
11.1271 396
11.14722 422
11.16733 440
11.18745 424
11.20756 446
11.22767 416
11.24779 489
11.2679 436
11.28801 459
11.30813 462
11.32824 445
11.34836 477
11.36847 449
11.38858 458
11.4087 483
11.42881 418
11.44892 447
11.46904 464
11.48915 467
11.50927 451
11.52938 475
11.54949 480
11.56961 436
11.58972 436
11.60983 450
11.62995 495
11.65006 498
11.67017 473
11.69029 488
11.7104 447
11.73052 441
11.75063 526
11.77074 504
11.79086 476
11.81097 494
11.83108 490
11.8512 512
11.87131 487
11.89143 506
11.91154 489
11.93165 502
11.95177 546
11.97188 539
11.99199 496
12.01211 518
12.03222 583
12.05234 552
12.07245 604
12.09256 579
12.11268 541
12.13279 585
12.1529 595
12.17302 563
12.19313 604
12.21324 664
12.23336 663
12.25347 691
12.27359 665
12.2937 650
12.31381 658
12.33393 655
12.35404 711
12.37415 771
12.39427 697
12.41438 799
12.4345 736
12.45461 804
12.47472 809
12.49484 756
12.51495 712
12.53506 651
12.55518 609
12.57529 614
12.5954 571
12.61552 557
12.63563 561
12.65575 502
12.67586 494
12.69597 542
12.71609 491
12.7362 461
12.75631 434
12.77643 465
12.79654 453
12.81666 431
12.83677 416
12.85688 463
12.877 413
12.89711 419
12.91722 462
12.93734 426
12.95745 458
12.97757 447
12.99768 449
13.01779 439
13.03791 434
13.05802 413
13.07813 398
13.09825 378
13.11836 413
13.13847 440
13.15859 428
13.1787 430
13.19882 383
13.21893 395
13.23904 417
13.25916 414
13.27927 412
13.29938 409
13.3195 406
13.33961 400
13.35973 460
13.37984 361
13.39995 423
13.42007 400
13.44018 409
13.46029 372
13.48041 350
13.50052 359
13.52064 397
13.54075 376
13.56086 376
13.58098 393
13.60109 419
13.6212 380
13.64132 419
13.66143 378
13.68154 386
13.70166 376
13.72177 406
13.74189 391
13.762 446
13.78211 388
13.80223 422
13.82234 411
13.84245 425
13.86257 399
13.88268 379
13.9028 379
13.92291 408
13.94302 414
13.96314 383
13.98325 386
14.00336 415
14.02348 417
14.04359 399
14.06371 363
14.08382 391
14.10393 367
14.12405 396
14.14416 406
14.16427 383
14.18439 404
14.2045 397
14.22461 359
14.24473 405
14.26484 410
14.28496 396
14.30507 380
14.32518 439
14.3453 344
14.36541 390
14.38552 383
14.40564 411
14.42575 412
14.44587 377
14.46598 386
14.48609 372
14.50621 418
14.52632 408
14.54643 388
14.56655 369
14.58666 390
14.60677 376
14.62689 411
14.647 367
14.66712 372
14.68723 394
14.70734 406
14.72746 365
14.74757 345
14.76768 385
14.7878 390
14.80791 406
14.82803 372
14.84814 365
14.86825 378
14.88837 354
14.90848 365
14.92859 378
14.94871 365
14.96882 366
14.98894 369
15.00905 404
15.02916 390
15.04928 419
15.06939 394
15.0895 380
15.10962 361
15.12973 410
15.14984 394
15.16996 366
15.19007 381
15.21019 373
15.2303 364
15.25041 404
15.27053 344
15.29064 390
15.31075 366
15.33087 418
15.35098 399
15.3711 378
15.39121 419
15.41132 410
15.43144 374
15.45155 399
15.47166 367
15.49178 382
15.51189 375
15.53201 400
15.55212 419
15.57223 414
15.59235 412
15.61246 414
15.63257 391
15.65269 395
15.6728 409
15.69291 410
15.71303 378
15.73314 368
15.75326 399
15.77337 423
15.79348 380
15.8136 390
15.83371 348
15.85382 396
15.87394 384
15.89405 412
15.91417 355
15.93428 397
15.95439 357
15.97451 403
15.99462 411
16.01473 399
16.03485 367
16.05496 364
16.07508 390
16.09519 402
16.1153 414
16.13542 381
16.15553 413
16.17564 396
16.19576 368
16.21587 400
16.23598 385
16.2561 407
16.27621 352
16.29633 451
16.31644 418
16.33655 402
16.35667 389
16.37678 416
16.39689 368
16.41701 397
16.43712 376
16.45724 367
16.47735 380
16.49746 379
16.51758 402
16.53769 388
16.5578 423
16.57792 390
16.59803 394
16.61814 351
16.63826 424
16.65837 363
16.67849 410
16.6986 404
16.71871 400
16.73883 377
16.75894 420
16.77905 375
16.79917 398
16.81928 389
16.8394 369
16.85951 375
16.87962 375
16.89974 410
16.91985 432
16.93996 416
16.96008 390
16.98019 371
17.00031 371
17.02042 416
17.04053 408
17.06065 422
17.08076 364
17.10087 359
17.12099 414
17.1411 397
17.16121 423
17.18133 397
17.20144 416
17.22156 412
17.24167 415
17.26178 378
17.2819 374
17.30201 379
17.32212 413
17.34224 391
17.36235 393
17.38247 404
17.40258 329
17.42269 399
17.44281 398
17.46292 372
17.48303 389
17.50315 412
17.52326 441
17.54338 396
17.56349 416
17.5836 434
17.60372 460
17.62383 462
17.64394 500
17.66406 563
17.68417 572
17.70428 597
17.7244 670
17.74451 683
17.76463 666
17.78474 578
17.80485 571
17.82497 501
17.84508 471
17.86519 456
17.88531 462
17.90542 474
17.92554 440
17.94565 428
17.96576 417
17.98588 408
18.00599 441
18.0261 405
18.04622 409
18.06633 368
18.08645 422
18.10656 403
18.12667 380
18.14679 416
18.1669 417
18.18701 413
18.20713 419
18.22724 405
18.24735 472
18.26747 414
18.28758 400
18.3077 417
18.32781 415
18.34792 422
18.36804 408
18.38815 409
18.40826 393
18.42838 401
18.44849 426
18.46861 368
18.48872 386
18.50883 371
18.52895 417
18.54906 427
18.56917 407
18.58929 424
18.6094 423
18.62951 438
18.64963 479
18.66974 504
18.68986 442
18.70997 471
18.73008 496
18.7502 460
18.77031 479
18.79042 498
18.81054 440
18.83065 477
18.85077 429
18.87088 444
18.89099 470
18.91111 437
18.93122 396
18.95133 448
18.97145 416
18.99156 423
19.01168 407
19.03179 434
19.0519 417
19.07202 429
19.09213 461
19.11224 468
19.13236 474
19.15247 467
19.17258 475
19.1927 525
19.21281 553
19.23293 562
19.25304 554
19.27315 615
19.29327 587
19.31338 560
19.33349 572
19.35361 553
19.37372 559
19.39384 583
19.41395 543
19.43406 518
19.45418 530
19.47429 542
19.4944 528
19.51452 500
19.53463 514
19.55475 552
19.57486 544
19.59497 526
19.61509 535
19.6352 631
19.65531 635
19.67543 656
19.69554 689
19.71565 701
19.73577 814
19.75588 847
19.776 880
19.79611 920
19.81622 978
19.83634 1024
19.85645 1055
19.87656 1055
19.89668 1030
19.91679 996
19.93691 916
19.95702 890
19.97713 729
19.99725 763
20.01736 654
20.03747 678
20.05759 654
20.0777 632
20.09782 606
20.11793 625
20.13804 614
20.15816 667
20.17827 635
20.19838 617
20.2185 625
20.23861 628
20.25872 581
20.27884 613
20.29895 614
20.31907 625
20.33918 612
20.35929 623
20.37941 630
20.39952 620
20.41963 633
20.43975 651
20.45986 585
20.47998 631
20.50009 614
20.5202 644
20.54032 659
20.56043 675
20.58054 708
20.60066 719
20.62077 770
20.64088 834
20.661 779
20.68111 844
20.70123 1024
20.72134 1093
20.74145 1261
20.76157 1533
20.78168 1811
20.80179 2105
20.82191 2412
20.84202 2450
20.86214 2175
20.88225 1897
20.90236 1544
20.92248 1152
20.94259 912
20.9627 749
20.98282 708
21.00293 643
21.02305 695
21.04316 667
21.06327 671
21.08339 659
21.1035 659
21.12361 615
21.14373 645
21.16384 616
21.18395 646
21.20407 654
21.22418 621
21.2443 609
21.26441 643
21.28452 637
21.30464 607
21.32475 640
21.34486 624
21.36498 616
21.38509 607
21.40521 653
21.42532 609
21.44543 618
21.46555 624
21.48566 604
21.50577 617
21.52589 635
21.546 634
21.56612 636
21.58623 602
21.60634 669
21.62646 638
21.64657 585
21.66668 618
21.6868 571
21.70691 528
21.72702 532
21.74714 586
21.76725 545
21.78737 544
21.80748 480
21.82759 502
21.84771 530
21.86782 526
21.88793 564
21.90805 533
21.92816 548
21.94828 557
21.96839 500
21.9885 566
22.00862 531
22.02873 574
22.04884 545
22.06896 558
22.08907 532
22.10919 523
22.1293 539
22.14941 506
22.16953 498
22.18964 502
22.20975 510
22.22987 475
22.24998 542
22.27009 536
22.29021 528
22.31032 529
22.33044 548
22.35055 539
22.37066 541
22.39078 501
22.41089 506
22.431 542
22.45112 503
22.47123 557
22.49135 546
22.51146 501
22.53157 503
22.55169 521
22.5718 482
22.59191 504
22.61203 520
22.63214 511
22.65225 478
22.67237 504
22.69248 512
22.7126 480
22.73271 534
22.75282 553
22.77294 601
22.79305 630
22.81316 643
22.83328 690
22.85339 701
22.87351 681
22.89362 684
22.91373 699
22.93385 656
22.95396 590
22.97407 572
22.99419 569
23.0143 543
23.03442 484
23.05453 570
23.07464 501
23.09476 481
23.11487 508
23.13498 510
23.1551 502
23.17521 513
23.19532 500
23.21544 506
23.23555 466
23.25567 514
23.27578 507
23.29589 479
23.31601 470
23.33612 512
23.35623 536
23.37635 517
23.39646 520
23.41658 477
23.43669 497
23.4568 478
23.47692 478
23.49703 517
23.51714 501
23.53726 493
23.55737 503
23.57749 546
23.5976 561
23.61771 548
23.63783 533
23.65794 555
23.67805 553
23.69817 637
23.71828 666
23.73839 684
23.75851 714
23.77862 804
23.79874 790
23.81885 752
23.83896 741
23.85908 678
23.87919 676
23.8993 618
23.91942 592
23.93953 581
23.95965 546
23.97976 593
23.99987 596
24.01999 536
24.0401 547
24.06021 564
24.08033 528
24.10044 529
24.12056 551
24.14067 540
24.16078 543
24.1809 546
24.20101 561
24.22112 549
24.24124 542
24.26135 592
24.28146 534
24.30158 576
24.32169 558
24.34181 558
24.36192 563
24.38203 561
24.40215 511
24.42226 525
24.44237 547
24.46249 529
24.4826 557
24.50272 631
24.52283 551
24.54294 529
24.56306 588
24.58317 549
24.60328 558
24.6234 577
24.64351 598
24.66362 566
24.68374 595
24.70385 613
24.72397 624
24.74408 645
24.76419 615
24.78431 633
24.80442 635
24.82453 646
24.84465 694
24.86476 642
24.88488 628
24.90499 637
24.9251 640
24.94522 656
24.96533 666
24.98544 679
25.00556 709
25.02567 703
25.04579 715
25.0659 760
25.08601 743
25.10613 744
25.12624 781
25.14635 674
25.16647 693
25.18658 700
25.20669 690
25.22681 633
25.24692 654
25.26704 644
25.28715 633
25.30726 669
25.32738 672
25.34749 697
25.3676 730
25.38772 695
25.40783 799
25.42795 867
25.44806 887
25.46817 900
25.48829 845
25.5084 881
25.52851 812
25.54863 748
25.56874 716
25.58886 694
25.60897 672
25.62908 650
25.6492 611
25.66931 582
25.68942 614
25.70954 617
25.72965 586
25.74976 638
25.76988 675
25.78999 628
25.81011 638
25.83022 654
25.85033 617
25.87045 639
25.89056 676
25.91067 645
25.93079 637
25.9509 678
25.97102 707
25.99113 656
26.01124 665
26.03136 723
26.05147 700
26.07158 728
26.0917 744
26.11181 769
26.13193 769
26.15204 785
26.17215 788
26.19227 751
26.21238 841
26.23249 887
26.25261 885
26.27272 915
26.29283 938
26.31295 865
26.33306 1010
26.35318 1064
26.37329 1225
26.3934 1288
26.41352 1443
26.43363 1582
26.45374 2061
26.47386 2469
26.49397 3076
26.51409 4170
26.5342 5323
26.55431 6539
26.57443 8158
26.59454 9169
26.61465 9357
26.63477 8767
26.65488 7611
26.67499 6018
26.69511 4634
26.71522 3634
26.73534 2454
26.75545 1819
26.77556 1499
26.79568 1290
26.81579 1257
26.8359 1148
26.85602 996
26.87613 865
26.89625 849
26.91636 762
26.93647 744
26.95659 698
26.9767 680
26.99681 653
27.01693 638
27.03704 605
27.05716 596
27.07727 633
27.09738 648
27.1175 564
27.13761 589
27.15772 582
27.17784 607
27.19795 579
27.21806 542
27.23818 516
27.25829 477
27.27841 539
27.29852 551
27.31863 564
27.33875 547
27.35886 496
27.37897 511
27.39909 514
27.4192 526
27.43932 567
27.45943 559
27.47954 533
27.49966 521
27.51977 521
27.53988 572
27.56 501
27.58011 490
27.60023 525
27.62034 529
27.64045 566
27.66057 591
27.68068 593
27.70079 620
27.72091 594
27.74102 693
27.76113 724
27.78125 752
27.80136 863
27.82148 799
27.84159 797
27.8617 836
27.88182 796
27.90193 750
27.92204 687
27.94216 673
27.96227 667
27.98239 606
28.0025 604
28.02261 557
28.04273 546
28.06284 508
28.08295 524
28.10307 500
28.12318 544
28.1433 563
28.16341 565
28.18352 534
28.20364 608
28.22375 510
28.24386 531
28.26398 521
28.28409 572
28.3042 524
28.32432 534
28.34443 540
28.36455 501
28.38466 546
28.40477 479
28.42489 536
28.445 507
28.46511 487
28.48523 486
28.50534 505
28.52546 514
28.54557 484
28.56568 555
28.5858 513
28.60591 512
28.62602 510
28.64614 497
28.66625 486
28.68636 518
28.70648 484
28.72659 485
28.74671 450
28.76682 447
28.78693 494
28.80705 475
28.82716 491
28.84727 429
28.86739 443
28.8875 430
28.90762 435
28.92773 456
28.94784 467
28.96796 465
28.98807 458
29.00818 446
29.0283 434
29.04841 444
29.06853 451
29.08864 439
29.10875 455
29.12887 444
29.14898 447
29.16909 460
29.18921 473
29.20932 471
29.22943 444
29.24955 453
29.26966 454
29.28978 449
29.30989 477
29.33 431
29.35012 425
29.37023 478
29.39034 466
29.41046 439
29.43057 454
29.45069 452
29.4708 436
29.49091 438
29.51103 522
29.53114 481
29.55125 487
29.57137 478
29.59148 511
29.6116 486
29.63171 520
29.65182 518
29.67194 546
29.69205 554
29.71216 572
29.73228 561
29.75239 654
29.7725 666
29.79262 739
29.81273 697
29.83285 755
29.85296 725
29.87307 726
29.89319 728
29.9133 692
29.93341 673
29.95353 586
29.97364 581
29.99376 547
30.01387 573
30.03398 527
30.0541 485
30.07421 486
30.09432 488
30.11444 473
30.13455 486
30.15467 479
30.17478 475
30.19489 470
30.21501 456
30.23512 451
30.25523 449
30.27535 500
30.29546 478
30.31557 495
30.33569 473
30.3558 470
30.37592 462
30.39603 477
30.41614 457
30.43626 463
30.45637 500
30.47648 463
30.4966 477
30.51671 442
30.53683 477
30.55694 516
30.57705 462
30.59717 483
30.61728 441
30.63739 440
30.65751 469
30.67762 460
30.69773 435
30.71785 491
30.73796 413
30.75808 423
30.77819 453
30.7983 506
30.81842 420
30.83853 444
30.85864 465
30.87876 505
30.89887 466
30.91899 438
30.9391 486
30.95921 471
30.97933 493
30.99944 455
31.01955 494
31.03967 525
31.05978 515
31.0799 511
31.10001 550
31.12012 562
31.14024 583
31.16035 583
31.18046 631
31.20058 651
31.22069 653
31.2408 662
31.26092 584
31.28103 647
31.30115 567
31.32126 576
31.34137 531
31.36149 472
31.3816 505
31.40171 477
31.42183 453
31.44194 486
31.46206 513
31.48217 473
31.50228 464
31.5224 466
31.54251 503
31.56262 465
31.58274 462
31.60285 476
31.62297 456
31.64308 460
31.66319 483
31.68331 453
31.70342 422
31.72353 454
31.74365 493
31.76376 480
31.78387 457
31.80399 461
31.8241 446
31.84422 489
31.86433 459
31.88444 502
31.90456 524
31.92467 513
31.94478 526
31.9649 517
31.98501 586
32.00513 551
32.02524 573
32.04535 612
32.06547 552
32.08558 534
32.10569 500
32.12581 534
32.14592 480
32.16604 451
32.18615 474
32.20626 506
32.22638 434
32.24649 460
32.2666 412
32.28672 441
32.30683 452
32.32694 489
32.34706 456
32.36717 457
32.38729 487
32.4074 481
32.42751 490
32.44763 463
32.46774 507
32.48785 515
32.50797 545
32.52808 475
32.5482 471
32.56831 492
32.58842 474
32.60854 442
32.62865 469
32.64876 437
32.66888 458
32.68899 444
32.7091 462
32.72922 435
32.74933 441
32.76945 499
32.78956 444
32.80967 444
32.82979 420
32.8499 461
32.87001 465
32.89013 442
32.91024 453
32.93036 443
32.95047 422
32.97058 450
32.9907 446
33.01081 445
33.03092 448
33.05104 446
33.07115 474
33.09127 440
33.11138 493
33.13149 468
33.15161 427
33.17172 431
33.19183 489
33.21195 466
33.23206 452
33.25217 478
33.27229 510
33.2924 472
33.31252 443
33.33263 454
33.35274 471
33.37286 442
33.39297 458
33.41308 467
33.4332 479
33.45331 435
33.47343 468
33.49354 446
33.51365 444
33.53377 490
33.55388 462
33.57399 448
33.59411 486
33.61422 492
33.63434 493
33.65445 459
33.67456 451
33.69468 469
33.71479 456
33.7349 500
33.75502 516
33.77513 476
33.79524 527
33.81536 557
33.83547 576
33.85559 551
33.8757 525
33.89581 522
33.91593 479
33.93604 524
33.95615 507
33.97627 550
33.99638 550
34.0165 569
34.03661 589
34.05672 651
34.07684 680
34.09695 677
34.11706 700
34.13718 685
34.15729 691
34.17741 691
34.19752 714
34.21763 713
34.23775 685
34.25786 692
34.27797 694
34.29809 677
34.3182 606
34.33831 620
34.35843 653
34.37854 640
34.39866 635
34.41877 623
34.43888 624
34.459 674
34.47911 645
34.49922 689
34.51934 655
34.53945 726
34.55957 721
34.57968 735
34.59979 711
34.61991 676
34.64002 747
34.66013 676
34.68025 705
34.70036 695
34.72047 711
34.74059 690
34.7607 712
34.78082 775
34.80093 794
34.82104 815
34.84116 830
34.86127 939
34.88138 941
34.9015 948
34.92161 1045
34.94173 1026
34.96184 1039
34.98195 1071
35.00207 1055
35.02218 1026
35.04229 1010
35.06241 982
35.08252 917
35.10264 857
35.12275 816
35.14286 781
35.16298 723
35.18309 726
35.2032 678
35.22332 625
35.24343 620
35.26354 645
35.28366 581
35.30377 585
35.32389 600
35.344 556
35.36411 556
35.38423 574
35.40434 545
35.42445 570
35.44457 548
35.46468 531
35.4848 563
35.50491 563
35.52502 557
35.54514 535
35.56525 549
35.58536 553
35.60548 561
35.62559 519
35.64571 525
35.66582 545
35.68593 529
35.70605 575
35.72616 588
35.74627 592
35.76639 598
35.7865 586
35.80661 611
35.82673 577
35.84684 624
35.86696 648
35.88707 650
35.90718 615
35.9273 529
35.94741 585
35.96752 573
35.98764 619
36.00775 556
36.02787 607
36.04798 549
36.06809 559
36.08821 556
36.10832 510
36.12843 540
36.14855 523
36.16866 551
36.18878 553
36.20889 554
36.229 540
36.24912 613
36.26923 571
36.28934 567
36.30946 624
36.32957 601
36.34968 664
36.3698 716
36.38991 770
36.41003 819
36.43014 932
36.45025 989
36.47037 1008
36.49048 1093
36.51059 1100
36.53071 1101
36.55082 1029
36.57094 963
36.59105 826
36.61116 830
36.63128 750
36.65139 698
36.6715 682
36.69162 644
36.71173 656
36.73184 610
36.75196 618
36.77207 580
36.79219 586
36.8123 641
36.83241 652
36.85253 626
36.87264 652
36.89275 596
36.91287 651
36.93298 636
36.9531 627
36.97321 636
36.99332 613
37.01344 610
37.03355 661
37.05366 601
37.07378 595
37.09389 668
37.11401 611
37.13412 561
37.15423 655
37.17435 613
37.19446 625
37.21457 571
37.23469 615
37.2548 586
37.27491 597
37.29503 562
37.31514 574
37.33526 579
37.35537 631
37.37548 558
37.3956 619
37.41571 593
37.43582 557
37.45594 591
37.47605 556
37.49617 553
37.51628 585
37.53639 552
37.55651 526
37.57662 530
37.59673 541
37.61685 562
37.63696 519
37.65708 521
37.67719 565
37.6973 610
37.71742 560
37.73753 563
37.75764 591
37.77776 572
37.79787 585
37.81798 562
37.8381 520
37.85821 505
37.87833 513
37.89844 552
37.91855 482
37.93867 493
37.95878 444
37.97889 513
37.99901 483
38.01912 500
38.03924 460
38.05935 485
38.07946 470
38.09958 477
38.11969 442
38.1398 454
38.15992 418
38.18003 474
38.20015 489
38.22026 504
38.24037 486
38.26049 483
38.2806 502
38.30071 483
38.32083 519
38.34094 501
38.36105 436
38.38117 465
38.40128 446
38.4214 497
38.44151 459
38.46162 511
38.48174 441
38.50185 487
38.52196 407
38.54208 452
38.56219 482
38.58231 496
38.60242 455
38.62253 470
38.64265 461
38.66276 430
38.68287 492
38.70299 497
38.7231 498
38.74321 469
38.76333 457
38.78344 459
38.80356 460
38.82367 463
38.84378 435
38.8639 462
38.88401 481
38.90412 475
38.92424 470
38.94435 499
38.96447 480
38.98458 491
39.00469 493
39.02481 523
39.04492 478
39.06503 516
39.08515 492
39.10526 533
39.12538 535
39.14549 504
39.1656 517
39.18572 528
39.20583 519
39.22594 568
39.24606 583
39.26617 607
39.28628 607
39.3064 604
39.32651 634
39.34663 737
39.36674 780
39.38685 806
39.40697 952
39.42708 961
39.44719 910
39.46731 862
39.48742 777
39.50754 765
39.52765 663
39.54776 656
39.56788 636
39.58799 556
39.6081 521
39.62822 517
39.64833 528
39.66845 458
39.68856 474
39.70867 460
39.72879 452
39.7489 465
39.76901 444
39.78913 501
39.80924 447
39.82935 494
39.84947 483
39.86958 461
39.8897 488
39.90981 490
39.92992 540
39.95004 497
39.97015 502
39.99026 512
40.01038 515
40.03049 528
40.05061 550
40.07072 583
40.09083 589
40.11095 575
40.13106 520
40.15117 671
40.17129 680
40.1914 685
40.21152 724
40.23163 732
40.25174 800
40.27186 684
40.29197 712
40.31208 713
40.3322 631
40.35231 603
40.37242 541
40.39254 534
40.41265 492
40.43277 460
40.45288 494
40.47299 489
40.49311 520
40.51322 456
40.53333 463
40.55345 487
40.57356 476
40.59368 487
40.61379 467
40.6339 475
40.65402 458
40.67413 535
40.69424 414
40.71436 481
40.73447 474
40.75458 501
40.7747 512
40.79481 488
40.81493 532
40.83504 495
40.85515 484
40.87527 514
40.89538 477
40.91549 492
40.93561 497
40.95572 523
40.97584 497
40.99595 470
41.01606 481
41.03618 458
41.05629 484
41.0764 490
41.09652 498
41.11663 486
41.13675 486
41.15686 477
41.17697 526
41.19709 505
41.2172 466
41.23731 507
41.25743 522
41.27754 528
41.29765 503
41.31777 509
41.33788 529
41.358 482
41.37811 517
41.39822 474
41.41834 473
41.43845 569
41.45856 493
41.47868 485
41.49879 489
41.51891 519
41.53902 478
41.55913 476
41.57925 494
41.59936 483
41.61947 504
41.63959 486
41.6597 488
41.67982 423
41.69993 440
41.72004 444
41.74016 441
41.76027 463
41.78038 458
41.8005 477
41.82061 437
41.84072 436
41.86084 456
41.88095 461
41.90107 465
41.92118 432
41.94129 480
41.96141 457
41.98152 504
42.00163 495
42.02175 488
42.04186 488
42.06198 474
42.08209 500
42.1022 476
42.12232 500
42.14243 552
42.16254 498
42.18266 540
42.20277 541
42.22289 527
42.243 543
42.26311 578
42.28323 630
42.30334 700
42.32345 729
42.34357 746
42.36368 808
42.38379 855
42.40391 842
42.42402 851
42.44414 830
42.46425 760
42.48436 713
42.50448 641
42.52459 618
42.5447 597
42.56482 528
42.58493 523
42.60505 453
42.62516 473
42.64527 419
42.66539 432
42.6855 433
42.70561 405
42.72573 450
42.74584 402
42.76595 413
42.78607 409
42.80618 393
42.8263 388
42.84641 391
42.86652 403
42.88664 395
42.90675 391
42.92686 434
42.94698 396
42.96709 395
42.98721 405
43.00732 387
43.02743 393
43.04755 429
43.06766 392
43.08777 393
43.10789 373
43.128 386
43.14812 407
43.16823 371
43.18834 406
43.20846 379
43.22857 345
43.24868 372
43.2688 399
43.28891 386
43.30902 370
43.32914 347
43.34925 383
43.36937 379
43.38948 434
43.40959 379
43.42971 382
43.44982 392
43.46993 363
43.49005 399
43.51016 404
43.53028 395
43.55039 401
43.5705 414
43.59062 430
43.61073 407
43.63084 411
43.65096 401
43.67107 395
43.69119 394
43.7113 409
43.73141 403
43.75153 434
43.77164 416
43.79175 400
43.81187 431
43.83198 362
43.85209 408
43.87221 380
43.89232 406
43.91244 406
43.93255 382
43.95266 411
43.97278 389
43.99289 403
44.013 391
44.03312 408
44.05323 467
44.07335 415
44.09346 442
44.11357 424
44.13369 413
44.1538 450
44.17391 391
44.19403 400
44.21414 436
44.23426 448
44.25437 407
44.27448 455
44.2946 407
44.31471 452
44.33482 458
44.35494 427
44.37505 434
44.39516 445
44.41528 463
44.43539 408
44.45551 413
44.47562 435
44.49573 426
44.51585 487
44.53596 442
44.55607 462
44.57619 420
44.5963 462
44.61642 431
44.63653 483
44.65664 446
44.67676 458
44.69687 459
44.71698 458
44.7371 492
44.75721 456
44.77732 462
44.79744 493
44.81755 467
44.83767 463
44.85778 440
44.87789 471
44.89801 484
44.91812 470
44.93823 484
44.95835 456
44.97846 474
44.99858 449
45.01869 444
45.0388 476
45.05892 495
45.07903 488
45.09914 477
45.11926 520
45.13937 497
45.15949 490
45.1796 554
45.19971 495
45.21983 562
45.23994 529
45.26005 547
45.28017 569
45.30028 557
45.32039 596
45.34051 561
45.36062 512
45.38074 540
45.40085 583
45.42096 518
45.44108 555
45.46119 500
45.4813 514
45.50142 545
45.52153 537
45.54165 500
45.56176 482
45.58187 545
45.60199 514
45.6221 540
45.64221 530
45.66233 546
45.68244 559
45.70256 614
45.72267 671
45.74278 645
45.7629 643
45.78301 638
45.80312 592
45.82324 552
45.84335 572
45.86346 557
45.88358 590
45.90369 566
45.92381 502
45.94392 480
45.96403 473
45.98415 465
46.00426 449
46.02437 477
46.04449 465
46.0646 418
46.08472 424
46.10483 410
46.12494 412
46.14506 447
46.16517 436
46.18528 437
46.2054 454
46.22551 440
46.24563 427
46.26574 429
46.28585 413
46.30597 378
46.32608 430
46.34619 400
46.36631 434
46.38642 401
46.40653 401
46.42665 383
46.44676 424
46.46688 427
46.48699 375
46.5071 414
46.52722 411
46.54733 412
46.56744 421
46.58756 457
46.60767 435
46.62779 397
46.6479 394
46.66801 427
46.68813 432
46.70824 405
46.72835 396
46.74847 441
46.76858 408
46.78869 412
46.80881 388
46.82892 420
46.84904 404
46.86915 374
46.88926 418
46.90938 431
46.92949 395
46.9496 416
46.96972 395
46.98983 408
47.00995 382
47.03006 410
47.05017 402
47.07029 370
47.0904 391
47.11051 392
47.13063 386
47.15074 366
47.17086 369
47.19097 401
47.21108 384
47.2312 385
47.25131 378
47.27142 369
47.29154 421
47.31165 369
47.33176 388
47.35188 383
47.37199 376
47.39211 381
47.41222 385
47.43233 382
47.45245 413
47.47256 406
47.49267 391
47.51279 380
47.5329 391
47.55302 371
47.57313 378
47.59324 392
47.61336 409
47.63347 391
47.65358 395
47.6737 342
47.69381 399
47.71393 395
47.73404 382
47.75415 408
47.77427 384
47.79438 345
47.81449 400
47.83461 364
47.85472 374
47.87483 412
47.89495 397
47.91506 346
47.93518 389
47.95529 387
47.9754 398
47.99552 375
48.01563 379
48.03574 367
48.05586 389
48.07597 391
48.09609 399
48.1162 390
48.13631 385
48.15643 394
48.17654 378
48.19665 398
48.21677 378
48.23688 397
48.257 401
48.27711 383
48.29722 413
48.31734 374
48.33745 378
48.35756 385
48.37768 388
48.39779 366
48.4179 390
48.43802 358
48.45813 395
48.47825 396
48.49836 389
48.51847 399
48.53859 392
48.5587 408
48.57881 401
48.59893 388
48.61904 410
48.63916 405
48.65927 403
48.67938 423
48.6995 389
48.71961 402
48.73972 397
48.75984 392
48.77995 393
48.80006 383
48.82018 435
48.84029 456
48.86041 397
48.88052 377
48.90063 374
48.92075 390
48.94086 387
48.96097 414
48.98109 410
49.0012 374
49.02132 397
49.04143 370
49.06154 391
49.08166 387
49.10177 373
49.12188 387
49.142 383
49.16211 400
49.18223 410
49.20234 392
49.22245 402
49.24257 352
49.26268 387
49.28279 401
49.30291 376
49.32302 394
49.34313 393
49.36325 381
49.38336 402
49.40348 375
49.42359 385
49.4437 407
49.46382 414
49.48393 386
49.50404 390
49.52416 416
49.54427 396
49.56439 403
49.5845 369
49.60461 380
49.62473 415
49.64484 387
49.66495 418
49.68507 395
49.70518 417
49.7253 433
49.74541 445
49.76552 425
49.78564 442
49.80575 461
49.82586 433
49.84598 411
49.86609 456
49.8862 537
49.90632 544
49.92643 569
49.94655 660
49.96666 703
49.98677 724
50.00689 835
50.027 917
50.04711 1007
50.06723 1144
50.08734 1253
50.10746 1177
50.12757 1049
50.14768 914
50.1678 822
50.18791 798
50.20802 736
50.22814 746
50.24825 698
50.26837 612
50.28848 533
50.30859 447
50.32871 435
50.34882 417
50.36893 378
50.38905 328
50.40916 425
50.42927 374
50.44939 392
50.4695 414
50.48962 402
50.50973 385
50.52984 398
50.54996 462
50.57007 387
50.59018 403
50.6103 338
50.63041 401
50.65053 390
50.67064 370
50.69075 378
50.71087 409
50.73098 372
50.75109 385
50.77121 359
50.79132 371
50.81143 363
50.83155 350
50.85166 371
50.87178 381
50.89189 384
50.912 367
50.93212 367
50.95223 382
50.97234 346
50.99246 375
51.01257 347
51.03269 373
51.0528 363
51.07291 376
51.09303 338
51.11314 389
51.13325 362
51.15337 346
51.17348 401
51.1936 344
51.21371 360
51.23382 384
51.25394 362
51.27405 353
51.29416 363
51.31428 391
51.33439 374
51.3545 369
51.37462 362
51.39473 402
51.41485 367
51.43496 338
51.45507 373
51.47519 338
51.4953 358
51.51541 343
51.53553 366
51.55564 356
51.57576 389
51.59587 390
51.61598 391
51.6361 361
51.65621 360
51.67632 374
51.69644 377
51.71655 353
51.73667 354
51.75678 370
51.77689 370
51.79701 357
51.81712 386
51.83723 349
51.85735 371
51.87746 397
51.89757 400
51.91769 378
51.9378 326
51.95792 357
51.97803 364
51.99814 335
52.01826 355
52.03837 357
52.05848 363
52.0786 368
52.09871 379
52.11883 386
52.13894 373
52.15905 379
52.17917 370
52.19928 318
52.21939 352
52.23951 337
52.25962 384
52.27974 365
52.29985 381
52.31996 379
52.34008 370
52.36019 405
52.3803 372
52.40042 379
52.42053 426
52.44064 386
52.46076 368
52.48087 370
52.50099 386
52.5211 372
52.54121 363
52.56133 418
52.58144 399
52.60155 387
52.62167 378
52.64178 444
52.6619 376
52.68201 405
52.70212 409
52.72224 413
52.74235 418
52.76246 426
52.78258 446
52.80269 471
52.8228 416
52.84292 428
52.86303 385
52.88315 405
52.90326 408
52.92337 449
52.94349 436
52.9636 383
52.98371 399
53.00383 418
53.02394 413
53.04406 462
53.06417 401
53.08428 416
53.1044 424
53.12451 402
53.14462 437
53.16474 451
53.18485 387
53.20497 396
53.22508 422
53.24519 373
53.26531 421
53.28542 423
53.30553 406
53.32565 425
53.34576 416
53.36587 429
53.38599 412
53.4061 457
53.42622 434
53.44633 415
53.46644 398
53.48656 418
53.50667 458
53.52678 390
53.5469 405
53.56701 413
53.58713 405
53.60724 391
53.62735 427
53.64747 421
53.66758 421
53.68769 392
53.70781 420
53.72792 411
53.74804 390
53.76815 407
53.78826 430
53.80838 429
53.82849 416
53.8486 400
53.86872 455
53.88883 449
53.90894 435
53.92906 425
53.94917 440
53.96929 424
53.9894 434
54.00951 418
54.02963 413
54.04974 428
54.06985 493
54.08997 444
54.11008 442
54.1302 404
54.15031 407
54.17042 462
54.19054 445
54.21065 425
54.23076 458
54.25088 497
54.27099 419
54.29111 461
54.31122 446
54.33133 471
54.35145 420
54.37156 491
54.39167 460
54.41179 465
54.4319 445
54.45201 456
54.47213 473
54.49224 470
54.51236 465
54.53247 508
54.55258 470
54.5727 467
54.59281 482
54.61292 539
54.63304 486
54.65315 527
54.67327 546
54.69338 538
54.71349 563
54.73361 585
54.75372 618
54.77383 653
54.79395 671
54.81406 718
54.83417 729
54.85429 698
54.8744 662
54.89452 616
54.91463 616
54.93474 590
54.95486 572
54.97497 568
54.99508 602
55.0152 561
55.03531 528
55.05543 515
55.07554 520
55.09565 500
55.11577 531
55.13588 526
55.15599 553
55.17611 527
55.19622 559
55.21634 543
55.23645 562
55.25656 535
55.27668 553
55.29679 577
55.3169 552
55.33702 516
55.35713 527
55.37724 515
55.39736 531
55.41747 457
55.43759 480
55.4577 491
55.47781 489
55.49793 459
55.51804 452
55.53815 453
55.55827 476
55.57838 470
55.5985 454
55.61861 491
55.63872 463
55.65884 487
55.67895 500
55.69906 504
55.71918 496
55.73929 475
55.75941 481
55.77952 508
55.79963 477
55.81975 469
55.83986 471
55.85997 518
55.88009 458
55.9002 448
55.92031 490
55.94043 479
55.96054 443
55.98066 431
56.00077 438
56.02088 433
56.041 464
56.06111 412
56.08122 442
56.10134 426
56.12145 386
56.14157 449
56.16168 448
56.18179 414
56.20191 392
56.22202 411
56.24213 416
56.26225 401
56.28236 406
56.30248 430
56.32259 407
56.3427 374
56.36282 426
56.38293 422
56.40304 415
56.42316 396
56.44327 404
56.46338 387
56.4835 465
56.50361 429
56.52373 417
56.54384 411
56.56395 323
56.58407 369
56.60418 394
56.62429 402
56.64441 351
56.66452 405
56.68464 437
56.70475 367
56.72486 421
56.74498 416
56.76509 364
56.7852 420
56.80532 379
56.82543 397
56.84554 394
56.86566 411
56.88577 433
56.90589 407
56.926 396
56.94611 411
56.96623 425
56.98634 419
57.00645 399
57.02657 379
57.04668 365
57.0668 393
57.08691 390
57.10702 405
57.12714 380
57.14725 392
57.16736 432
57.18748 404
57.20759 414
57.22771 378
57.24782 405
57.26793 369
57.28805 388
57.30816 422
57.32827 387
57.34839 404
57.3685 414
57.38861 415
57.40873 384
57.42884 388
57.44896 416
57.46907 435
57.48918 419
57.5093 404
57.52941 420
57.54952 426
57.56964 404
57.58975 426
57.60987 387
57.62998 402
57.65009 375
57.67021 376
57.69032 372
57.71043 385
57.73055 377
57.75066 405
57.77078 390
57.79089 369
57.811 390
57.83112 372
57.85123 402
57.87134 424
57.89146 348
57.91157 342
57.93168 372
57.9518 338
57.97191 400
57.99203 356
58.01214 366
58.03225 396
58.05237 405
58.07248 391
58.09259 381
58.11271 357
58.13282 361
58.15294 391
58.17305 354
58.19316 308
58.21328 332
58.23339 361
58.2535 371
58.27362 367
58.29373 373
58.31385 375
58.33396 331
58.35407 339
58.37419 321
58.3943 341
58.41441 349
58.43453 376
58.45464 377
58.47475 401
58.49487 366
58.51498 403
58.5351 372
58.55521 375
58.57532 385
58.59544 348
58.61555 348
58.63566 336
58.65578 371
58.67589 360
58.69601 368
58.71612 391
58.73623 369
58.75635 392
58.77646 367
58.79657 350
58.81669 372
58.8368 376
58.85691 398
58.87703 362
58.89714 375
58.91726 383
58.93737 398
58.95748 399
58.9776 348
58.99771 345
59.01782 397
59.03794 398
59.05805 378
59.07817 397
59.09828 390
59.11839 410
59.13851 394
59.15862 439
59.17873 408
59.19885 421
59.21896 421
59.23908 399
59.25919 390
59.2793 444
59.29942 427
59.31953 432
59.33964 410
59.35976 387
59.37987 418
59.39998 416
59.4201 449
59.44021 445
59.46033 456
59.48044 465
59.50055 427
59.52067 444
59.54078 412
59.56089 431
59.58101 448
59.60112 453
59.62124 437
59.64135 498
59.66146 477
59.68158 487
59.70169 494
59.7218 514
59.74192 526
59.76203 607
59.78215 638
59.80226 655
59.82237 724
59.84249 786
59.8626 849
59.88271 918
59.90283 955
59.92294 898
59.94305 852
59.96317 789
59.98328 691
60.0034 661
60.02351 698
60.04362 717
60.06374 706
60.08385 717
60.10396 699
60.12408 668
60.14419 641
60.16431 542
60.18442 592
60.20453 543
60.22465 580
60.24476 566
60.26487 563
60.28499 548
60.3051 526
60.32522 545
60.34533 557
60.36544 537
60.38556 537
60.40567 566
60.42578 507
60.4459 502
60.46601 462
60.48612 463
60.50624 483
60.52635 468
60.54647 477
60.56658 474
60.58669 465
60.60681 436
60.62692 493
60.64703 425
60.66715 447
60.68726 408
60.70738 414
60.72749 440
60.7476 431
60.76772 453
60.78783 427
60.80794 406
60.82806 436
60.84817 429
60.86828 431
60.8884 415
60.90851 408
60.92863 417
60.94874 384
60.96885 382
60.98897 389
61.00908 417
61.02919 410
61.04931 429
61.06942 422
61.08954 414
61.10965 419
61.12976 409
61.14988 393
61.16999 375
61.1901 375
61.21022 432
61.23033 385
61.25045 384
61.27056 374
61.29067 433
61.31079 419
61.3309 438
61.35101 426
61.37113 422
61.39124 420
61.41135 446
61.43147 436
61.45158 413
61.4717 449
61.49181 447
61.51192 424
61.53204 459
61.55215 461
61.57226 426
61.59238 476
61.61249 492
61.63261 527
61.65272 483
61.67283 524
61.69295 510
61.71306 504
61.73317 501
61.75329 531
61.7734 516
61.79352 484
61.81363 482
61.83374 511
61.85386 518
61.87397 511
61.89408 485
61.9142 455
61.93431 477
61.95442 447
61.97454 454
61.99465 480
62.01477 459
62.03488 457
62.05499 432
62.07511 401
62.09522 449
62.11533 396
62.13545 420
62.15556 422
62.17568 385
62.19579 438
62.2159 408
62.23602 394
62.25613 396
62.27624 396
62.29636 422
62.31647 422
62.33659 415
62.3567 378
62.37681 420
62.39693 422
62.41704 411
62.43715 389
62.45727 396
62.47738 370
62.49749 420
62.51761 421
62.53772 385
62.55784 379
62.57795 395
62.59806 403
62.61818 380
62.63829 405
62.6584 373
62.67852 394
62.69863 388
62.71875 418
62.73886 373
62.75897 402
62.77909 417
62.7992 372
62.81931 384
62.83943 345
62.85954 362
62.87965 382
62.89977 389
62.91988 393
62.94 345
62.96011 376
62.98022 355
63.00034 365
63.02045 400
63.04056 379
63.06068 367
63.08079 393
63.10091 350
63.12102 353
63.14113 412
63.16125 400
63.18136 378
63.20147 358
63.22159 363
63.2417 381
63.26182 394
63.28193 350
63.30204 340
63.32216 362
63.34227 358
63.36238 353
63.3825 362
63.40261 369
63.42272 371
63.44284 331
63.46295 377
63.48307 353
63.50318 342
63.52329 390
63.54341 362
63.56352 378
63.58363 339
63.60375 356
63.62386 364
63.64398 372
63.66409 338
63.6842 334
63.70432 341
63.72443 350
63.74454 362
63.76466 350
63.78477 378
63.80489 389
63.825 388
63.84511 400
63.86523 403
63.88534 397
63.90545 405
63.92557 401
63.94568 435
63.96579 470
63.98591 443
64.00602 427
64.02614 435
64.04625 390
64.06636 377
64.08648 422
64.10659 443
64.1267 407
64.14682 434
64.16693 429
64.18705 414
64.20716 423
64.22727 402
64.24739 341
64.2675 361
64.28761 386
64.30773 360
64.32784 323
64.34796 370
64.36807 321
64.38818 333
64.4083 351
64.42841 364
64.44852 341
64.46864 336
64.48875 378
64.50886 343
64.52898 345
64.54909 372
64.56921 365
64.58932 341
64.60943 356
64.62955 348
64.64966 328
64.66977 366
64.68989 321
64.71 343
64.73012 339
64.75023 375
64.77034 350
64.79046 349
64.81057 321
64.83068 330
64.8508 339
64.87091 347
64.89102 359
64.91114 336
64.93125 377
64.95137 336
64.97148 376
64.99159 342
65.01171 346
65.03182 337
65.05193 337
65.07205 357
65.09216 350
65.11228 351
65.13239 324
65.1525 347
65.17262 356
65.19273 360
65.21284 348
65.23296 341
65.25307 332
65.27319 332
65.2933 343
65.31341 339
65.33353 321
65.35364 349
65.37375 364
65.39387 370
65.41398 341
65.43409 345
65.45421 332
65.47432 324
65.49444 359
65.51455 334
65.53466 332
65.55478 332
65.57489 337
65.595 358
65.61512 358
65.63523 370
65.65535 344
65.67546 368
65.69557 340
65.71569 348
65.7358 356
65.75591 334
65.77603 344
65.79614 361
65.81626 359
65.83637 377
65.85648 344
65.8766 354
65.89671 383
65.91682 379
65.93694 365
65.95705 315
65.97716 358
65.99728 313
66.01739 362
66.03751 367
66.05762 352
66.07773 356
66.09785 351
66.11796 334
66.13807 344
66.15819 373
66.1783 337
66.19842 355
66.21853 359
66.23864 349
66.25876 368
66.27887 367
66.29898 322
66.3191 390
66.33921 351
66.35933 333
66.37944 328
66.39955 315
66.41967 338
66.43978 325
66.45989 337
66.48001 366
66.50012 334
66.52023 340
66.54035 320
66.56046 362
66.58058 307
66.60069 335
66.6208 350
66.64092 355
66.66103 310
66.68114 343
66.70126 303
66.72137 343
66.74149 332
66.7616 333
66.78171 325
66.80183 308
66.82194 328
66.84205 345
66.86217 365
66.88228 354
66.90239 364
66.92251 328
66.94262 323
66.96274 330
66.98285 346
67.00296 353
67.02308 323
67.04319 321
67.0633 367
67.08342 359
67.10353 356
67.12365 331
67.14376 332
67.16387 318
67.18399 353
67.2041 357
67.22421 387
67.24433 378
67.26444 335
67.28456 351
67.30467 366
67.32478 375
67.3449 385
67.36501 330
67.38512 389
67.40524 368
67.42535 377
67.44546 378
67.46558 368
67.48569 383
67.50581 380
67.52592 436
67.54603 425
67.56615 466
67.58626 486
67.60637 542
67.62649 539
67.6466 619
67.66672 581
67.68683 673
67.70694 609
67.72706 550
67.74717 493
67.76728 536
67.7874 471
67.80751 487
67.82763 501
67.84774 503
67.86785 539
67.88797 559
67.90808 582
67.92819 599
67.94831 579
67.96842 584
67.98853 594
68.00865 598
68.02876 611
68.04888 675
68.06899 678
68.0891 685
68.10922 697
68.12933 686
68.14944 665
68.16956 651
68.18967 616
68.20979 626
68.2299 652
68.25001 688
68.27013 672
68.29024 619
68.31035 597
68.33047 541
68.35058 478
68.3707 476
68.39081 415
68.41092 437
68.43104 439
68.45115 453
68.47126 387
68.49138 425
68.51149 407
68.5316 374
68.55172 383
68.57183 336
68.59195 379
68.61206 356
68.63217 320
68.65229 328
68.6724 317
68.69251 372
68.71263 333
68.73274 363
68.75286 342
68.77297 389
68.79308 325
68.8132 348
68.83331 345
68.85342 336
68.87354 358
68.89365 371
68.91376 366
68.93388 334
68.95399 349
68.97411 351
68.99422 344
69.01433 321
69.03445 358
69.05456 369
69.07467 333
69.09479 376
69.1149 358
69.13502 332
69.15513 376
69.17524 367
69.19536 365
69.21547 354
69.23558 379
69.2557 365
69.27581 371
69.29593 371
69.31604 380
69.33615 408
69.35627 394
69.37638 413
69.39649 397
69.41661 334
69.43672 388
69.45683 387
69.47695 367
69.49706 382
69.51718 372
69.53729 377
69.5574 380
69.57752 379
69.59763 393
69.61774 361
69.63786 370
69.65797 370
69.67809 340
69.6982 334
69.71831 345
69.73843 354
69.75854 336
69.77865 356
69.79877 370
69.81888 353
69.839 313
69.85911 385
69.87922 383
69.89934 367
69.91945 339
69.93956 351
69.95968 352
69.97979 366
69.9999 314
70.02002 336
70.04013 331
70.06025 324
70.08036 351
70.10047 384
70.12059 354
70.1407 356
70.16081 371
70.18093 367
70.20104 376
70.22116 364
70.24127 341
70.26138 351
70.2815 363
70.30161 339
70.32172 351
70.34184 368
70.36195 362
70.38207 338
70.40218 365
70.42229 354
70.44241 336
70.46252 337
70.48263 334
70.50275 302
70.52286 318
70.54297 333
70.56309 320
70.5832 314
70.60332 317
70.62343 308
70.64354 331
70.66366 315
70.68377 318
70.70388 330
70.724 323
70.74411 331
70.76423 345
70.78434 334
70.80445 345
70.82457 346
70.84468 339
70.86479 346
70.88491 332
70.90502 338
70.92513 342
70.94525 332
70.96536 344
70.98548 306
71.00559 330
71.0257 311
71.04582 349
71.06593 356
71.08604 350
71.10616 370
71.12627 346
71.14639 359
71.1665 380
71.18661 367
71.20673 339
71.22684 354
71.24695 343
71.26707 332
71.28718 362
71.3073 330
71.32741 352
71.34752 370
71.36764 348
71.38775 343
71.40786 338
71.42798 375
71.44809 338
71.4682 339
71.48832 339
71.50843 335
71.52855 317
71.54866 319
71.56877 320
71.58889 319
71.609 301
71.62911 347
71.64923 332
71.66934 349
71.68946 337
71.70957 348
71.72968 299
71.7498 341
71.76991 355
71.79002 347
71.81014 320
71.83025 308
71.85037 336
71.87048 356
71.89059 316
71.91071 327
71.93082 350
71.95093 317
71.97105 326
71.99116 297
72.01127 340
72.03139 306
72.0515 321
72.07162 359
72.09173 306
72.11184 315
72.13196 357
72.15207 353
72.17218 312
72.1923 342
72.21241 355
72.23253 326
72.25264 329
72.27275 360
72.29287 327
72.31298 334
72.33309 335
72.35321 326
72.37332 330
72.39344 340
72.41355 327
72.43366 359
72.45378 343
72.47389 325
72.494 336
72.51412 350
72.53423 359
72.55434 338
72.57446 350
72.59457 342
72.61469 328
72.6348 342
72.65491 368
72.67503 341
72.69514 347
72.71525 327
72.73537 345
72.75548 373
72.7756 348
72.79571 366
72.81582 373
72.83594 351
72.85605 346
72.87616 356
72.89628 361
72.91639 406
72.9365 340
72.95662 380
72.97673 391
72.99685 355
73.01696 400
73.03707 355
73.05719 380
73.0773 376
73.09741 359
73.11753 357
73.13764 347
73.15776 369
73.17787 389
73.19798 361
73.2181 371
73.23821 391
73.25832 376
73.27844 412
73.29855 388
73.31867 421
73.33878 392
73.35889 419
73.37901 405
73.39912 454
73.41923 429
73.43935 400
73.45946 406
73.47957 371
73.49969 401
73.5198 337
73.53992 341
73.56003 358
73.58014 382
73.60026 366
73.62037 355
73.64048 351
73.6606 335
73.68071 355
73.70083 343
73.72094 337
73.74105 321
73.76117 357
73.78128 294
73.80139 310
73.82151 355
73.84162 322
73.86174 311
73.88185 333
73.90196 331
73.92208 319
73.94219 311
73.9623 347
73.98242 316
74.00253 335
74.02264 316
74.04276 332
74.06287 295
74.08299 306
74.1031 288
74.12321 330
74.14333 370
74.16344 310
74.18355 347
74.20367 323
74.22378 342
74.2439 324
74.26401 334
74.28412 323
74.30424 286
74.32435 330
74.34446 304
74.36458 350
74.38469 310
74.40481 309
74.42492 306
74.44503 324
74.46515 308
74.48526 323
74.50537 314
74.52549 336
74.5456 323
74.56571 322
74.58583 327
74.60594 321
74.62606 319
74.64617 383
74.66628 320
74.6864 300
74.70651 330
74.72662 321
74.74674 321
74.76685 328
74.78697 327
74.80708 312
74.82719 322
74.84731 318
74.86742 320
74.88753 295
74.90765 302
74.92776 320
74.94787 277
74.96799 299
74.9881 324
75.00822 322
