3.00117 21425
3.02128 21406
3.0414 20581
3.06151 20381
3.08162 19479
3.10174 19114
3.12185 18772
3.14197 17831
3.16208 17804
3.18219 16696
3.20231 16646
3.22242 16109
3.24253 15617
3.26265 15201
3.28276 14503
3.30288 14012
3.32299 13775
3.3431 13225
3.36322 13267
3.38333 12305
3.40344 12171
3.42356 11729
3.44367 11619
3.46379 11157
3.4839 10408
3.50401 10572
3.52413 9836
3.54424 9526
3.56435 9446
3.58447 8915
3.60458 8675
3.62469 8370
3.64481 8082
3.66492 7880
3.68504 7344
3.70515 7236
3.72526 7046
3.74538 6741
3.76549 6568
3.7856 5976
3.80572 5906
3.82583 5641
3.84595 5407
3.86606 5295
3.88617 5071
3.90629 4801
3.9264 4511
3.94651 4538
3.96663 4310
3.98674 3947
4.00686 3956
4.02697 3713
4.04708 3713
4.0672 3483
4.08731 3139
4.10742 3196
4.12754 3020
4.14765 2812
4.16776 2895
4.18788 2750
4.20799 2638
4.22811 2469
4.24822 2465
4.26833 2387
4.28845 2102
4.30856 2131
4.32867 2115
4.34879 2084
4.3689 2112
4.38902 1914
4.40913 1814
4.42924 1828
4.44936 1852
4.46947 1867
4.48958 1666
4.5097 1705
4.52981 1688
4.54992 1665
4.57004 1629
4.59015 1444
4.61027 1534
4.63038 1476
4.65049 1454
4.67061 1497
4.69072 1352
4.71083 1337
4.73095 1389
4.75106 1254
4.77118 1355
4.79129 1230
4.8114 1136
4.83152 1240
4.85163 1159
4.87174 1166
4.89186 1146
4.91197 1071
4.93209 1125
4.9522 1061
4.97231 1057
4.99243 1053
5.01254 955
5.03265 1018
5.05277 927
5.07288 951
5.09299 996
5.11311 894
5.13322 873
5.15334 900
5.17345 821
5.19356 854
5.21368 844
5.23379 855
5.2539 867
5.27402 816
5.29413 857
5.31425 783
5.33436 751
5.35447 689
5.37459 707
5.3947 745
5.41481 775
5.43493 721
5.45504 761
5.47516 653
5.49527 663
5.51538 676
5.5355 674
5.55561 683
5.57572 656
5.59584 619
5.61595 629
5.63606 621
5.65618 607
5.67629 619
5.69641 591
5.71652 631
5.73663 542
5.75675 629
5.77686 564
5.79697 556
5.81709 563
5.8372 577
5.85732 544
5.87743 544
5.89754 555
5.91766 547
5.93777 555
5.95788 565
5.978 515
5.99811 554
6.01823 525
6.03834 592
6.05845 519
6.07857 524
6.09868 497
6.11879 556
6.13891 536
6.15902 550
6.17913 524
6.19925 491
6.21936 493
6.23948 491
6.25959 504
6.2797 513
6.29982 534
6.31993 485
6.34004 486
6.36016 513
6.38027 463
6.40039 497
6.4205 515
6.44061 495
6.46073 462
6.48084 482
6.50095 469
6.52107 500
6.54118 516
6.56129 498
6.58141 482
6.60152 453
6.62164 492
6.64175 483
6.66186 481
6.68198 488
6.70209 463
6.7222 500
6.74232 483
6.76243 468
6.78255 444
6.80266 469
6.82277 480
6.84289 487
6.863 523
6.88311 465
6.90323 471
6.92334 464
6.94346 450
6.96357 490
6.98368 446
7.0038 452
7.02391 501
7.04402 483
7.06414 441
7.08425 481
7.10436 454
7.12448 413
7.14459 492
7.16471 477
7.18482 467
7.20493 415
7.22505 468
7.24516 445
7.26527 479
7.28539 464
7.3055 492
7.32562 464
7.34573 429
7.36584 495
7.38596 461
7.40607 450
7.42618 435
7.4463 450
7.46641 475
7.48653 434
7.50664 447
7.52675 457
7.54687 472
7.56698 456
7.58709 476
7.60721 480
7.62732 445
7.64743 463
7.66755 492
7.68766 462
7.70778 458
7.72789 459
7.748 461
7.76812 436
7.78823 454
7.80834 458
7.82846 457
7.84857 455
7.86869 452
7.8888 431
7.90891 434
7.92903 443
7.94914 438
7.96925 472
7.98937 468
8.00948 448
8.0296 455
8.04971 483
8.06982 469
8.08994 431
8.11005 472
8.13016 439
8.15028 424
8.17039 515
8.1905 455
8.21062 464
8.23073 454
8.25085 442
8.27096 431
8.29107 406
8.31119 469
8.3313 446
8.35141 472
8.37153 437
8.39164 434
8.41176 498
8.43187 430
8.45198 474
8.4721 447
8.49221 447
8.51232 493
8.53244 454
8.55255 489
8.57266 496
8.59278 467
8.61289 477
8.63301 503
8.65312 456
8.67323 485
8.69335 485
8.71346 465
8.73357 522
8.75369 502
8.7738 463
8.79392 501
8.81403 515
8.83414 524
8.85426 450
8.87437 518
8.89448 493
8.9146 516
8.93471 519
8.95483 460
8.97494 458
8.99505 449
9.01517 463
9.03528 449
9.05539 491
9.07551 436
9.09562 449
9.11573 463
9.13585 461
9.15596 424
9.17608 459
9.19619 450
9.2163 447
9.23642 433
9.25653 461
9.27664 424
9.29676 456
9.31687 407
9.33699 415
9.3571 450
9.37721 432
9.39733 495
9.41744 463
9.43755 443
9.45767 480
9.47778 406
9.4979 419
9.51801 429
9.53812 446
9.55824 459
9.57835 447
9.59846 446
9.61858 454
9.63869 450
9.6588 432
9.67892 424
9.69903 439
9.71915 415
9.73926 463
9.75937 430
9.77949 444
9.7996 445
9.81971 449
9.83983 407
9.85994 453
9.88006 399
9.90017 475
9.92028 463
9.9404 420
9.96051 440
9.98062 410
10.00074 399
10.02085 457
10.04097 447
10.06108 414
10.08119 440
10.10131 431
10.12142 405
10.14153 440
10.16165 467
10.18176 449
10.20187 423
10.22199 437
10.2421 458
10.26222 429
10.28233 465
10.30244 470
10.32256 434
10.34267 427
10.36278 428
10.3829 437
10.40301 433
10.42313 441
10.44324 462
10.46335 446
10.48347 402
10.50358 425
10.52369 422
10.54381 474
10.56392 443
10.58403 438
10.60415 420
10.62426 442
10.64438 407
10.66449 445
10.6846 441
10.70472 432
10.72483 462
10.74494 437
10.76506 469
10.78517 433
10.80529 473
10.8254 466
10.84551 463
10.86563 457
10.88574 429
10.90585 468
10.92597 412
10.94608 483
10.9662 458
10.98631 429
11.00642 429
11.02654 391
11.04665 405
11.06676 449
11.08688 454
11.10699 470
11.1271 438
11.14722 481
11.16733 459
11.18745 458
11.20756 440
11.22767 483
11.24779 439
11.2679 461
11.28801 460
11.30813 486
11.32824 436
11.34836 454
11.36847 467
11.38858 444
11.4087 453
11.42881 464
11.44892 411
11.46904 472
11.48915 478
11.50927 446
11.52938 525
11.54949 475
11.56961 552
11.58972 496
11.60983 514
11.62995 505
11.65006 503
11.67017 517
11.69029 489
11.7104 519
11.73052 477
11.75063 483
11.77074 483
11.79086 529
11.81097 517
11.83108 525
11.8512 505
11.87131 507
11.89143 510
11.91154 531
11.93165 565
11.95177 588
11.97188 559
11.99199 567
12.01211 565
12.03222 576
12.05234 551
12.07245 548
12.09256 560
12.11268 558
12.13279 642
12.1529 583
12.17302 612
12.19313 619
12.21324 713
12.23336 596
12.25347 588
12.27359 660
12.2937 673
12.31381 682
12.33393 642
12.35404 634
12.37415 605
12.39427 565
12.41438 605
12.4345 607
12.45461 558
12.47472 568
12.49484 553
12.51495 600
12.53506 536
12.55518 540
12.57529 506
12.5954 482
12.61552 433
12.63563 504
12.65575 528
12.67586 462
12.69597 463
12.71609 453
12.7362 419
12.75631 477
12.77643 435
12.79654 501
12.81666 455
12.83677 455
12.85688 463
12.877 434
12.89711 500
12.91722 439
12.93734 437
12.95745 469
12.97757 423
12.99768 446
13.01779 432
13.03791 440
13.05802 420
13.07813 438
13.09825 453
13.11836 430
13.13847 410
13.15859 437
13.1787 424
13.19882 417
13.21893 375
13.23904 396
13.25916 383
13.27927 388
13.29938 415
13.3195 407
13.33961 406
13.35973 412
13.37984 434
13.39995 406
13.42007 468
13.44018 421
13.46029 436
13.48041 402
13.50052 364
13.52064 376
13.54075 364
13.56086 442
13.58098 415
13.60109 396
13.6212 427
13.64132 394
13.66143 409
13.68154 389
13.70166 404
13.72177 384
13.74189 393
13.762 377
13.78211 402
13.80223 394
13.82234 363
13.84245 392
13.86257 452
13.88268 391
13.9028 421
13.92291 380
13.94302 423
13.96314 402
13.98325 401
14.00336 425
14.02348 371
14.04359 412
14.06371 389
14.08382 385
14.10393 398
14.12405 420
14.14416 404
14.16427 407
14.18439 421
14.2045 394
14.22461 399
14.24473 402
14.26484 387
14.28496 421
14.30507 374
14.32518 413
14.3453 427
14.36541 400
14.38552 405
14.40564 406
14.42575 401
14.44587 411
14.46598 405
14.48609 408
14.50621 431
14.52632 346
14.54643 377
14.56655 447
14.58666 395
14.60677 397
14.62689 407
14.647 414
14.66712 387
14.68723 380
14.70734 387
14.72746 379
14.74757 443
14.76768 409
14.7878 390
14.80791 421
14.82803 406
14.84814 398
14.86825 382
14.88837 419
14.90848 402
14.92859 379
14.94871 430
14.96882 402
14.98894 429
15.00905 369
15.02916 406
15.04928 372
15.06939 430
15.0895 428
15.10962 391
15.12973 413
15.14984 393
15.16996 376
15.19007 385
15.21019 409
15.2303 358
15.25041 388
15.27053 419
15.29064 362
15.31075 378
15.33087 387
15.35098 391
15.3711 396
15.39121 399
15.41132 374
15.43144 419
15.45155 386
15.47166 421
15.49178 401
15.51189 407
15.53201 396
15.55212 391
15.57223 366
15.59235 376
15.61246 400
15.63257 414
15.65269 407
15.6728 407
15.69291 407
15.71303 410
15.73314 382
15.75326 428
15.77337 389
15.79348 411
15.8136 383
15.83371 423
15.85382 411
15.87394 400
15.89405 435
15.91417 396
15.93428 338
15.95439 398
15.97451 384
15.99462 394
16.01473 389
16.03485 387
16.05496 375
16.07508 370
16.09519 386
16.1153 387
16.13542 382
16.15553 389
16.17564 385
16.19576 399
16.21587 399
16.23598 418
16.2561 394
16.27621 405
16.29633 367
16.31644 359
16.33655 390
16.35667 370
16.37678 394
16.39689 388
16.41701 408
16.43712 386
16.45724 412
16.47735 403
16.49746 370
16.51758 441
16.53769 415
16.5578 399
16.57792 387
16.59803 400
16.61814 400
16.63826 375
16.65837 377
16.67849 381
16.6986 400
16.71871 433
16.73883 407
16.75894 435
16.77905 408
16.79917 405
16.81928 404
16.8394 351
16.85951 380
16.87962 373
16.89974 394
16.91985 408
16.93996 389
16.96008 438
16.98019 364
17.00031 385
17.02042 378
17.04053 434
17.06065 454
17.08076 426
17.10087 378
17.12099 377
17.1411 364
17.16121 363
17.18133 355
17.20144 375
17.22156 392
17.24167 415
17.26178 422
17.2819 378
17.30201 388
17.32212 390
17.34224 381
17.36235 423
17.38247 423
17.40258 413
17.42269 425
17.44281 385
17.46292 415
17.48303 428
17.50315 401
17.52326 417
17.54338 438
17.56349 428
17.5836 430
17.60372 412
17.62383 388
17.64394 436
17.66406 439
17.68417 389
17.70428 432
17.7244 439
17.74451 444
17.76463 466
17.78474 443
17.80485 434
17.82497 434
17.84508 473
17.86519 436
17.88531 453
17.90542 446
17.92554 454
17.94565 453
17.96576 458
17.98588 455
18.00599 425
18.0261 430
18.04622 396
18.06633 414
18.08645 427
18.10656 394
18.12667 434
18.14679 466
18.1669 411
18.18701 480
18.20713 413
18.22724 476
18.24735 445
18.26747 419
18.28758 421
18.3077 423
18.32781 427
18.34792 475
18.36804 462
18.38815 389
18.40826 412
18.42838 426
18.44849 430
18.46861 438
18.48872 423
18.50883 395
18.52895 410
18.54906 438
18.56917 412
18.58929 420
18.6094 433
18.62951 431
18.64963 445
18.66974 426
18.68986 379
18.70997 426
18.73008 415
18.7502 462
18.77031 426
18.79042 408
18.81054 408
18.83065 415
18.85077 435
18.87088 443
18.89099 432
18.91111 439
18.93122 380
18.95133 402
18.97145 392
18.99156 415
19.01168 439
19.03179 427
19.0519 417
19.07202 447
19.09213 397
19.11224 405
19.13236 431
19.15247 431
19.17258 408
19.1927 440
19.21281 430
19.23293 446
19.25304 485
19.27315 434
19.29327 436
19.31338 434
19.33349 470
19.35361 426
19.37372 459
19.39384 440
19.41395 476
19.43406 438
19.45418 441
19.47429 496
19.4944 516
19.51452 482
19.53463 526
19.55475 512
19.57486 540
19.59497 556
19.61509 604
19.6352 590
19.65531 654
19.67543 697
19.69554 727
19.71565 721
19.73577 757
19.75588 754
19.776 788
19.79611 808
19.81622 859
19.83634 824
19.85645 852
19.87656 874
19.89668 817
19.91679 788
19.93691 814
19.95702 706
19.97713 721
19.99725 709
20.01736 708
20.03747 750
20.05759 709
20.0777 750
20.09782 720
20.11793 748
20.13804 734
20.15816 660
20.17827 688
20.19838 689
20.2185 651
20.23861 682
20.25872 662
20.27884 717
20.29895 623
20.31907 676
20.33918 710
20.35929 678
20.37941 687
20.39952 749
20.41963 731
20.43975 730
20.45986 727
20.47998 643
20.50009 700
20.5202 770
20.54032 758
20.56043 741
20.58054 726
20.60066 702
20.62077 807
20.64088 834
20.661 929
20.68111 1082
20.70123 1280
20.72134 1456
20.74145 1760
20.76157 2149
20.78168 2502
20.80179 2859
20.82191 2899
20.84202 2912
20.86214 2587
20.88225 2294
20.90236 1762
20.92248 1459
20.94259 1063
20.9627 936
20.98282 883
21.00293 754
21.02305 746
21.04316 780
21.06327 690
21.08339 749
21.1035 780
21.12361 686
21.14373 690
21.16384 747
21.18395 723
21.20407 726
21.22418 760
21.2443 750
21.26441 754
21.28452 743
21.30464 700
21.32475 740
21.34486 759
21.36498 737
21.38509 734
21.40521 744
21.42532 652
21.44543 689
21.46555 668
21.48566 703
21.50577 711
21.52589 662
21.546 653
21.56612 594
21.58623 628
21.60634 666
21.62646 620
21.64657 600
21.66668 631
21.6868 606
21.70691 563
21.72702 583
21.74714 621
21.76725 568
21.78737 563
21.80748 547
21.82759 592
21.84771 594
21.86782 580
21.88793 591
21.90805 564
21.92816 600
21.94828 614
21.96839 547
21.9885 566
22.00862 588
22.02873 555
22.04884 540
22.06896 531
22.08907 536
22.10919 542
22.1293 545
22.14941 569
22.16953 556
22.18964 558
22.20975 561
22.22987 534
22.24998 485
22.27009 576
22.29021 521
22.31032 516
22.33044 517
22.35055 572
22.37066 563
22.39078 542
22.41089 513
22.431 555
22.45112 507
22.47123 554
22.49135 538
22.51146 559
22.53157 594
22.55169 598
22.5718 541
22.59191 501
22.61203 547
22.63214 581
22.65225 534
22.67237 528
22.69248 554
22.7126 543
22.73271 520
22.75282 543
22.77294 503
22.79305 536
22.81316 543
22.83328 527
22.85339 567
22.87351 545
22.89362 522
22.91373 548
22.93385 567
22.95396 502
22.97407 481
22.99419 531
23.0143 518
23.03442 506
23.05453 514
23.07464 510
23.09476 561
23.11487 500
23.13498 501
23.1551 528
23.17521 499
23.19532 539
23.21544 506
23.23555 522
23.25567 527
23.27578 500
23.29589 495
23.31601 523
23.33612 504
23.35623 495
23.37635 516
23.39646 494
23.41658 504
23.43669 517
23.4568 539
23.47692 556
23.49703 513
23.51714 532
23.53726 525
23.55737 473
23.57749 529
23.5976 556
23.61771 539
23.63783 512
23.65794 559
23.67805 535
23.69817 528
23.71828 511
23.73839 595
23.75851 510
23.77862 527
23.79874 618
23.81885 578
23.83896 554
23.85908 516
23.87919 543
23.8993 568
23.91942 540
23.93953 548
23.95965 571
23.97976 526
23.99987 574
24.01999 535
24.0401 531
24.06021 541
24.08033 508
24.10044 593
24.12056 556
24.14067 553
24.16078 565
24.1809 546
24.20101 551
24.22112 533
24.24124 555
24.26135 569
24.28146 531
24.30158 575
24.32169 560
24.34181 588
24.36192 566
24.38203 554
24.40215 614
24.42226 536
24.44237 559
24.46249 565
24.4826 582
24.50272 612
24.52283 581
24.54294 580
24.56306 594
24.58317 573
24.60328 605
24.6234 648
24.64351 616
24.66362 623
24.68374 628
24.70385 630
24.72397 610
24.74408 645
24.76419 647
24.78431 662
24.80442 733
24.82453 665
24.84465 652
24.86476 695
24.88488 688
24.90499 661
24.9251 662
24.94522 692
24.96533 707
24.98544 627
25.00556 677
25.02567 646
25.04579 680
25.0659 592
25.08601 641
25.10613 683
25.12624 655
25.14635 658
25.16647 671
25.18658 655
25.20669 686
25.22681 713
25.24692 702
25.26704 719
25.28715 640
25.30726 674
25.32738 679
25.34749 634
25.3676 628
25.38772 650
25.40783 629
25.42795 657
25.44806 633
25.46817 596
25.48829 567
25.5084 615
25.52851 603
25.54863 595
25.56874 596
25.58886 576
25.60897 591
25.62908 557
25.6492 554
25.66931 617
25.68942 619
25.70954 601
25.72965 627
25.74976 597
25.76988 576
25.78999 567
25.81011 577
25.83022 570
25.85033 567
25.87045 558
25.89056 621
25.91067 619
25.93079 579
25.9509 625
25.97102 608
25.99113 601
26.01124 609
26.03136 628
26.05147 626
26.07158 665
26.0917 633
26.11181 658
26.13193 694
26.15204 722
26.17215 705
26.19227 714
26.21238 729
26.23249 786
26.25261 820
26.27272 852
26.29283 921
26.31295 926
26.33306 1103
26.35318 1132
26.37329 1298
26.3934 1483
26.41352 1736
26.43363 2194
26.45374 2751
26.47386 3629
26.49397 4917
26.51409 6279
26.5342 7946
26.55431 9805
26.57443 11148
26.59454 11582
26.61465 11555
26.63477 10685
26.65488 8768
26.67499 6801
26.69511 5143
26.71522 3545
26.73534 2579
26.75545 1780
26.77556 1320
26.79568 1209
26.81579 1041
26.8359 966
26.85602 908
26.87613 832
26.89625 817
26.91636 771
26.93647 739
26.95659 698
26.9767 707
26.99681 666
27.01693 659
27.03704 634
27.05716 589
27.07727 627
27.09738 589
27.1175 605
27.13761 564
27.15772 571
27.17784 570
27.19795 530
27.21806 589
27.23818 561
27.25829 550
27.27841 590
27.29852 629
27.31863 586
27.33875 613
27.35886 593
27.37897 615
27.39909 618
27.4192 641
27.43932 617
27.45943 619
27.47954 642
27.49966 600
27.51977 588
27.53988 578
27.56 559
27.58011 532
27.60023 561
27.62034 582
27.64045 542
27.66057 537
27.68068 531
27.70079 552
27.72091 526
27.74102 543
27.76113 482
27.78125 538
27.80136 549
27.82148 554
27.84159 540
27.8617 529
27.88182 536
27.90193 487
27.92204 500
27.94216 492
27.96227 510
27.98239 517
28.0025 509
28.02261 493
28.04273 514
28.06284 443
28.08295 435
28.10307 501
28.12318 501
28.1433 486
28.16341 478
28.18352 469
28.20364 492
28.22375 468
28.24386 493
28.26398 433
28.28409 470
28.3042 472
28.32432 442
28.34443 490
28.36455 455
28.38466 477
28.40477 481
28.42489 472
28.445 439
28.46511 501
28.48523 465
28.50534 474
28.52546 455
28.54557 469
28.56568 490
28.5858 461
28.60591 451
28.62602 486
28.64614 450
28.66625 507
28.68636 491
28.70648 484
28.72659 451
28.74671 445
28.76682 463
28.78693 477
28.80705 422
28.82716 467
28.84727 462
28.86739 478
28.8875 440
28.90762 466
28.92773 468
28.94784 462
28.96796 471
28.98807 455
29.00818 495
29.0283 458
29.04841 484
29.06853 457
29.08864 446
29.10875 437
29.12887 444
29.14898 480
29.16909 458
29.18921 454
29.20932 442
29.22943 458
29.24955 445
29.26966 481
29.28978 433
29.30989 478
29.33 428
29.35012 430
29.37023 494
29.39034 450
29.41046 452
29.43057 482
29.45069 450
29.4708 442
29.49091 475
29.51103 461
29.53114 484
29.55125 393
29.57137 457
29.59148 474
29.6116 466
29.63171 454
29.65182 461
29.67194 494
29.69205 428
29.71216 501
29.73228 510
29.75239 446
29.7725 509
29.79262 498
29.81273 454
29.83285 489
29.85296 485
29.87307 485
29.89319 481
29.9133 485
29.93341 488
29.95353 492
29.97364 469
29.99376 436
30.01387 429
30.03398 479
30.0541 485
30.07421 473
30.09432 472
30.11444 486
30.13455 486
30.15467 439
30.17478 434
30.19489 498
30.21501 491
30.23512 474
30.25523 476
30.27535 512
30.29546 488
30.31557 448
30.33569 470
30.3558 451
30.37592 443
30.39603 450
30.41614 467
30.43626 452
30.45637 453
30.47648 487
30.4966 476
30.51671 447
30.53683 472
30.55694 419
30.57705 462
30.59717 446
30.61728 465
30.63739 492
30.65751 459
30.67762 439
30.69773 481
30.71785 456
30.73796 461
30.75808 473
30.77819 475
30.7983 464
30.81842 457
30.83853 504
30.85864 446
30.87876 458
30.89887 438
30.91899 489
30.9391 440
30.95921 467
30.97933 465
30.99944 434
31.01955 450
31.03967 430
31.05978 443
31.0799 447
31.10001 430
31.12012 454
31.14024 500
31.16035 466
31.18046 479
31.20058 446
31.22069 413
31.2408 504
31.26092 440
31.28103 459
31.30115 452
31.32126 422
31.34137 470
31.36149 456
31.3816 431
31.40171 448
31.42183 498
31.44194 434
31.46206 443
31.48217 454
31.50228 442
31.5224 425
31.54251 461
31.56262 476
31.58274 447
31.60285 397
31.62297 459
31.64308 415
31.66319 436
31.68331 419
31.70342 430
31.72353 451
31.74365 404
31.76376 429
31.78387 471
31.80399 482
31.8241 418
31.84422 459
31.86433 444
31.88444 466
31.90456 414
31.92467 456
31.94478 441
31.9649 410
31.98501 460
32.00513 454
32.02524 472
32.04535 484
32.06547 476
32.08558 449
32.10569 437
32.12581 479
32.14592 457
32.16604 447
32.18615 428
32.20626 410
32.22638 475
32.24649 435
32.2666 425
32.28672 434
32.30683 443
32.32694 492
32.34706 456
32.36717 423
32.38729 485
32.4074 476
32.42751 483
32.44763 466
32.46774 512
32.48785 449
32.50797 488
32.52808 463
32.5482 481
32.56831 444
32.58842 442
32.60854 466
32.62865 512
32.64876 439
32.66888 465
32.68899 461
32.7091 434
32.72922 473
32.74933 483
32.76945 462
32.78956 453
32.80967 461
32.82979 474
32.8499 442
32.87001 445
32.89013 514
32.91024 494
32.93036 467
32.95047 545
32.97058 506
32.9907 491
33.01081 472
33.03092 526
33.05104 488
33.07115 521
33.09127 551
33.11138 536
33.13149 530
33.15161 524
33.17172 585
33.19183 582
33.21195 541
33.23206 527
33.25217 523
33.27229 548
33.2924 538
33.31252 505
33.33263 513
33.35274 558
33.37286 550
33.39297 519
33.41308 535
33.4332 520
33.45331 530
33.47343 530
33.49354 515
33.51365 531
33.53377 531
33.55388 538
33.57399 505
33.59411 493
33.61422 514
33.63434 454
33.65445 503
33.67456 462
33.69468 495
33.71479 480
33.7349 527
33.75502 461
33.77513 461
33.79524 481
33.81536 502
33.83547 464
33.85559 430
33.8757 470
33.89581 413
33.91593 481
33.93604 466
33.95615 495
33.97627 453
33.99638 457
34.0165 494
34.03661 437
34.05672 483
34.07684 448
34.09695 470
34.11706 437
34.13718 456
34.15729 445
34.17741 492
34.19752 493
34.21763 480
34.23775 459
34.25786 485
34.27797 508
34.29809 478
34.3182 521
34.33831 529
34.35843 518
34.37854 525
34.39866 555
34.41877 539
34.43888 539
34.459 545
34.47911 581
34.49922 579
34.51934 583
34.53945 531
34.55957 562
34.57968 558
34.59979 547
34.61991 559
34.64002 649
34.66013 620
34.68025 634
34.70036 673
34.72047 601
34.74059 683
34.7607 694
34.78082 705
34.80093 694
34.82104 706
34.84116 757
34.86127 758
34.88138 664
34.9015 776
34.92161 728
34.94173 724
34.96184 711
34.98195 687
35.00207 640
35.02218 662
35.04229 636
35.06241 638
35.08252 624
35.10264 634
35.12275 627
35.14286 577
35.16298 644
35.18309 597
35.2032 618
35.22332 619
35.24343 612
35.26354 600
35.28366 554
35.30377 624
35.32389 601
35.344 556
35.36411 551
35.38423 650
35.40434 629
35.42445 634
35.44457 586
35.46468 605
35.4848 641
35.50491 602
35.52502 607
35.54514 627
35.56525 650
35.58536 630
35.60548 641
35.62559 662
35.64571 599
35.66582 613
35.68593 663
35.70605 649
35.72616 663
35.74627 685
35.76639 684
35.7865 674
35.80661 660
35.82673 682
35.84684 639
35.86696 668
35.88707 641
35.90718 668
35.9273 659
35.94741 661
35.96752 611
35.98764 680
36.00775 624
36.02787 696
36.04798 660
36.06809 624
36.08821 604
36.10832 644
36.12843 596
36.14855 619
36.16866 631
36.18878 594
36.20889 610
36.229 634
36.24912 580
36.26923 647
36.28934 616
36.30946 713
36.32957 705
36.34968 764
36.3698 818
36.38991 901
36.41003 979
36.43014 1091
36.45025 1091
36.47037 1296
36.49048 1255
36.51059 1267
36.53071 1209
36.55082 1097
36.57094 994
36.59105 915
36.61116 844
36.63128 804
36.65139 692
36.6715 667
36.69162 582
36.71173 569
36.73184 578
36.75196 592
36.77207 590
36.79219 511
36.8123 557
36.83241 576
36.85253 639
36.87264 589
36.89275 589
36.91287 565
36.93298 582
36.9531 597
36.97321 606
36.99332 623
37.01344 617
37.03355 545
37.05366 561
37.07378 565
37.09389 618
37.11401 577
37.13412 573
37.15423 545
37.17435 554
37.19446 554
37.21457 539
37.23469 557
37.2548 555
37.27491 550
37.29503 518
37.31514 514
37.33526 522
37.35537 513
37.37548 555
37.3956 559
37.41571 525
37.43582 536
37.45594 541
37.47605 568
37.49617 516
37.51628 488
37.53639 571
37.55651 543
37.57662 566
37.59673 546
37.61685 558
37.63696 563
37.65708 571
37.67719 569
37.6973 562
37.71742 570
37.73753 569
37.75764 539
37.77776 536
37.79787 560
37.81798 482
37.8381 498
37.85821 503
37.87833 551
37.89844 520
37.91855 578
37.93867 501
37.95878 521
37.97889 494
37.99901 500
38.01912 491
38.03924 499
38.05935 557
38.07946 505
38.09958 537
38.11969 524
38.1398 545
38.15992 538
38.18003 518
38.20015 507
38.22026 578
38.24037 540
38.26049 561
38.2806 599
38.30071 551
38.32083 585
38.34094 533
38.36105 521
38.38117 547
38.40128 554
38.4214 593
38.44151 564
38.46162 537
38.48174 530
38.50185 512
38.52196 550
38.54208 550
38.56219 555
38.58231 531
38.60242 540
38.62253 560
38.64265 519
38.66276 507
38.68287 509
38.70299 492
38.7231 520
38.74321 493
38.76333 482
38.78344 506
38.80356 471
38.82367 544
38.84378 485
38.8639 524
38.88401 509
38.90412 524
38.92424 499
38.94435 481
38.96447 520
38.98458 509
39.00469 491
39.02481 563
39.04492 530
39.06503 519
39.08515 509
39.10526 503
39.12538 523
39.14549 566
39.1656 504
39.18572 584
39.20583 573
39.22594 598
39.24606 614
39.26617 664
39.28628 676
39.3064 797
39.32651 831
39.34663 943
39.36674 988
39.38685 1055
39.40697 1153
39.42708 1175
39.44719 1127
39.46731 992
39.48742 912
39.50754 843
39.52765 728
39.54776 665
39.56788 656
39.58799 583
39.6081 561
39.62822 517
39.64833 495
39.66845 484
39.68856 474
39.70867 453
39.72879 494
39.7489 461
39.76901 488
39.78913 493
39.80924 480
39.82935 497
39.84947 468
39.86958 500
39.8897 475
39.90981 470
39.92992 498
39.95004 477
39.97015 505
39.99026 526
40.01038 506
40.03049 586
40.05061 534
40.07072 515
40.09083 566
40.11095 618
40.13106 612
40.15117 721
40.17129 709
40.1914 724
40.21152 787
40.23163 782
40.25174 799
40.27186 763
40.29197 723
40.31208 693
40.3322 689
40.35231 598
40.37242 652
40.39254 592
40.41265 546
40.43277 547
40.45288 504
40.47299 537
40.49311 484
40.51322 497
40.53333 505
40.55345 511
40.57356 507
40.59368 503
40.61379 464
40.6339 487
40.65402 466
40.67413 468
40.69424 473
40.71436 514
40.73447 496
40.75458 481
40.7747 482
40.79481 518
40.81493 491
40.83504 508
40.85515 479
40.87527 484
40.89538 487
40.91549 488
40.93561 546
40.95572 455
40.97584 522
40.99595 505
41.01606 519
41.03618 479
41.05629 489
41.0764 482
41.09652 512
41.11663 530
41.13675 518
41.15686 494
41.17697 554
41.19709 510
41.2172 484
41.23731 463
41.25743 498
41.27754 447
41.29765 492
41.31777 451
41.33788 462
41.358 475
41.37811 479
41.39822 486
41.41834 473
41.43845 504
41.45856 459
41.47868 513
41.49879 440
41.51891 465
41.53902 471
41.55913 465
41.57925 495
41.59936 484
41.61947 484
41.63959 473
41.6597 473
41.67982 420
41.69993 467
41.72004 494
41.74016 494
41.76027 475
41.78038 479
41.8005 432
41.82061 493
41.84072 464
41.86084 449
41.88095 440
41.90107 451
41.92118 429
41.94129 502
41.96141 444
41.98152 446
42.00163 468
42.02175 465
42.04186 456
42.06198 417
42.08209 448
42.1022 470
42.12232 442
42.14243 484
42.16254 504
42.18266 525
42.20277 535
42.22289 555
42.243 532
42.26311 649
42.28323 667
42.30334 709
42.32345 781
42.34357 822
42.36368 859
42.38379 899
42.40391 909
42.42402 839
42.44414 813
42.46425 720
42.48436 732
42.50448 654
42.52459 599
42.5447 581
42.56482 519
42.58493 529
42.60505 439
42.62516 470
42.64527 435
42.66539 429
42.6855 437
42.70561 439
42.72573 444
42.74584 422
42.76595 429
42.78607 404
42.80618 415
42.8263 433
42.84641 421
42.86652 418
42.88664 407
42.90675 397
42.92686 400
42.94698 446
42.96709 417
42.98721 396
43.00732 408
43.02743 362
43.04755 466
43.06766 411
43.08777 440
43.10789 382
43.128 447
43.14812 416
43.16823 448
43.18834 417
43.20846 425
43.22857 411
43.24868 416
43.2688 386
43.28891 400
43.30902 387
43.32914 415
43.34925 415
43.36937 405
43.38948 434
43.40959 395
43.42971 409
43.44982 402
43.46993 432
43.49005 409
43.51016 362
43.53028 401
43.55039 412
43.5705 422
43.59062 430
43.61073 407
43.63084 411
43.65096 416
43.67107 425
43.69119 408
43.7113 418
43.73141 440
43.75153 478
43.77164 388
43.79175 356
43.81187 428
43.83198 419
43.85209 422
43.87221 430
43.89232 446
43.91244 414
43.93255 414
43.95266 417
43.97278 430
43.99289 461
44.013 433
44.03312 407
44.05323 404
44.07335 419
44.09346 441
44.11357 414
44.13369 414
44.1538 408
44.17391 416
44.19403 384
44.21414 396
44.23426 422
44.25437 424
44.27448 385
44.2946 419
44.31471 406
44.33482 400
44.35494 374
44.37505 430
44.39516 400
44.41528 408
44.43539 396
44.45551 406
44.47562 421
44.49573 415
44.51585 433
44.53596 445
44.55607 415
44.57619 418
44.5963 413
44.61642 424
44.63653 399
44.65664 381
44.67676 430
44.69687 426
44.71698 403
44.7371 416
44.75721 427
44.77732 428
44.79744 403
44.81755 428
44.83767 416
44.85778 454
44.87789 405
44.89801 453
44.91812 430
44.93823 413
44.95835 400
44.97846 396
44.99858 419
45.01869 410
45.0388 423
45.05892 384
45.07903 454
45.09914 420
45.11926 429
45.13937 424
45.15949 438
45.1796 430
45.19971 454
45.21983 412
45.23994 423
45.26005 457
45.28017 477
45.30028 484
45.32039 448
45.34051 438
45.36062 473
45.38074 450
45.40085 474
45.42096 495
45.44108 437
45.46119 474
45.4813 480
45.50142 488
45.52153 484
45.54165 501
45.56176 524
45.58187 566
45.60199 560
45.6221 557
45.64221 673
45.66233 680
45.68244 718
45.70256 659
45.72267 688
45.74278 749
45.7629 717
45.78301 725
45.80312 629
45.82324 620
45.84335 606
45.86346 535
45.88358 517
45.90369 532
45.92381 524
45.94392 498
45.96403 457
45.98415 417
46.00426 419
46.02437 453
46.04449 447
46.0646 426
46.08472 453
46.10483 416
46.12494 406
46.14506 441
46.16517 431
46.18528 408
46.2054 422
46.22551 425
46.24563 418
46.26574 467
46.28585 418
46.30597 459
46.32608 410
46.34619 384
46.36631 464
46.38642 425
46.40653 456
46.42665 430
46.44676 416
46.46688 462
46.48699 444
46.5071 435
46.52722 387
46.54733 402
46.56744 423
46.58756 373
46.60767 374
46.62779 415
46.6479 427
46.66801 400
46.68813 440
46.70824 428
46.72835 401
46.74847 404
46.76858 404
46.78869 405
46.80881 444
46.82892 421
46.84904 414
46.86915 408
46.88926 407
46.90938 435
46.92949 423
46.9496 437
46.96972 425
46.98983 430
47.00995 428
47.03006 399
47.05017 376
47.07029 435
47.0904 419
47.11051 414
47.13063 437
47.15074 445
47.17086 397
47.19097 396
47.21108 412
47.2312 445
47.25131 416
47.27142 378
47.29154 403
47.31165 410
47.33176 413
47.35188 419
47.37199 373
47.39211 394
47.41222 394
47.43233 414
47.45245 430
47.47256 428
47.49267 393
47.51279 434
47.5329 389
47.55302 408
47.57313 403
47.59324 432
47.61336 382
47.63347 408
47.65358 431
47.6737 406
47.69381 411
47.71393 464
47.73404 404
47.75415 451
47.77427 392
47.79438 428
47.81449 412
47.83461 433
47.85472 435
47.87483 409
47.89495 445
47.91506 445
47.93518 417
47.95529 395
47.9754 428
47.99552 446
48.01563 436
48.03574 491
48.05586 425
48.07597 428
48.09609 420
48.1162 430
48.13631 419
48.15643 447
48.17654 405
48.19665 397
48.21677 376
48.23688 432
48.257 414
48.27711 390
48.29722 403
48.31734 395
48.33745 404
48.35756 423
48.37768 422
48.39779 436
48.4179 401
48.43802 414
48.45813 408
48.47825 445
48.49836 439
48.51847 417
48.53859 402
48.5587 434
48.57881 446
48.59893 408
48.61904 386
48.63916 400
48.65927 455
48.67938 404
48.6995 415
48.71961 479
48.73972 400
48.75984 441
48.77995 423
48.80006 405
48.82018 403
48.84029 418
48.86041 397
48.88052 401
48.90063 438
48.92075 397
48.94086 445
48.96097 422
48.98109 445
49.0012 393
49.02132 403
49.04143 415
49.06154 447
49.08166 389
49.10177 407
49.12188 440
49.142 421
49.16211 389
49.18223 399
49.20234 398
49.22245 430
49.24257 419
49.26268 401
49.28279 423
49.30291 438
49.32302 417
49.34313 434
49.36325 417
49.38336 437
49.40348 422
49.42359 390
49.4437 405
49.46382 435
49.48393 425
49.50404 419
49.52416 446
49.54427 435
49.56439 407
49.5845 425
49.60461 431
49.62473 443
49.64484 461
49.66495 483
49.68507 472
49.70518 491
49.7253 454
49.74541 446
49.76552 485
49.78564 508
49.80575 495
49.82586 558
49.84598 590
49.86609 611
49.8862 619
49.90632 699
49.92643 763
49.94655 843
49.96666 992
49.98677 1079
50.00689 1278
50.027 1369
50.04711 1396
50.06723 1541
50.08734 1464
50.10746 1444
50.12757 1250
50.14768 1214
50.1678 1103
50.18791 996
50.20802 963
50.22814 975
50.24825 821
50.26837 678
50.28848 581
50.30859 547
50.32871 498
50.34882 478
50.36893 496
50.38905 489
50.40916 463
50.42927 432
50.44939 480
50.4695 481
50.48962 463
50.50973 453
50.52984 447
50.54996 474
50.57007 470
50.59018 455
50.6103 505
50.63041 432
50.65053 369
50.67064 441
50.69075 405
50.71087 424
50.73098 447
50.75109 436
50.77121 443
50.79132 397
50.81143 431
50.83155 403
50.85166 416
50.87178 406
50.89189 416
50.912 435
50.93212 447
50.95223 454
50.97234 398
50.99246 405
51.01257 424
51.03269 422
51.0528 430
51.07291 418
51.09303 398
51.11314 429
51.13325 403
51.15337 473
51.17348 386
51.1936 370
51.21371 411
51.23382 403
51.25394 378
51.27405 381
51.29416 387
51.31428 429
51.33439 391
51.3545 355
51.37462 422
51.39473 426
51.41485 397
51.43496 382
51.45507 372
51.47519 372
51.4953 384
51.51541 417
51.53553 405
51.55564 399
51.57576 366
51.59587 387
51.61598 408
51.6361 408
51.65621 396
51.67632 387
51.69644 361
51.71655 394
51.73667 373
51.75678 369
51.77689 379
51.79701 389
51.81712 389
51.83723 354
51.85735 369
51.87746 398
51.89757 418
51.91769 385
51.9378 380
51.95792 382
51.97803 407
51.99814 406
52.01826 430
52.03837 379
52.05848 404
52.0786 422
52.09871 361
52.11883 407
52.13894 410
52.15905 388
52.17917 419
52.19928 394
52.21939 384
52.23951 433
52.25962 421
52.27974 436
52.29985 391
52.31996 373
52.34008 388
52.36019 405
52.3803 388
52.40042 386
52.42053 400
52.44064 403
52.46076 379
52.48087 438
52.50099 389
52.5211 395
52.54121 393
52.56133 408
52.58144 390
52.60155 378
52.62167 385
52.64178 430
52.6619 403
52.68201 388
52.70212 394
52.72224 392
52.74235 413
52.76246 397
52.78258 406
52.80269 402
52.8228 422
52.84292 406
52.86303 435
52.88315 419
52.90326 434
52.92337 418
52.94349 416
52.9636 424
52.98371 407
53.00383 426
53.02394 419
53.04406 389
53.06417 442
53.08428 466
53.1044 413
53.12451 424
53.14462 447
53.16474 438
53.18485 448
53.20497 397
53.22508 455
53.24519 480
53.26531 403
53.28542 455
53.30553 452
53.32565 460
53.34576 449
53.36587 437
53.38599 436
53.4061 462
53.42622 466
53.44633 421
53.46644 466
53.48656 455
53.50667 474
53.52678 466
53.5469 475
53.56701 501
53.58713 519
53.60724 463
53.62735 476
53.64747 493
53.66758 501
53.68769 524
53.70781 475
53.72792 504
53.74804 508
53.76815 470
53.78826 531
53.80838 500
53.82849 551
53.8486 482
53.86872 493
53.88883 507
53.90894 519
53.92906 511
53.94917 513
53.96929 517
53.9894 500
54.00951 472
54.02963 500
54.04974 489
54.06985 520
54.08997 486
54.11008 525
54.1302 552
54.15031 513
54.17042 511
54.19054 525
54.21065 520
54.23076 531
54.25088 526
54.27099 532
54.29111 459
54.31122 521
54.33133 537
54.35145 493
54.37156 547
54.39167 501
54.41179 545
54.4319 520
54.45201 504
54.47213 515
54.49224 522
54.51236 501
54.53247 539
54.55258 481
54.5727 520
54.59281 571
54.61292 558
54.63304 569
54.65315 551
54.67327 604
54.69338 651
54.71349 683
54.73361 730
54.75372 727
54.77383 768
54.79395 797
54.81406 812
54.83417 789
54.85429 718
54.8744 729
54.89452 704
54.91463 690
54.93474 641
54.95486 679
54.97497 616
54.99508 632
55.0152 601
55.03531 574
55.05543 545
55.07554 561
55.09565 522
55.11577 549
55.13588 558
55.15599 547
55.17611 520
55.19622 576
55.21634 622
55.23645 636
55.25656 637
55.27668 620
55.29679 613
55.3169 587
55.33702 559
55.35713 588
55.37724 545
55.39736 569
55.41747 523
55.43759 554
55.4577 517
55.47781 530
55.49793 477
55.51804 512
55.53815 481
55.55827 461
55.57838 484
55.5985 446
55.61861 489
55.63872 491
55.65884 452
55.67895 439
55.69906 447
55.71918 436
55.73929 439
55.75941 456
55.77952 442
55.79963 488
55.81975 489
55.83986 447
55.85997 434
55.88009 417
55.9002 427
55.92031 417
55.94043 460
55.96054 445
55.98066 445
56.00077 417
56.02088 433
56.041 440
56.06111 392
56.08122 457
56.10134 445
56.12145 433
56.14157 411
56.16168 423
56.18179 451
56.20191 450
56.22202 417
56.24213 442
56.26225 447
56.28236 437
56.30248 465
56.32259 451
56.3427 420
56.36282 391
56.38293 431
56.40304 421
56.42316 443
56.44327 429
56.46338 439
56.4835 435
56.50361 442
56.52373 453
56.54384 434
56.56395 459
56.58407 439
56.60418 445
56.62429 433
56.64441 429
56.66452 393
56.68464 436
56.70475 388
56.72486 404
56.74498 438
56.76509 447
56.7852 449
56.80532 399
56.82543 406
56.84554 430
56.86566 406
56.88577 437
56.90589 402
56.926 479
56.94611 405
56.96623 384
56.98634 460
57.00645 439
57.02657 429
57.04668 425
57.0668 483
57.08691 416
57.10702 417
57.12714 411
57.14725 449
57.16736 417
57.18748 419
57.20759 417
57.22771 417
57.24782 378
57.26793 422
57.28805 418
57.30816 421
57.32827 467
57.34839 365
57.3685 409
57.38861 472
57.40873 398
57.42884 411
57.44896 377
57.46907 437
57.48918 443
57.5093 427
57.52941 412
57.54952 414
57.56964 384
57.58975 425
57.60987 391
57.62998 468
57.65009 399
57.67021 451
57.69032 458
57.71043 446
57.73055 423
57.75066 384
57.77078 448
57.79089 460
57.811 392
57.83112 380
57.85123 391
57.87134 431
57.89146 398
57.91157 428
57.93168 398
57.9518 418
57.97191 413
57.99203 414
58.01214 410
58.03225 410
58.05237 401
58.07248 426
58.09259 408
58.11271 386
58.13282 392
58.15294 405
58.17305 408
58.19316 442
58.21328 402
58.23339 401
58.2535 372
58.27362 404
58.29373 444
58.31385 427
58.33396 392
58.35407 440
58.37419 378
58.3943 432
58.41441 404
58.43453 366
58.45464 400
58.47475 400
58.49487 429
58.51498 365
58.5351 361
58.55521 414
58.57532 418
58.59544 425
58.61555 391
58.63566 360
58.65578 386
58.67589 394
58.69601 410
58.71612 378
58.73623 417
58.75635 371
58.77646 395
58.79657 397
58.81669 382
58.8368 391
58.85691 388
58.87703 419
58.89714 449
58.91726 374
58.93737 446
58.95748 412
58.9776 437
58.99771 407
59.01782 426
59.03794 431
59.05805 425
59.07817 408
59.09828 438
59.11839 439
59.13851 443
59.15862 433
59.17873 404
59.19885 423
59.21896 418
59.23908 410
59.25919 441
59.2793 386
59.29942 433
59.31953 466
59.33964 428
59.35976 436
59.37987 420
59.39998 439
59.4201 479
59.44021 424
59.46033 451
59.48044 410
59.50055 457
59.52067 460
59.54078 451
59.56089 486
59.58101 462
59.60112 476
59.62124 508
59.64135 507
59.66146 521
59.68158 580
59.70169 541
59.7218 631
59.74192 678
59.76203 721
59.78215 770
59.80226 901
59.82237 959
59.84249 986
59.8626 1070
59.88271 1090
59.90283 1112
59.92294 1016
59.94305 955
59.96317 857
59.98328 850
60.0034 784
60.02351 793
60.04362 810
60.06374 761
60.08385 695
60.10396 654
60.12408 558
60.14419 516
60.16431 507
60.18442 438
60.20453 466
60.22465 434
60.24476 404
60.26487 421
60.28499 447
60.3051 397
60.32522 420
60.34533 431
60.36544 443
60.38556 420
60.40567 464
60.42578 426
60.4459 449
60.46601 405
60.48612 349
60.50624 410
60.52635 415
60.54647 388
60.56658 369
60.58669 441
60.60681 405
60.62692 389
60.64703 414
60.66715 426
60.68726 406
60.70738 418
60.72749 419
60.7476 400
60.76772 398
60.78783 402
60.80794 408
60.82806 392
60.84817 384
60.86828 425
60.8884 406
60.90851 419
60.92863 441
60.94874 387
60.96885 412
60.98897 428
61.00908 419
61.02919 391
61.04931 438
61.06942 423
61.08954 403
61.10965 414
61.12976 426
61.14988 396
61.16999 410
61.1901 454
61.21022 407
61.23033 424
61.25045 436
61.27056 381
61.29067 469
61.31079 412
61.3309 421
61.35101 452
61.37113 455
61.39124 490
61.41135 473
61.43147 455
61.45158 465
61.4717 487
61.49181 463
61.51192 449
61.53204 456
61.55215 479
61.57226 481
61.59238 440
61.61249 489
61.63261 433
61.65272 462
61.67283 438
61.69295 497
61.71306 469
61.73317 456
61.75329 452
61.7734 452
61.79352 472
61.81363 477
61.83374 522
61.85386 463
61.87397 455
61.89408 427
61.9142 465
61.93431 467
61.95442 482
61.97454 451
61.99465 481
62.01477 486
62.03488 471
62.05499 548
62.07511 483
62.09522 543
62.11533 563
62.13545 534
62.15556 530
62.17568 524
62.19579 523
62.2159 521
62.23602 555
62.25613 484
62.27624 535
62.29636 483
62.31647 535
62.33659 466
62.3567 484
62.37681 468
62.39693 489
62.41704 482
62.43715 492
62.45727 478
62.47738 503
62.49749 463
62.51761 461
62.53772 455
62.55784 424
62.57795 456
62.59806 466
62.61818 453
62.63829 462
62.6584 411
62.67852 465
62.69863 478
62.71875 438
62.73886 432
62.75897 443
62.77909 425
62.7992 431
62.81931 419
62.83943 402
62.85954 444
62.87965 416
62.89977 417
62.91988 449
62.94 428
62.96011 444
62.98022 427
63.00034 404
63.02045 464
63.04056 429
63.06068 438
63.08079 453
63.10091 433
63.12102 413
63.14113 430
63.16125 449
63.18136 480
63.20147 430
63.22159 452
63.2417 381
63.26182 433
63.28193 421
63.30204 440
63.32216 440
63.34227 425
63.36238 432
63.3825 440
63.40261 423
63.42272 416
63.44284 415
63.46295 417
63.48307 444
63.50318 434
63.52329 390
63.54341 435
63.56352 417
63.58363 404
63.60375 432
63.62386 448
63.64398 447
63.66409 429
63.6842 420
63.70432 431
63.72443 457
63.74454 465
63.76466 462
63.78477 448
63.80489 456
63.825 474
63.84511 476
63.86523 456
63.88534 545
63.90545 531
63.92557 556
63.94568 553
63.96579 571
63.98591 589
64.00602 549
64.02614 489
64.04625 489
64.06636 534
64.08648 536
64.10659 507
64.1267 499
64.14682 485
64.16693 492
64.18705 488
64.20716 421
64.22727 443
64.24739 417
64.2675 423
64.28761 484
64.30773 418
64.32784 462
64.34796 409
64.36807 419
64.38818 430
64.4083 438
64.42841 384
64.44852 440
64.46864 434
64.48875 437
64.50886 421
64.52898 410
64.54909 430
64.56921 403
64.58932 414
64.60943 434
64.62955 404
64.64966 421
64.66977 413
64.68989 431
64.71 426
64.73012 415
64.75023 397
64.77034 386
64.79046 407
64.81057 415
64.83068 362
64.8508 417
64.87091 398
64.89102 390
64.91114 415
64.93125 402
64.95137 389
64.97148 392
64.99159 399
65.01171 398
65.03182 405
65.05193 384
65.07205 386
65.09216 371
65.11228 382
65.13239 433
65.1525 356
65.17262 371
65.19273 387
65.21284 368
65.23296 364
65.25307 425
65.27319 372
65.2933 386
65.31341 427
65.33353 383
65.35364 378
65.37375 392
65.39387 353
65.41398 392
65.43409 402
65.45421 395
65.47432 378
65.49444 404
65.51455 386
65.53466 423
65.55478 409
65.57489 399
65.595 395
65.61512 419
65.63523 415
65.65535 448
65.67546 391
65.69557 386
65.71569 401
65.7358 448
65.75591 371
65.77603 382
65.79614 387
65.81626 412
65.83637 370
65.85648 411
65.8766 412
65.89671 406
65.91682 423
65.93694 379
65.95705 378
65.97716 358
65.99728 390
66.01739 335
66.03751 429
66.05762 358
66.07773 395
66.09785 356
66.11796 404
66.13807 391
66.15819 398
66.1783 389
66.19842 398
66.21853 403
66.23864 366
66.25876 381
66.27887 340
66.29898 405
66.3191 371
66.33921 346
66.35933 375
66.37944 378
66.39955 376
66.41967 371
66.43978 373
66.45989 380
66.48001 374
66.50012 401
66.52023 362
66.54035 370
66.56046 370
66.58058 354
66.60069 372
66.6208 354
66.64092 371
66.66103 368
66.68114 380
66.70126 363
66.72137 380
66.74149 360
66.7616 398
66.78171 355
66.80183 359
66.82194 364
66.84205 388
66.86217 342
66.88228 408
66.90239 377
66.92251 348
66.94262 373
66.96274 410
66.98285 393
67.00296 382
67.02308 402
67.04319 371
67.0633 383
67.08342 420
67.10353 426
67.12365 416
67.14376 412
67.16387 401
67.18399 412
67.2041 402
67.22421 362
67.24433 388
67.26444 398
67.28456 436
67.30467 407
67.32478 456
67.3449 429
67.36501 441
67.38512 433
67.40524 429
67.42535 427
67.44546 456
67.46558 476
67.48569 519
67.50581 526
67.52592 602
67.54603 558
67.56615 620
67.58626 688
67.60637 716
67.62649 745
67.6466 806
67.66672 770
67.68683 735
67.70694 753
67.72706 703
67.74717 624
67.76728 685
67.7874 678
67.80751 637
67.82763 676
67.84774 700
67.86785 699
67.88797 726
67.90808 670
67.92819 760
67.94831 746
67.96842 700
67.98853 806
68.00865 860
68.02876 883
68.04888 974
68.06899 976
68.0891 958
68.10922 972
68.12933 944
68.14944 881
68.16956 862
68.18967 911
68.20979 871
68.2299 902
68.25001 871
68.27013 883
68.29024 847
68.31035 754
68.33047 703
68.35058 633
68.3707 619
68.39081 541
68.41092 538
68.43104 587
68.45115 559
68.47126 523
68.49138 461
68.51149 484
68.5316 443
68.55172 419
68.57183 421
68.59195 409
68.61206 466
68.63217 406
68.65229 391
68.6724 384
68.69251 398
68.71263 383
68.73274 391
68.75286 416
68.77297 396
68.79308 373
68.8132 400
68.83331 392
68.85342 371
68.87354 426
68.89365 362
68.91376 402
68.93388 408
68.95399 397
68.97411 408
68.99422 385
69.01433 377
69.03445 394
69.05456 387
69.07467 368
69.09479 412
69.1149 376
69.13502 368
69.15513 401
69.17524 367
69.19536 377
69.21547 360
69.23558 387
69.2557 420
69.27581 416
69.29593 375
69.31604 386
69.33615 384
69.35627 371
69.37638 378
69.39649 375
69.41661 344
69.43672 387
69.45683 386
69.47695 390
69.49706 360
69.51718 399
69.53729 399
69.5574 401
69.57752 407
69.59763 396
69.61774 386
69.63786 373
69.65797 379
69.67809 368
69.6982 379
69.71831 367
69.73843 362
69.75854 381
69.77865 416
69.79877 379
69.81888 411
69.839 395
69.85911 408
69.87922 396
69.89934 408
69.91945 353
69.93956 397
69.95968 374
69.97979 379
69.9999 420
70.02002 376
70.04013 391
70.06025 386
70.08036 379
70.10047 369
70.12059 394
70.1407 370
70.16081 362
70.18093 379
70.20104 377
70.22116 393
70.24127 363
70.26138 378
70.2815 350
70.30161 376
70.32172 406
70.34184 331
70.36195 361
70.38207 372
70.40218 348
70.42229 386
70.44241 361
70.46252 344
70.48263 400
70.50275 342
70.52286 386
70.54297 346
70.56309 344
70.5832 392
70.60332 373
70.62343 368
70.64354 354
70.66366 347
70.68377 390
70.70388 380
70.724 341
70.74411 345
70.76423 365
70.78434 379
70.80445 382
70.82457 348
70.84468 392
70.86479 383
70.88491 358
70.90502 358
70.92513 383
70.94525 362
70.96536 370
70.98548 348
71.00559 361
71.0257 372
71.04582 374
71.06593 371
71.08604 391
71.10616 354
71.12627 390
71.14639 366
71.1665 373
71.18661 366
71.20673 350
71.22684 373
71.24695 366
71.26707 389
71.28718 383
71.3073 375
71.32741 362
71.34752 367
71.36764 362
71.38775 354
71.40786 349
71.42798 406
71.44809 369
71.4682 360
71.48832 355
71.50843 396
71.52855 369
71.54866 364
71.56877 345
71.58889 389
71.609 367
71.62911 382
71.64923 385
71.66934 375
71.68946 394
71.70957 363
71.72968 368
71.7498 367
71.76991 356
71.79002 382
71.81014 343
71.83025 360
71.85037 368
71.87048 377
71.89059 360
71.91071 398
71.93082 376
71.95093 386
71.97105 386
71.99116 362
72.01127 374
72.03139 390
72.0515 321
72.07162 412
72.09173 353
72.11184 362
72.13196 361
72.15207 402
72.17218 401
72.1923 392
72.21241 388
72.23253 413
72.25264 353
72.27275 417
72.29287 393
72.31298 382
72.33309 366
72.35321 396
72.37332 406
72.39344 404
72.41355 367
72.43366 391
72.45378 388
72.47389 379
72.494 420
72.51412 386
72.53423 405
72.55434 390
72.57446 409
72.59457 423
72.61469 385
72.6348 387
72.65491 404
72.67503 387
72.69514 390
72.71525 382
72.73537 414
72.75548 419
72.7756 373
72.79571 390
72.81582 386
72.83594 381
72.85605 359
72.87616 358
72.89628 386
72.91639 404
72.9365 406
72.95662 370
72.97673 403
72.99685 409
73.01696 376
73.03707 361
73.05719 369
73.0773 378
73.09741 388
73.11753 429
73.13764 419
73.15776 433
73.17787 420
73.19798 432
73.2181 393
73.23821 422
73.25832 424
73.27844 494
73.29855 494
73.31867 487
73.33878 499
73.35889 558
73.37901 549
73.39912 536
73.41923 523
73.43935 474
73.45946 487
73.47957 402
73.49969 435
73.5198 443
73.53992 462
73.56003 446
73.58014 457
73.60026 474
73.62037 434
73.64048 472
73.6606 442
73.68071 447
73.70083 406
73.72094 433
73.74105 410
73.76117 382
73.78128 397
73.80139 401
73.82151 370
73.84162 374
73.86174 350
73.88185 379
73.90196 379
73.92208 363
73.94219 364
73.9623 375
73.98242 367
74.00253 385
74.02264 376
74.04276 357
74.06287 375
74.08299 408
74.1031 355
74.12321 363
74.14333 392
74.16344 385
74.18355 371
74.20367 359
74.22378 366
74.2439 362
74.26401 355
74.28412 379
74.30424 355
74.32435 341
74.34446 330
74.36458 359
74.38469 370
74.40481 342
74.42492 343
74.44503 359
74.46515 357
74.48526 352
74.50537 341
74.52549 365
74.5456 347
74.56571 374
74.58583 379
74.60594 347
74.62606 358
74.64617 370
74.66628 357
74.6864 358
74.70651 368
74.72662 351
74.74674 379
74.76685 390
74.78697 370
74.80708 358
74.82719 388
74.84731 395
74.86742 374
74.88753 370
74.90765 343
74.92776 350
74.94787 390
74.96799 360
74.9881 355
75.00822 389
