3.00117 20956
3.02128 19905
3.0414 19607
3.06151 19098
3.08162 18465
3.10174 18179
3.12185 17543
3.14197 17063
3.16208 16514
3.18219 16293
3.20231 15653
3.22242 14870
3.24253 14788
3.26265 14449
3.28276 13837
3.30288 13640
3.32299 12738
3.3431 12673
3.36322 12152
3.38333 11678
3.40344 11417
3.42356 10798
3.44367 10760
3.46379 10034
3.4839 9843
3.50401 9635
3.52413 8920
3.54424 8838
3.56435 8581
3.58447 8554
3.60458 7843
3.62469 7565
3.64481 7574
3.66492 7074
3.68504 6763
3.70515 6600
3.72526 6105
3.74538 6174
3.76549 5709
3.7856 5460
3.80572 5258
3.82583 4880
3.84595 4925
3.86606 4575
3.88617 4467
3.90629 4277
3.9264 3967
3.94651 4059
3.96663 3868
3.98674 3545
4.00686 3389
4.02697 3128
4.04708 3122
4.0672 2964
4.08731 2893
4.10742 2711
4.12754 2391
4.14765 2505
4.16776 2441
4.18788 2258
4.20799 2099
4.22811 2140
4.24822 2068
4.26833 1994
4.28845 1766
4.30856 1688
4.32867 1607
4.34879 1648
4.3689 1687
4.38902 1568
4.40913 1536
4.42924 1529
4.44936 1484
4.46947 1587
4.48958 1289
4.5097 1398
4.52981 1274
4.54992 1261
4.57004 1336
4.59015 1252
4.61027 1139
4.63038 1119
4.65049 1103
4.67061 1166
4.69072 1104
4.71083 993
4.73095 994
4.75106 973
4.77118 1097
4.79129 944
4.8114 916
4.83152 942
4.85163 921
4.87174 910
4.89186 789
4.91197 797
4.93209 820
4.9522 839
4.97231 795
4.99243 724
5.01254 694
5.03265 726
5.05277 721
5.07288 646
5.09299 658
5.11311 610
5.13322 617
5.15334 634
5.17345 624
5.19356 595
5.21368 594
5.23379 556
5.2539 568
5.27402 538
5.29413 519
5.31425 562
5.33436 511
5.35447 495
5.37459 511
5.3947 441
5.41481 503
5.43493 524
5.45504 429
5.47516 480
5.49527 445
5.51538 409
5.5355 391
5.55561 429
5.57572 396
5.59584 379
5.61595 401
5.63606 359
5.65618 393
5.67629 381
5.69641 364
5.71652 334
5.73663 347
5.75675 357
5.77686 327
5.79697 346
5.81709 323
5.8372 353
5.85732 348
5.87743 330
5.89754 333
5.91766 357
5.93777 308
5.95788 281
5.978 338
5.99811 307
6.01823 345
6.03834 329
6.05845 309
6.07857 282
6.09868 347
6.11879 299
6.13891 298
6.15902 336
6.17913 319
6.19925 340
6.21936 280
6.23948 294
6.25959 305
6.2797 282
6.29982 311
6.31993 294
6.34004 317
6.36016 284
6.38027 282
6.40039 318
6.4205 306
6.44061 243
6.46073 260
6.48084 266
6.50095 270
6.52107 279
6.54118 272
6.56129 294
6.58141 269
6.60152 276
6.62164 249
6.64175 272
6.66186 282
6.68198 246
6.70209 245
6.7222 256
6.74232 242
6.76243 244
6.78255 234
6.80266 249
6.82277 274
6.84289 226
6.863 291
6.88311 245
6.90323 262
6.92334 265
6.94346 284
6.96357 265
6.98368 241
7.0038 224
7.02391 250
7.04402 240
7.06414 275
7.08425 249
7.10436 228
7.12448 280
7.14459 273
7.16471 233
7.18482 259
7.20493 248
7.22505 268
7.24516 246
7.26527 265
7.28539 245
7.3055 268
7.32562 263
7.34573 275
7.36584 286
7.38596 243
7.40607 264
7.42618 244
7.4463 253
7.46641 301
7.48653 248
7.50664 235
7.52675 238
7.54687 254
7.56698 264
7.58709 225
7.60721 246
7.62732 241
7.64743 217
7.66755 251
7.68766 228
7.70778 237
7.72789 277
7.748 228
7.76812 262
7.78823 260
7.80834 246
7.82846 266
7.84857 247
7.86869 228
7.8888 268
7.90891 280
7.92903 226
7.94914 242
7.96925 270
7.98937 252
8.00948 261
8.0296 232
8.04971 270
8.06982 277
8.08994 243
8.11005 267
8.13016 249
8.15028 259
8.17039 248
8.1905 245
8.21062 212
8.23073 258
8.25085 242
8.27096 269
8.29107 253
8.31119 245
8.3313 220
8.35141 261
8.37153 266
8.39164 240
8.41176 283
8.43187 230
8.45198 265
8.4721 247
8.49221 282
8.51232 254
8.53244 269
8.55255 271
8.57266 268
8.59278 290
8.61289 261
8.63301 261
8.65312 276
8.67323 279
8.69335 231
8.71346 256
8.73357 272
8.75369 253
8.7738 295
8.79392 247
8.81403 244
8.83414 271
8.85426 280
8.87437 240
8.89448 272
8.9146 285
8.93471 281
8.95483 273
8.97494 269
8.99505 272
9.01517 284
9.03528 289
9.05539 253
9.07551 273
9.09562 271
9.11573 237
9.13585 258
9.15596 254
9.17608 273
9.19619 257
9.2163 272
9.23642 255
9.25653 249
9.27664 244
9.29676 255
9.31687 234
9.33699 255
9.3571 253
9.37721 262
9.39733 277
9.41744 280
9.43755 236
9.45767 257
9.47778 272
9.4979 259
9.51801 268
9.53812 264
9.55824 263
9.57835 256
9.59846 281
9.61858 253
9.63869 242
9.6588 293
9.67892 246
9.69903 228
9.71915 274
9.73926 254
9.75937 263
9.77949 252
9.7996 253
9.81971 254
9.83983 245
9.85994 257
9.88006 249
9.90017 258
9.92028 263
9.9404 277
9.96051 247
9.98062 240
10.00074 267
10.02085 236
10.04097 285
10.06108 274
10.08119 273
10.10131 303
10.12142 259
10.14153 254
10.16165 260
10.18176 258
10.20187 240
10.22199 248
10.2421 247
10.26222 255
10.28233 278
10.30244 292
10.32256 239
10.34267 256
10.36278 281
10.3829 253
10.40301 251
10.42313 271
10.44324 259
10.46335 303
10.48347 254
10.50358 267
10.52369 289
10.54381 303
10.56392 255
10.58403 273
10.60415 278
10.62426 257
10.64438 247
10.66449 247
10.6846 277
10.70472 299
10.72483 259
10.74494 258
10.76506 255
10.78517 264
10.80529 268
10.8254 278
10.84551 261
10.86563 265
10.88574 281
10.90585 265
10.92597 273
10.94608 259
10.9662 285
10.98631 255
11.00642 265
11.02654 272
11.04665 252
11.06676 261
11.08688 262
11.10699 228
11.1271 259
11.14722 238
11.16733 273
11.18745 268
11.20756 233
11.22767 254
11.24779 272
11.2679 269
11.28801 270
11.30813 264
11.32824 266
11.34836 247
11.36847 249
11.38858 251
11.4087 305
11.42881 257
11.44892 279
11.46904 272
11.48915 290
11.50927 274
11.52938 277
11.54949 272
11.56961 242
11.58972 267
11.60983 266
11.62995 282
11.65006 267
11.67017 281
11.69029 262
11.7104 284
11.73052 262
11.75063 261
11.77074 256
11.79086 284
11.81097 285
11.83108 251
11.8512 272
11.87131 288
11.89143 318
11.91154 281
11.93165 275
11.95177 281
11.97188 300
11.99199 320
12.01211 333
12.03222 343
12.05234 321
12.07245 321
12.09256 305
12.11268 320
12.13279 327
12.1529 335
12.17302 330
12.19313 319
12.21324 370
12.23336 326
12.25347 350
12.27359 343
12.2937 368
12.31381 419
12.33393 385
12.35404 427
12.37415 419
12.39427 400
12.41438 383
12.4345 410
12.45461 354
12.47472 319
12.49484 314
12.51495 311
12.53506 308
12.55518 316
12.57529 256
12.5954 284
12.61552 299
12.63563 296
12.65575 256
12.67586 260
12.69597 272
12.71609 258
12.7362 263
12.75631 258
12.77643 262
12.79654 236
12.81666 246
12.83677 237
12.85688 268
12.877 241
12.89711 255
12.91722 237
12.93734 242
12.95745 247
12.97757 223
12.99768 229
13.01779 233
13.03791 245
13.05802 248
13.07813 266
13.09825 239
13.11836 243
13.13847 233
13.15859 241
13.1787 253
13.19882 199
13.21893 262
13.23904 248
13.25916 218
13.27927 227
13.29938 239
13.3195 253
13.33961 218
13.35973 231
13.37984 220
13.39995 214
13.42007 222
13.44018 238
13.46029 230
13.48041 225
13.50052 227
13.52064 244
13.54075 216
13.56086 186
13.58098 214
13.60109 198
13.6212 253
13.64132 205
13.66143 229
13.68154 189
13.70166 231
13.72177 215
13.74189 211
13.762 218
13.78211 200
13.80223 216
13.82234 256
13.84245 251
13.86257 208
13.88268 212
13.9028 219
13.92291 222
13.94302 214
13.96314 221
13.98325 220
14.00336 238
14.02348 205
14.04359 207
14.06371 225
14.08382 227
14.10393 213
14.12405 190
14.14416 195
14.16427 197
14.18439 212
14.2045 214
14.22461 220
14.24473 201
14.26484 205
14.28496 212
14.30507 200
14.32518 209
14.3453 233
14.36541 216
14.38552 198
14.40564 201
14.42575 201
14.44587 204
14.46598 225
14.48609 228
14.50621 203
14.52632 210
14.54643 222
14.56655 197
14.58666 212
14.60677 227
14.62689 198
14.647 196
14.66712 209
14.68723 193
14.70734 217
14.72746 192
14.74757 203
14.76768 193
14.7878 252
14.80791 209
14.82803 238
14.84814 218
14.86825 184
14.88837 196
14.90848 231
14.92859 223
14.94871 189
14.96882 240
14.98894 212
15.00905 206
15.02916 199
15.04928 197
15.06939 240
15.0895 200
15.10962 196
15.12973 177
15.14984 204
15.16996 214
15.19007 180
15.21019 209
15.2303 210
15.25041 212
15.27053 203
15.29064 191
15.31075 187
15.33087 229
15.35098 201
15.3711 185
15.39121 222
15.41132 179
15.43144 185
15.45155 189
15.47166 204
15.49178 206
15.51189 188
15.53201 183
15.55212 185
15.57223 191
15.59235 199
15.61246 191
15.63257 201
15.65269 208
15.6728 206
15.69291 199
15.71303 187
15.73314 223
15.75326 209
15.77337 216
15.79348 181
15.8136 234
15.83371 217
15.85382 222
15.87394 204
15.89405 206
15.91417 174
15.93428 210
15.95439 218
15.97451 199
15.99462 204
16.01473 178
16.03485 189
16.05496 190
16.07508 209
16.09519 190
16.1153 229
16.13542 196
16.15553 208
16.17564 185
16.19576 197
16.21587 195
16.23598 204
16.2561 204
16.27621 185
16.29633 217
16.31644 190
16.33655 193
16.35667 170
16.37678 206
16.39689 211
16.41701 173
16.43712 191
16.45724 170
16.47735 205
16.49746 214
16.51758 178
16.53769 204
16.5578 159
16.57792 204
16.59803 209
16.61814 213
16.63826 200
16.65837 196
16.67849 204
16.6986 190
16.71871 160
16.73883 185
16.75894 192
16.77905 236
16.79917 171
16.81928 189
16.8394 179
16.85951 206
16.87962 174
16.89974 204
16.91985 202
16.93996 204
16.96008 208
16.98019 179
17.00031 185
17.02042 187
17.04053 230
17.06065 202
17.08076 193
17.10087 197
17.12099 192
17.1411 204
17.16121 198
17.18133 188
17.20144 198
17.22156 193
17.24167 186
17.26178 194
17.2819 182
17.30201 184
17.32212 197
17.34224 170
17.36235 207
17.38247 210
17.40258 174
17.42269 206
17.44281 200
17.46292 197
17.48303 206
17.50315 183
17.52326 193
17.54338 182
17.56349 176
17.5836 195
17.60372 210
17.62383 205
17.64394 206
17.66406 179
17.68417 205
17.70428 212
17.7244 201
17.74451 213
17.76463 221
17.78474 212
17.80485 213
17.82497 191
17.84508 193
17.86519 227
17.88531 210
17.90542 207
17.92554 211
17.94565 209
17.96576 217
17.98588 204
18.00599 206
18.0261 182
18.04622 191
18.06633 200
18.08645 216
18.10656 224
18.12667 185
18.14679 216
18.1669 231
18.18701 194
18.20713 205
18.22724 235
18.24735 230
18.26747 217
18.28758 206
18.3077 203
18.32781 234
18.34792 222
18.36804 228
18.38815 223
18.40826 217
18.42838 206
18.44849 192
18.46861 215
18.48872 198
18.50883 204
18.52895 204
18.54906 195
18.56917 221
18.58929 208
18.6094 203
18.62951 206
18.64963 204
18.66974 203
18.68986 233
18.70997 209
18.73008 229
18.7502 228
18.77031 237
18.79042 238
18.81054 225
18.83065 207
18.85077 247
18.87088 219
18.89099 246
18.91111 216
18.93122 197
18.95133 236
18.97145 213
18.99156 226
19.01168 222
19.03179 179
19.0519 221
19.07202 181
19.09213 240
19.11224 213
19.13236 213
19.15247 233
19.17258 220
19.1927 216
19.21281 211
19.23293 214
19.25304 224
19.27315 207
19.29327 191
19.31338 257
19.33349 198
19.35361 222
19.37372 220
19.39384 223
19.41395 224
19.43406 229
19.45418 205
19.47429 235
19.4944 237
19.51452 223
19.53463 214
19.55475 276
19.57486 233
19.59497 258
19.61509 275
19.6352 258
19.65531 276
19.67543 307
19.69554 339
19.71565 316
19.73577 341
19.75588 338
19.776 378
19.79611 373
19.81622 425
19.83634 419
19.85645 418
19.87656 397
19.89668 401
19.91679 441
19.93691 448
19.95702 432
19.97713 440
19.99725 395
20.01736 406
20.03747 403
20.05759 398
20.0777 353
20.09782 423
20.11793 383
20.13804 392
20.15816 436
20.17827 426
20.19838 411
20.2185 424
20.23861 410
20.25872 409
20.27884 438
20.29895 384
20.31907 402
20.33918 451
20.35929 442
20.37941 403
20.39952 460
20.41963 440
20.43975 482
20.45986 440
20.47998 438
20.50009 444
20.5202 467
20.54032 478
20.56043 481
20.58054 512
20.60066 531
20.62077 532
20.64088 555
20.661 635
20.68111 709
20.70123 896
20.72134 1134
20.74145 1494
20.76157 2240
20.78168 3205
20.80179 4605
20.82191 6099
20.84202 7694
20.86214 8823
20.88225 8256
20.90236 6681
20.92248 4683
20.94259 3327
20.9627 1807
20.98282 1100
21.00293 783
21.02305 631
21.04316 573
21.06327 582
21.08339 505
21.1035 521
21.12361 452
21.14373 422
21.16384 447
21.18395 399
21.20407 418
21.22418 381
21.2443 351
21.26441 366
21.28452 360
21.30464 368
21.32475 373
21.34486 389
21.36498 347
21.38509 368
21.40521 361
21.42532 370
21.44543 358
21.46555 337
21.48566 338
21.50577 364
21.52589 333
21.546 349
21.56612 346
21.58623 353
21.60634 336
21.62646 317
21.64657 308
21.66668 337
21.6868 301
21.70691 321
21.72702 340
21.74714 309
21.76725 289
21.78737 324
21.80748 337
21.82759 352
21.84771 324
21.86782 294
21.88793 321
21.90805 308
21.92816 279
21.94828 313
21.96839 297
21.9885 308
22.00862 327
22.02873 310
22.04884 298
22.06896 323
22.08907 318
22.10919 304
22.1293 309
22.14941 317
22.16953 283
22.18964 284
22.20975 318
22.22987 293
22.24998 283
22.27009 263
22.29021 302
22.31032 307
22.33044 244
22.35055 261
22.37066 269
22.39078 295
22.41089 266
22.431 251
22.45112 289
22.47123 254
22.49135 258
22.51146 288
22.53157 298
22.55169 278
22.5718 306
22.59191 270
22.61203 277
22.63214 301
22.65225 277
22.67237 301
22.69248 322
22.7126 289
22.73271 247
22.75282 303
22.77294 266
22.79305 299
22.81316 297
22.83328 267
22.85339 231
22.87351 291
22.89362 259
22.91373 277
22.93385 286
22.95396 282
22.97407 254
22.99419 260
23.0143 286
23.03442 245
23.05453 238
23.07464 269
23.09476 253
23.11487 252
23.13498 297
23.1551 252
23.17521 240
23.19532 261
23.21544 261
23.23555 297
23.25567 278
23.27578 247
23.29589 256
23.31601 247
23.33612 283
23.35623 228
23.37635 315
23.39646 243
23.41658 274
23.43669 297
23.4568 271
23.47692 317
23.49703 263
23.51714 250
23.53726 279
23.55737 266
23.57749 280
23.5976 250
23.61771 253
23.63783 252
23.65794 249
23.67805 263
23.69817 295
23.71828 263
23.73839 269
23.75851 301
23.77862 278
23.79874 248
23.81885 243
23.83896 273
23.85908 267
23.87919 301
23.8993 276
23.91942 297
23.93953 346
23.95965 312
23.97976 286
23.99987 359
24.01999 344
24.0401 339
24.06021 333
24.08033 308
24.10044 281
24.12056 283
24.14067 273
24.16078 271
24.1809 291
24.20101 269
24.22112 303
24.24124 317
24.26135 288
24.28146 265
24.30158 301
24.32169 273
24.34181 307
24.36192 300
24.38203 263
24.40215 251
24.42226 270
24.44237 276
24.46249 301
24.4826 296
24.50272 304
24.52283 275
24.54294 299
24.56306 301
24.58317 297
24.60328 324
24.6234 301
24.64351 284
24.66362 314
24.68374 292
24.70385 287
24.72397 312
24.74408 339
24.76419 332
24.78431 362
24.80442 364
24.82453 357
24.84465 347
24.86476 362
24.88488 360
24.90499 378
24.9251 346
24.94522 346
24.96533 400
24.98544 364
25.00556 362
25.02567 346
25.04579 356
25.0659 344
25.08601 341
25.10613 347
25.12624 362
25.14635 350
25.16647 348
25.18658 346
25.20669 348
25.22681 407
25.24692 440
25.26704 468
25.28715 483
25.30726 491
25.32738 420
25.34749 425
25.3676 398
25.38772 337
25.40783 363
25.42795 327
25.44806 341
25.46817 315
25.48829 316
25.5084 340
25.52851 301
25.54863 296
25.56874 331
25.58886 324
25.60897 312
25.62908 334
25.6492 344
25.66931 347
25.68942 373
25.70954 427
25.72965 432
25.74976 453
25.76988 441
25.78999 487
25.81011 454
25.83022 461
25.85033 466
25.87045 482
25.89056 464
25.91067 450
25.93079 472
25.9509 481
25.97102 477
25.99113 431
26.01124 489
26.03136 489
26.05147 534
26.07158 525
26.0917 543
26.11181 583
26.13193 594
26.15204 572
26.17215 635
26.19227 680
26.21238 713
26.23249 797
26.25261 813
26.27272 842
26.29283 917
26.31295 944
26.33306 1058
26.35318 1207
26.37329 1262
26.3934 1515
26.41352 1749
26.43363 2058
26.45374 2743
26.47386 3541
26.49397 4930
26.51409 6945
26.5342 9712
26.55431 14033
26.57443 20146
26.59454 27565
26.61465 34394
26.63477 39786
26.65488 38099
26.67499 31069
26.69511 23716
26.71522 18469
26.73534 12771
26.75545 6926
26.77556 3500
26.79568 2241
26.81579 1777
26.8359 1595
26.85602 1388
26.87613 1260
26.89625 1099
26.91636 1083
26.93647 1011
26.95659 942
26.9767 887
26.99681 811
27.01693 701
27.03704 683
27.05716 587
27.07727 565
27.09738 528
27.1175 504
27.13761 504
27.15772 504
27.17784 434
27.19795 440
27.21806 456
27.23818 434
27.25829 457
27.27841 373
27.29852 423
27.31863 445
27.33875 439
27.35886 449
27.37897 471
27.39909 469
27.4192 460
27.43932 515
27.45943 477
27.47954 471
27.49966 442
27.51977 454
27.53988 428
27.56 397
27.58011 369
27.60023 385
27.62034 358
27.64045 351
27.66057 374
27.68068 343
27.70079 351
27.72091 351
27.74102 340
27.76113 373
27.78125 366
27.80136 289
27.82148 338
27.84159 315
27.8617 325
27.88182 321
27.90193 296
27.92204 344
27.94216 336
27.96227 368
27.98239 347
28.0025 321
28.02261 319
28.04273 326
28.06284 329
28.08295 306
28.10307 332
28.12318 316
28.1433 293
28.16341 306
28.18352 321
28.20364 293
28.22375 311
28.24386 322
28.26398 319
28.28409 320
28.3042 326
28.32432 307
28.34443 321
28.36455 286
28.38466 282
28.40477 307
28.42489 282
28.445 268
28.46511 298
28.48523 291
28.50534 288
28.52546 266
28.54557 258
28.56568 288
28.5858 266
28.60591 308
28.62602 297
28.64614 272
28.66625 276
28.68636 244
28.70648 267
28.72659 257
28.74671 296
28.76682 273
28.78693 227
28.80705 309
28.82716 275
28.84727 248
28.86739 267
28.8875 286
28.90762 252
28.92773 255
28.94784 273
28.96796 283
28.98807 288
29.00818 282
29.0283 284
29.04841 247
29.06853 243
29.08864 245
29.10875 252
29.12887 253
29.14898 222
29.16909 253
29.18921 266
29.20932 250
29.22943 233
29.24955 260
29.26966 231
29.28978 254
29.30989 247
29.33 243
29.35012 235
29.37023 259
29.39034 255
29.41046 238
29.43057 253
29.45069 287
29.4708 234
29.49091 223
29.51103 241
29.53114 240
29.55125 229
29.57137 237
29.59148 245
29.6116 261
29.63171 232
29.65182 278
29.67194 292
29.69205 257
29.71216 240
29.73228 237
29.75239 233
29.7725 223
29.79262 261
29.81273 266
29.83285 229
29.85296 250
29.87307 216
29.89319 242
29.9133 227
29.93341 243
29.95353 243
29.97364 268
29.99376 240
30.01387 233
30.03398 244
30.0541 248
30.07421 266
30.09432 230
30.11444 236
30.13455 254
30.15467 237
30.17478 245
30.19489 245
30.21501 226
30.23512 246
30.25523 218
30.27535 243
30.29546 246
30.31557 232
30.33569 198
30.3558 214
30.37592 244
30.39603 201
30.41614 213
30.43626 245
30.45637 257
30.47648 236
30.4966 242
30.51671 227
30.53683 283
30.55694 233
30.57705 239
30.59717 183
30.61728 220
30.63739 220
30.65751 231
30.67762 216
30.69773 219
30.71785 221
30.73796 242
30.75808 239
30.77819 250
30.7983 227
30.81842 230
30.83853 239
30.85864 228
30.87876 231
30.89887 247
30.91899 250
30.9391 214
30.95921 216
30.97933 217
30.99944 203
31.01955 204
31.03967 238
31.05978 217
31.0799 193
31.10001 214
31.12012 213
31.14024 190
31.16035 229
31.18046 240
31.20058 218
31.22069 225
31.2408 248
31.26092 218
31.28103 205
31.30115 208
31.32126 221
31.34137 201
31.36149 195
31.3816 221
31.40171 212
31.42183 220
31.44194 211
31.46206 209
31.48217 212
31.50228 216
31.5224 217
31.54251 204
31.56262 201
31.58274 218
31.60285 238
31.62297 211
31.64308 178
31.66319 230
31.68331 204
31.70342 185
31.72353 197
31.74365 190
31.76376 190
31.78387 229
31.80399 204
31.8241 189
31.84422 232
31.86433 219
31.88444 202
31.90456 192
31.92467 204
31.94478 192
31.9649 214
31.98501 210
32.00513 197
32.02524 200
32.04535 209
32.06547 201
32.08558 197
32.10569 206
32.12581 223
32.14592 210
32.16604 191
32.18615 172
32.20626 172
32.22638 176
32.24649 211
32.2666 174
32.28672 199
32.30683 189
32.32694 193
32.34706 204
32.36717 178
32.38729 191
32.4074 192
32.42751 199
32.44763 193
32.46774 217
32.48785 203
32.50797 203
32.52808 217
32.5482 196
32.56831 186
32.58842 205
32.60854 218
32.62865 204
32.64876 216
32.66888 196
32.68899 204
32.7091 203
32.72922 239
32.74933 199
32.76945 223
32.78956 180
32.80967 209
32.82979 208
32.8499 182
32.87001 196
32.89013 185
32.91024 221
32.93036 189
32.95047 151
32.97058 187
32.9907 201
33.01081 188
33.03092 182
33.05104 158
33.07115 218
33.09127 207
33.11138 186
33.13149 190
33.15161 208
33.17172 186
33.19183 187
33.21195 198
33.23206 188
33.25217 211
33.27229 197
33.2924 195
33.31252 184
33.33263 184
33.35274 181
33.37286 200
33.39297 172
33.41308 192
33.4332 176
33.45331 195
33.47343 170
33.49354 171
33.51365 192
33.53377 189
33.55388 171
33.57399 192
33.59411 215
33.61422 197
33.63434 194
33.65445 197
33.67456 157
33.69468 179
33.71479 169
33.7349 173
33.75502 189
33.77513 181
33.79524 162
33.81536 185
33.83547 184
33.85559 183
33.8757 191
33.89581 176
33.91593 183
33.93604 160
33.95615 166
33.97627 177
33.99638 169
34.0165 199
34.03661 176
34.05672 177
34.07684 199
34.09695 156
34.11706 183
34.13718 187
34.15729 203
34.17741 165
34.19752 184
34.21763 189
34.23775 186
34.25786 179
34.27797 179
34.29809 163
34.3182 185
34.33831 163
34.35843 186
34.37854 174
34.39866 185
34.41877 201
34.43888 207
34.459 207
34.47911 220
34.49922 202
34.51934 218
34.53945 223
34.55957 237
34.57968 226
34.59979 229
34.61991 211
34.64002 246
34.66013 225
34.68025 274
34.70036 215
34.72047 270
34.74059 242
34.7607 248
34.78082 241
34.80093 252
34.82104 268
34.84116 254
34.86127 279
34.88138 271
34.9015 295
34.92161 254
34.94173 238
34.96184 282
34.98195 284
35.00207 264
35.02218 280
35.04229 291
35.06241 270
35.08252 277
35.10264 264
35.12275 268
35.14286 260
35.16298 259
35.18309 264
35.2032 270
35.22332 246
35.24343 248
35.26354 212
35.28366 269
35.30377 250
35.32389 262
35.344 242
35.36411 287
35.38423 263
35.40434 293
35.42445 279
35.44457 283
35.46468 298
35.4848 268
35.50491 304
35.52502 298
35.54514 293
35.56525 299
35.58536 313
35.60548 247
35.62559 281
35.64571 280
35.66582 296
35.68593 293
35.70605 274
35.72616 276
35.74627 266
35.76639 285
35.7865 266
35.80661 281
35.82673 288
35.84684 264
35.86696 284
35.88707 292
35.90718 245
35.9273 292
35.94741 250
35.96752 269
35.98764 270
36.00775 266
36.02787 315
36.04798 266
36.06809 293
36.08821 315
36.10832 278
36.12843 287
36.14855 300
36.16866 278
36.18878 280
36.20889 287
36.229 300
36.24912 313
36.26923 318
36.28934 337
36.30946 425
36.32957 417
36.34968 479
36.3698 561
36.38991 625
36.41003 784
36.43014 1011
36.45025 1270
36.47037 1637
36.49048 1979
36.51059 2366
36.53071 2648
36.55082 2553
36.57094 2087
36.59105 1620
36.61116 1493
36.63128 1353
36.65139 1160
36.6715 770
36.69162 521
36.71173 409
36.73184 342
36.75196 314
36.77207 303
36.79219 290
36.8123 257
36.83241 298
36.85253 265
36.87264 253
36.89275 287
36.91287 294
36.93298 247
36.9531 237
36.97321 269
36.99332 247
37.01344 242
37.03355 243
37.05366 261
37.07378 263
37.09389 237
37.11401 231
37.13412 230
37.15423 226
37.17435 245
37.19446 241
37.21457 225
37.23469 230
37.2548 212
37.27491 203
37.29503 211
37.31514 263
37.33526 231
37.35537 241
37.37548 239
37.3956 204
37.41571 245
37.43582 250
37.45594 225
37.47605 243
37.49617 218
37.51628 240
37.53639 231
37.55651 234
37.57662 220
37.59673 238
37.61685 226
37.63696 248
37.65708 239
37.67719 228
37.6973 254
37.71742 261
37.73753 255
37.75764 244
37.77776 245
37.79787 235
37.81798 246
37.8381 275
37.85821 261
37.87833 254
37.89844 253
37.91855 228
37.93867 252
37.95878 249
37.97889 229
37.99901 229
38.01912 243
38.03924 254
38.05935 229
38.07946 256
38.09958 228
38.11969 242
38.1398 258
38.15992 239
38.18003 277
38.20015 258
38.22026 253
38.24037 251
38.26049 220
38.2806 271
38.30071 280
38.32083 300
38.34094 273
38.36105 280
38.38117 282
38.40128 257
38.4214 258
38.44151 267
38.46162 290
38.48174 293
38.50185 267
38.52196 262
38.54208 266
38.56219 288
38.58231 262
38.60242 244
38.62253 248
38.64265 255
38.66276 228
38.68287 247
38.70299 249
38.7231 242
38.74321 270
38.76333 235
38.78344 233
38.80356 239
38.82367 224
38.84378 239
38.8639 265
38.88401 253
38.90412 237
38.92424 250
38.94435 231
38.96447 232
38.98458 248
39.00469 265
39.02481 269
39.04492 253
39.06503 254
39.08515 270
39.10526 282
39.12538 280
39.14549 304
39.1656 273
39.18572 337
39.20583 360
39.22594 347
39.24606 438
39.26617 421
39.28628 497
39.3064 609
39.32651 721
39.34663 908
39.36674 1154
39.38685 1346
39.40697 1819
39.42708 2193
39.44719 2374
39.46731 2455
39.48742 2032
39.50754 1662
39.52765 1321
39.54776 1258
39.56788 1196
39.58799 965
39.6081 686
39.62822 429
39.64833 340
39.66845 318
39.68856 280
39.70867 273
39.72879 275
39.7489 270
39.76901 269
39.78913 238
39.80924 203
39.82935 243
39.84947 231
39.86958 247
39.8897 219
39.90981 228
39.92992 215
39.95004 237
39.97015 230
39.99026 206
40.01038 218
40.03049 264
40.05061 294
40.07072 286
40.09083 325
40.11095 362
40.13106 426
40.15117 466
40.17129 547
40.1914 663
40.21152 799
40.23163 930
40.25174 1149
40.27186 1279
40.29197 1234
40.31208 1078
40.3322 830
40.35231 731
40.37242 753
40.39254 701
40.41265 572
40.43277 403
40.45288 320
40.47299 274
40.49311 240
40.51322 257
40.53333 240
40.55345 221
40.57356 240
40.59368 232
40.61379 214
40.6339 237
40.65402 229
40.67413 220
40.69424 183
40.71436 203
40.73447 178
40.75458 219
40.7747 219
40.79481 212
40.81493 214
40.83504 215
40.85515 202
40.87527 171
40.89538 194
40.91549 241
40.93561 230
40.95572 209
40.97584 204
40.99595 192
41.01606 195
41.03618 206
41.05629 195
41.0764 205
41.09652 225
41.11663 221
41.13675 200
41.15686 231
41.17697 226
41.19709 219
41.2172 211
41.23731 234
41.25743 212
41.27754 210
41.29765 206
41.31777 205
41.33788 202
41.358 201
41.37811 205
41.39822 199
41.41834 206
41.43845 201
41.45856 199
41.47868 196
41.49879 188
41.51891 205
41.53902 207
41.55913 207
41.57925 193
41.59936 216
41.61947 223
41.63959 219
41.6597 193
41.67982 199
41.69993 200
41.72004 195
41.74016 200
41.76027 201
41.78038 214
41.8005 185
41.82061 193
41.84072 196
41.86084 196
41.88095 180
41.90107 189
41.92118 205
41.94129 199
41.96141 201
41.98152 205
42.00163 215
42.02175 221
42.04186 221
42.06198 212
42.08209 189
42.1022 232
42.12232 226
42.14243 248
42.16254 283
42.18266 282
42.20277 335
42.22289 334
42.243 341
42.26311 426
42.28323 475
42.30334 558
42.32345 702
42.34357 824
42.36368 989
42.38379 1236
42.40391 1546
42.42402 1674
42.44414 1659
42.46425 1521
42.48436 1199
42.50448 1035
42.52459 983
42.5447 978
42.56482 815
42.58493 678
42.60505 467
42.62516 345
42.64527 309
42.66539 241
42.6855 258
42.70561 243
42.72573 219
42.74584 220
42.76595 190
42.78607 202
42.80618 207
42.8263 198
42.84641 166
42.86652 182
42.88664 201
42.90675 186
42.92686 180
42.94698 177
42.96709 174
42.98721 172
43.00732 176
43.02743 178
43.04755 183
43.06766 202
43.08777 203
43.10789 187
43.128 208
43.14812 199
43.16823 173
43.18834 163
43.20846 178
43.22857 159
43.24868 175
43.2688 190
43.28891 183
43.30902 162
43.32914 171
43.34925 178
43.36937 192
43.38948 175
43.40959 175
43.42971 195
43.44982 190
43.46993 184
43.49005 185
43.51016 163
43.53028 216
43.55039 158
43.5705 184
43.59062 207
43.61073 187
43.63084 190
43.65096 182
43.67107 206
43.69119 172
43.7113 172
43.73141 181
43.75153 196
43.77164 220
43.79175 168
43.81187 172
43.83198 160
43.85209 166
43.87221 185
43.89232 176
43.91244 198
43.93255 182
43.95266 201
43.97278 154
43.99289 180
44.013 171
44.03312 178
44.05323 180
44.07335 196
44.09346 167
44.11357 193
44.13369 184
44.1538 175
44.17391 153
44.19403 206
44.21414 187
44.23426 202
44.25437 164
44.27448 186
44.2946 173
44.31471 192
44.33482 167
44.35494 183
44.37505 168
44.39516 171
44.41528 181
44.43539 191
44.45551 170
44.47562 163
44.49573 179
44.51585 191
44.53596 165
44.55607 167
44.57619 189
44.5963 204
44.61642 179
44.63653 178
44.65664 199
44.67676 193
44.69687 191
44.71698 190
44.7371 196
44.75721 168
44.77732 186
44.79744 165
44.81755 192
44.83767 158
44.85778 180
44.87789 162
44.89801 177
44.91812 207
44.93823 179
44.95835 187
44.97846 184
44.99858 186
45.01869 191
45.0388 191
45.05892 168
45.07903 193
45.09914 185
45.11926 192
45.13937 182
45.15949 199
45.1796 159
45.19971 192
45.21983 191
45.23994 206
45.26005 158
45.28017 192
45.30028 191
45.32039 162
45.34051 214
45.36062 195
45.38074 190
45.40085 211
45.42096 199
45.44108 222
45.46119 216
45.4813 204
45.50142 254
45.52153 223
45.54165 261
45.56176 272
45.58187 344
45.60199 320
45.6221 367
45.64221 451
45.66233 489
45.68244 584
45.70256 697
45.72267 886
45.74278 985
45.7629 1184
45.78301 1178
45.80312 1102
45.82324 877
45.84335 688
45.86346 650
45.88358 629
45.90369 624
45.92381 515
45.94392 459
45.96403 315
45.98415 277
46.00426 251
46.02437 240
46.04449 184
46.0646 250
46.08472 230
46.10483 173
46.12494 184
46.14506 200
46.16517 178
46.18528 169
46.2054 183
46.22551 200
46.24563 184
46.26574 171
46.28585 177
46.30597 171
46.32608 182
46.34619 174
46.36631 166
46.38642 174
46.40653 198
46.42665 151
46.44676 171
46.46688 178
46.48699 163
46.5071 151
46.52722 166
46.54733 175
46.56744 192
46.58756 167
46.60767 173
46.62779 170
46.6479 145
46.66801 180
46.68813 183
46.70824 162
46.72835 176
46.74847 140
46.76858 178
46.78869 176
46.80881 170
46.82892 171
46.84904 171
46.86915 169
46.88926 190
46.90938 165
46.92949 157
46.9496 159
46.96972 182
46.98983 178
47.00995 184
47.03006 163
47.05017 179
47.07029 159
47.0904 189
47.11051 187
47.13063 176
47.15074 175
47.17086 182
47.19097 172
47.21108 161
47.2312 156
47.25131 157
47.27142 164
47.29154 178
47.31165 184
47.33176 160
47.35188 156
47.37199 193
47.39211 166
47.41222 167
47.43233 181
47.45245 163
47.47256 158
47.49267 176
47.51279 154
47.5329 180
47.55302 161
47.57313 172
47.59324 164
47.61336 157
47.63347 152
47.65358 146
47.6737 147
47.69381 176
47.71393 168
47.73404 181
47.75415 163
47.77427 163
47.79438 162
47.81449 169
47.83461 185
47.85472 180
47.87483 180
47.89495 190
47.91506 185
47.93518 192
47.95529 207
47.9754 193
47.99552 185
48.01563 196
48.03574 173
48.05586 184
48.07597 195
48.09609 188
48.1162 183
48.13631 183
48.15643 158
48.17654 165
48.19665 170
48.21677 162
48.23688 175
48.257 167
48.27711 198
48.29722 176
48.31734 160
48.33745 156
48.35756 180
48.37768 177
48.39779 192
48.4179 159
48.43802 158
48.45813 183
48.47825 182
48.49836 185
48.51847 170
48.53859 164
48.5587 175
48.57881 169
48.59893 209
48.61904 164
48.63916 157
48.65927 158
48.67938 159
48.6995 181
48.71961 157
48.73972 182
48.75984 175
48.77995 191
48.80006 162
48.82018 183
48.84029 152
48.86041 187
48.88052 167
48.90063 183
48.92075 174
48.94086 171
48.96097 182
48.98109 160
49.0012 163
49.02132 153
49.04143 176
49.06154 154
49.08166 178
49.10177 189
49.12188 170
49.142 169
49.16211 187
49.18223 193
49.20234 162
49.22245 160
49.24257 168
49.26268 184
49.28279 176
49.30291 167
49.32302 187
49.34313 175
49.36325 169
49.38336 183
49.40348 179
49.42359 209
49.4437 215
49.46382 184
49.48393 188
49.50404 199
49.52416 179
49.54427 191
49.56439 192
49.5845 210
49.60461 195
49.62473 199
49.64484 177
49.66495 205
49.68507 220
49.70518 216
49.7253 232
49.74541 223
49.76552 267
49.78564 288
49.80575 318
49.82586 331
49.84598 388
49.86609 423
49.8862 512
49.90632 574
49.92643 667
49.94655 739
49.96666 935
49.98677 1068
50.00689 1444
50.027 1809
50.04711 2201
50.06723 2703
50.08734 3189
50.10746 3609
50.12757 3632
50.14768 3237
50.1678 2611
50.18791 2104
50.20802 1845
50.22814 1865
50.24825 1851
50.26837 1718
50.28848 1402
50.30859 949
50.32871 620
50.34882 446
50.36893 384
50.38905 332
50.40916 301
50.42927 263
50.44939 288
50.4695 278
50.48962 249
50.50973 274
50.52984 257
50.54996 279
50.57007 276
50.59018 267
50.6103 275
50.63041 238
50.65053 240
50.67064 255
50.69075 225
50.71087 223
50.73098 214
50.75109 240
50.77121 192
50.79132 188
50.81143 192
50.83155 177
50.85166 173
50.87178 188
50.89189 193
50.912 170
50.93212 171
50.95223 173
50.97234 173
50.99246 167
51.01257 176
51.03269 160
51.0528 162
51.07291 165
51.09303 169
51.11314 167
51.13325 167
51.15337 190
51.17348 166
51.1936 168
51.21371 150
51.23382 168
51.25394 149
51.27405 149
51.29416 170
51.31428 147
51.33439 151
51.3545 133
51.37462 141
51.39473 157
51.41485 175
51.43496 149
51.45507 163
51.47519 182
51.4953 165
51.51541 169
51.53553 152
51.55564 141
51.57576 151
51.59587 157
51.61598 130
51.6361 143
51.65621 144
51.67632 136
51.69644 127
51.71655 145
51.73667 156
51.75678 163
51.77689 156
51.79701 167
51.81712 153
51.83723 148
51.85735 149
51.87746 138
51.89757 142
51.91769 146
51.9378 156
51.95792 159
51.97803 145
51.99814 151
52.01826 158
52.03837 142
52.05848 150
52.0786 160
52.09871 142
52.11883 165
52.13894 157
52.15905 167
52.17917 154
52.19928 151
52.21939 140
52.23951 140
52.25962 167
52.27974 146
52.29985 169
52.31996 147
52.34008 158
52.36019 156
52.3803 162
52.40042 134
52.42053 140
52.44064 162
52.46076 154
52.48087 159
52.50099 151
52.5211 152
52.54121 140
52.56133 149
52.58144 165
52.60155 165
52.62167 152
52.64178 130
52.6619 138
52.68201 148
52.70212 154
52.72224 154
52.74235 154
52.76246 153
52.78258 168
52.80269 185
52.8228 150
52.84292 158
52.86303 174
52.88315 154
52.90326 170
52.92337 159
52.94349 181
52.9636 138
52.98371 176
53.00383 153
53.02394 178
53.04406 177
53.06417 163
53.08428 167
53.1044 155
53.12451 165
53.14462 155
53.16474 152
53.18485 169
53.20497 155
53.22508 140
53.24519 151
53.26531 180
53.28542 174
53.30553 167
53.32565 177
53.34576 175
53.36587 164
53.38599 170
53.4061 186
53.42622 184
53.44633 189
53.46644 177
53.48656 171
53.50667 183
53.52678 173
53.5469 148
53.56701 184
53.58713 172
53.60724 177
53.62735 186
53.64747 185
53.66758 169
53.68769 175
53.70781 183
53.72792 166
53.74804 200
53.76815 190
53.78826 204
53.80838 192
53.82849 191
53.8486 175
53.86872 186
53.88883 190
53.90894 195
53.92906 202
53.94917 182
53.96929 183
53.9894 208
54.00951 197
54.02963 197
54.04974 203
54.06985 195
54.08997 186
54.11008 197
54.1302 196
54.15031 215
54.17042 219
54.19054 204
54.21065 236
54.23076 221
54.25088 214
54.27099 222
54.29111 227
54.31122 229
54.33133 225
54.35145 202
54.37156 234
54.39167 239
54.41179 224
54.4319 215
54.45201 223
54.47213 233
54.49224 233
54.51236 230
54.53247 205
54.55258 234
54.5727 270
54.59281 286
54.61292 302
54.63304 292
54.65315 366
54.67327 342
54.69338 398
54.71349 459
54.73361 555
54.75372 632
54.77383 750
54.79395 887
54.81406 926
54.83417 1121
54.85429 1142
54.8744 1146
54.89452 937
54.91463 759
54.93474 657
54.95486 645
54.97497 679
54.99508 685
55.0152 637
55.03531 582
55.05543 459
55.07554 363
55.09565 316
55.11577 340
55.13588 307
55.15599 344
55.17611 373
55.19622 373
55.21634 429
55.23645 452
55.25656 530
55.27668 532
55.29679 570
55.3169 575
55.33702 551
55.35713 491
55.37724 422
55.39736 383
55.41747 397
55.43759 359
55.4577 407
55.47781 351
55.49793 302
55.51804 281
55.53815 232
55.55827 221
55.57838 236
55.5985 226
55.61861 218
55.63872 169
55.65884 190
55.67895 195
55.69906 204
55.71918 197
55.73929 176
55.75941 184
55.77952 191
55.79963 180
55.81975 181
55.83986 192
55.85997 187
55.88009 184
55.9002 185
55.92031 191
55.94043 190
55.96054 173
55.98066 171
56.00077 158
56.02088 168
56.041 178
56.06111 178
56.08122 151
56.10134 177
56.12145 168
56.14157 163
56.16168 192
56.18179 185
56.20191 170
56.22202 171
56.24213 178
56.26225 177
56.28236 147
56.30248 163
56.32259 174
56.3427 160
56.36282 175
56.38293 196
56.40304 151
56.42316 166
56.44327 161
56.46338 165
56.4835 156
56.50361 175
56.52373 149
56.54384 193
56.56395 199
56.58407 201
56.60418 149
56.62429 155
56.64441 160
56.66452 169
56.68464 144
56.70475 157
56.72486 172
56.74498 173
56.76509 170
56.7852 162
56.80532 177
56.82543 170
56.84554 154
56.86566 159
56.88577 173
56.90589 147
56.926 176
56.94611 177
56.96623 154
56.98634 160
57.00645 170
57.02657 164
57.04668 173
57.0668 200
57.08691 183
57.10702 197
57.12714 194
57.14725 177
57.16736 198
57.18748 196
57.20759 215
57.22771 204
57.24782 207
57.26793 199
57.28805 186
57.30816 172
57.32827 200
57.34839 196
57.3685 178
57.38861 165
57.40873 180
57.42884 144
57.44896 164
57.46907 171
57.48918 172
57.5093 151
57.52941 159
57.54952 137
57.56964 162
57.58975 173
57.60987 139
57.62998 186
57.65009 169
57.67021 155
57.69032 171
57.71043 147
57.73055 155
57.75066 145
57.77078 151
57.79089 143
57.811 149
57.83112 177
57.85123 166
57.87134 185
57.89146 137
57.91157 148
57.93168 144
57.9518 147
57.97191 162
57.99203 149
58.01214 170
58.03225 176
58.05237 170
58.07248 154
58.09259 142
58.11271 149
58.13282 147
58.15294 161
58.17305 180
58.19316 145
58.21328 151
58.23339 172
58.2535 159
58.27362 160
58.29373 149
58.31385 169
58.33396 151
58.35407 134
58.37419 159
58.3943 164
58.41441 152
58.43453 153
58.45464 172
58.47475 145
58.49487 164
58.51498 143
58.5351 168
58.55521 161
58.57532 143
58.59544 147
58.61555 162
58.63566 165
58.65578 123
58.67589 137
58.69601 183
58.71612 157
58.73623 176
58.75635 161
58.77646 144
58.79657 167
58.81669 165
58.8368 146
58.85691 157
58.87703 152
58.89714 142
58.91726 140
58.93737 158
58.95748 152
58.9776 146
58.99771 176
59.01782 156
59.03794 173
59.05805 161
59.07817 159
59.09828 179
59.11839 141
59.13851 161
59.15862 152
59.17873 163
59.19885 156
59.21896 167
59.23908 167
59.25919 180
59.2793 174
59.29942 176
59.31953 186
59.33964 193
59.35976 155
59.37987 176
59.39998 180
59.4201 195
59.44021 188
59.46033 197
59.48044 218
59.50055 206
59.52067 209
59.54078 238
59.56089 233
59.58101 266
59.60112 285
59.62124 292
59.64135 309
59.66146 359
59.68158 404
59.70169 416
59.7218 489
59.74192 544
59.76203 624
59.78215 717
59.80226 859
59.82237 1054
59.84249 1294
59.8626 1546
59.88271 1750
59.90283 2060
59.92294 2229
59.94305 2151
59.96317 1991
59.98328 1508
60.0034 1273
60.02351 1108
60.04362 1071
60.06374 1204
60.08385 1145
60.10396 1145
60.12408 955
60.14419 828
60.16431 513
60.18442 392
60.20453 315
60.22465 260
60.24476 277
60.26487 249
60.28499 224
60.3051 203
60.32522 190
60.34533 168
60.36544 172
60.38556 192
60.40567 185
60.42578 166
60.4459 179
60.46601 166
60.48612 175
60.50624 186
60.52635 176
60.54647 187
60.56658 167
60.58669 168
60.60681 153
60.62692 182
60.64703 163
60.66715 164
60.68726 172
60.70738 155
60.72749 183
60.7476 160
60.76772 161
60.78783 182
60.80794 174
60.82806 151
60.84817 172
60.86828 153
60.8884 156
60.90851 157
60.92863 154
60.94874 167
60.96885 166
60.98897 164
61.00908 146
61.02919 132
61.04931 146
61.06942 168
61.08954 150
61.10965 140
61.12976 153
61.14988 156
61.16999 150
61.1901 144
61.21022 146
61.23033 157
61.25045 165
61.27056 162
61.29067 166
61.31079 161
61.3309 177
61.35101 152
61.37113 174
61.39124 155
61.41135 166
61.43147 174
61.45158 148
61.4717 169
61.49181 167
61.51192 164
61.53204 161
61.55215 172
61.57226 172
61.59238 209
61.61249 174
61.63261 178
61.65272 161
61.67283 151
61.69295 150
61.71306 182
61.73317 169
61.75329 175
61.7734 182
61.79352 176
61.81363 182
61.83374 175
61.85386 206
61.87397 211
61.89408 211
61.9142 205
61.93431 212
61.95442 196
61.97454 189
61.99465 197
62.01477 187
62.03488 192
62.05499 176
62.07511 204
62.09522 186
62.11533 208
62.13545 198
62.15556 193
62.17568 188
62.19579 207
62.2159 193
62.23602 199
62.25613 181
62.27624 210
62.29636 198
62.31647 216
62.33659 206
62.3567 203
62.37681 209
62.39693 178
62.41704 193
62.43715 183
62.45727 166
62.47738 172
62.49749 186
62.51761 177
62.53772 169
62.55784 168
62.57795 192
62.59806 169
62.61818 184
62.63829 192
62.6584 175
62.67852 168
62.69863 168
62.71875 200
62.73886 152
62.75897 173
62.77909 170
62.7992 186
62.81931 171
62.83943 156
62.85954 184
62.87965 163
62.89977 143
62.91988 161
62.94 153
62.96011 176
62.98022 153
63.00034 160
63.02045 138
63.04056 154
63.06068 149
63.08079 172
63.10091 165
63.12102 139
63.14113 149
63.16125 148
63.18136 161
63.20147 146
63.22159 147
63.2417 149
63.26182 131
63.28193 172
63.30204 153
63.32216 165
63.34227 163
63.36238 163
63.3825 151
63.40261 147
63.42272 153
63.44284 147
63.46295 153
63.48307 161
63.50318 170
63.52329 157
63.54341 169
63.56352 180
63.58363 137
63.60375 159
63.62386 175
63.64398 183
63.66409 167
63.6842 167
63.70432 163
63.72443 181
63.74454 175
63.76466 174
63.78477 186
63.80489 196
63.825 228
63.84511 261
63.86523 274
63.88534 318
63.90545 319
63.92557 388
63.94568 409
63.96579 447
63.98591 473
64.00602 481
64.02614 474
64.04625 468
64.06636 384
64.08648 329
64.10659 337
64.1267 305
64.14682 311
64.16693 324
64.18705 308
64.20716 303
64.22727 264
64.24739 236
64.2675 219
64.28761 188
64.30773 161
64.32784 187
64.34796 162
64.36807 136
64.38818 161
64.4083 167
64.42841 162
64.44852 151
64.46864 153
64.48875 130
64.50886 139
64.52898 134
64.54909 150
64.56921 150
64.58932 158
64.60943 143
64.62955 137
64.64966 136
64.66977 148
64.68989 148
64.71 134
64.73012 151
64.75023 141
64.77034 146
64.79046 143
64.81057 173
64.83068 133
64.8508 131
64.87091 144
64.89102 146
64.91114 153
64.93125 134
64.95137 140
64.97148 147
64.99159 158
65.01171 167
65.03182 156
65.05193 150
65.07205 141
65.09216 165
65.11228 131
65.13239 142
65.1525 141
65.17262 150
65.19273 158
65.21284 143
65.23296 159
65.25307 107
65.27319 163
65.2933 136
65.31341 155
65.33353 144
65.35364 135
65.37375 135
65.39387 136
65.41398 150
65.43409 159
65.45421 146
65.47432 163
65.49444 153
65.51455 148
65.53466 157
65.55478 162
65.57489 167
65.595 161
65.61512 198
65.63523 187
65.65535 199
65.67546 201
65.69557 228
65.71569 239
65.7358 243
65.75591 214
65.77603 215
65.79614 217
65.81626 210
65.83637 184
65.85648 180
65.8766 188
65.89671 205
65.91682 191
65.93694 183
65.95705 195
65.97716 178
65.99728 175
66.01739 131
66.03751 155
66.05762 172
66.07773 144
66.09785 137
66.11796 139
66.13807 157
66.15819 144
66.1783 157
66.19842 169
66.21853 138
66.23864 139
66.25876 178
66.27887 147
66.29898 172
66.3191 156
66.33921 144
66.35933 149
66.37944 157
66.39955 148
66.41967 125
66.43978 167
66.45989 142
66.48001 154
66.50012 155
66.52023 149
66.54035 135
66.56046 138
66.58058 152
66.60069 159
66.6208 170
66.64092 166
66.66103 156
66.68114 141
66.70126 147
66.72137 134
66.74149 142
66.7616 161
66.78171 158
66.80183 158
66.82194 147
66.84205 138
66.86217 156
66.88228 139
66.90239 134
66.92251 136
66.94262 137
66.96274 163
66.98285 163
67.00296 158
67.02308 163
67.04319 160
67.0633 172
67.08342 164
67.10353 166
67.12365 153
67.14376 177
67.16387 182
67.18399 149
67.2041 171
67.22421 171
67.24433 167
67.26444 185
67.28456 180
67.30467 214
67.32478 227
67.3449 233
67.36501 212
67.38512 216
67.40524 276
67.42535 217
67.44546 308
67.46558 296
67.48569 331
67.50581 372
67.52592 427
67.54603 480
67.56615 534
67.58626 636
67.60637 697
67.62649 818
67.6466 1006
67.66672 1054
67.68683 1230
67.70694 1238
67.72706 1301
67.74717 1153
67.76728 1013
67.7874 739
67.80751 755
67.82763 792
67.84774 765
67.86785 866
67.88797 906
67.90808 1016
67.92819 943
67.94831 921
67.96842 906
67.98853 970
68.00865 1051
68.02876 1119
68.04888 1230
68.06899 1429
68.0891 1545
68.10922 1699
68.12933 1709
68.14944 1615
68.16956 1467
68.18967 1234
68.20979 1241
68.2299 1349
68.25001 1420
68.27013 1526
68.29024 1616
68.31035 1602
68.33047 1310
68.35058 1047
68.3707 898
68.39081 702
68.41092 631
68.43104 629
68.45115 573
68.47126 633
68.49138 619
68.51149 473
68.5316 418
68.55172 334
68.57183 300
68.59195 273
68.61206 228
68.63217 214
68.65229 181
68.6724 201
68.69251 186
68.71263 168
68.73274 184
68.75286 177
68.77297 163
68.79308 182
68.8132 150
68.83331 154
68.85342 180
68.87354 175
68.89365 188
68.91376 174
68.93388 157
68.95399 156
68.97411 163
68.99422 152
69.01433 163
69.03445 159
69.05456 156
69.07467 151
69.09479 168
69.1149 161
69.13502 145
69.15513 144
69.17524 140
69.19536 132
69.21547 165
69.23558 147
69.2557 139
69.27581 148
69.29593 145
69.31604 154
69.33615 145
69.35627 144
69.37638 137
69.39649 158
69.41661 156
69.43672 156
69.45683 138
69.47695 136
69.49706 137
69.51718 154
69.53729 159
69.5574 137
69.57752 150
69.59763 135
69.61774 169
69.63786 170
69.65797 160
69.67809 139
69.6982 157
69.71831 164
69.73843 149
69.75854 150
69.77865 157
69.79877 135
69.81888 132
69.839 134
69.85911 151
69.87922 147
69.89934 138
69.91945 164
69.93956 150
69.95968 139
69.97979 141
69.9999 154
70.02002 135
70.04013 130
70.06025 121
70.08036 148
70.10047 145
70.12059 156
70.1407 126
70.16081 149
70.18093 149
70.20104 153
70.22116 145
70.24127 173
70.26138 143
70.2815 151
70.30161 131
70.32172 144
70.34184 121
70.36195 144
70.38207 142
70.40218 134
70.42229 156
70.44241 135
70.46252 157
70.48263 135
70.50275 133
70.52286 140
70.54297 132
70.56309 146
70.5832 137
70.60332 148
70.62343 150
70.64354 146
70.66366 123
70.68377 112
70.70388 121
70.724 129
70.74411 126
70.76423 122
70.78434 123
70.80445 136
70.82457 108
70.84468 144
70.86479 116
70.88491 137
70.90502 149
70.92513 141
70.94525 142
70.96536 131
70.98548 152
71.00559 124
71.0257 127
71.04582 136
71.06593 143
71.08604 130
71.10616 125
71.12627 139
71.14639 145
71.1665 152
71.18661 126
71.20673 118
71.22684 131
71.24695 129
71.26707 137
71.28718 128
71.3073 135
71.32741 131
71.34752 138
71.36764 121
71.38775 129
71.40786 120
71.42798 149
71.44809 129
71.4682 136
71.48832 116
71.50843 159
71.52855 139
71.54866 126
71.56877 132
71.58889 128
71.609 148
71.62911 147
71.64923 128
71.66934 148
71.68946 140
71.70957 121
71.72968 133
71.7498 129
71.76991 147
71.79002 133
71.81014 132
71.83025 132
71.85037 107
71.87048 126
71.89059 136
71.91071 148
71.93082 134
71.95093 119
71.97105 133
71.99116 121
72.01127 144
72.03139 137
72.0515 132
72.07162 149
72.09173 144
72.11184 132
72.13196 148
72.15207 123
72.17218 131
72.1923 149
72.21241 131
72.23253 136
72.25264 142
72.27275 142
72.29287 123
72.31298 137
72.33309 139
72.35321 168
72.37332 143
72.39344 138
72.41355 142
72.43366 143
72.45378 137
72.47389 146
72.494 140
72.51412 127
72.53423 134
72.55434 144
72.57446 136
72.59457 137
72.61469 140
72.6348 131
72.65491 111
72.67503 132
72.69514 138
72.71525 138
72.73537 127
72.75548 126
72.7756 141
72.79571 149
72.81582 140
72.83594 150
72.85605 150
72.87616 127
72.89628 138
72.91639 142
72.9365 145
72.95662 130
72.97673 165
72.99685 166
73.01696 144
73.03707 131
73.05719 146
73.0773 160
73.09741 164
73.11753 157
73.13764 195
73.15776 177
73.17787 186
73.19798 180
73.2181 220
73.23821 229
73.25832 235
73.27844 252
73.29855 276
73.31867 326
73.33878 341
73.35889 403
73.37901 425
73.39912 515
73.41923 473
73.43935 548
73.45946 510
73.47957 486
73.49969 372
73.5198 276
73.53992 303
73.56003 305
73.58014 313
73.60026 326
73.62037 347
73.64048 341
73.6606 315
73.68071 280
73.70083 256
73.72094 202
73.74105 222
73.76117 164
73.78128 150
73.80139 149
73.82151 130
73.84162 171
73.86174 163
73.88185 160
73.90196 160
73.92208 153
73.94219 141
73.9623 133
73.98242 139
74.00253 151
74.02264 127
74.04276 153
74.06287 133
74.08299 124
74.1031 139
74.12321 147
74.14333 144
74.16344 123
74.18355 156
74.20367 136
74.22378 135
74.2439 149
74.26401 139
74.28412 103
74.30424 134
74.32435 134
74.34446 143
74.36458 130
74.38469 118
74.40481 144
74.42492 138
74.44503 134
74.46515 116
74.48526 145
74.50537 135
74.52549 119
74.5456 133
74.56571 129
74.58583 136
74.60594 142
74.62606 129
74.64617 154
74.66628 150
74.6864 123
74.70651 139
74.72662 131
74.74674 125
74.76685 134
74.78697 144
74.80708 145
74.82719 124
74.84731 143
74.86742 160
74.88753 159
74.90765 134
74.92776 151
74.94787 132
74.96799 145
74.9881 139
75.00822 127
