3.00117 21254
3.02128 19894
3.0414 19851
3.06151 19481
3.08162 18555
3.10174 18123
3.12185 17787
3.14197 17318
3.16208 16644
3.18219 15895
3.20231 15838
3.22242 15139
3.24253 14821
3.26265 14652
3.28276 13507
3.30288 13499
3.32299 12797
3.3431 12732
3.36322 12448
3.38333 11963
3.40344 11858
3.42356 11200
3.44367 10968
3.46379 10613
3.4839 9898
3.50401 9861
3.52413 9277
3.54424 9133
3.56435 8899
3.58447 8440
3.60458 8307
3.62469 7975
3.64481 7640
3.66492 7436
3.68504 6928
3.70515 6915
3.72526 6417
3.74538 6408
3.76549 6245
3.7856 5764
3.80572 5829
3.82583 5526
3.84595 5332
3.86606 5189
3.88617 4780
3.90629 4637
3.9264 4486
3.94651 4453
3.96663 4151
3.98674 3899
4.00686 3919
4.02697 3666
4.04708 3597
4.0672 3474
4.08731 3189
4.10742 3201
4.12754 3012
4.14765 3032
4.16776 2951
4.18788 2709
4.20799 2624
4.22811 2521
4.24822 2488
4.26833 2505
4.28845 2311
4.30856 2226
4.32867 2199
4.34879 2178
4.3689 2264
4.38902 2095
4.40913 2053
4.42924 2088
4.44936 1898
4.46947 1909
4.48958 1781
4.5097 1757
4.52981 1813
4.54992 1788
4.57004 1788
4.59015 1661
4.61027 1659
4.63038 1645
4.65049 1617
4.67061 1668
4.69072 1499
4.71083 1542
4.73095 1528
4.75106 1508
4.77118 1596
4.79129 1423
4.8114 1399
4.83152 1408
4.85163 1372
4.87174 1382
4.89186 1384
4.91197 1332
4.93209 1289
4.9522 1225
4.97231 1311
4.99243 1269
5.01254 1320
5.03265 1292
5.05277 1256
5.07288 1198
5.09299 1085
5.11311 1140
5.13322 1161
5.15334 1150
5.17345 1117
5.19356 1149
5.21368 1047
5.23379 1023
5.2539 1103
5.27402 1076
5.29413 1020
5.31425 1018
5.33436 1026
5.35447 985
5.37459 1046
5.3947 1020
5.41481 1043
5.43493 969
5.45504 995
5.47516 973
5.49527 921
5.51538 929
5.5355 903
5.55561 948
5.57572 907
5.59584 884
5.61595 869
5.63606 866
5.65618 802
5.67629 831
5.69641 790
5.71652 850
5.73663 838
5.75675 909
5.77686 807
5.79697 777
5.81709 753
5.8372 824
5.85732 783
5.87743 781
5.89754 795
5.91766 782
5.93777 788
5.95788 786
5.978 736
5.99811 736
6.01823 701
6.03834 787
6.05845 761
6.07857 757
6.09868 756
6.11879 753
6.13891 748
6.15902 771
6.17913 721
6.19925 813
6.21936 709
6.23948 725
6.25959 738
6.2797 745
6.29982 720
6.31993 702
6.34004 676
6.36016 624
6.38027 655
6.40039 673
6.4205 685
6.44061 595
6.46073 650
6.48084 688
6.50095 669
6.52107 655
6.54118 578
6.56129 666
6.58141 640
6.60152 617
6.62164 588
6.64175 618
6.66186 583
6.68198 618
6.70209 605
6.7222 566
6.74232 572
6.76243 590
6.78255 565
6.80266 554
6.82277 581
6.84289 591
6.863 520
6.88311 603
6.90323 561
6.92334 582
6.94346 579
6.96357 604
6.98368 551
7.0038 547
7.02391 538
7.04402 514
7.06414 555
7.08425 564
7.10436 524
7.12448 519
7.14459 565
7.16471 495
7.18482 503
7.20493 519
7.22505 521
7.24516 564
7.26527 547
7.28539 533
7.3055 522
7.32562 542
7.34573 519
7.36584 529
7.38596 502
7.40607 512
7.42618 528
7.4463 495
7.46641 482
7.48653 508
7.50664 538
7.52675 485
7.54687 467
7.56698 471
7.58709 487
7.60721 494
7.62732 442
7.64743 483
7.66755 460
7.68766 526
7.70778 505
7.72789 498
7.748 427
7.76812 485
7.78823 463
7.80834 444
7.82846 506
7.84857 453
7.86869 453
7.8888 450
7.90891 428
7.92903 456
7.94914 457
7.96925 474
7.98937 441
8.00948 483
8.0296 466
8.04971 452
8.06982 407
8.08994 458
8.11005 454
8.13016 470
8.15028 477
8.17039 510
8.1905 435
8.21062 467
8.23073 484
8.25085 483
8.27096 490
8.29107 492
8.31119 461
8.3313 512
8.35141 484
8.37153 462
8.39164 472
8.41176 514
8.43187 460
8.45198 452
8.4721 502
8.49221 470
8.51232 468
8.53244 501
8.55255 484
8.57266 469
8.59278 473
8.61289 446
8.63301 465
8.65312 459
8.67323 460
8.69335 472
8.71346 419
8.73357 489
8.75369 450
8.7738 431
8.79392 421
8.81403 382
8.83414 418
8.85426 396
8.87437 375
8.89448 404
8.9146 396
8.93471 400
8.95483 397
8.97494 409
8.99505 416
9.01517 410
9.03528 389
9.05539 373
9.07551 378
9.09562 400
9.11573 367
9.13585 362
9.15596 362
9.17608 370
9.19619 383
9.2163 385
9.23642 382
9.25653 349
9.27664 346
9.29676 372
9.31687 354
9.33699 391
9.3571 376
9.37721 317
9.39733 350
9.41744 374
9.43755 290
9.45767 324
9.47778 364
9.4979 365
9.51801 340
9.53812 354
9.55824 358
9.57835 319
9.59846 331
9.61858 353
9.63869 354
9.6588 328
9.67892 328
9.69903 348
9.71915 367
9.73926 362
9.75937 323
9.77949 342
9.7996 384
9.81971 309
9.83983 313
9.85994 338
9.88006 312
9.90017 328
9.92028 331
9.9404 296
9.96051 370
9.98062 329
10.00074 312
10.02085 313
10.04097 331
10.06108 317
10.08119 325
10.10131 312
10.12142 354
10.14153 364
10.16165 334
10.18176 308
10.20187 331
10.22199 347
10.2421 320
10.26222 315
10.28233 349
10.30244 319
10.32256 349
10.34267 354
10.36278 351
10.3829 364
10.40301 417
10.42313 386
10.44324 412
10.46335 404
10.48347 370
10.50358 394
10.52369 393
10.54381 366
10.56392 333
10.58403 317
10.60415 310
10.62426 286
10.64438 315
10.66449 276
10.6846 302
10.70472 315
10.72483 303
10.74494 296
10.76506 274
10.78517 294
10.80529 291
10.8254 333
10.84551 281
10.86563 313
10.88574 324
10.90585 316
10.92597 283
10.94608 300
10.9662 286
10.98631 317
11.00642 275
11.02654 309
11.04665 305
11.06676 332
11.08688 290
11.10699 312
11.1271 291
11.14722 309
11.16733 289
11.18745 361
11.20756 275
11.22767 302
11.24779 276
11.2679 325
11.28801 281
11.30813 322
11.32824 320
11.34836 273
11.36847 321
11.38858 280
11.4087 301
11.42881 329
11.44892 302
11.46904 280
11.48915 280
11.50927 289
11.52938 279
11.54949 263
11.56961 290
11.58972 287
11.60983 309
11.62995 286
11.65006 314
11.67017 323
11.69029 309
11.7104 323
11.73052 322
11.75063 276
11.77074 321
11.79086 270
11.81097 316
11.83108 286
11.8512 303
11.87131 298
11.89143 280
11.91154 301
11.93165 296
11.95177 285
11.97188 325
11.99199 312
12.01211 299
12.03222 330
12.05234 319
12.07245 300
12.09256 273
12.11268 277
12.13279 284
12.1529 265
12.17302 286
12.19313 284
12.21324 332
12.23336 283
12.25347 310
12.27359 310
12.2937 332
12.31381 289
12.33393 310
12.35404 312
12.37415 280
12.39427 286
12.41438 276
12.4345 277
12.45461 299
12.47472 307
12.49484 351
12.51495 296
12.53506 276
12.55518 279
12.57529 322
12.5954 309
12.61552 310
12.63563 262
12.65575 263
12.67586 285
12.69597 290
12.71609 318
12.7362 322
12.75631 269
12.77643 256
12.79654 283
12.81666 306
12.83677 285
12.85688 299
12.877 342
12.89711 280
12.91722 309
12.93734 286
12.95745 301
12.97757 311
12.99768 293
13.01779 286
13.03791 255
13.05802 292
13.07813 306
13.09825 276
13.11836 310
13.13847 307
13.15859 302
13.1787 312
13.19882 317
13.21893 309
13.23904 306
13.25916 273
13.27927 314
13.29938 309
13.3195 298
13.33961 299
13.35973 295
13.37984 278
13.39995 283
13.42007 269
13.44018 305
13.46029 335
13.48041 342
13.50052 316
13.52064 303
13.54075 372
13.56086 356
13.58098 372
13.60109 335
13.6212 370
13.64132 382
13.66143 354
13.68154 368
13.70166 404
13.72177 352
13.74189 374
13.762 391
13.78211 405
13.80223 402
13.82234 396
13.84245 393
13.86257 366
13.88268 370
13.9028 338
13.92291 328
13.94302 338
13.96314 299
13.98325 281
14.00336 285
14.02348 298
14.04359 305
14.06371 313
14.08382 277
14.10393 276
14.12405 295
14.14416 257
14.16427 288
14.18439 276
14.2045 291
14.22461 282
14.24473 289
14.26484 281
14.28496 279
14.30507 270
14.32518 291
14.3453 305
14.36541 274
14.38552 289
14.40564 253
14.42575 287
14.44587 271
14.46598 253
14.48609 292
14.50621 307
14.52632 279
14.54643 259
14.56655 266
14.58666 292
14.60677 271
14.62689 280
14.647 252
14.66712 270
14.68723 281
14.70734 257
14.72746 278
14.74757 291
14.76768 321
14.7878 273
14.80791 294
14.82803 291
14.84814 281
14.86825 312
14.88837 305
14.90848 283
14.92859 332
14.94871 314
14.96882 313
14.98894 339
15.00905 342
15.02916 344
15.04928 335
15.06939 324
15.0895 331
15.10962 293
15.12973 330
15.14984 301
15.16996 307
15.19007 298
15.21019 296
15.2303 301
15.25041 321
15.27053 322
15.29064 283
15.31075 258
15.33087 252
15.35098 297
15.3711 289
15.39121 277
15.41132 270
15.43144 299
15.45155 292
15.47166 279
15.49178 260
15.51189 286
15.53201 290
15.55212 274
15.57223 254
15.59235 282
15.61246 307
15.63257 280
15.65269 272
15.6728 287
15.69291 303
15.71303 300
15.73314 293
15.75326 317
15.77337 272
15.79348 291
15.8136 291
15.83371 277
15.85382 293
15.87394 306
15.89405 277
15.91417 246
15.93428 278
15.95439 283
15.97451 277
15.99462 303
16.01473 300
16.03485 307
16.05496 272
16.07508 319
16.09519 306
16.1153 312
16.13542 303
16.15553 287
16.17564 273
16.19576 293
16.21587 277
16.23598 325
16.2561 273
16.27621 304
16.29633 261
16.31644 278
16.33655 281
16.35667 277
16.37678 281
16.39689 320
16.41701 305
16.43712 307
16.45724 301
16.47735 294
16.49746 299
16.51758 290
16.53769 253
16.5578 269
16.57792 308
16.59803 332
16.61814 308
16.63826 298
16.65837 260
16.67849 287
16.6986 261
16.71871 266
16.73883 294
16.75894 272
16.77905 259
16.79917 301
16.81928 295
16.8394 309
16.85951 301
16.87962 334
16.89974 280
16.91985 304
16.93996 284
16.96008 278
16.98019 321
17.00031 316
17.02042 299
17.04053 286
17.06065 293
17.08076 246
17.10087 310
17.12099 258
17.1411 277
17.16121 266
17.18133 311
17.20144 278
17.22156 334
17.24167 294
17.26178 281
17.2819 265
17.30201 291
17.32212 273
17.34224 312
17.36235 310
17.38247 291
17.40258 300
17.42269 275
17.44281 302
17.46292 297
17.48303 300
17.50315 274
17.52326 282
17.54338 287
17.56349 306
17.5836 284
17.60372 308
17.62383 281
17.64394 301
17.66406 321
17.68417 309
17.70428 292
17.7244 315
17.74451 346
17.76463 318
17.78474 297
17.80485 291
17.82497 306
17.84508 305
17.86519 329
17.88531 280
17.90542 363
17.92554 332
17.94565 305
17.96576 306
17.98588 294
18.00599 339
18.0261 307
18.04622 276
18.06633 334
18.08645 302
18.10656 273
18.12667 290
18.14679 276
18.1669 291
18.18701 296
18.20713 308
18.22724 317
18.24735 337
18.26747 306
18.28758 326
18.3077 307
18.32781 313
18.34792 290
18.36804 300
18.38815 282
18.40826 297
18.42838 311
18.44849 309
18.46861 333
18.48872 277
18.50883 293
18.52895 303
18.54906 322
18.56917 297
18.58929 286
18.6094 303
18.62951 346
18.64963 276
18.66974 282
18.68986 282
18.70997 304
18.73008 304
18.7502 322
18.77031 308
18.79042 324
18.81054 290
18.83065 278
18.85077 266
18.87088 321
18.89099 317
18.91111 329
18.93122 309
18.95133 300
18.97145 288
18.99156 316
19.01168 311
19.03179 289
19.0519 307
19.07202 323
19.09213 317
19.11224 319
19.13236 325
19.15247 329
19.17258 308
19.1927 366
19.21281 384
19.23293 356
19.25304 366
19.27315 387
19.29327 363
19.31338 393
19.33349 405
19.35361 456
19.37372 461
19.39384 430
19.41395 443
19.43406 491
19.45418 502
19.47429 528
19.4944 579
19.51452 596
19.53463 569
19.55475 614
19.57486 642
19.59497 651
19.61509 672
19.6352 699
19.65531 647
19.67543 705
19.69554 690
19.71565 725
19.73577 746
19.75588 776
19.776 750
19.79611 749
19.81622 726
19.83634 708
19.85645 710
19.87656 679
19.89668 692
19.91679 652
19.93691 702
19.95702 668
19.97713 659
19.99725 605
20.01736 638
20.03747 647
20.05759 588
20.0777 572
20.09782 543
20.11793 566
20.13804 526
20.15816 563
20.17827 534
20.19838 514
20.2185 510
20.23861 540
20.25872 578
20.27884 510
20.29895 535
20.31907 550
20.33918 505
20.35929 505
20.37941 543
20.39952 483
20.41963 476
20.43975 522
20.45986 520
20.47998 502
20.50009 453
20.5202 521
20.54032 511
20.56043 529
20.58054 593
20.60066 551
20.62077 547
20.64088 640
20.661 734
20.68111 814
20.70123 1067
20.72134 1301
20.74145 1495
20.76157 1930
20.78168 2046
20.80179 2300
20.82191 2281
20.84202 2199
20.86214 1924
20.88225 1540
20.90236 1244
20.92248 999
20.94259 876
20.9627 791
20.98282 735
21.00293 706
21.02305 732
21.04316 631
21.06327 529
21.08339 491
21.1035 478
21.12361 455
21.14373 470
21.16384 446
21.18395 450
21.20407 449
21.22418 421
21.2443 401
21.26441 479
21.28452 458
21.30464 434
21.32475 426
21.34486 462
21.36498 451
21.38509 397
21.40521 475
21.42532 486
21.44543 452
21.46555 408
21.48566 487
21.50577 494
21.52589 478
21.546 505
21.56612 511
21.58623 476
21.60634 532
21.62646 500
21.64657 484
21.66668 512
21.6868 462
21.70691 486
21.72702 459
21.74714 474
21.76725 464
21.78737 483
21.80748 535
21.82759 556
21.84771 685
21.86782 719
21.88793 777
21.90805 820
21.92816 925
21.94828 921
21.96839 892
21.9885 831
22.00862 741
22.02873 696
22.04884 667
22.06896 554
22.08907 479
22.10919 486
22.1293 434
22.14941 464
22.16953 418
22.18964 395
22.20975 423
22.22987 417
22.24998 421
22.27009 427
22.29021 399
22.31032 415
22.33044 458
22.35055 434
22.37066 399
22.39078 434
22.41089 396
22.431 440
22.45112 425
22.47123 444
22.49135 406
22.51146 429
22.53157 434
22.55169 398
22.5718 437
22.59191 409
22.61203 391
22.63214 437
22.65225 417
22.67237 396
22.69248 454
22.7126 424
22.73271 446
22.75282 431
22.77294 464
22.79305 493
22.81316 514
22.83328 555
22.85339 485
22.87351 447
22.89362 482
22.91373 549
22.93385 514
22.95396 510
22.97407 456
22.99419 496
23.0143 496
23.03442 514
23.05453 448
23.07464 485
23.09476 453
23.11487 435
23.13498 453
23.1551 456
23.17521 485
23.19532 477
23.21544 427
23.23555 521
23.25567 439
23.27578 455
23.29589 452
23.31601 491
23.33612 492
23.35623 432
23.37635 484
23.39646 497
23.41658 575
23.43669 535
23.4568 598
23.47692 627
23.49703 659
23.51714 707
23.53726 742
23.55737 806
23.57749 734
23.5976 784
23.61771 703
23.63783 687
23.65794 643
23.67805 597
23.69817 617
23.71828 554
23.73839 576
23.75851 632
23.77862 598
23.79874 634
23.81885 607
23.83896 641
23.85908 642
23.87919 621
23.8993 640
23.91942 620
23.93953 626
23.95965 603
23.97976 580
23.99987 568
24.01999 567
24.0401 566
24.06021 524
24.08033 551
24.10044 562
24.12056 526
24.14067 537
24.16078 612
24.1809 586
24.20101 626
24.22112 652
24.24124 669
24.26135 693
24.28146 648
24.30158 644
24.32169 565
24.34181 538
24.36192 551
24.38203 526
24.40215 468
24.42226 513
24.44237 485
24.46249 460
24.4826 433
24.50272 446
24.52283 456
24.54294 423
24.56306 413
24.58317 418
24.60328 442
24.6234 435
24.64351 427
24.66362 427
24.68374 431
24.70385 444
24.72397 401
24.74408 436
24.76419 412
24.78431 423
24.80442 393
24.82453 402
24.84465 462
24.86476 444
24.88488 465
24.90499 376
24.9251 466
24.94522 390
24.96533 463
24.98544 431
25.00556 408
25.02567 429
25.04579 412
25.0659 457
25.08601 397
25.10613 440
25.12624 409
25.14635 454
25.16647 413
25.18658 440
25.20669 435
25.22681 432
25.24692 477
25.26704 428
25.28715 452
25.30726 465
25.32738 427
25.34749 485
25.3676 471
25.38772 513
25.40783 541
25.42795 549
25.44806 569
25.46817 568
25.48829 613
25.5084 641
25.52851 582
25.54863 631
25.56874 679
25.58886 628
25.60897 619
25.62908 624
25.6492 597
25.66931 589
25.68942 586
25.70954 591
25.72965 544
25.74976 540
25.76988 537
25.78999 517
25.81011 501
25.83022 530
25.85033 482
25.87045 525
25.89056 483
25.91067 501
25.93079 487
25.9509 479
25.97102 488
25.99113 515
26.01124 510
26.03136 520
26.05147 513
26.07158 521
26.0917 565
26.11181 583
26.13193 615
26.15204 617
26.17215 663
26.19227 678
26.21238 732
26.23249 709
26.25261 756
26.27272 839
26.29283 919
26.31295 986
26.33306 1070
26.35318 1147
26.37329 1329
26.3934 1584
26.41352 1831
26.43363 2282
26.45374 2944
26.47386 3777
26.49397 4774
26.51409 6141
26.5342 7458
26.55431 8609
26.57443 9413
26.59454 9425
26.61465 8660
26.63477 7559
26.65488 5805
26.67499 4374
26.69511 3169
26.71522 2238
26.73534 1600
26.75545 1211
26.77556 1013
26.79568 935
26.81579 833
26.8359 841
26.85602 805
26.87613 794
26.89625 763
26.91636 755
26.93647 750
26.95659 808
26.9767 740
26.99681 793
27.01693 773
27.03704 785
27.05716 776
27.07727 729
27.09738 702
27.1175 677
27.13761 672
27.15772 638
27.17784 698
27.19795 629
27.21806 662
27.23818 739
27.25829 735
27.27841 773
27.29852 792
27.31863 882
27.33875 1039
27.35886 1086
27.37897 1101
27.39909 1219
27.4192 1199
27.43932 1265
27.45943 1250
27.47954 1112
27.49966 1063
27.51977 1035
27.53988 976
27.56 947
27.58011 973
27.60023 1017
27.62034 1082
27.64045 1118
27.66057 1327
27.68068 1365
27.70079 1478
27.72091 1611
27.74102 1534
27.76113 1550
27.78125 1547
27.80136 1420
27.82148 1499
27.84159 1457
27.8617 1428
27.88182 1466
27.90193 1366
27.92204 1428
27.94216 1343
27.96227 1239
27.98239 1086
28.0025 943
28.02261 902
28.04273 774
28.06284 751
28.08295 703
28.10307 645
28.12318 661
28.1433 624
28.16341 623
28.18352 712
28.20364 655
28.22375 670
28.24386 626
28.26398 644
28.28409 604
28.3042 626
28.32432 575
28.34443 555
28.36455 568
28.38466 537
28.40477 485
28.42489 457
28.445 491
28.46511 499
28.48523 461
28.50534 456
28.52546 475
28.54557 430
28.56568 407
28.5858 451
28.60591 413
28.62602 461
28.64614 414
28.66625 418
28.68636 402
28.70648 424
28.72659 409
28.74671 425
28.76682 414
28.78693 440
28.80705 415
28.82716 409
28.84727 407
28.86739 387
28.8875 418
28.90762 426
28.92773 400
28.94784 424
28.96796 393
28.98807 402
29.00818 397
29.0283 401
29.04841 429
29.06853 434
29.08864 395
29.10875 390
29.12887 421
29.14898 402
29.16909 430
29.18921 450
29.20932 454
29.22943 412
29.24955 445
29.26966 463
29.28978 441
29.30989 512
29.33 523
29.35012 522
29.37023 549
29.39034 496
29.41046 501
29.43057 514
29.45069 508
29.4708 472
29.49091 488
29.51103 480
29.53114 473
29.55125 458
29.57137 477
29.59148 529
29.6116 475
29.63171 554
29.65182 506
29.67194 515
29.69205 535
29.71216 548
29.73228 551
29.75239 572
29.7725 564
29.79262 574
29.81273 522
29.83285 551
29.85296 517
29.87307 545
29.89319 468
29.9133 517
29.93341 508
29.95353 494
29.97364 507
29.99376 488
30.01387 535
30.03398 488
30.0541 498
30.07421 550
30.09432 497
30.11444 529
30.13455 526
30.15467 499
30.17478 537
30.19489 520
30.21501 549
30.23512 587
30.25523 613
30.27535 580
30.29546 609
30.31557 631
30.33569 639
30.3558 619
30.37592 637
30.39603 590
30.41614 590
30.43626 564
30.45637 553
30.47648 561
30.4966 527
30.51671 521
30.53683 533
30.55694 464
30.57705 471
30.59717 504
30.61728 456
30.63739 490
30.65751 497
30.67762 542
30.69773 487
30.71785 511
30.73796 517
30.75808 526
30.77819 486
30.7983 495
30.81842 452
30.83853 440
30.85864 459
30.87876 454
30.89887 406
30.91899 431
30.9391 400
30.95921 382
30.97933 339
30.99944 404
31.01955 373
31.03967 390
31.05978 389
31.0799 383
31.10001 384
31.12012 391
31.14024 419
31.16035 410
31.18046 401
31.20058 390
31.22069 416
31.2408 391
31.26092 424
31.28103 453
31.30115 425
31.32126 449
31.34137 437
31.36149 432
31.3816 420
31.40171 395
31.42183 453
31.44194 418
31.46206 374
31.48217 384
31.50228 383
31.5224 375
31.54251 355
31.56262 387
31.58274 371
31.60285 382
31.62297 355
31.64308 359
31.66319 360
31.68331 346
31.70342 367
31.72353 347
31.74365 350
31.76376 321
31.78387 345
31.80399 345
31.8241 337
31.84422 342
31.86433 325
31.88444 378
31.90456 343
31.92467 337
31.94478 371
31.9649 377
31.98501 343
32.00513 329
32.02524 362
32.04535 374
32.06547 380
32.08558 342
32.10569 383
32.12581 392
32.14592 356
32.16604 364
32.18615 397
32.20626 371
32.22638 381
32.24649 407
32.2666 412
32.28672 379
32.30683 353
32.32694 421
32.34706 411
32.36717 388
32.38729 364
32.4074 417
32.42751 354
32.44763 425
32.46774 380
32.48785 398
32.50797 368
32.52808 383
32.5482 398
32.56831 382
32.58842 350
32.60854 341
32.62865 387
32.64876 374
32.66888 358
32.68899 382
32.7091 383
32.72922 367
32.74933 332
32.76945 337
32.78956 386
32.80967 345
32.82979 379
32.8499 385
32.87001 425
32.89013 391
32.91024 385
32.93036 400
32.95047 359
32.97058 411
32.9907 358
33.01081 403
33.03092 373
33.05104 401
33.07115 414
33.09127 389
33.11138 358
33.13149 336
33.15161 393
33.17172 315
33.19183 356
33.21195 335
33.23206 314
33.25217 331
33.27229 352
33.2924 362
33.31252 355
33.33263 295
33.35274 335
33.37286 328
33.39297 304
33.41308 295
33.4332 349
33.45331 352
33.47343 327
33.49354 333
33.51365 332
33.53377 287
33.55388 318
33.57399 332
33.59411 341
33.61422 339
33.63434 343
33.65445 351
33.67456 340
33.69468 370
33.71479 415
33.7349 390
33.75502 400
33.77513 390
33.79524 388
33.81536 397
33.83547 359
33.85559 388
33.8757 411
33.89581 357
33.91593 377
33.93604 382
33.95615 378
33.97627 399
33.99638 365
34.0165 386
34.03661 386
34.05672 407
34.07684 418
34.09695 449
34.11706 443
34.13718 450
34.15729 447
34.17741 473
34.19752 471
34.21763 458
34.23775 491
34.25786 521
34.27797 506
34.29809 486
34.3182 506
34.33831 532
34.35843 519
34.37854 501
34.39866 557
34.41877 564
34.43888 564
34.459 547
34.47911 575
34.49922 516
34.51934 570
34.53945 580
34.55957 569
34.57968 586
34.59979 616
34.61991 573
34.64002 553
34.66013 555
34.68025 584
34.70036 537
34.72047 593
34.74059 601
34.7607 625
34.78082 589
34.80093 588
34.82104 594
34.84116 582
34.86127 607
34.88138 561
34.9015 537
34.92161 570
34.94173 572
34.96184 609
34.98195 621
35.00207 597
35.02218 616
35.04229 647
35.06241 610
35.08252 624
35.10264 672
35.12275 616
35.14286 625
35.16298 648
35.18309 634
35.2032 631
35.22332 652
35.24343 654
35.26354 688
35.28366 683
35.30377 646
35.32389 608
35.344 635
35.36411 605
35.38423 577
35.40434 593
35.42445 641
35.44457 577
35.46468 548
35.4848 575
35.50491 597
35.52502 580
35.54514 586
35.56525 528
35.58536 497
35.60548 563
35.62559 520
35.64571 532
35.66582 512
35.68593 487
35.70605 436
35.72616 489
35.74627 502
35.76639 427
35.7865 484
35.80661 454
35.82673 443
35.84684 444
35.86696 432
35.88707 478
35.90718 443
35.9273 433
35.94741 484
35.96752 430
35.98764 487
36.00775 505
36.02787 450
36.04798 443
36.06809 482
36.08821 466
36.10832 438
36.12843 461
36.14855 461
36.16866 506
36.18878 481
36.20889 471
36.229 475
36.24912 470
36.26923 485
36.28934 496
36.30946 547
36.32957 583
36.34968 640
36.3698 711
36.38991 735
36.41003 818
36.43014 940
36.45025 950
36.47037 1006
36.49048 983
36.51059 918
36.53071 943
36.55082 838
36.57094 738
36.59105 681
36.61116 621
36.63128 598
36.65139 548
36.6715 479
36.69162 546
36.71173 471
36.73184 476
36.75196 484
36.77207 453
36.79219 444
36.8123 422
36.83241 440
36.85253 458
36.87264 444
36.89275 447
36.91287 505
36.93298 468
36.9531 479
36.97321 474
36.99332 449
37.01344 441
37.03355 452
37.05366 460
37.07378 437
37.09389 437
37.11401 480
37.13412 406
37.15423 444
37.17435 452
37.19446 414
37.21457 406
37.23469 429
37.2548 460
37.27491 433
37.29503 441
37.31514 440
37.33526 462
37.35537 437
37.37548 407
37.3956 390
37.41571 448
37.43582 435
37.45594 415
37.47605 448
37.49617 372
37.51628 396
37.53639 462
37.55651 412
37.57662 424
37.59673 476
37.61685 417
37.63696 409
37.65708 446
37.67719 408
37.6973 420
37.71742 366
37.73753 344
37.75764 395
37.77776 340
37.79787 395
37.81798 360
37.8381 362
37.85821 366
37.87833 369
37.89844 371
37.91855 416
37.93867 358
37.95878 377
37.97889 366
37.99901 374
38.01912 371
38.03924 342
38.05935 356
38.07946 374
38.09958 340
38.11969 369
38.1398 375
38.15992 341
38.18003 351
38.20015 363
38.22026 337
38.24037 355
38.26049 338
38.2806 349
38.30071 361
38.32083 364
38.34094 374
38.36105 362
38.38117 406
38.40128 391
38.4214 346
38.44151 342
38.46162 399
38.48174 374
38.50185 410
38.52196 391
38.54208 383
38.56219 371
38.58231 373
38.60242 353
38.62253 366
38.64265 346
38.66276 388
38.68287 341
38.70299 358
38.7231 355
38.74321 371
38.76333 388
38.78344 352
38.80356 372
38.82367 369
38.84378 337
38.8639 371
38.88401 376
38.90412 369
38.92424 406
38.94435 365
38.96447 362
38.98458 366
39.00469 362
39.02481 381
39.04492 393
39.06503 380
39.08515 372
39.10526 356
39.12538 420
39.14549 464
39.1656 391
39.18572 429
39.20583 437
39.22594 455
39.24606 489
39.26617 559
39.28628 565
39.3064 632
39.32651 733
39.34663 821
39.36674 826
39.38685 940
39.40697 902
39.42708 791
39.44719 781
39.46731 719
39.48742 669
39.50754 588
39.52765 595
39.54776 533
39.56788 481
39.58799 413
39.6081 389
39.62822 407
39.64833 364
39.66845 362
39.68856 358
39.70867 350
39.72879 351
39.7489 375
39.76901 350
39.78913 351
39.80924 353
39.82935 379
39.84947 377
39.86958 371
39.8897 357
39.90981 396
39.92992 385
39.95004 378
39.97015 382
39.99026 403
40.01038 365
40.03049 389
40.05061 391
40.07072 430
40.09083 473
40.11095 457
40.13106 493
40.15117 510
40.17129 578
40.1914 582
40.21152 605
40.23163 560
40.25174 599
40.27186 548
40.29197 527
40.31208 506
40.3322 516
40.35231 463
40.37242 393
40.39254 392
40.41265 383
40.43277 359
40.45288 347
40.47299 352
40.49311 325
40.51322 324
40.53333 365
40.55345 344
40.57356 356
40.59368 356
40.61379 361
40.6339 399
40.65402 362
40.67413 376
40.69424 376
40.71436 377
40.73447 366
40.75458 342
40.7747 375
40.79481 378
40.81493 402
40.83504 336
40.85515 364
40.87527 328
40.89538 328
40.91549 371
40.93561 347
40.95572 342
40.97584 358
40.99595 334
41.01606 364
41.03618 364
41.05629 346
41.0764 374
41.09652 305
41.11663 333
41.13675 344
41.15686 370
41.17697 330
41.19709 384
41.2172 345
41.23731 353
41.25743 350
41.27754 344
41.29765 344
41.31777 348
41.33788 349
41.358 378
41.37811 335
41.39822 342
41.41834 337
41.43845 336
41.45856 343
41.47868 379
41.49879 394
41.51891 402
41.53902 352
41.55913 389
41.57925 420
41.59936 392
41.61947 418
41.63959 426
41.6597 440
41.67982 426
41.69993 423
41.72004 453
41.74016 456
41.76027 410
41.78038 454
41.8005 396
41.82061 428
41.84072 397
41.86084 397
41.88095 361
41.90107 344
41.92118 364
41.94129 333
41.96141 386
41.98152 340
42.00163 350
42.02175 358
42.04186 331
42.06198 372
42.08209 357
42.1022 362
42.12232 381
42.14243 430
42.16254 406
42.18266 422
42.20277 426
42.22289 443
42.243 490
42.26311 576
42.28323 567
42.30334 636
42.32345 663
42.34357 707
42.36368 664
42.38379 762
42.40391 695
42.42402 644
42.44414 610
42.46425 569
42.48436 562
42.50448 530
42.52459 468
42.5447 433
42.56482 427
42.58493 411
42.60505 419
42.62516 407
42.64527 367
42.66539 395
42.6855 421
42.70561 386
42.72573 390
42.74584 390
42.76595 372
42.78607 369
42.80618 387
42.8263 388
42.84641 363
42.86652 382
42.88664 385
42.90675 366
42.92686 414
42.94698 378
42.96709 369
42.98721 387
43.00732 351
43.02743 362
43.04755 351
43.06766 351
43.08777 373
43.10789 337
43.128 321
43.14812 308
43.16823 346
43.18834 338
43.20846 350
43.22857 329
43.24868 343
43.2688 346
43.28891 320
43.30902 312
43.32914 315
43.34925 316
43.36937 308
43.38948 341
43.40959 309
43.42971 286
43.44982 351
43.46993 342
43.49005 345
43.51016 325
43.53028 352
43.55039 304
43.5705 343
43.59062 332
43.61073 310
43.63084 309
43.65096 315
43.67107 300
43.69119 318
43.7113 308
43.73141 344
43.75153 333
43.77164 307
43.79175 307
43.81187 336
43.83198 316
43.85209 310
43.87221 343
43.89232 335
43.91244 321
43.93255 314
43.95266 313
43.97278 315
43.99289 350
44.013 330
44.03312 298
44.05323 343
44.07335 323
44.09346 322
44.11357 339
44.13369 338
44.1538 314
44.17391 334
44.19403 332
44.21414 317
44.23426 305
44.25437 307
44.27448 307
44.2946 309
44.31471 312
44.33482 271
44.35494 296
44.37505 328
44.39516 341
44.41528 311
44.43539 308
44.45551 320
44.47562 318
44.49573 347
44.51585 319
44.53596 343
44.55607 317
44.57619 342
44.5963 303
44.61642 306
44.63653 310
44.65664 323
44.67676 306
44.69687 344
44.71698 308
44.7371 333
44.75721 329
44.77732 355
44.79744 366
44.81755 301
44.83767 368
44.85778 326
44.87789 297
44.89801 315
44.91812 335
44.93823 363
44.95835 323
44.97846 365
44.99858 319
45.01869 332
45.0388 339
45.05892 323
45.07903 317
45.09914 318
45.11926 343
45.13937 347
45.15949 316
45.1796 332
45.19971 335
45.21983 320
45.23994 337
45.26005 340
45.28017 352
45.30028 323
45.32039 316
45.34051 315
45.36062 334
45.38074 322
45.40085 355
45.42096 348
45.44108 333
45.46119 370
45.4813 359
45.50142 355
45.52153 361
45.54165 397
45.56176 402
45.58187 413
45.60199 452
45.6221 491
45.64221 532
45.66233 536
45.68244 546
45.70256 535
45.72267 563
45.74278 505
45.7629 535
45.78301 472
45.80312 467
45.82324 451
45.84335 432
45.86346 397
45.88358 359
45.90369 326
45.92381 319
45.94392 319
45.96403 315
45.98415 322
46.00426 347
46.02437 320
46.04449 316
46.0646 287
46.08472 288
46.10483 309
46.12494 329
46.14506 305
46.16517 321
46.18528 292
46.2054 270
46.22551 283
46.24563 307
46.26574 296
46.28585 281
46.30597 288
46.32608 292
46.34619 304
46.36631 319
46.38642 300
46.40653 286
46.42665 310
46.44676 309
46.46688 273
46.48699 290
46.5071 271
46.52722 289
46.54733 292
46.56744 274
46.58756 312
46.60767 302
46.62779 297
46.6479 305
46.66801 312
46.68813 307
46.70824 314
46.72835 298
46.74847 303
46.76858 285
46.78869 353
46.80881 311
46.82892 294
46.84904 313
46.86915 321
46.88926 316
46.90938 326
46.92949 315
46.9496 302
46.96972 325
46.98983 313
47.00995 316
47.03006 289
47.05017 301
47.07029 324
47.0904 309
47.11051 339
47.13063 329
47.15074 295
47.17086 305
47.19097 313
47.21108 310
47.2312 326
47.25131 312
47.27142 343
47.29154 295
47.31165 324
47.33176 300
47.35188 312
47.37199 318
47.39211 323
47.41222 298
47.43233 315
47.45245 331
47.47256 320
47.49267 325
47.51279 360
47.5329 308
47.55302 320
47.57313 336
47.59324 301
47.61336 299
47.63347 305
47.65358 320
47.6737 296
47.69381 263
47.71393 298
47.73404 300
47.75415 275
47.77427 300
47.79438 285
47.81449 301
47.83461 295
47.85472 285
47.87483 277
47.89495 314
47.91506 311
47.93518 339
47.95529 275
47.9754 303
47.99552 302
48.01563 333
48.03574 298
48.05586 312
48.07597 301
48.09609 294
48.1162 294
48.13631 316
48.15643 296
48.17654 293
48.19665 340
48.21677 312
48.23688 318
48.257 287
48.27711 324
48.29722 344
48.31734 343
48.33745 326
48.35756 323
48.37768 322
48.39779 301
48.4179 329
48.43802 316
48.45813 282
48.47825 292
48.49836 345
48.51847 319
48.53859 320
48.5587 316
48.57881 331
48.59893 304
48.61904 309
48.63916 312
48.65927 319
48.67938 313
48.6995 305
48.71961 315
48.73972 321
48.75984 317
48.77995 314
48.80006 308
48.82018 314
48.84029 330
48.86041 325
48.88052 341
48.90063 321
48.92075 302
48.94086 332
48.96097 331
48.98109 321
49.0012 362
49.02132 359
49.04143 322
49.06154 364
49.08166 346
49.10177 364
49.12188 366
49.142 366
49.16211 346
49.18223 381
49.20234 324
49.22245 343
49.24257 325
49.26268 306
49.28279 325
49.30291 368
49.32302 327
49.34313 294
49.36325 305
49.38336 313
49.40348 343
49.42359 356
49.4437 340
49.46382 334
49.48393 328
49.50404 317
49.52416 340
49.54427 351
49.56439 332
49.5845 352
49.60461 349
49.62473 367
49.64484 370
49.66495 385
49.68507 449
49.70518 428
49.7253 409
49.74541 438
49.76552 461
49.78564 486
49.80575 470
49.82586 503
49.84598 502
49.86609 520
49.8862 526
49.90632 566
49.92643 655
49.94655 690
49.96666 799
49.98677 913
50.00689 975
50.027 1113
50.04711 1191
50.06723 1149
50.08734 1175
50.10746 1020
50.12757 879
50.14768 858
50.1678 804
50.18791 762
50.20802 662
50.22814 652
50.24825 532
50.26837 495
50.28848 399
50.30859 411
50.32871 369
50.34882 361
50.36893 359
50.38905 399
50.40916 375
50.42927 370
50.44939 406
50.4695 404
50.48962 416
50.50973 419
50.52984 405
50.54996 412
50.57007 415
50.59018 391
50.6103 390
50.63041 383
50.65053 350
50.67064 380
50.69075 371
50.71087 382
50.73098 371
50.75109 345
50.77121 367
50.79132 345
50.81143 348
50.83155 350
50.85166 350
50.87178 372
50.89189 349
50.912 308
50.93212 328
50.95223 336
50.97234 366
50.99246 333
51.01257 318
51.03269 322
51.0528 368
51.07291 304
51.09303 368
51.11314 364
51.13325 368
51.15337 356
51.17348 331
51.1936 334
51.21371 370
51.23382 388
51.25394 369
51.27405 348
51.29416 337
51.31428 327
51.33439 332
51.3545 334
51.37462 364
51.39473 335
51.41485 304
51.43496 327
51.45507 310
51.47519 282
51.4953 333
51.51541 277
51.53553 288
51.55564 283
51.57576 299
51.59587 284
51.61598 251
51.6361 293
51.65621 263
51.67632 275
51.69644 270
51.71655 240
51.73667 259
51.75678 254
51.77689 283
51.79701 282
51.81712 284
51.83723 306
51.85735 273
51.87746 265
51.89757 292
51.91769 264
51.9378 288
51.95792 294
51.97803 270
51.99814 269
52.01826 249
52.03837 302
52.05848 269
52.0786 280
52.09871 246
52.11883 271
52.13894 290
52.15905 301
52.17917 270
52.19928 278
52.21939 284
52.23951 292
52.25962 292
52.27974 292
52.29985 263
52.31996 293
52.34008 311
52.36019 283
52.3803 321
52.40042 302
52.42053 287
52.44064 299
52.46076 328
52.48087 292
52.50099 309
52.5211 320
52.54121 300
52.56133 294
52.58144 301
52.60155 315
52.62167 308
52.64178 331
52.6619 333
52.68201 295
52.70212 310
52.72224 339
52.74235 309
52.76246 321
52.78258 322
52.80269 305
52.8228 306
52.84292 321
52.86303 308
52.88315 339
52.90326 310
52.92337 327
52.94349 323
52.9636 306
52.98371 345
53.00383 313
53.02394 338
53.04406 309
53.06417 356
53.08428 362
53.1044 361
53.12451 338
53.14462 297
53.16474 309
53.18485 347
53.20497 345
53.22508 366
53.24519 339
53.26531 299
53.28542 343
53.30553 300
53.32565 320
53.34576 333
53.36587 325
53.38599 333
53.4061 309
53.42622 316
53.44633 330
53.46644 322
53.48656 305
53.50667 349
53.52678 308
53.5469 351
53.56701 325
53.58713 316
53.60724 328
53.62735 319
53.64747 351
53.66758 330
53.68769 347
53.70781 322
53.72792 344
53.74804 305
53.76815 359
53.78826 367
53.80838 361
53.82849 320
53.8486 376
53.86872 332
53.88883 369
53.90894 408
53.92906 362
53.94917 320
53.96929 339
53.9894 362
54.00951 364
54.02963 353
54.04974 362
54.06985 339
54.08997 344
54.11008 333
54.1302 375
54.15031 343
54.17042 343
54.19054 350
54.21065 349
54.23076 336
54.25088 365
54.27099 366
54.29111 367
54.31122 370
54.33133 376
54.35145 334
54.37156 341
54.39167 371
54.41179 378
54.4319 325
54.45201 342
54.47213 327
54.49224 360
54.51236 368
54.53247 384
54.55258 361
54.5727 363
54.59281 368
54.61292 372
54.63304 392
54.65315 454
54.67327 445
54.69338 455
54.71349 510
54.73361 511
54.75372 535
54.77383 572
54.79395 575
54.81406 549
54.83417 587
54.85429 512
54.8744 482
54.89452 483
54.91463 467
54.93474 460
54.95486 442
54.97497 502
54.99508 426
55.0152 386
55.03531 358
55.05543 389
55.07554 362
55.09565 361
55.11577 371
55.13588 374
55.15599 374
55.17611 380
55.19622 405
55.21634 432
55.23645 401
55.25656 399
55.27668 426
55.29679 408
55.3169 385
55.33702 375
55.35713 352
55.37724 416
55.39736 366
55.41747 368
55.43759 367
55.4577 360
55.47781 348
55.49793 329
55.51804 328
55.53815 308
55.55827 345
55.57838 337
55.5985 327
55.61861 322
55.63872 341
55.65884 336
55.67895 314
55.69906 298
55.71918 320
55.73929 327
55.75941 321
55.77952 325
55.79963 296
55.81975 310
55.83986 322
55.85997 310
55.88009 282
55.9002 312
55.92031 300
55.94043 295
55.96054 315
55.98066 297
56.00077 332
56.02088 293
56.041 317
56.06111 302
56.08122 292
56.10134 314
56.12145 319
56.14157 317
56.16168 309
56.18179 286
56.20191 270
56.22202 294
56.24213 300
56.26225 330
56.28236 354
56.30248 315
56.32259 282
56.3427 300
56.36282 320
56.38293 296
56.40304 315
56.42316 317
56.44327 291
56.46338 285
56.4835 298
56.50361 300
56.52373 304
56.54384 314
56.56395 328
56.58407 319
56.60418 297
56.62429 302
56.64441 312
56.66452 289
56.68464 326
56.70475 323
56.72486 326
56.74498 279
56.76509 320
56.7852 279
56.80532 314
56.82543 294
56.84554 277
56.86566 298
56.88577 311
56.90589 276
56.926 272
56.94611 276
56.96623 304
56.98634 301
57.00645 304
57.02657 333
57.04668 292
57.0668 319
57.08691 327
57.10702 273
57.12714 298
57.14725 352
57.16736 323
57.18748 298
57.20759 339
57.22771 308
57.24782 344
57.26793 326
57.28805 335
57.30816 323
57.32827 306
57.34839 318
57.3685 316
57.38861 268
57.40873 297
57.42884 314
57.44896 298
57.46907 301
57.48918 304
57.5093 304
57.52941 273
57.54952 305
57.56964 307
57.58975 300
57.60987 301
57.62998 320
57.65009 325
57.67021 323
57.69032 297
57.71043 272
57.73055 304
57.75066 264
57.77078 290
57.79089 265
57.811 304
57.83112 308
57.85123 297
57.87134 311
57.89146 320
57.91157 286
57.93168 291
57.9518 281
57.97191 325
57.99203 300
58.01214 273
58.03225 280
58.05237 276
58.07248 280
58.09259 318
58.11271 312
58.13282 305
58.15294 320
58.17305 317
58.19316 292
58.21328 292
58.23339 320
58.2535 299
58.27362 284
58.29373 281
58.31385 269
58.33396 299
58.35407 268
58.37419 290
58.3943 299
58.41441 326
58.43453 292
58.45464 305
58.47475 318
58.49487 347
58.51498 282
58.5351 329
58.55521 284
58.57532 302
58.59544 305
58.61555 329
58.63566 321
58.65578 291
58.67589 282
58.69601 299
58.71612 276
58.73623 276
58.75635 318
58.77646 307
58.79657 299
58.81669 283
58.8368 298
58.85691 291
58.87703 274
58.89714 286
58.91726 307
58.93737 304
58.95748 256
58.9776 313
58.99771 266
59.01782 291
59.03794 300
59.05805 254
59.07817 312
59.09828 313
59.11839 301
59.13851 307
59.15862 320
59.17873 290
59.19885 307
59.21896 328
59.23908 290
59.25919 330
59.2793 313
59.29942 272
59.31953 311
59.33964 312
59.35976 314
59.37987 291
59.39998 306
59.4201 322
59.44021 337
59.46033 303
59.48044 298
59.50055 326
59.52067 302
59.54078 329
59.56089 297
59.58101 330
59.60112 365
59.62124 362
59.64135 382
59.66146 382
59.68158 424
59.70169 469
59.7218 459
59.74192 481
59.76203 551
59.78215 600
59.80226 697
59.82237 736
59.84249 799
59.8626 831
59.88271 846
59.90283 748
59.92294 711
59.94305 649
59.96317 626
59.98328 590
60.0034 579
60.02351 586
60.04362 557
60.06374 527
60.08385 507
60.10396 448
60.12408 421
60.14419 359
60.16431 365
60.18442 322
60.20453 320
60.22465 336
60.24476 332
60.26487 323
60.28499 309
60.3051 336
60.32522 336
60.34533 315
60.36544 310
60.38556 285
60.40567 297
60.42578 317
60.4459 318
60.46601 305
60.48612 321
60.50624 303
60.52635 332
60.54647 311
60.56658 306
60.58669 300
60.60681 327
60.62692 288
60.64703 325
60.66715 301
60.68726 281
60.70738 325
60.72749 279
60.7476 312
60.76772 300
60.78783 297
60.80794 318
60.82806 328
60.84817 291
60.86828 309
60.8884 312
60.90851 335
60.92863 318
60.94874 350
60.96885 342
60.98897 339
61.00908 317
61.02919 326
61.04931 327
61.06942 364
61.08954 369
61.10965 336
61.12976 357
61.14988 346
61.16999 350
61.1901 327
61.21022 391
61.23033 379
61.25045 385
61.27056 365
61.29067 374
61.31079 392
61.3309 374
61.35101 381
61.37113 375
61.39124 419
61.41135 406
61.43147 431
61.45158 412
61.4717 408
61.49181 450
61.51192 374
61.53204 393
61.55215 419
61.57226 397
61.59238 399
61.61249 392
61.63261 376
61.65272 462
61.67283 421
61.69295 408
61.71306 412
61.73317 412
61.75329 408
61.7734 410
61.79352 411
61.81363 411
61.83374 366
61.85386 401
61.87397 382
61.89408 366
61.9142 375
61.93431 404
61.95442 406
61.97454 395
61.99465 383
62.01477 392
62.03488 401
62.05499 367
62.07511 366
62.09522 360
62.11533 352
62.13545 375
62.15556 332
62.17568 388
62.19579 348
62.2159 358
62.23602 329
62.25613 372
62.27624 351
62.29636 336
62.31647 366
62.33659 367
62.3567 354
62.37681 346
62.39693 315
62.41704 320
62.43715 330
62.45727 333
62.47738 336
62.49749 305
62.51761 329
62.53772 308
62.55784 310
62.57795 316
62.59806 318
62.61818 275
62.63829 284
62.6584 319
62.67852 282
62.69863 317
62.71875 338
62.73886 279
62.75897 326
62.77909 316
62.7992 297
62.81931 323
62.83943 300
62.85954 322
62.87965 299
62.89977 310
62.91988 321
62.94 306
62.96011 320
62.98022 302
63.00034 294
63.02045 290
63.04056 315
63.06068 309
63.08079 286
63.10091 299
63.12102 291
63.14113 286
63.16125 311
63.18136 327
63.20147 294
63.22159 290
63.2417 317
63.26182 298
63.28193 304
63.30204 285
63.32216 305
63.34227 309
63.36238 320
63.3825 304
63.40261 304
63.42272 297
63.44284 273
63.46295 282
63.48307 293
63.50318 318
63.52329 292
63.54341 325
63.56352 306
63.58363 296
63.60375 311
63.62386 295
63.64398 346
63.66409 331
63.6842 343
63.70432 358
63.72443 318
63.74454 327
63.76466 368
63.78477 338
63.80489 354
63.825 384
63.84511 385
63.86523 402
63.88534 382
63.90545 392
63.92557 414
63.94568 374
63.96579 428
63.98591 411
64.00602 355
64.02614 376
64.04625 344
64.06636 364
64.08648 347
64.10659 342
64.1267 317
64.14682 309
64.16693 326
64.18705 306
64.20716 325
64.22727 289
64.24739 297
64.2675 245
64.28761 306
64.30773 283
64.32784 276
64.34796 280
64.36807 292
64.38818 301
64.4083 282
64.42841 256
64.44852 280
64.46864 296
64.48875 272
64.50886 293
64.52898 267
64.54909 295
64.56921 264
64.58932 262
64.60943 258
64.62955 273
64.64966 289
64.66977 264
64.68989 279
64.71 284
64.73012 278
64.75023 268
64.77034 248
64.79046 253
64.81057 259
64.83068 287
64.8508 303
64.87091 270
64.89102 272
64.91114 298
64.93125 316
64.95137 269
64.97148 298
64.99159 296
65.01171 251
65.03182 287
65.05193 276
65.07205 321
65.09216 285
65.11228 287
65.13239 280
65.1525 310
65.17262 317
65.19273 267
65.21284 299
65.23296 303
65.25307 302
65.27319 304
65.2933 312
65.31341 302
65.33353 308
65.35364 295
65.37375 282
65.39387 276
65.41398 274
65.43409 296
65.45421 278
65.47432 292
65.49444 271
65.51455 323
65.53466 286
65.55478 298
65.57489 268
65.595 289
65.61512 290
65.63523 285
65.65535 303
65.67546 289
65.69557 289
65.71569 296
65.7358 282
65.75591 279
65.77603 279
65.79614 279
65.81626 280
65.83637 291
65.85648 286
65.8766 287
65.89671 270
65.91682 271
65.93694 277
65.95705 281
65.97716 298
65.99728 260
66.01739 290
66.03751 246
66.05762 277
66.07773 293
66.09785 250
66.11796 254
66.13807 306
66.15819 260
66.1783 272
66.19842 264
66.21853 281
66.23864 264
66.25876 283
66.27887 278
66.29898 279
66.3191 263
66.33921 284
66.35933 294
66.37944 306
66.39955 291
66.41967 286
66.43978 271
66.45989 301
66.48001 243
66.50012 225
66.52023 267
66.54035 294
66.56046 285
66.58058 270
66.60069 270
66.6208 266
66.64092 277
66.66103 286
66.68114 263
66.70126 268
66.72137 247
66.74149 271
66.7616 258
66.78171 278
66.80183 275
66.82194 291
66.84205 264
66.86217 251
66.88228 259
66.90239 285
66.92251 258
66.94262 276
66.96274 282
66.98285 268
67.00296 287
67.02308 298
67.04319 280
67.0633 288
67.08342 274
67.10353 271
67.12365 282
67.14376 285
67.16387 305
67.18399 260
67.2041 270
67.22421 302
67.24433 298
67.26444 347
67.28456 297
67.30467 321
67.32478 294
67.3449 310
67.36501 294
67.38512 294
67.40524 324
67.42535 323
67.44546 323
67.46558 331
67.48569 356
67.50581 397
67.52592 416
67.54603 440
67.56615 480
67.58626 502
67.60637 538
67.62649 572
67.6466 663
67.66672 628
67.68683 553
67.70694 539
67.72706 548
67.74717 534
67.76728 479
67.7874 523
67.80751 507
67.82763 519
67.84774 524
67.86785 549
67.88797 521
67.90808 501
67.92819 541
67.94831 542
67.96842 542
67.98853 595
68.00865 668
68.02876 692
68.04888 725
68.06899 762
68.0891 750
68.10922 653
68.12933 668
68.14944 680
68.16956 671
68.18967 658
68.20979 728
68.2299 677
68.25001 675
68.27013 712
68.29024 580
68.31035 557
68.33047 471
68.35058 411
68.3707 458
68.39081 413
68.41092 451
68.43104 435
68.45115 387
68.47126 357
68.49138 338
68.51149 284
68.5316 311
68.55172 292
68.57183 310
68.59195 316
68.61206 275
68.63217 312
68.65229 276
68.6724 270
68.69251 290
68.71263 276
68.73274 274
68.75286 290
68.77297 268
68.79308 291
68.8132 269
68.83331 302
68.85342 305
68.87354 292
68.89365 283
68.91376 290
68.93388 286
68.95399 284
68.97411 283
68.99422 288
69.01433 311
69.03445 297
69.05456 289
69.07467 297
69.09479 303
69.1149 293
69.13502 285
69.15513 287
69.17524 297
69.19536 304
69.21547 306
69.23558 296
69.2557 278
69.27581 279
69.29593 304
69.31604 276
69.33615 283
69.35627 272
69.37638 297
69.39649 285
69.41661 298
69.43672 281
69.45683 291
69.47695 317
69.49706 277
69.51718 291
69.53729 284
69.5574 259
69.57752 291
69.59763 286
69.61774 278
69.63786 254
69.65797 285
69.67809 286
69.6982 301
69.71831 267
69.73843 292
69.75854 255
69.77865 290
69.79877 312
69.81888 280
69.839 294
69.85911 292
69.87922 313
69.89934 264
69.91945 285
69.93956 275
69.95968 269
69.97979 259
69.9999 259
70.02002 288
70.04013 277
70.06025 303
70.08036 257
70.10047 243
70.12059 264
70.1407 280
70.16081 259
70.18093 264
70.20104 267
70.22116 267
70.24127 272
70.26138 287
70.2815 241
70.30161 254
70.32172 269
70.34184 246
70.36195 277
70.38207 283
70.40218 235
70.42229 260
70.44241 260
70.46252 279
70.48263 262
70.50275 268
70.52286 251
70.54297 261
70.56309 279
70.5832 275
70.60332 312
70.62343 256
70.64354 259
70.66366 251
70.68377 230
70.70388 271
70.724 253
70.74411 285
70.76423 283
70.78434 277
70.80445 277
70.82457 270
70.84468 256
70.86479 259
70.88491 256
70.90502 278
70.92513 263
70.94525 292
70.96536 244
70.98548 259
71.00559 259
71.0257 262
71.04582 247
71.06593 261
71.08604 294
71.10616 263
71.12627 260
71.14639 296
71.1665 294
71.18661 267
71.20673 292
71.22684 265
71.24695 274
71.26707 291
71.28718 275
71.3073 289
71.32741 287
71.34752 242
71.36764 286
71.38775 296
71.40786 272
71.42798 260
71.44809 290
71.4682 279
71.48832 283
71.50843 283
71.52855 276
71.54866 292
71.56877 278
71.58889 278
71.609 262
71.62911 269
71.64923 248
71.66934 257
71.68946 269
71.70957 251
71.72968 269
71.7498 280
71.76991 254
71.79002 267
71.81014 285
71.83025 313
71.85037 282
71.87048 283
71.89059 254
71.91071 267
71.93082 281
71.95093 254
71.97105 254
71.99116 289
72.01127 262
72.03139 277
72.0515 248
72.07162 279
72.09173 279
72.11184 298
72.13196 294
72.15207 282
72.17218 275
72.1923 319
72.21241 293
72.23253 295
72.25264 303
72.27275 301
72.29287 244
72.31298 292
72.33309 262
72.35321 311
72.37332 311
72.39344 296
72.41355 313
72.43366 296
72.45378 283
72.47389 278
72.494 274
72.51412 282
72.53423 284
72.55434 287
72.57446 310
72.59457 294
72.61469 271
72.6348 297
72.65491 309
72.67503 282
72.69514 288
72.71525 295
72.73537 312
72.75548 307
72.7756 290
72.79571 259
72.81582 308
72.83594 289
72.85605 273
72.87616 298
72.89628 311
72.91639 320
72.9365 306
72.95662 301
72.97673 302
72.99685 302
73.01696 292
73.03707 315
73.05719 343
73.0773 294
73.09741 311
73.11753 306
73.13764 304
73.15776 335
73.17787 335
73.19798 340
73.2181 304
73.23821 357
73.25832 330
73.27844 365
73.29855 402
73.31867 379
73.33878 368
73.35889 389
73.37901 392
73.39912 401
73.41923 367
73.43935 401
73.45946 383
73.47957 306
73.49969 350
73.5198 307
73.53992 328
73.56003 343
73.58014 334
73.60026 330
73.62037 349
73.64048 317
73.6606 284
73.68071 309
73.70083 316
73.72094 286
73.74105 294
73.76117 298
73.78128 319
73.80139 316
73.82151 298
73.84162 285
73.86174 300
73.88185 272
73.90196 293
73.92208 280
73.94219 264
73.9623 265
73.98242 268
74.00253 270
74.02264 272
74.04276 289
74.06287 326
74.08299 274
74.1031 272
74.12321 304
74.14333 276
74.16344 268
74.18355 270
74.20367 280
74.22378 291
74.2439 269
74.26401 247
74.28412 259
74.30424 261
74.32435 274
74.34446 284
74.36458 273
74.38469 289
74.40481 292
74.42492 281
74.44503 263
74.46515 317
74.48526 284
74.50537 288
74.52549 266
74.5456 283
74.56571 279
74.58583 314
74.60594 265
74.62606 272
74.64617 313
74.66628 311
74.6864 272
74.70651 282
74.72662 293
74.74674 307
74.76685 275
74.78697 263
74.80708 279
74.82719 232
74.84731 305
74.86742 293
74.88753 277
74.90765 285
74.92776 272
74.94787 306
74.96799 265
74.9881 279
75.00822 275
