3.00117 23348
3.02128 22487
3.0414 22191
3.06151 21154
3.08162 20710
3.10174 20065
3.12185 19569
3.14197 19059
3.16208 18424
3.18219 17752
3.20231 17401
3.22242 17099
3.24253 16476
3.26265 15793
3.28276 15547
3.30288 15198
3.32299 14640
3.3431 14234
3.36322 13517
3.38333 13235
3.40344 12739
3.42356 12356
3.44367 12115
3.46379 11395
3.4839 11039
3.50401 10700
3.52413 10222
3.54424 10314
3.56435 9435
3.58447 9313
3.60458 9163
3.62469 8783
3.64481 8631
3.66492 7671
3.68504 7751
3.70515 7379
3.72526 7113
3.74538 6903
3.76549 6469
3.7856 6359
3.80572 6039
3.82583 5706
3.84595 5889
3.86606 5145
3.88617 5168
3.90629 4843
3.9264 4646
3.94651 4637
3.96663 4040
3.98674 4125
4.00686 4058
4.02697 3763
4.04708 3744
4.0672 3274
4.08731 3457
4.10742 3137
4.12754 3001
4.14765 2942
4.16776 2732
4.18788 2634
4.20799 2621
4.22811 2442
4.24822 2445
4.26833 2197
4.28845 2218
4.30856 2145
4.32867 2048
4.34879 2064
4.3689 1944
4.38902 1877
4.40913 1921
4.42924 1842
4.44936 1823
4.46947 1633
4.48958 1656
4.5097 1664
4.52981 1604
4.54992 1515
4.57004 1450
4.59015 1444
4.61027 1498
4.63038 1372
4.65049 1409
4.67061 1337
4.69072 1314
4.71083 1302
4.73095 1278
4.75106 1262
4.77118 1247
4.79129 1212
4.8114 1133
4.83152 1112
4.85163 1169
4.87174 1127
4.89186 1053
4.91197 1162
4.93209 1021
4.9522 1019
4.97231 937
4.99243 944
5.01254 993
5.03265 963
5.05277 909
5.07288 958
5.09299 857
5.11311 873
5.13322 854
5.15334 847
5.17345 842
5.19356 810
5.21368 779
5.23379 788
5.2539 716
5.27402 748
5.29413 729
5.31425 684
5.33436 722
5.35447 642
5.37459 666
5.3947 669
5.41481 571
5.43493 674
5.45504 638
5.47516 633
5.49527 601
5.51538 637
5.5355 629
5.55561 547
5.57572 540
5.59584 569
5.61595 522
5.63606 547
5.65618 532
5.67629 548
5.69641 534
5.71652 524
5.73663 538
5.75675 533
5.77686 528
5.79697 519
5.81709 473
5.8372 493
5.85732 445
5.87743 479
5.89754 489
5.91766 468
5.93777 463
5.95788 446
5.978 456
5.99811 493
6.01823 470
6.03834 408
6.05845 462
6.07857 446
6.09868 422
6.11879 397
6.13891 434
6.15902 441
6.17913 446
6.19925 399
6.21936 410
6.23948 418
6.25959 436
6.2797 427
6.29982 446
6.31993 433
6.34004 407
6.36016 451
6.38027 444
6.40039 461
6.4205 413
6.44061 362
6.46073 396
6.48084 403
6.50095 389
6.52107 414
6.54118 373
6.56129 426
6.58141 378
6.60152 413
6.62164 383
6.64175 398
6.66186 401
6.68198 419
6.70209 419
6.7222 418
6.74232 421
6.76243 416
6.78255 368
6.80266 441
6.82277 428
6.84289 394
6.863 363
6.88311 374
6.90323 403
6.92334 411
6.94346 436
6.96357 366
6.98368 429
7.0038 426
7.02391 400
7.04402 398
7.06414 410
7.08425 399
7.10436 398
7.12448 389
7.14459 391
7.16471 358
7.18482 433
7.20493 429
7.22505 430
7.24516 407
7.26527 366
7.28539 407
7.3055 433
7.32562 411
7.34573 406
7.36584 401
7.38596 451
7.40607 387
7.42618 428
7.4463 391
7.46641 419
7.48653 460
7.50664 392
7.52675 404
7.54687 415
7.56698 393
7.58709 427
7.60721 430
7.62732 429
7.64743 393
7.66755 415
7.68766 401
7.70778 471
7.72789 398
7.748 429
7.76812 415
7.78823 416
7.80834 418
7.82846 418
7.84857 385
7.86869 431
7.8888 441
7.90891 464
7.92903 391
7.94914 397
7.96925 445
7.98937 468
8.00948 468
8.0296 438
8.04971 383
8.06982 447
8.08994 436
8.11005 443
8.13016 441
8.15028 453
8.17039 419
8.1905 455
8.21062 410
8.23073 431
8.25085 410
8.27096 442
8.29107 447
8.31119 414
8.3313 412
8.35141 426
8.37153 407
8.39164 418
8.41176 437
8.43187 476
8.45198 417
8.4721 450
8.49221 456
8.51232 430
8.53244 428
8.55255 385
8.57266 456
8.59278 436
8.61289 442
8.63301 449
8.65312 440
8.67323 449
8.69335 445
8.71346 483
8.73357 499
8.75369 490
8.7738 504
8.79392 482
8.81403 494
8.83414 520
8.85426 501
8.87437 523
8.89448 506
8.9146 506
8.93471 471
8.95483 479
8.97494 423
8.99505 401
9.01517 390
9.03528 414
9.05539 417
9.07551 399
9.09562 449
9.11573 407
9.13585 452
9.15596 414
9.17608 411
9.19619 394
9.2163 443
9.23642 402
9.25653 385
9.27664 388
9.29676 406
9.31687 429
9.33699 431
9.3571 418
9.37721 433
9.39733 372
9.41744 394
9.43755 397
9.45767 379
9.47778 423
9.4979 399
9.51801 391
9.53812 379
9.55824 434
9.57835 392
9.59846 387
9.61858 369
9.63869 406
9.6588 402
9.67892 435
9.69903 397
9.71915 410
9.73926 361
9.75937 368
9.77949 412
9.7996 420
9.81971 349
9.83983 373
9.85994 383
9.88006 403
9.90017 392
9.92028 425
9.9404 365
9.96051 393
9.98062 362
10.00074 420
10.02085 344
10.04097 403
10.06108 409
10.08119 387
10.10131 405
10.12142 390
10.14153 413
10.16165 359
10.18176 393
10.20187 363
10.22199 365
10.2421 389
10.26222 373
10.28233 397
10.30244 398
10.32256 387
10.34267 389
10.36278 400
10.3829 396
10.40301 410
10.42313 380
10.44324 368
10.46335 381
10.48347 366
10.50358 385
10.52369 395
10.54381 354
10.56392 380
10.58403 416
10.60415 367
10.62426 370
10.64438 381
10.66449 377
10.6846 370
10.70472 371
10.72483 379
10.74494 386
10.76506 399
10.78517 384
10.80529 412
10.8254 375
10.84551 390
10.86563 409
10.88574 377
10.90585 432
10.92597 389
10.94608 398
10.9662 396
10.98631 340
11.00642 406
11.02654 400
11.04665 423
11.06676 411
11.08688 352
11.10699 380
11.1271 403
11.14722 396
11.16733 372
11.18745 366
11.20756 403
11.22767 389
11.24779 352
11.2679 397
11.28801 404
11.30813 409
11.32824 401
11.34836 435
11.36847 388
11.38858 395
11.4087 363
11.42881 373
11.44892 408
11.46904 353
11.48915 398
11.50927 396
11.52938 365
11.54949 397
11.56961 389
11.58972 371
11.60983 420
11.62995 404
11.65006 399
11.67017 371
11.69029 372
11.7104 375
11.73052 382
11.75063 362
11.77074 402
11.79086 390
11.81097 418
11.83108 397
11.8512 427
11.87131 420
11.89143 384
11.91154 398
11.93165 376
11.95177 421
11.97188 381
11.99199 436
12.01211 456
12.03222 395
12.05234 444
12.07245 426
12.09256 424
12.11268 441
12.13279 431
12.1529 394
12.17302 438
12.19313 457
12.21324 453
12.23336 469
12.25347 475
12.27359 480
12.2937 520
12.31381 485
12.33393 494
12.35404 516
12.37415 476
12.39427 465
12.41438 473
12.4345 461
12.45461 451
12.47472 462
12.49484 386
12.51495 472
12.53506 404
12.55518 455
12.57529 443
12.5954 369
12.61552 422
12.63563 369
12.65575 406
12.67586 382
12.69597 416
12.71609 390
12.7362 366
12.75631 362
12.77643 374
12.79654 364
12.81666 397
12.83677 341
12.85688 401
12.877 373
12.89711 378
12.91722 368
12.93734 385
12.95745 381
12.97757 390
12.99768 355
13.01779 353
13.03791 376
13.05802 380
13.07813 362
13.09825 332
13.11836 385
13.13847 349
13.15859 417
13.1787 377
13.19882 402
13.21893 355
13.23904 382
13.25916 358
13.27927 385
13.29938 356
13.3195 380
13.33961 327
13.35973 362
13.37984 344
13.39995 348
13.42007 382
13.44018 352
13.46029 368
13.48041 369
13.50052 362
13.52064 359
13.54075 301
13.56086 381
13.58098 380
13.60109 349
13.6212 364
13.64132 403
13.66143 330
13.68154 367
13.70166 386
13.72177 397
13.74189 412
13.762 361
13.78211 378
13.80223 411
13.82234 403
13.84245 422
13.86257 393
13.88268 379
13.9028 358
13.92291 395
13.94302 363
13.96314 338
13.98325 379
14.00336 358
14.02348 364
14.04359 331
14.06371 390
14.08382 386
14.10393 358
14.12405 389
14.14416 372
14.16427 345
14.18439 387
14.2045 338
14.22461 356
14.24473 365
14.26484 377
14.28496 390
14.30507 347
14.32518 367
14.3453 346
14.36541 384
14.38552 381
14.40564 366
14.42575 342
14.44587 377
14.46598 354
14.48609 344
14.50621 370
14.52632 368
14.54643 365
14.56655 390
14.58666 335
14.60677 331
14.62689 334
14.647 327
14.66712 350
14.68723 349
14.70734 396
14.72746 377
14.74757 375
14.76768 351
14.7878 369
14.80791 392
14.82803 350
14.84814 347
14.86825 371
14.88837 371
14.90848 358
14.92859 347
14.94871 388
14.96882 339
14.98894 348
15.00905 348
15.02916 351
15.04928 368
15.06939 357
15.0895 385
15.10962 381
15.12973 341
15.14984 324
15.16996 305
15.19007 375
15.21019 351
15.2303 366
15.25041 329
15.27053 369
15.29064 339
15.31075 361
15.33087 345
15.35098 393
15.3711 378
15.39121 338
15.41132 338
15.43144 341
15.45155 360
15.47166 378
15.49178 362
15.51189 344
15.53201 365
15.55212 349
15.57223 367
15.59235 352
15.61246 346
15.63257 370
15.65269 339
15.6728 354
15.69291 344
15.71303 360
15.73314 355
15.75326 365
15.77337 378
15.79348 350
15.8136 403
15.83371 363
15.85382 353
15.87394 367
15.89405 374
15.91417 355
15.93428 356
15.95439 364
15.97451 333
15.99462 341
16.01473 351
16.03485 357
16.05496 334
16.07508 331
16.09519 329
16.1153 347
16.13542 364
16.15553 351
16.17564 373
16.19576 350
16.21587 336
16.23598 310
16.2561 348
16.27621 367
16.29633 360
16.31644 372
16.33655 317
16.35667 354
16.37678 345
16.39689 387
16.41701 350
16.43712 354
16.45724 332
16.47735 390
16.49746 362
16.51758 341
16.53769 378
16.5578 366
16.57792 364
16.59803 350
16.61814 378
16.63826 357
16.65837 358
16.67849 409
16.6986 325
16.71871 335
16.73883 350
16.75894 382
16.77905 368
16.79917 357
16.81928 330
16.8394 325
16.85951 345
16.87962 339
16.89974 352
16.91985 373
16.93996 357
16.96008 338
16.98019 377
17.00031 342
17.02042 390
17.04053 346
17.06065 357
17.08076 350
17.10087 363
17.12099 338
17.1411 384
17.16121 337
17.18133 360
17.20144 332
17.22156 373
17.24167 368
17.26178 354
17.2819 376
17.30201 386
17.32212 386
17.34224 396
17.36235 437
17.38247 378
17.40258 377
17.42269 373
17.44281 359
17.46292 361
17.48303 373
17.50315 378
17.52326 365
17.54338 374
17.56349 343
17.5836 434
17.60372 376
17.62383 377
17.64394 386
17.66406 441
17.68417 426
17.70428 386
17.7244 402
17.74451 445
17.76463 394
17.78474 430
17.80485 431
17.82497 418
17.84508 427
17.86519 433
17.88531 375
17.90542 414
17.92554 392
17.94565 379
17.96576 427
17.98588 394
18.00599 389
18.0261 387
18.04622 377
18.06633 387
18.08645 365
18.10656 403
18.12667 373
18.14679 379
18.1669 372
18.18701 398
18.20713 405
18.22724 370
18.24735 371
18.26747 377
18.28758 375
18.3077 381
18.32781 386
18.34792 385
18.36804 404
18.38815 362
18.40826 384
18.42838 368
18.44849 361
18.46861 364
18.48872 383
18.50883 357
18.52895 357
18.54906 377
18.56917 357
18.58929 346
18.6094 382
18.62951 349
18.64963 370
18.66974 391
18.68986 366
18.70997 358
18.73008 329
18.7502 353
18.77031 368
18.79042 372
18.81054 370
18.83065 376
18.85077 390
18.87088 353
18.89099 330
18.91111 364
18.93122 350
18.95133 381
18.97145 379
18.99156 391
19.01168 411
19.03179 347
19.0519 362
19.07202 388
19.09213 377
19.11224 376
19.13236 403
19.15247 390
19.17258 374
19.1927 404
19.21281 387
19.23293 389
19.25304 409
19.27315 385
19.29327 371
19.31338 396
19.33349 402
19.35361 425
19.37372 425
19.39384 427
19.41395 403
19.43406 438
19.45418 407
19.47429 405
19.4944 444
19.51452 483
19.53463 447
19.55475 546
19.57486 539
19.59497 594
19.61509 593
19.6352 668
19.65531 615
19.67543 641
19.69554 711
19.71565 699
19.73577 710
19.75588 694
19.776 713
19.79611 736
19.81622 725
19.83634 675
19.85645 710
19.87656 704
19.89668 690
19.91679 676
19.93691 610
19.95702 595
19.97713 600
19.99725 583
20.01736 570
20.03747 559
20.05759 611
20.0777 560
20.09782 560
20.11793 616
20.13804 537
20.15816 564
20.17827 605
20.19838 554
20.2185 584
20.23861 573
20.25872 593
20.27884 591
20.29895 593
20.31907 575
20.33918 575
20.35929 594
20.37941 577
20.39952 609
20.41963 608
20.43975 596
20.45986 605
20.47998 608
20.50009 649
20.5202 675
20.54032 575
20.56043 643
20.58054 640
20.60066 661
20.62077 739
20.64088 756
20.661 987
20.68111 1147
20.70123 1356
20.72134 1778
20.74145 2183
20.76157 2834
20.78168 3452
20.80179 4019
20.82191 4636
20.84202 4398
20.86214 3981
20.88225 3410
20.90236 2595
20.92248 1976
20.94259 1469
20.9627 1003
20.98282 865
21.00293 817
21.02305 725
21.04316 734
21.06327 645
21.08339 650
21.1035 664
21.12361 645
21.14373 617
21.16384 726
21.18395 660
21.20407 675
21.22418 673
21.2443 634
21.26441 684
21.28452 631
21.30464 635
21.32475 643
21.34486 626
21.36498 645
21.38509 620
21.40521 606
21.42532 585
21.44543 669
21.46555 561
21.48566 598
21.50577 568
21.52589 576
21.546 579
21.56612 507
21.58623 575
21.60634 540
21.62646 577
21.64657 510
21.66668 566
21.6868 510
21.70691 544
21.72702 464
21.74714 456
21.76725 533
21.78737 506
21.80748 512
21.82759 492
21.84771 464
21.86782 500
21.88793 502
21.90805 510
21.92816 472
21.94828 486
21.96839 493
21.9885 506
22.00862 506
22.02873 458
22.04884 472
22.06896 479
22.08907 459
22.10919 482
22.1293 445
22.14941 435
22.16953 537
22.18964 476
22.20975 455
22.22987 509
22.24998 508
22.27009 490
22.29021 476
22.31032 452
22.33044 455
22.35055 457
22.37066 481
22.39078 459
22.41089 445
22.431 495
22.45112 450
22.47123 469
22.49135 457
22.51146 483
22.53157 471
22.55169 494
22.5718 497
22.59191 484
22.61203 475
22.63214 445
22.65225 468
22.67237 427
22.69248 472
22.7126 514
22.73271 475
22.75282 468
22.77294 478
22.79305 465
22.81316 469
22.83328 467
22.85339 466
22.87351 484
22.89362 468
22.91373 474
22.93385 485
22.95396 458
22.97407 473
22.99419 490
23.0143 492
23.03442 485
23.05453 444
23.07464 471
23.09476 482
23.11487 512
23.13498 459
23.1551 449
23.17521 481
23.19532 460
23.21544 469
23.23555 434
23.25567 473
23.27578 488
23.29589 470
23.31601 452
23.33612 402
23.35623 465
23.37635 462
23.39646 463
23.41658 464
23.43669 509
23.4568 448
23.47692 497
23.49703 462
23.51714 485
23.53726 432
23.55737 471
23.57749 474
23.5976 484
23.61771 479
23.63783 467
23.65794 498
23.67805 490
23.69817 453
23.71828 482
23.73839 539
23.75851 511
23.77862 537
23.79874 473
23.81885 530
23.83896 507
23.85908 499
23.87919 510
23.8993 517
23.91942 510
23.93953 523
23.95965 493
23.97976 515
23.99987 534
24.01999 531
24.0401 517
24.06021 521
24.08033 493
24.10044 465
24.12056 517
24.14067 479
24.16078 448
24.1809 508
24.20101 480
24.22112 445
24.24124 500
24.26135 503
24.28146 514
24.30158 492
24.32169 513
24.34181 499
24.36192 549
24.38203 464
24.40215 478
24.42226 463
24.44237 487
24.46249 467
24.4826 474
24.50272 488
24.52283 508
24.54294 489
24.56306 486
24.58317 491
24.60328 506
24.6234 507
24.64351 444
24.66362 526
24.68374 495
24.70385 508
24.72397 498
24.74408 475
24.76419 527
24.78431 534
24.80442 510
24.82453 503
24.84465 544
24.86476 525
24.88488 515
24.90499 527
24.9251 503
24.94522 542
24.96533 472
24.98544 506
25.00556 490
25.02567 497
25.04579 526
25.0659 489
25.08601 454
25.10613 470
25.12624 462
25.14635 564
25.16647 494
25.18658 498
25.20669 524
25.22681 537
25.24692 533
25.26704 542
25.28715 561
25.30726 508
25.32738 496
25.34749 549
25.3676 507
25.38772 501
25.40783 541
25.42795 528
25.44806 529
25.46817 577
25.48829 553
25.5084 525
25.52851 540
25.54863 534
25.56874 557
25.58886 574
25.60897 557
25.62908 511
25.6492 545
25.66931 587
25.68942 606
25.70954 540
25.72965 598
25.74976 607
25.76988 607
25.78999 565
25.81011 598
25.83022 634
25.85033 609
25.87045 605
25.89056 584
25.91067 624
25.93079 605
25.9509 584
25.97102 644
25.99113 652
26.01124 619
26.03136 639
26.05147 667
26.07158 626
26.0917 658
26.11181 750
26.13193 759
26.15204 775
26.17215 816
26.19227 837
26.21238 802
26.23249 897
26.25261 938
26.27272 1019
26.29283 1059
26.31295 1132
26.33306 1261
26.35318 1379
26.37329 1640
26.3934 1981
26.41352 2441
26.43363 3033
26.45374 4077
26.47386 5388
26.49397 7206
26.51409 9600
26.5342 12252
26.55431 15119
26.57443 17545
26.59454 19043
26.61465 18991
26.63477 17395
26.65488 14669
26.67499 11395
26.69511 8430
26.71522 5903
26.73534 4031
26.75545 2685
26.77556 1880
26.79568 1452
26.81579 1403
26.8359 1230
26.85602 1056
26.87613 1024
26.89625 1011
26.91636 933
26.93647 891
26.95659 788
26.9767 820
26.99681 726
27.01693 721
27.03704 705
27.05716 673
27.07727 704
27.09738 657
27.1175 661
27.13761 625
27.15772 638
27.17784 614
27.19795 609
27.21806 599
27.23818 608
27.25829 605
27.27841 635
27.29852 650
27.31863 634
27.33875 677
27.35886 718
27.37897 711
27.39909 730
27.4192 727
27.43932 721
27.45943 662
27.47954 597
27.49966 644
27.51977 589
27.53988 610
27.56 553
27.58011 482
27.60023 524
27.62034 484
27.64045 518
27.66057 551
27.68068 565
27.70079 517
27.72091 529
27.74102 517
27.76113 514
27.78125 515
27.80136 499
27.82148 512
27.84159 540
27.8617 514
27.88182 480
27.90193 531
27.92204 467
27.94216 523
27.96227 481
27.98239 435
28.0025 438
28.02261 471
28.04273 472
28.06284 447
28.08295 513
28.10307 466
28.12318 446
28.1433 482
28.16341 507
28.18352 475
28.20364 470
28.22375 462
28.24386 439
28.26398 415
28.28409 485
28.3042 438
28.32432 447
28.34443 445
28.36455 481
28.38466 431
28.40477 472
28.42489 459
28.445 433
28.46511 459
28.48523 433
28.50534 438
28.52546 461
28.54557 443
28.56568 448
28.5858 436
28.60591 453
28.62602 433
28.64614 473
28.66625 440
28.68636 417
28.70648 457
28.72659 447
28.74671 434
28.76682 439
28.78693 444
28.80705 430
28.82716 426
28.84727 487
28.86739 439
28.8875 425
28.90762 435
28.92773 453
28.94784 455
28.96796 446
28.98807 450
29.00818 472
29.0283 463
29.04841 456
29.06853 430
29.08864 442
29.10875 431
29.12887 475
29.14898 432
29.16909 455
29.18921 484
29.20932 459
29.22943 423
29.24955 437
29.26966 431
29.28978 411
29.30989 468
29.33 472
29.35012 427
29.37023 467
29.39034 465
29.41046 464
29.43057 473
29.45069 450
29.4708 448
29.49091 412
29.51103 428
29.53114 391
29.55125 451
29.57137 442
29.59148 417
29.6116 483
29.63171 454
29.65182 460
29.67194 463
29.69205 432
29.71216 449
29.73228 464
29.75239 484
29.7725 466
29.79262 442
29.81273 444
29.83285 448
29.85296 421
29.87307 459
29.89319 450
29.9133 481
29.93341 439
29.95353 436
29.97364 445
29.99376 472
30.01387 441
30.03398 441
30.0541 448
30.07421 455
30.09432 445
30.11444 499
30.13455 461
30.15467 452
30.17478 411
30.19489 459
30.21501 464
30.23512 464
30.25523 452
30.27535 466
30.29546 407
30.31557 443
30.33569 420
30.3558 450
30.37592 461
30.39603 424
30.41614 417
30.43626 409
30.45637 432
30.47648 423
30.4966 456
30.51671 450
30.53683 414
30.55694 422
30.57705 402
30.59717 407
30.61728 445
30.63739 481
30.65751 405
30.67762 432
30.69773 412
30.71785 448
30.73796 467
30.75808 448
30.77819 433
30.7983 411
30.81842 474
30.83853 426
30.85864 444
30.87876 459
30.89887 397
30.91899 463
30.9391 460
30.95921 457
30.97933 407
30.99944 396
31.01955 461
31.03967 410
31.05978 393
31.0799 415
31.10001 421
31.12012 430
31.14024 421
31.16035 437
31.18046 411
31.20058 412
31.22069 394
31.2408 442
31.26092 403
31.28103 441
31.30115 442
31.32126 414
31.34137 434
31.36149 419
31.3816 438
31.40171 363
31.42183 423
31.44194 357
31.46206 435
31.48217 360
31.50228 380
31.5224 396
31.54251 442
31.56262 384
31.58274 408
31.60285 431
31.62297 400
31.64308 388
31.66319 413
31.68331 415
31.70342 379
31.72353 390
31.74365 392
31.76376 356
31.78387 384
31.80399 442
31.8241 404
31.84422 386
31.86433 431
31.88444 407
31.90456 394
31.92467 406
31.94478 436
31.9649 398
31.98501 424
32.00513 448
32.02524 416
32.04535 423
32.06547 425
32.08558 432
32.10569 434
32.12581 400
32.14592 421
32.16604 412
32.18615 445
32.20626 446
32.22638 368
32.24649 451
32.2666 388
32.28672 393
32.30683 421
32.32694 428
32.34706 369
32.36717 430
32.38729 410
32.4074 443
32.42751 461
32.44763 409
32.46774 421
32.48785 432
32.50797 439
32.52808 416
32.5482 413
32.56831 412
32.58842 428
32.60854 425
32.62865 366
32.64876 410
32.66888 417
32.68899 435
32.7091 437
32.72922 387
32.74933 400
32.76945 451
32.78956 429
32.80967 439
32.82979 435
32.8499 411
32.87001 445
32.89013 485
32.91024 429
32.93036 445
32.95047 427
32.97058 436
32.9907 469
33.01081 461
33.03092 486
33.05104 485
33.07115 450
33.09127 488
33.11138 493
33.13149 483
33.15161 468
33.17172 492
33.19183 465
33.21195 504
33.23206 500
33.25217 447
33.27229 447
33.2924 470
33.31252 454
33.33263 499
33.35274 468
33.37286 490
33.39297 487
33.41308 481
33.4332 507
33.45331 467
33.47343 467
33.49354 443
33.51365 455
33.53377 446
33.55388 436
33.57399 465
33.59411 450
33.61422 441
33.63434 435
33.65445 460
33.67456 445
33.69468 444
33.71479 445
33.7349 404
33.75502 411
33.77513 450
33.79524 448
33.81536 426
33.83547 451
33.85559 406
33.8757 380
33.89581 376
33.91593 399
33.93604 427
33.95615 407
33.97627 409
33.99638 445
34.0165 397
34.03661 409
34.05672 387
34.07684 444
34.09695 413
34.11706 456
34.13718 420
34.15729 424
34.17741 432
34.19752 428
34.21763 443
34.23775 455
34.25786 468
34.27797 443
34.29809 480
34.3182 478
34.33831 493
34.35843 476
34.37854 527
34.39866 534
34.41877 561
34.43888 555
34.459 578
34.47911 541
34.49922 535
34.51934 593
34.53945 571
34.55957 577
34.57968 614
34.59979 609
34.61991 616
34.64002 605
34.66013 617
34.68025 641
34.70036 663
34.72047 643
34.74059 664
34.7607 657
34.78082 667
34.80093 647
34.82104 684
34.84116 711
34.86127 664
34.88138 678
34.9015 671
34.92161 639
34.94173 633
34.96184 616
34.98195 573
35.00207 584
35.02218 602
35.04229 563
35.06241 564
35.08252 587
35.10264 495
35.12275 573
35.14286 503
35.16298 511
35.18309 512
35.2032 509
35.22332 540
35.24343 517
35.26354 504
35.28366 496
35.30377 532
35.32389 513
35.344 474
35.36411 508
35.38423 480
35.40434 507
35.42445 539
35.44457 503
35.46468 498
35.4848 508
35.50491 565
35.52502 507
35.54514 532
35.56525 511
35.58536 535
35.60548 542
35.62559 552
35.64571 564
35.66582 574
35.68593 559
35.70605 522
35.72616 554
35.74627 530
35.76639 563
35.7865 517
35.80661 574
35.82673 517
35.84684 599
35.86696 514
35.88707 559
35.90718 585
35.9273 544
35.94741 562
35.96752 537
35.98764 555
36.00775 582
36.02787 533
36.04798 556
36.06809 564
36.08821 552
36.10832 544
36.12843 542
36.14855 543
36.16866 510
36.18878 527
36.20889 555
36.229 515
36.24912 542
36.26923 621
36.28934 614
36.30946 710
36.32957 766
36.34968 766
36.3698 903
36.38991 1029
36.41003 1113
36.43014 1312
36.45025 1481
36.47037 1584
36.49048 1670
36.51059 1711
36.53071 1533
36.55082 1458
36.57094 1270
36.59105 1078
36.61116 1013
36.63128 893
36.65139 718
36.6715 699
36.69162 610
36.71173 584
36.73184 597
36.75196 550
36.77207 507
36.79219 524
36.8123 564
36.83241 575
36.85253 553
36.87264 553
36.89275 550
36.91287 572
36.93298 512
36.9531 531
36.97321 487
36.99332 493
37.01344 525
37.03355 519
37.05366 541
37.07378 519
37.09389 490
37.11401 510
37.13412 472
37.15423 509
37.17435 458
37.19446 499
37.21457 490
37.23469 500
37.2548 462
37.27491 459
37.29503 459
37.31514 469
37.33526 498
37.35537 476
37.37548 472
37.3956 507
37.41571 483
37.43582 473
37.45594 502
37.47605 463
37.49617 499
37.51628 500
37.53639 482
37.55651 498
37.57662 446
37.59673 476
37.61685 511
37.63696 489
37.65708 470
37.67719 490
37.6973 473
37.71742 454
37.73753 469
37.75764 497
37.77776 456
37.79787 478
37.81798 435
37.8381 458
37.85821 457
37.87833 463
37.89844 458
37.91855 415
37.93867 395
37.95878 455
37.97889 437
37.99901 424
38.01912 428
38.03924 394
38.05935 430
38.07946 478
38.09958 433
38.11969 430
38.1398 465
38.15992 435
38.18003 452
38.20015 437
38.22026 445
38.24037 446
38.26049 476
38.2806 388
38.30071 423
38.32083 459
38.34094 452
38.36105 465
38.38117 434
38.40128 432
38.4214 441
38.44151 462
38.46162 474
38.48174 438
38.50185 462
38.52196 472
38.54208 424
38.56219 440
38.58231 441
38.60242 404
38.62253 422
38.64265 440
38.66276 402
38.68287 432
38.70299 425
38.7231 378
38.74321 409
38.76333 413
38.78344 405
38.80356 414
38.82367 399
38.84378 422
38.8639 415
38.88401 405
38.90412 443
38.92424 423
38.94435 420
38.96447 395
38.98458 435
39.00469 419
39.02481 480
39.04492 394
39.06503 421
39.08515 455
39.10526 450
39.12538 478
39.14549 483
39.1656 436
39.18572 516
39.20583 542
39.22594 585
39.24606 593
39.26617 710
39.28628 781
39.3064 908
39.32651 997
39.34663 1163
39.36674 1300
39.38685 1412
39.40697 1526
39.42708 1448
39.44719 1356
39.46731 1270
39.48742 1111
39.50754 1023
39.52765 948
39.54776 836
39.56788 672
39.58799 637
39.6081 527
39.62822 482
39.64833 454
39.66845 447
39.68856 453
39.70867 466
39.72879 456
39.7489 443
39.76901 463
39.78913 446
39.80924 430
39.82935 463
39.84947 449
39.86958 444
39.8897 465
39.90981 458
39.92992 441
39.95004 482
39.97015 431
39.99026 463
40.01038 466
40.03049 474
40.05061 493
40.07072 549
40.09083 531
40.11095 629
40.13106 668
40.15117 735
40.17129 803
40.1914 806
40.21152 912
40.23163 932
40.25174 867
40.27186 916
40.29197 825
40.31208 713
40.3322 710
40.35231 724
40.37242 643
40.39254 563
40.41265 520
40.43277 483
40.45288 468
40.47299 435
40.49311 448
40.51322 450
40.53333 403
40.55345 440
40.57356 469
40.59368 457
40.61379 425
40.6339 456
40.65402 468
40.67413 449
40.69424 454
40.71436 458
40.73447 453
40.75458 458
40.7747 428
40.79481 453
40.81493 455
40.83504 431
40.85515 437
40.87527 440
40.89538 422
40.91549 441
40.93561 460
40.95572 498
40.97584 471
40.99595 430
41.01606 495
41.03618 451
41.05629 441
41.0764 431
41.09652 434
41.11663 427
41.13675 432
41.15686 439
41.17697 424
41.19709 484
41.2172 470
41.23731 472
41.25743 430
41.27754 439
41.29765 438
41.31777 429
41.33788 420
41.358 457
41.37811 414
41.39822 394
41.41834 409
41.43845 410
41.45856 407
41.47868 404
41.49879 397
41.51891 454
41.53902 408
41.55913 451
41.57925 429
41.59936 444
41.61947 422
41.63959 441
41.6597 452
41.67982 409
41.69993 434
41.72004 400
41.74016 426
41.76027 453
41.78038 446
41.8005 423
41.82061 429
41.84072 437
41.86084 433
41.88095 423
41.90107 422
41.92118 428
41.94129 424
41.96141 439
41.98152 419
42.00163 465
42.02175 410
42.04186 434
42.06198 420
42.08209 446
42.1022 468
42.12232 453
42.14243 486
42.16254 490
42.18266 469
42.20277 556
42.22289 529
42.243 622
42.26311 653
42.28323 725
42.30334 791
42.32345 961
42.34357 1039
42.36368 1068
42.38379 1140
42.40391 1064
42.42402 1113
42.44414 1047
42.46425 919
42.48436 807
42.50448 812
42.52459 708
42.5447 642
42.56482 611
42.58493 503
42.60505 484
42.62516 460
42.64527 396
42.66539 420
42.6855 395
42.70561 409
42.72573 401
42.74584 399
42.76595 405
42.78607 367
42.80618 336
42.8263 374
42.84641 441
42.86652 348
42.88664 382
42.90675 389
42.92686 360
42.94698 374
42.96709 366
42.98721 376
43.00732 385
43.02743 405
43.04755 369
43.06766 396
43.08777 378
43.10789 384
43.128 387
43.14812 337
43.16823 384
43.18834 337
43.20846 368
43.22857 369
43.24868 352
43.2688 357
43.28891 380
43.30902 375
43.32914 376
43.34925 361
43.36937 376
43.38948 363
43.40959 373
43.42971 386
43.44982 373
43.46993 374
43.49005 392
43.51016 354
43.53028 342
43.55039 337
43.5705 387
43.59062 378
43.61073 380
43.63084 408
43.65096 323
43.67107 378
43.69119 377
43.7113 348
43.73141 361
43.75153 379
43.77164 360
43.79175 333
43.81187 400
43.83198 377
43.85209 380
43.87221 370
43.89232 381
43.91244 351
43.93255 364
43.95266 364
43.97278 399
43.99289 357
44.013 352
44.03312 349
44.05323 356
44.07335 390
44.09346 380
44.11357 367
44.13369 348
44.1538 352
44.17391 391
44.19403 362
44.21414 348
44.23426 364
44.25437 343
44.27448 356
44.2946 343
44.31471 339
44.33482 344
44.35494 354
44.37505 352
44.39516 363
44.41528 378
44.43539 362
44.45551 330
44.47562 350
44.49573 357
44.51585 362
44.53596 369
44.55607 332
44.57619 322
44.5963 372
44.61642 365
44.63653 341
44.65664 362
44.67676 344
44.69687 354
44.71698 360
44.7371 389
44.75721 346
44.77732 337
44.79744 350
44.81755 396
44.83767 357
44.85778 412
44.87789 369
44.89801 385
44.91812 393
44.93823 424
44.95835 431
44.97846 361
44.99858 414
45.01869 375
45.0388 391
45.05892 397
45.07903 356
45.09914 386
45.11926 413
45.13937 395
45.15949 415
45.1796 372
45.19971 355
45.21983 403
45.23994 410
45.26005 413
45.28017 375
45.30028 412
45.32039 408
45.34051 434
45.36062 387
45.38074 427
45.40085 378
45.42096 399
45.44108 424
45.46119 446
45.4813 423
45.50142 420
45.52153 472
45.54165 450
45.56176 507
45.58187 537
45.60199 531
45.6221 592
45.64221 690
45.66233 717
45.68244 780
45.70256 850
45.72267 849
45.74278 873
45.7629 874
45.78301 826
45.80312 761
45.82324 672
45.84335 683
45.86346 587
45.88358 579
45.90369 508
45.92381 486
45.94392 497
45.96403 399
45.98415 400
46.00426 402
46.02437 379
46.04449 422
46.0646 373
46.08472 352
46.10483 388
46.12494 419
46.14506 354
46.16517 381
46.18528 378
46.2054 402
46.22551 353
46.24563 360
46.26574 380
46.28585 360
46.30597 365
46.32608 372
46.34619 345
46.36631 347
46.38642 387
46.40653 374
46.42665 352
46.44676 367
46.46688 377
46.48699 313
46.5071 368
46.52722 406
46.54733 349
46.56744 382
46.58756 330
46.60767 340
46.62779 346
46.6479 356
46.66801 381
46.68813 328
46.70824 347
46.72835 376
46.74847 351
46.76858 409
46.78869 391
46.80881 387
46.82892 360
46.84904 353
46.86915 357
46.88926 382
46.90938 332
46.92949 354
46.9496 387
46.96972 389
46.98983 378
47.00995 363
47.03006 373
47.05017 360
47.07029 357
47.0904 343
47.11051 349
47.13063 345
47.15074 327
47.17086 360
47.19097 355
47.21108 369
47.2312 340
47.25131 322
47.27142 371
47.29154 351
47.31165 358
47.33176 366
47.35188 352
47.37199 341
47.39211 377
47.41222 346
47.43233 377
47.45245 348
47.47256 368
47.49267 357
47.51279 361
47.5329 381
47.55302 321
47.57313 336
47.59324 327
47.61336 366
47.63347 360
47.65358 355
47.6737 358
47.69381 370
47.71393 366
47.73404 347
47.75415 347
47.77427 336
47.79438 323
47.81449 331
47.83461 355
47.85472 352
47.87483 362
47.89495 387
47.91506 377
47.93518 379
47.95529 371
47.9754 366
47.99552 372
48.01563 374
48.03574 346
48.05586 390
48.07597 349
48.09609 366
48.1162 360
48.13631 343
48.15643 381
48.17654 350
48.19665 373
48.21677 352
48.23688 360
48.257 353
48.27711 351
48.29722 350
48.31734 333
48.33745 351
48.35756 378
48.37768 351
48.39779 361
48.4179 393
48.43802 359
48.45813 332
48.47825 364
48.49836 403
48.51847 345
48.53859 392
48.5587 396
48.57881 377
48.59893 413
48.61904 394
48.63916 361
48.65927 365
48.67938 339
48.6995 340
48.71961 364
48.73972 371
48.75984 367
48.77995 360
48.80006 367
48.82018 361
48.84029 366
48.86041 341
48.88052 366
48.90063 403
48.92075 404
48.94086 368
48.96097 374
48.98109 360
49.0012 376
49.02132 344
49.04143 373
49.06154 361
49.08166 353
49.10177 376
49.12188 356
49.142 398
49.16211 378
49.18223 361
49.20234 362
49.22245 387
49.24257 380
49.26268 381
49.28279 371
49.30291 402
49.32302 399
49.34313 386
49.36325 403
49.38336 395
49.40348 386
49.42359 395
49.4437 396
49.46382 383
49.48393 398
49.50404 356
49.52416 412
49.54427 389
49.56439 401
49.5845 380
49.60461 414
49.62473 397
49.64484 383
49.66495 412
49.68507 459
49.70518 409
49.7253 446
49.74541 445
49.76552 510
49.78564 508
49.80575 476
49.82586 552
49.84598 588
49.86609 611
49.8862 742
49.90632 735
49.92643 847
49.94655 1079
49.96666 1223
49.98677 1415
50.00689 1604
50.027 1805
50.04711 2075
50.06723 2199
50.08734 2161
50.10746 1959
50.12757 1914
50.14768 1681
50.1678 1439
50.18791 1370
50.20802 1302
50.22814 1188
50.24825 1069
50.26837 878
50.28848 668
50.30859 571
50.32871 531
50.34882 510
50.36893 450
50.38905 467
50.40916 458
50.42927 435
50.44939 422
50.4695 451
50.48962 432
50.50973 428
50.52984 432
50.54996 426
50.57007 436
50.59018 406
50.6103 382
50.63041 408
50.65053 426
50.67064 379
50.69075 406
50.71087 398
50.73098 428
50.75109 364
50.77121 389
50.79132 403
50.81143 369
50.83155 333
50.85166 378
50.87178 391
50.89189 409
50.912 388
50.93212 388
50.95223 326
50.97234 376
50.99246 358
51.01257 364
51.03269 363
51.0528 381
51.07291 320
51.09303 338
51.11314 355
51.13325 362
51.15337 347
51.17348 345
51.1936 336
51.21371 340
51.23382 350
51.25394 376
51.27405 349
51.29416 335
51.31428 347
51.33439 340
51.3545 356
51.37462 342
51.39473 352
51.41485 343
51.43496 378
51.45507 348
51.47519 336
51.4953 325
51.51541 353
51.53553 346
51.55564 324
51.57576 316
51.59587 350
51.61598 382
51.6361 332
51.65621 351
51.67632 330
51.69644 356
51.71655 367
51.73667 322
51.75678 352
51.77689 324
51.79701 356
51.81712 337
51.83723 349
51.85735 329
51.87746 346
51.89757 327
51.91769 333
51.9378 339
51.95792 338
51.97803 355
51.99814 356
52.01826 341
52.03837 355
52.05848 366
52.0786 328
52.09871 336
52.11883 368
52.13894 334
52.15905 343
52.17917 329
52.19928 382
52.21939 364
52.23951 385
52.25962 353
52.27974 373
52.29985 359
52.31996 339
52.34008 331
52.36019 370
52.3803 387
52.40042 346
52.42053 351
52.44064 352
52.46076 342
52.48087 341
52.50099 378
52.5211 376
52.54121 329
52.56133 343
52.58144 345
52.60155 337
52.62167 375
52.64178 371
52.6619 357
52.68201 359
52.70212 328
52.72224 357
52.74235 346
52.76246 369
52.78258 352
52.80269 334
52.8228 371
52.84292 354
52.86303 351
52.88315 341
52.90326 356
52.92337 379
52.94349 367
52.9636 367
52.98371 352
53.00383 341
53.02394 330
53.04406 370
53.06417 356
53.08428 370
53.1044 375
53.12451 395
53.14462 383
53.16474 398
53.18485 387
53.20497 361
53.22508 389
53.24519 382
53.26531 386
53.28542 389
53.30553 370
53.32565 419
53.34576 402
53.36587 396
53.38599 397
53.4061 390
53.42622 408
53.44633 402
53.46644 443
53.48656 402
53.50667 380
53.52678 410
53.5469 424
53.56701 432
53.58713 399
53.60724 403
53.62735 439
53.64747 445
53.66758 457
53.68769 443
53.70781 419
53.72792 429
53.74804 449
53.76815 436
53.78826 421
53.80838 423
53.82849 443
53.8486 407
53.86872 448
53.88883 454
53.90894 460
53.92906 448
53.94917 470
53.96929 457
53.9894 446
54.00951 470
54.02963 435
54.04974 426
54.06985 450
54.08997 486
54.11008 465
54.1302 421
54.15031 474
54.17042 494
54.19054 454
54.21065 473
54.23076 476
54.25088 463
54.27099 466
54.29111 460
54.31122 529
54.33133 480
54.35145 470
54.37156 472
54.39167 462
54.41179 464
54.4319 448
54.45201 457
54.47213 417
54.49224 454
54.51236 454
54.53247 441
54.55258 460
54.5727 499
54.59281 498
54.61292 470
54.63304 536
54.65315 593
54.67327 577
54.69338 603
54.71349 701
54.73361 719
54.75372 817
54.77383 860
54.79395 894
54.81406 887
54.83417 838
54.85429 812
54.8744 832
54.89452 685
54.91463 679
54.93474 659
54.95486 676
54.97497 698
54.99508 574
55.0152 604
55.03531 534
55.05543 521
55.07554 498
55.09565 458
55.11577 515
55.13588 494
55.15599 556
55.17611 529
55.19622 587
55.21634 588
55.23645 667
55.25656 653
55.27668 650
55.29679 563
55.3169 603
55.33702 602
55.35713 547
55.37724 542
55.39736 527
55.41747 521
55.43759 504
55.4577 460
55.47781 457
55.49793 452
55.51804 435
55.53815 410
55.55827 422
55.57838 372
55.5985 424
55.61861 387
55.63872 392
55.65884 376
55.67895 423
55.69906 383
55.71918 399
55.73929 408
55.75941 392
55.77952 388
55.79963 394
55.81975 428
55.83986 402
55.85997 381
55.88009 399
55.9002 368
55.92031 425
55.94043 372
55.96054 372
55.98066 381
56.00077 393
56.02088 407
56.041 367
56.06111 340
56.08122 386
56.10134 408
56.12145 392
56.14157 375
56.16168 364
56.18179 375
56.20191 369
56.22202 370
56.24213 347
56.26225 362
56.28236 351
56.30248 373
56.32259 386
56.3427 362
56.36282 386
56.38293 394
56.40304 386
56.42316 360
56.44327 386
56.46338 383
56.4835 408
56.50361 429
56.52373 389
56.54384 370
56.56395 400
56.58407 385
56.60418 386
56.62429 353
56.64441 381
56.66452 376
56.68464 389
56.70475 377
56.72486 360
56.74498 368
56.76509 383
56.7852 356
56.80532 387
56.82543 356
56.84554 366
56.86566 397
56.88577 372
56.90589 329
56.926 337
56.94611 372
56.96623 369
56.98634 381
57.00645 369
57.02657 372
57.04668 376
57.0668 371
57.08691 417
57.10702 403
57.12714 386
57.14725 401
57.16736 411
57.18748 383
57.20759 409
57.22771 371
57.24782 410
57.26793 349
57.28805 398
57.30816 355
57.32827 393
57.34839 383
57.3685 372
57.38861 349
57.40873 359
57.42884 403
57.44896 341
57.46907 355
57.48918 358
57.5093 363
57.52941 369
57.54952 364
57.56964 356
57.58975 394
57.60987 355
57.62998 374
57.65009 348
57.67021 388
57.69032 393
57.71043 348
57.73055 351
57.75066 399
57.77078 372
57.79089 347
57.811 396
57.83112 346
57.85123 352
57.87134 360
57.89146 350
57.91157 380
57.93168 353
57.9518 364
57.97191 373
57.99203 329
58.01214 378
58.03225 336
58.05237 406
58.07248 346
58.09259 342
58.11271 341
58.13282 348
58.15294 357
58.17305 358
58.19316 348
58.21328 361
58.23339 353
58.2535 331
58.27362 361
58.29373 342
58.31385 334
58.33396 359
58.35407 355
58.37419 353
58.3943 333
58.41441 390
58.43453 393
58.45464 358
58.47475 376
58.49487 328
58.51498 364
58.5351 382
58.55521 378
58.57532 351
58.59544 350
58.61555 352
58.63566 377
58.65578 334
58.67589 352
58.69601 369
58.71612 396
58.73623 359
58.75635 363
58.77646 328
58.79657 344
58.81669 373
58.8368 353
58.85691 336
58.87703 348
58.89714 352
58.91726 343
58.93737 355
58.95748 352
58.9776 374
58.99771 362
59.01782 345
59.03794 384
59.05805 335
59.07817 358
59.09828 367
59.11839 335
59.13851 371
59.15862 389
59.17873 369
59.19885 387
59.21896 392
59.23908 364
59.25919 356
59.2793 395
59.29942 378
59.31953 349
59.33964 384
59.35976 384
59.37987 396
59.39998 407
59.4201 406
59.44021 348
59.46033 374
59.48044 393
59.50055 419
59.52067 394
59.54078 426
59.56089 400
59.58101 460
59.60112 456
59.62124 496
59.64135 464
59.66146 563
59.68158 581
59.70169 611
59.7218 676
59.74192 821
59.76203 862
59.78215 939
59.80226 1079
59.82237 1243
59.84249 1321
59.8626 1433
59.88271 1427
59.90283 1446
59.92294 1377
59.94305 1248
59.96317 1118
59.98328 1008
60.0034 949
60.02351 985
60.04362 950
60.06374 939
60.08385 824
60.10396 737
60.12408 586
60.14419 574
60.16431 517
60.18442 466
60.20453 429
60.22465 424
60.24476 436
60.26487 417
60.28499 389
60.3051 371
60.32522 377
60.34533 368
60.36544 365
60.38556 351
60.40567 397
60.42578 365
60.4459 335
60.46601 339
60.48612 340
60.50624 366
60.52635 352
60.54647 364
60.56658 348
60.58669 348
60.60681 339
60.62692 365
60.64703 335
60.66715 349
60.68726 388
60.70738 352
60.72749 367
60.7476 387
60.76772 344
60.78783 348
60.80794 339
60.82806 331
60.84817 332
60.86828 350
60.8884 315
60.90851 329
60.92863 349
60.94874 355
60.96885 380
60.98897 378
61.00908 350
61.02919 333
61.04931 359
61.06942 340
61.08954 371
61.10965 389
61.12976 380
61.14988 369
61.16999 389
61.1901 368
61.21022 345
61.23033 395
61.25045 402
61.27056 382
61.29067 408
61.31079 432
61.3309 408
61.35101 420
61.37113 441
61.39124 442
61.41135 424
61.43147 455
61.45158 439
61.4717 452
61.49181 408
61.51192 464
61.53204 448
61.55215 458
61.57226 461
61.59238 460
61.61249 421
61.63261 447
61.65272 428
61.67283 438
61.69295 423
61.71306 397
61.73317 447
61.75329 436
61.7734 439
61.79352 403
61.81363 371
61.83374 396
61.85386 408
61.87397 415
61.89408 376
61.9142 384
61.93431 382
61.95442 386
61.97454 414
61.99465 386
62.01477 418
62.03488 399
62.05499 419
62.07511 409
62.09522 412
62.11533 389
62.13545 396
62.15556 377
62.17568 436
62.19579 404
62.2159 416
62.23602 417
62.25613 421
62.27624 394
62.29636 405
62.31647 396
62.33659 408
62.3567 377
62.37681 366
62.39693 409
62.41704 421
62.43715 400
62.45727 383
62.47738 410
62.49749 369
62.51761 401
62.53772 386
62.55784 392
62.57795 382
62.59806 363
62.61818 356
62.63829 377
62.6584 373
62.67852 350
62.69863 372
62.71875 360
62.73886 381
62.75897 389
62.77909 372
62.7992 357
62.81931 391
62.83943 375
62.85954 389
62.87965 389
62.89977 372
62.91988 332
62.94 359
62.96011 368
62.98022 349
63.00034 361
63.02045 352
63.04056 376
63.06068 363
63.08079 344
63.10091 366
63.12102 392
63.14113 365
63.16125 347
63.18136 352
63.20147 352
63.22159 346
63.2417 361
63.26182 362
63.28193 329
63.30204 363
63.32216 352
63.34227 353
63.36238 387
63.3825 346
63.40261 339
63.42272 350
63.44284 376
63.46295 384
63.48307 327
63.50318 348
63.52329 369
63.54341 344
63.56352 373
63.58363 386
63.60375 329
63.62386 383
63.64398 385
63.66409 424
63.6842 378
63.70432 386
63.72443 390
63.74454 403
63.76466 449
63.78477 385
63.80489 421
63.825 426
63.84511 422
63.86523 506
63.88534 520
63.90545 514
63.92557 531
63.94568 568
63.96579 561
63.98591 569
64.00602 541
64.02614 528
64.04625 523
64.06636 485
64.08648 463
64.10659 479
64.1267 463
64.14682 477
64.16693 482
64.18705 440
64.20716 393
64.22727 427
64.24739 367
64.2675 395
64.28761 378
64.30773 343
64.32784 378
64.34796 350
64.36807 365
64.38818 349
64.4083 326
64.42841 386
64.44852 347
64.46864 357
64.48875 369
64.50886 315
64.52898 321
64.54909 351
64.56921 353
64.58932 329
64.60943 371
64.62955 386
64.64966 368
64.66977 315
64.68989 350
64.71 331
64.73012 336
64.75023 315
64.77034 331
64.79046 341
64.81057 334
64.83068 326
64.8508 327
64.87091 339
64.89102 369
64.91114 311
64.93125 346
64.95137 334
64.97148 321
64.99159 335
65.01171 296
65.03182 329
65.05193 316
65.07205 345
65.09216 352
65.11228 312
65.13239 357
65.1525 336
65.17262 353
65.19273 309
65.21284 345
65.23296 319
65.25307 336
65.27319 357
65.2933 330
65.31341 331
65.33353 342
65.35364 319
65.37375 314
65.39387 367
65.41398 326
65.43409 356
65.45421 348
65.47432 343
65.49444 343
65.51455 359
65.53466 351
65.55478 344
65.57489 322
65.595 344
65.61512 380
65.63523 364
65.65535 358
65.67546 366
65.69557 375
65.71569 411
65.7358 359
65.75591 365
65.77603 372
65.79614 383
65.81626 333
65.83637 344
65.85648 379
65.8766 353
65.89671 351
65.91682 369
65.93694 377
65.95705 339
65.97716 362
65.99728 370
66.01739 360
66.03751 333
66.05762 315
66.07773 336
66.09785 311
66.11796 301
66.13807 334
66.15819 308
66.1783 329
66.19842 347
66.21853 290
66.23864 348
66.25876 323
66.27887 324
66.29898 314
66.3191 330
66.33921 291
66.35933 349
66.37944 327
66.39955 333
66.41967 313
66.43978 322
66.45989 328
66.48001 344
66.50012 335
66.52023 344
66.54035 341
66.56046 359
66.58058 339
66.60069 331
66.6208 346
66.64092 330
66.66103 361
66.68114 335
66.70126 337
66.72137 316
66.74149 327
66.7616 363
66.78171 325
66.80183 325
66.82194 330
66.84205 314
66.86217 317
66.88228 302
66.90239 339
66.92251 310
66.94262 311
66.96274 352
66.98285 321
67.00296 308
67.02308 329
67.04319 328
67.0633 317
67.08342 308
67.10353 343
67.12365 360
67.14376 364
67.16387 346
67.18399 356
67.2041 352
67.22421 364
67.24433 352
67.26444 404
67.28456 381
67.30467 383
67.32478 381
67.3449 349
67.36501 384
67.38512 429
67.40524 452
67.42535 434
67.44546 458
67.46558 483
67.48569 514
67.50581 523
67.52592 553
67.54603 669
67.56615 711
67.58626 719
67.60637 818
67.62649 903
67.6466 951
67.66672 991
67.68683 984
67.70694 900
67.72706 866
67.74717 768
67.76728 752
67.7874 764
67.80751 728
67.82763 730
67.84774 795
67.86785 791
67.88797 800
67.90808 818
67.92819 825
67.94831 781
67.96842 881
67.98853 997
68.00865 1063
68.02876 1111
68.04888 1284
68.06899 1252
68.0891 1246
68.10922 1204
68.12933 1178
68.14944 1109
68.16956 1138
68.18967 1114
68.20979 1151
68.2299 1150
68.25001 1169
68.27013 1098
68.29024 1061
68.31035 903
68.33047 827
68.35058 715
68.3707 649
68.39081 638
68.41092 635
68.43104 592
68.45115 570
68.47126 509
68.49138 523
68.51149 478
68.5316 384
68.55172 404
68.57183 352
68.59195 368
68.61206 396
68.63217 350
68.65229 357
68.6724 366
68.69251 350
68.71263 371
68.73274 366
68.75286 355
68.77297 342
68.79308 376
68.8132 346
68.83331 387
68.85342 354
68.87354 364
68.89365 372
68.91376 346
68.93388 329
68.95399 370
68.97411 366
68.99422 343
69.01433 349
69.03445 371
69.05456 327
69.07467 327
69.09479 336
69.1149 361
69.13502 315
69.15513 326
69.17524 328
69.19536 342
69.21547 324
69.23558 316
69.2557 301
69.27581 333
69.29593 336
69.31604 327
69.33615 325
69.35627 356
69.37638 372
69.39649 354
69.41661 342
69.43672 345
69.45683 348
69.47695 315
69.49706 333
69.51718 322
69.53729 315
69.5574 329
69.57752 350
69.59763 317
69.61774 330
69.63786 341
69.65797 326
69.67809 364
69.6982 338
69.71831 359
69.73843 321
69.75854 334
69.77865 339
69.79877 363
69.81888 322
69.839 359
69.85911 341
69.87922 324
69.89934 370
69.91945 347
69.93956 318
69.95968 344
69.97979 345
69.9999 340
70.02002 306
70.04013 316
70.06025 316
70.08036 342
70.10047 356
70.12059 315
70.1407 321
70.16081 349
70.18093 332
70.20104 332
70.22116 346
70.24127 317
70.26138 350
70.2815 332
70.30161 337
70.32172 321
70.34184 316
70.36195 319
70.38207 310
70.40218 338
70.42229 322
70.44241 309
70.46252 303
70.48263 313
70.50275 332
70.52286 305
70.54297 292
70.56309 304
70.5832 294
70.60332 298
70.62343 292
70.64354 342
70.66366 343
70.68377 348
70.70388 320
70.724 344
70.74411 359
70.76423 323
70.78434 306
70.80445 310
70.82457 334
70.84468 314
70.86479 314
70.88491 319
70.90502 333
70.92513 286
70.94525 334
70.96536 304
70.98548 298
71.00559 326
71.0257 338
71.04582 328
71.06593 314
71.08604 343
71.10616 325
71.12627 330
71.14639 321
71.1665 323
71.18661 320
71.20673 292
71.22684 307
71.24695 300
71.26707 315
71.28718 318
71.3073 296
71.32741 300
71.34752 322
71.36764 308
71.38775 286
71.40786 307
71.42798 342
71.44809 317
71.4682 306
71.48832 332
71.50843 301
71.52855 320
71.54866 311
71.56877 310
71.58889 311
71.609 329
71.62911 312
71.64923 288
71.66934 316
71.68946 325
71.70957 320
71.72968 351
71.7498 291
71.76991 302
71.79002 322
71.81014 337
71.83025 304
71.85037 322
71.87048 302
71.89059 307
71.91071 323
71.93082 333
71.95093 334
71.97105 299
71.99116 335
72.01127 326
72.03139 329
72.0515 325
72.07162 329
72.09173 324
72.11184 317
72.13196 333
72.15207 347
72.17218 361
72.1923 309
72.21241 313
72.23253 352
72.25264 343
72.27275 349
72.29287 341
72.31298 344
72.33309 327
72.35321 364
72.37332 351
72.39344 323
72.41355 329
72.43366 314
72.45378 355
72.47389 327
72.494 349
72.51412 347
72.53423 337
72.55434 325
72.57446 330
72.59457 336
72.61469 324
72.6348 355
72.65491 351
72.67503 344
72.69514 337
72.71525 386
72.73537 345
72.75548 377
72.7756 328
72.79571 332
72.81582 333
72.83594 366
72.85605 336
72.87616 341
72.89628 329
72.91639 345
72.9365 326
72.95662 324
72.97673 314
72.99685 351
73.01696 384
73.03707 382
73.05719 356
73.0773 334
73.09741 400
73.11753 368
73.13764 361
73.15776 365
73.17787 411
73.19798 379
73.2181 368
73.23821 380
73.25832 416
73.27844 420
73.29855 451
73.31867 476
73.33878 538
73.35889 489
73.37901 532
73.39912 545
73.41923 566
73.43935 517
73.45946 472
73.47957 453
73.49969 433
73.5198 424
73.53992 420
73.56003 429
73.58014 455
73.60026 409
73.62037 427
73.64048 390
73.6606 406
73.68071 372
73.70083 333
73.72094 338
73.74105 339
73.76117 346
73.78128 303
73.80139 336
73.82151 364
73.84162 344
73.86174 301
73.88185 293
73.90196 309
73.92208 303
73.94219 337
73.9623 344
73.98242 323
74.00253 310
74.02264 294
74.04276 312
74.06287 334
74.08299 304
74.1031 280
74.12321 302
74.14333 302
74.16344 316
74.18355 330
74.20367 311
74.22378 303
74.2439 300
74.26401 312
74.28412 303
74.30424 317
74.32435 290
74.34446 318
74.36458 311
74.38469 292
74.40481 323
74.42492 307
74.44503 287
74.46515 293
74.48526 326
74.50537 298
74.52549 292
74.5456 287
74.56571 323
74.58583 302
74.60594 303
74.62606 297
74.64617 317
74.66628 296
74.6864 317
74.70651 330
74.72662 315
74.74674 291
74.76685 336
74.78697 300
74.80708 308
74.82719 324
74.84731 306
74.86742 300
74.88753 290
74.90765 326
74.92776 274
74.94787 348
74.96799 290
74.9881 305
75.00822 338
