3.00117 21255
3.02128 20381
3.0414 19941
3.06151 19568
3.08162 18740
3.10174 18415
3.12185 17639
3.14197 17140
3.16208 16966
3.18219 15994
3.20231 16035
3.22242 15465
3.24253 14940
3.26265 14642
3.28276 14205
3.30288 13959
3.32299 13246
3.3431 12843
3.36322 12438
3.38333 12081
3.40344 11781
3.42356 11239
3.44367 10941
3.46379 10703
3.4839 10282
3.50401 10033
3.52413 9744
3.54424 9290
3.56435 9059
3.58447 8577
3.60458 8595
3.62469 8039
3.64481 7764
3.66492 7602
3.68504 7131
3.70515 7094
3.72526 6542
3.74538 6441
3.76549 6345
3.7856 5772
3.80572 5885
3.82583 5466
3.84595 5349
3.86606 5324
3.88617 5009
3.90629 4841
3.9264 4468
3.94651 4458
3.96663 4298
3.98674 4151
4.00686 4155
4.02697 3701
4.04708 3728
4.0672 3571
4.08731 3446
4.10742 3225
4.12754 3043
4.14765 3004
4.16776 3025
4.18788 2756
4.20799 2922
4.22811 2572
4.24822 2640
4.26833 2663
4.28845 2436
4.30856 2344
4.32867 2287
4.34879 2197
4.3689 2236
4.38902 2257
4.40913 2072
4.42924 2025
4.44936 2069
4.46947 2049
4.48958 2070
4.5097 2047
4.52981 1952
4.54992 1896
4.57004 1919
4.59015 1882
4.61027 1851
4.63038 1763
4.65049 1767
4.67061 1737
4.69072 1797
4.71083 1724
4.73095 1719
4.75106 1635
4.77118 1603
4.79129 1620
4.8114 1619
4.83152 1517
4.85163 1512
4.87174 1556
4.89186 1600
4.91197 1597
4.93209 1513
4.9522 1476
4.97231 1557
4.99243 1498
5.01254 1456
5.03265 1379
5.05277 1383
5.07288 1441
5.09299 1471
5.11311 1441
5.13322 1412
5.15334 1469
5.17345 1447
5.19356 1444
5.21368 1316
5.23379 1419
5.2539 1398
5.27402 1412
5.29413 1420
5.31425 1410
5.33436 1381
5.35447 1406
5.37459 1403
5.3947 1437
5.41481 1408
5.43493 1392
5.45504 1435
5.47516 1407
5.49527 1449
5.51538 1404
5.5355 1361
5.55561 1435
5.57572 1405
5.59584 1394
5.61595 1351
5.63606 1325
5.65618 1378
5.67629 1382
5.69641 1381
5.71652 1350
5.73663 1380
5.75675 1378
5.77686 1413
5.79697 1402
5.81709 1399
5.8372 1340
5.85732 1384
5.87743 1384
5.89754 1408
5.91766 1300
5.93777 1321
5.95788 1307
5.978 1295
5.99811 1271
6.01823 1272
6.03834 1261
6.05845 1229
6.07857 1261
6.09868 1196
6.11879 1187
6.13891 1162
6.15902 1197
6.17913 1143
6.19925 1152
6.21936 1098
6.23948 1167
6.25959 1076
6.2797 1151
6.29982 1003
6.31993 1077
6.34004 1089
6.36016 1049
6.38027 1068
6.40039 1027
6.4205 1025
6.44061 943
6.46073 948
6.48084 965
6.50095 975
6.52107 941
6.54118 975
6.56129 878
6.58141 913
6.60152 865
6.62164 872
6.64175 874
6.66186 812
6.68198 816
6.70209 922
6.7222 807
6.74232 804
6.76243 832
6.78255 834
6.80266 821
6.82277 790
6.84289 793
6.863 686
6.88311 745
6.90323 738
6.92334 715
6.94346 789
6.96357 756
6.98368 736
7.0038 719
7.02391 765
7.04402 756
7.06414 752
7.08425 696
7.10436 723
7.12448 732
7.14459 711
7.16471 654
7.18482 713
7.20493 709
7.22505 679
7.24516 688
7.26527 709
7.28539 685
7.3055 598
7.32562 666
7.34573 665
7.36584 637
7.38596 687
7.40607 660
7.42618 633
7.4463 626
7.46641 635
7.48653 625
7.50664 655
7.52675 635
7.54687 627
7.56698 631
7.58709 643
7.60721 610
7.62732 562
7.64743 618
7.66755 572
7.68766 582
7.70778 601
7.72789 541
7.748 596
7.76812 539
7.78823 589
7.80834 572
7.82846 608
7.84857 593
7.86869 575
7.8888 625
7.90891 610
7.92903 610
7.94914 542
7.96925 589
7.98937 584
8.00948 530
8.0296 573
8.04971 570
8.06982 549
8.08994 555
8.11005 595
8.13016 559
8.15028 543
8.17039 576
8.1905 574
8.21062 599
8.23073 529
8.25085 591
8.27096 561
8.29107 553
8.31119 551
8.3313 564
8.35141 537
8.37153 533
8.39164 545
8.41176 551
8.43187 559
8.45198 574
8.4721 560
8.49221 545
8.51232 540
8.53244 545
8.55255 546
8.57266 552
8.59278 533
8.61289 521
8.63301 539
8.65312 552
8.67323 596
8.69335 507
8.71346 581
8.73357 541
8.75369 559
8.7738 522
8.79392 551
8.81403 558
8.83414 532
8.85426 534
8.87437 537
8.89448 528
8.9146 531
8.93471 554
8.95483 543
8.97494 544
8.99505 503
9.01517 471
9.03528 527
9.05539 533
9.07551 487
9.09562 480
9.11573 496
9.13585 477
9.15596 512
9.17608 507
9.19619 470
9.2163 515
9.23642 511
9.25653 546
9.27664 511
9.29676 535
9.31687 505
9.33699 508
9.3571 554
9.37721 501
9.39733 531
9.41744 537
9.43755 483
9.45767 505
9.47778 578
9.4979 487
9.51801 522
9.53812 515
9.55824 550
9.57835 529
9.59846 521
9.61858 554
9.63869 503
9.6588 503
9.67892 520
9.69903 537
9.71915 547
9.73926 536
9.75937 562
9.77949 589
9.7996 547
9.81971 552
9.83983 547
9.85994 574
9.88006 603
9.90017 546
9.92028 582
9.9404 551
9.96051 512
9.98062 510
10.00074 480
10.02085 488
10.04097 489
10.06108 505
10.08119 486
10.10131 522
10.12142 459
10.14153 518
10.16165 466
10.18176 451
10.20187 498
10.22199 549
10.2421 529
10.26222 546
10.28233 498
10.30244 551
10.32256 486
10.34267 501
10.36278 510
10.3829 493
10.40301 503
10.42313 500
10.44324 514
10.46335 500
10.48347 550
10.50358 510
10.52369 502
10.54381 524
10.56392 493
10.58403 495
10.60415 513
10.62426 502
10.64438 474
10.66449 460
10.6846 459
10.70472 515
10.72483 514
10.74494 524
10.76506 511
10.78517 506
10.80529 527
10.8254 503
10.84551 469
10.86563 473
10.88574 533
10.90585 509
10.92597 517
10.94608 552
10.9662 538
10.98631 519
11.00642 549
11.02654 521
11.04665 550
11.06676 513
11.08688 559
11.10699 487
11.1271 525
11.14722 490
11.16733 535
11.18745 500
11.20756 536
11.22767 542
11.24779 539
11.2679 478
11.28801 498
11.30813 530
11.32824 554
11.34836 505
11.36847 520
11.38858 507
11.4087 540
11.42881 508
11.44892 474
11.46904 488
11.48915 524
11.50927 544
11.52938 497
11.54949 532
11.56961 485
11.58972 547
11.60983 505
11.62995 509
11.65006 555
11.67017 541
11.69029 506
11.7104 495
11.73052 509
11.75063 557
11.77074 494
11.79086 532
11.81097 491
11.83108 505
11.8512 540
11.87131 516
11.89143 567
11.91154 523
11.93165 510
11.95177 515
11.97188 532
11.99199 541
12.01211 519
12.03222 464
12.05234 547
12.07245 546
12.09256 518
12.11268 523
12.13279 513
12.1529 513
12.17302 543
12.19313 528
12.21324 468
12.23336 507
12.25347 534
12.27359 556
12.2937 502
12.31381 550
12.33393 528
12.35404 494
12.37415 494
12.39427 480
12.41438 565
12.4345 523
12.45461 464
12.47472 500
12.49484 538
12.51495 493
12.53506 496
12.55518 496
12.57529 456
12.5954 503
12.61552 481
12.63563 488
12.65575 495
12.67586 444
12.69597 483
12.71609 468
12.7362 506
12.75631 400
12.77643 460
12.79654 550
12.81666 451
12.83677 425
12.85688 453
12.877 466
12.89711 488
12.91722 507
12.93734 475
12.95745 458
12.97757 475
12.99768 428
13.01779 469
13.03791 474
13.05802 454
13.07813 445
13.09825 469
13.11836 440
13.13847 444
13.15859 451
13.1787 447
13.19882 501
13.21893 480
13.23904 500
13.25916 507
13.27927 478
13.29938 466
13.3195 470
13.33961 432
13.35973 434
13.37984 451
13.39995 478
13.42007 451
13.44018 452
13.46029 462
13.48041 485
13.50052 469
13.52064 455
13.54075 445
13.56086 486
13.58098 508
13.60109 463
13.6212 488
13.64132 493
13.66143 482
13.68154 505
13.70166 544
13.72177 523
13.74189 512
13.762 484
13.78211 522
13.80223 535
13.82234 472
13.84245 502
13.86257 460
13.88268 471
13.9028 451
13.92291 439
13.94302 479
13.96314 483
13.98325 365
14.00336 471
14.02348 452
14.04359 497
14.06371 444
14.08382 432
14.10393 457
14.12405 456
14.14416 440
14.16427 473
14.18439 470
14.2045 445
14.22461 422
14.24473 418
14.26484 417
14.28496 454
14.30507 449
14.32518 462
14.3453 412
14.36541 454
14.38552 422
14.40564 427
14.42575 444
14.44587 428
14.46598 449
14.48609 432
14.50621 417
14.52632 431
14.54643 433
14.56655 480
14.58666 454
14.60677 456
14.62689 439
14.647 400
14.66712 423
14.68723 442
14.70734 451
14.72746 478
14.74757 436
14.76768 445
14.7878 438
14.80791 433
14.82803 434
14.84814 445
14.86825 450
14.88837 466
14.90848 435
14.92859 456
14.94871 451
14.96882 439
14.98894 434
15.00905 443
15.02916 466
15.04928 440
15.06939 415
15.0895 442
15.10962 475
15.12973 507
15.14984 489
15.16996 466
15.19007 466
15.21019 454
15.2303 478
15.25041 469
15.27053 455
15.29064 465
15.31075 481
15.33087 436
15.35098 430
15.3711 412
15.39121 446
15.41132 436
15.43144 452
15.45155 485
15.47166 480
15.49178 485
15.51189 446
15.53201 451
15.55212 430
15.57223 450
15.59235 456
15.61246 452
15.63257 389
15.65269 422
15.6728 441
15.69291 436
15.71303 448
15.73314 476
15.75326 476
15.77337 468
15.79348 469
15.8136 432
15.83371 442
15.85382 418
15.87394 431
15.89405 492
15.91417 489
15.93428 438
15.95439 454
15.97451 443
15.99462 501
16.01473 444
16.03485 474
16.05496 450
16.07508 430
16.09519 433
16.1153 436
16.13542 421
16.15553 474
16.17564 466
16.19576 434
16.21587 449
16.23598 401
16.2561 438
16.27621 451
16.29633 445
16.31644 447
16.33655 426
16.35667 433
16.37678 441
16.39689 474
16.41701 479
16.43712 463
16.45724 454
16.47735 459
16.49746 460
16.51758 411
16.53769 468
16.5578 483
16.57792 460
16.59803 439
16.61814 472
16.63826 440
16.65837 484
16.67849 423
16.6986 463
16.71871 489
16.73883 492
16.75894 451
16.77905 501
16.79917 511
16.81928 463
16.8394 496
16.85951 485
16.87962 443
16.89974 475
16.91985 467
16.93996 422
16.96008 465
16.98019 455
17.00031 479
17.02042 463
17.04053 437
17.06065 477
17.08076 459
17.10087 458
17.12099 482
17.1411 498
17.16121 487
17.18133 517
17.20144 521
17.22156 476
17.24167 463
17.26178 485
17.2819 495
17.30201 504
17.32212 460
17.34224 467
17.36235 430
17.38247 438
17.40258 512
17.42269 501
17.44281 478
17.46292 449
17.48303 503
17.50315 413
17.52326 458
17.54338 497
17.56349 473
17.5836 488
17.60372 493
17.62383 465
17.64394 492
17.66406 487
17.68417 497
17.70428 478
17.7244 518
17.74451 477
17.76463 507
17.78474 529
17.80485 526
17.82497 538
17.84508 462
17.86519 487
17.88531 456
17.90542 494
17.92554 466
17.94565 467
17.96576 451
17.98588 449
18.00599 462
18.0261 446
18.04622 479
18.06633 482
18.08645 482
18.10656 476
18.12667 463
18.14679 455
18.1669 528
18.18701 444
18.20713 421
18.22724 501
18.24735 544
18.26747 453
18.28758 506
18.3077 517
18.32781 475
18.34792 520
18.36804 443
18.38815 480
18.40826 466
18.42838 492
18.44849 464
18.46861 487
18.48872 449
18.50883 460
18.52895 475
18.54906 465
18.56917 455
18.58929 460
18.6094 484
18.62951 469
18.64963 463
18.66974 465
18.68986 489
18.70997 479
18.73008 503
18.7502 454
18.77031 528
18.79042 475
18.81054 533
18.83065 458
18.85077 543
18.87088 463
18.89099 511
18.91111 520
18.93122 538
18.95133 478
18.97145 513
18.99156 509
19.01168 478
19.03179 495
19.0519 538
19.07202 527
19.09213 547
19.11224 495
19.13236 485
19.15247 545
19.17258 500
19.1927 551
19.21281 525
19.23293 526
19.25304 538
19.27315 558
19.29327 536
19.31338 575
19.33349 580
19.35361 586
19.37372 553
19.39384 602
19.41395 632
19.43406 648
19.45418 630
19.47429 698
19.4944 641
19.51452 649
19.53463 651
19.55475 702
19.57486 762
19.59497 808
19.61509 841
19.6352 834
19.65531 852
19.67543 861
19.69554 875
19.71565 908
19.73577 870
19.75588 911
19.776 943
19.79611 949
19.81622 936
19.83634 971
19.85645 979
19.87656 885
19.89668 907
19.91679 898
19.93691 927
19.95702 904
19.97713 888
19.99725 849
20.01736 876
20.03747 885
20.05759 864
20.0777 873
20.09782 871
20.11793 854
20.13804 879
20.15816 827
20.17827 809
20.19838 838
20.2185 832
20.23861 902
20.25872 795
20.27884 825
20.29895 750
20.31907 804
20.33918 740
20.35929 810
20.37941 757
20.39952 798
20.41963 766
20.43975 812
20.45986 738
20.47998 727
20.50009 764
20.5202 769
20.54032 795
20.56043 820
20.58054 775
20.60066 692
20.62077 770
20.64088 734
20.661 743
20.68111 792
20.70123 727
20.72134 728
20.74145 719
20.76157 743
20.78168 783
20.80179 789
20.82191 727
20.84202 745
20.86214 769
20.88225 747
20.90236 803
20.92248 729
20.94259 704
20.9627 688
20.98282 718
21.00293 700
21.02305 732
21.04316 706
21.06327 709
21.08339 624
21.1035 644
21.12361 696
21.14373 697
21.16384 679
21.18395 693
21.20407 704
21.22418 736
21.2443 678
21.26441 700
21.28452 638
21.30464 711
21.32475 664
21.34486 710
21.36498 699
21.38509 679
21.40521 632
21.42532 648
21.44543 714
21.46555 652
21.48566 684
21.50577 721
21.52589 655
21.546 676
21.56612 657
21.58623 724
21.60634 656
21.62646 682
21.64657 722
21.66668 689
21.6868 719
21.70691 701
21.72702 700
21.74714 760
21.76725 720
21.78737 740
21.80748 747
21.82759 770
21.84771 749
21.86782 790
21.88793 815
21.90805 784
21.92816 817
21.94828 833
21.96839 767
21.9885 773
22.00862 721
22.02873 716
22.04884 662
22.06896 699
22.08907 657
22.10919 624
22.1293 645
22.14941 658
22.16953 646
22.18964 688
22.20975 638
22.22987 725
22.24998 803
22.27009 703
22.29021 688
22.31032 753
22.33044 690
22.35055 753
22.37066 670
22.39078 718
22.41089 655
22.431 654
22.45112 690
22.47123 636
22.49135 624
22.51146 659
22.53157 643
22.55169 645
22.5718 674
22.59191 644
22.61203 649
22.63214 630
22.65225 636
22.67237 649
22.69248 663
22.7126 674
22.73271 650
22.75282 720
22.77294 720
22.79305 755
22.81316 669
22.83328 678
22.85339 650
22.87351 683
22.89362 616
22.91373 667
22.93385 623
22.95396 595
22.97407 618
22.99419 608
23.0143 639
23.03442 637
23.05453 595
23.07464 650
23.09476 594
23.11487 633
23.13498 652
23.1551 628
23.17521 613
23.19532 583
23.21544 573
23.23555 585
23.25567 604
23.27578 659
23.29589 634
23.31601 628
23.33612 615
23.35623 618
23.37635 600
23.39646 640
23.41658 582
23.43669 608
23.4568 670
23.47692 648
23.49703 683
23.51714 664
23.53726 745
23.55737 742
23.57749 795
23.5976 794
23.61771 816
23.63783 839
23.65794 811
23.67805 838
23.69817 738
23.71828 776
23.73839 721
23.75851 617
23.77862 695
23.79874 673
23.81885 687
23.83896 706
23.85908 637
23.87919 648
23.8993 694
23.91942 717
23.93953 708
23.95965 720
23.97976 693
23.99987 712
24.01999 675
24.0401 705
24.06021 783
24.08033 739
24.10044 738
24.12056 759
24.14067 711
24.16078 700
24.1809 747
24.20101 710
24.22112 705
24.24124 672
24.26135 686
24.28146 671
24.30158 677
24.32169 755
24.34181 684
24.36192 747
24.38203 769
24.40215 708
24.42226 764
24.44237 704
24.46249 681
24.4826 706
24.50272 659
24.52283 640
24.54294 696
24.56306 629
24.58317 658
24.60328 632
24.6234 623
24.64351 658
24.66362 622
24.68374 577
24.70385 610
24.72397 606
24.74408 597
24.76419 673
24.78431 691
24.80442 626
24.82453 622
24.84465 597
24.86476 600
24.88488 677
24.90499 640
24.9251 604
24.94522 641
24.96533 649
24.98544 678
25.00556 636
25.02567 641
25.04579 603
25.0659 627
25.08601 655
25.10613 650
25.12624 639
25.14635 605
25.16647 579
25.18658 576
25.20669 599
25.22681 657
25.24692 603
25.26704 613
25.28715 612
25.30726 650
25.32738 559
25.34749 643
25.3676 644
25.38772 660
25.40783 640
25.42795 651
25.44806 641
25.46817 668
25.48829 656
25.5084 690
25.52851 651
25.54863 711
25.56874 660
25.58886 653
25.60897 640
25.62908 648
25.6492 634
25.66931 613
25.68942 720
25.70954 701
25.72965 658
25.74976 638
25.76988 673
25.78999 696
25.81011 655
25.83022 681
25.85033 666
25.87045 628
25.89056 693
25.91067 649
25.93079 659
25.9509 647
25.97102 629
25.99113 640
26.01124 618
26.03136 623
26.05147 645
26.07158 586
26.0917 653
26.11181 602
26.13193 678
26.15204 647
26.17215 665
26.19227 614
26.21238 641
26.23249 578
26.25261 587
26.27272 643
26.29283 597
26.31295 615
26.33306 605
26.35318 657
26.37329 685
26.3934 682
26.41352 655
26.43363 638
26.45374 623
26.47386 684
26.49397 709
26.51409 763
26.5342 802
26.55431 810
26.57443 980
26.59454 997
26.61465 931
26.63477 921
26.65488 892
26.67499 834
26.69511 749
26.71522 744
26.73534 657
26.75545 661
26.77556 607
26.79568 599
26.81579 655
26.8359 596
26.85602 628
26.87613 544
26.89625 575
26.91636 599
26.93647 603
26.95659 635
26.9767 602
26.99681 599
27.01693 629
27.03704 587
27.05716 580
27.07727 623
27.09738 613
27.1175 610
27.13761 602
27.15772 614
27.17784 658
27.19795 580
27.21806 657
27.23818 635
27.25829 700
27.27841 673
27.29852 650
27.31863 716
27.33875 740
27.35886 751
27.37897 747
27.39909 823
27.4192 835
27.43932 842
27.45943 930
27.47954 955
27.49966 958
27.51977 1018
27.53988 1034
27.56 1073
27.58011 1009
27.60023 1021
27.62034 1006
27.64045 1026
27.66057 1012
27.68068 1010
27.70079 1068
27.72091 1077
27.74102 1070
27.76113 1084
27.78125 1019
27.80136 967
27.82148 941
27.84159 889
27.8617 879
27.88182 957
27.90193 916
27.92204 978
27.94216 933
27.96227 910
27.98239 943
28.0025 933
28.02261 818
28.04273 757
28.06284 787
28.08295 658
28.10307 728
28.12318 644
28.1433 636
28.16341 641
28.18352 581
28.20364 633
28.22375 617
28.24386 606
28.26398 606
28.28409 633
28.3042 605
28.32432 662
28.34443 609
28.36455 640
28.38466 674
28.40477 626
28.42489 609
28.445 599
28.46511 653
28.48523 621
28.50534 595
28.52546 582
28.54557 596
28.56568 579
28.5858 564
28.60591 546
28.62602 559
28.64614 565
28.66625 564
28.68636 561
28.70648 539
28.72659 542
28.74671 592
28.76682 560
28.78693 566
28.80705 581
28.82716 571
28.84727 624
28.86739 538
28.8875 546
28.90762 592
28.92773 542
28.94784 542
28.96796 616
28.98807 534
29.00818 541
29.0283 550
29.04841 546
29.06853 517
29.08864 558
29.10875 589
29.12887 563
29.14898 515
29.16909 545
29.18921 560
29.20932 562
29.22943 546
29.24955 528
29.26966 578
29.28978 552
29.30989 607
29.33 567
29.35012 548
29.37023 585
29.39034 586
29.41046 594
29.43057 582
29.45069 615
29.4708 620
29.49091 602
29.51103 661
29.53114 639
29.55125 612
29.57137 675
29.59148 664
29.6116 692
29.63171 707
29.65182 776
29.67194 785
29.69205 836
29.71216 896
29.73228 907
29.75239 976
29.7725 1000
29.79262 918
29.81273 891
29.83285 918
29.85296 862
29.87307 801
29.89319 810
29.9133 679
29.93341 729
29.95353 686
29.97364 683
29.99376 696
30.01387 662
30.03398 672
30.0541 744
30.07421 693
30.09432 728
30.11444 734
30.13455 707
30.15467 683
30.17478 753
30.19489 689
30.21501 766
30.23512 728
30.25523 801
30.27535 787
30.29546 755
30.31557 793
30.33569 761
30.3558 694
30.37592 699
30.39603 681
30.41614 707
30.43626 624
30.45637 605
30.47648 604
30.4966 628
30.51671 604
30.53683 619
30.55694 657
30.57705 629
30.59717 649
30.61728 602
30.63739 645
30.65751 632
30.67762 681
30.69773 641
30.71785 681
30.73796 614
30.75808 676
30.77819 714
30.7983 665
30.81842 624
30.83853 671
30.85864 634
30.87876 597
30.89887 609
30.91899 579
30.9391 592
30.95921 557
30.97933 565
30.99944 575
31.01955 525
31.03967 552
31.05978 500
31.0799 556
31.10001 510
31.12012 560
31.14024 504
31.16035 513
31.18046 496
31.20058 562
31.22069 529
31.2408 563
31.26092 605
31.28103 535
31.30115 546
31.32126 530
31.34137 543
31.36149 538
31.3816 511
31.40171 565
31.42183 549
31.44194 590
31.46206 517
31.48217 580
31.50228 512
31.5224 547
31.54251 513
31.56262 531
31.58274 581
31.60285 520
31.62297 530
31.64308 507
31.66319 524
31.68331 589
31.70342 506
31.72353 548
31.74365 559
31.76376 527
31.78387 596
31.80399 561
31.8241 563
31.84422 540
31.86433 602
31.88444 563
31.90456 574
31.92467 585
31.94478 554
31.9649 503
31.98501 523
32.00513 511
32.02524 535
32.04535 520
32.06547 498
32.08558 516
32.10569 507
32.12581 513
32.14592 538
32.16604 502
32.18615 565
32.20626 529
32.22638 528
32.24649 495
32.2666 546
32.28672 546
32.30683 517
32.32694 565
32.34706 512
32.36717 489
32.38729 568
32.4074 561
32.42751 570
32.44763 542
32.46774 518
32.48785 544
32.50797 557
32.52808 575
32.5482 573
32.56831 588
32.58842 587
32.60854 548
32.62865 582
32.64876 604
32.66888 606
32.68899 563
32.7091 557
32.72922 534
32.74933 532
32.76945 576
32.78956 533
32.80967 545
32.82979 563
32.8499 603
32.87001 572
32.89013 611
32.91024 624
32.93036 651
32.95047 657
32.97058 682
32.9907 748
33.01081 773
33.03092 784
33.05104 822
33.07115 836
33.09127 864
33.11138 855
33.13149 810
33.15161 756
33.17172 727
33.19183 693
33.21195 665
33.23206 665
33.25217 570
33.27229 573
33.2924 553
33.31252 573
33.33263 574
33.35274 570
33.37286 542
33.39297 479
33.41308 573
33.4332 541
33.45331 544
33.47343 523
33.49354 501
33.51365 509
33.53377 519
33.55388 498
33.57399 516
33.59411 549
33.61422 525
33.63434 545
33.65445 500
33.67456 489
33.69468 551
33.71479 530
33.7349 536
33.75502 524
33.77513 545
33.79524 535
33.81536 512
33.83547 504
33.85559 524
33.8757 493
33.89581 552
33.91593 512
33.93604 526
33.95615 557
33.97627 495
33.99638 517
34.0165 544
34.03661 510
34.05672 559
34.07684 508
34.09695 563
34.11706 518
34.13718 564
34.15729 561
34.17741 586
34.19752 643
34.21763 515
34.23775 522
34.25786 547
34.27797 538
34.29809 593
34.3182 614
34.33831 541
34.35843 565
34.37854 577
34.39866 565
34.41877 649
34.43888 614
34.459 624
34.47911 609
34.49922 702
34.51934 638
34.53945 662
34.55957 615
34.57968 680
34.59979 668
34.61991 649
34.64002 639
34.66013 725
34.68025 657
34.70036 744
34.72047 749
34.74059 688
34.7607 707
34.78082 787
34.80093 803
34.82104 801
34.84116 800
34.86127 807
34.88138 853
34.9015 794
34.92161 836
34.94173 862
34.96184 807
34.98195 754
35.00207 831
35.02218 818
35.04229 812
35.06241 837
35.08252 770
35.10264 811
35.12275 798
35.14286 833
35.16298 847
35.18309 848
35.2032 836
35.22332 911
35.24343 955
35.26354 890
35.28366 883
35.30377 998
35.32389 957
35.344 1023
35.36411 1059
35.38423 1043
35.40434 1118
35.42445 1160
35.44457 1143
35.46468 1272
35.4848 1217
35.50491 1201
35.52502 1255
35.54514 1241
35.56525 1312
35.58536 1223
35.60548 1125
35.62559 1133
35.64571 1091
35.66582 1089
35.68593 1033
35.70605 949
35.72616 1009
35.74627 893
35.76639 842
35.7865 795
35.80661 810
35.82673 818
35.84684 770
35.86696 780
35.88707 756
35.90718 715
35.9273 743
35.94741 691
35.96752 706
35.98764 690
36.00775 746
36.02787 649
36.04798 667
36.06809 709
36.08821 698
36.10832 623
36.12843 680
36.14855 635
36.16866 626
36.18878 653
36.20889 652
36.229 656
36.24912 628
36.26923 668
36.28934 686
36.30946 611
36.32957 659
36.34968 615
36.3698 642
36.38991 622
36.41003 641
36.43014 629
36.45025 649
36.47037 643
36.49048 648
36.51059 634
36.53071 667
36.55082 685
36.57094 650
36.59105 669
36.61116 647
36.63128 638
36.65139 642
36.6715 660
36.69162 607
36.71173 587
36.73184 626
36.75196 622
36.77207 669
36.79219 611
36.8123 678
36.83241 642
36.85253 602
36.87264 651
36.89275 648
36.91287 622
36.93298 653
36.9531 644
36.97321 607
36.99332 548
37.01344 564
37.03355 618
37.05366 588
37.07378 624
37.09389 599
37.11401 629
37.13412 593
37.15423 594
37.17435 634
37.19446 628
37.21457 581
37.23469 570
37.2548 624
37.27491 592
37.29503 594
37.31514 612
37.33526 619
37.35537 614
37.37548 558
37.3956 593
37.41571 604
37.43582 580
37.45594 610
37.47605 575
37.49617 618
37.51628 583
37.53639 594
37.55651 581
37.57662 590
37.59673 600
37.61685 586
37.63696 614
37.65708 545
37.67719 551
37.6973 625
37.71742 592
37.73753 579
37.75764 569
37.77776 602
37.79787 556
37.81798 612
37.8381 564
37.85821 599
37.87833 601
37.89844 550
37.91855 601
37.93867 583
37.95878 569
37.97889 612
37.99901 584
38.01912 584
38.03924 578
38.05935 561
38.07946 565
38.09958 588
38.11969 558
38.1398 613
38.15992 569
38.18003 534
38.20015 598
38.22026 576
38.24037 584
38.26049 566
38.2806 555
38.30071 567
38.32083 600
38.34094 618
38.36105 601
38.38117 580
38.40128 564
38.4214 555
38.44151 564
38.46162 549
38.48174 586
38.50185 563
38.52196 557
38.54208 605
38.56219 598
38.58231 568
38.60242 575
38.62253 567
38.64265 622
38.66276 538
38.68287 533
38.70299 521
38.7231 557
38.74321 576
38.76333 602
38.78344 607
38.80356 598
38.82367 557
38.84378 585
38.8639 562
38.88401 538
38.90412 548
38.92424 559
38.94435 588
38.96447 561
38.98458 588
39.00469 584
39.02481 570
39.04492 532
39.06503 585
39.08515 616
39.10526 569
39.12538 540
39.14549 589
39.1656 592
39.18572 582
39.20583 626
39.22594 611
39.24606 562
39.26617 610
39.28628 634
39.3064 574
39.32651 579
39.34663 590
39.36674 549
39.38685 570
39.40697 523
39.42708 559
39.44719 576
39.46731 560
39.48742 578
39.50754 562
39.52765 542
39.54776 558
39.56788 503
39.58799 541
39.6081 566
39.62822 536
39.64833 552
39.66845 520
39.68856 541
39.70867 520
39.72879 491
39.7489 531
39.76901 529
39.78913 544
39.80924 521
39.82935 551
39.84947 525
39.86958 556
39.8897 619
39.90981 537
39.92992 537
39.95004 528
39.97015 598
39.99026 577
40.01038 543
40.03049 561
40.05061 537
40.07072 535
40.09083 547
40.11095 539
40.13106 552
40.15117 539
40.17129 565
40.1914 576
40.21152 568
40.23163 558
40.25174 597
40.27186 565
40.29197 562
40.31208 558
40.3322 532
40.35231 517
40.37242 565
40.39254 581
40.41265 562
40.43277 562
40.45288 605
40.47299 547
40.49311 589
40.51322 570
40.53333 545
40.55345 581
40.57356 547
40.59368 594
40.61379 600
40.6339 595
40.65402 612
40.67413 599
40.69424 634
40.71436 617
40.73447 626
40.75458 603
40.7747 644
40.79481 583
40.81493 636
40.83504 621
40.85515 615
40.87527 597
40.89538 603
40.91549 629
40.93561 609
40.95572 594
40.97584 567
40.99595 557
41.01606 607
41.03618 542
41.05629 549
41.0764 560
41.09652 540
41.11663 544
41.13675 531
41.15686 533
41.17697 527
41.19709 504
41.2172 526
41.23731 529
41.25743 562
41.27754 507
41.29765 525
41.31777 483
41.33788 482
41.358 539
41.37811 543
41.39822 496
41.41834 521
41.43845 483
41.45856 512
41.47868 527
41.49879 497
41.51891 525
41.53902 557
41.55913 480
41.57925 519
41.59936 474
41.61947 503
41.63959 540
41.6597 509
41.67982 576
41.69993 472
41.72004 502
41.74016 532
41.76027 509
41.78038 511
41.8005 539
41.82061 534
41.84072 531
41.86084 545
41.88095 534
41.90107 504
41.92118 547
41.94129 546
41.96141 557
41.98152 504
42.00163 560
42.02175 533
42.04186 485
42.06198 567
42.08209 498
42.1022 558
42.12232 545
42.14243 599
42.16254 524
42.18266 576
42.20277 593
42.22289 597
42.243 585
42.26311 590
42.28323 608
42.30334 591
42.32345 592
42.34357 582
42.36368 583
42.38379 614
42.40391 592
42.42402 596
42.44414 595
42.46425 571
42.48436 559
42.50448 551
42.52459 565
42.5447 535
42.56482 542
42.58493 569
42.60505 517
42.62516 581
42.64527 524
42.66539 529
42.6855 495
42.70561 537
42.72573 538
42.74584 569
42.76595 575
42.78607 569
42.80618 546
42.8263 534
42.84641 511
42.86652 525
42.88664 540
42.90675 515
42.92686 524
42.94698 555
42.96709 527
42.98721 561
43.00732 539
43.02743 523
43.04755 553
43.06766 564
43.08777 550
43.10789 508
43.128 552
43.14812 508
43.16823 541
43.18834 530
43.20846 567
43.22857 501
43.24868 497
43.2688 486
43.28891 502
43.30902 476
43.32914 527
43.34925 500
43.36937 490
43.38948 495
43.40959 491
43.42971 462
43.44982 489
43.46993 510
43.49005 523
43.51016 531
43.53028 504
43.55039 473
43.5705 498
43.59062 520
43.61073 500
43.63084 508
43.65096 508
43.67107 474
43.69119 487
43.7113 468
43.73141 516
43.75153 491
43.77164 506
43.79175 506
43.81187 467
43.83198 505
43.85209 462
43.87221 474
43.89232 452
43.91244 472
43.93255 469
43.95266 453
43.97278 484
43.99289 514
44.013 452
44.03312 464
44.05323 487
44.07335 468
44.09346 477
44.11357 519
44.13369 555
44.1538 481
44.17391 492
44.19403 521
44.21414 451
44.23426 499
44.25437 496
44.27448 529
44.2946 515
44.31471 526
44.33482 527
44.35494 552
44.37505 520
44.39516 512
44.41528 514
44.43539 551
44.45551 527
44.47562 511
44.49573 523
44.51585 488
44.53596 478
44.55607 531
44.57619 532
44.5963 533
44.61642 510
44.63653 502
44.65664 534
44.67676 536
44.69687 572
44.71698 519
44.7371 561
44.75721 520
44.77732 480
44.79744 496
44.81755 487
44.83767 519
44.85778 490
44.87789 573
44.89801 505
44.91812 495
44.93823 463
44.95835 487
44.97846 521
44.99858 524
45.01869 487
45.0388 522
45.05892 516
45.07903 470
45.09914 536
45.11926 494
45.13937 504
45.15949 514
45.1796 514
45.19971 493
45.21983 553
45.23994 552
45.26005 511
45.28017 476
45.30028 471
45.32039 471
45.34051 521
45.36062 546
45.38074 529
45.40085 483
45.42096 503
45.44108 449
45.46119 492
45.4813 496
45.50142 495
45.52153 521
45.54165 503
45.56176 464
45.58187 479
45.60199 512
45.6221 479
45.64221 518
45.66233 507
45.68244 510
45.70256 455
45.72267 502
45.74278 475
45.7629 532
45.78301 458
45.80312 513
45.82324 474
45.84335 498
45.86346 503
45.88358 461
45.90369 487
45.92381 476
45.94392 461
45.96403 480
45.98415 533
46.00426 485
46.02437 465
46.04449 522
46.0646 497
46.08472 486
46.10483 504
46.12494 443
46.14506 457
46.16517 509
46.18528 460
46.2054 510
46.22551 473
46.24563 473
46.26574 480
46.28585 458
46.30597 448
46.32608 492
46.34619 468
46.36631 475
46.38642 450
46.40653 439
46.42665 493
46.44676 465
46.46688 490
46.48699 463
46.5071 454
46.52722 470
46.54733 459
46.56744 479
46.58756 478
46.60767 513
46.62779 469
46.6479 502
46.66801 472
46.68813 490
46.70824 483
46.72835 478
46.74847 488
46.76858 454
46.78869 518
46.80881 440
46.82892 463
46.84904 453
46.86915 505
46.88926 469
46.90938 500
46.92949 473
46.9496 462
46.96972 464
46.98983 461
47.00995 474
47.03006 450
47.05017 461
47.07029 463
47.0904 503
47.11051 481
47.13063 498
47.15074 470
47.17086 465
47.19097 472
47.21108 417
47.2312 446
47.25131 487
47.27142 457
47.29154 457
47.31165 459
47.33176 459
47.35188 418
47.37199 461
47.39211 458
47.41222 485
47.43233 410
47.45245 431
47.47256 449
47.49267 415
47.51279 468
47.5329 423
47.55302 476
47.57313 432
47.59324 473
47.61336 476
47.63347 483
47.65358 464
47.6737 432
47.69381 469
47.71393 448
47.73404 465
47.75415 492
47.77427 416
47.79438 471
47.81449 459
47.83461 435
47.85472 473
47.87483 449
47.89495 472
47.91506 463
47.93518 489
47.95529 429
47.9754 481
47.99552 455
48.01563 453
48.03574 461
48.05586 450
48.07597 466
48.09609 474
48.1162 462
48.13631 459
48.15643 475
48.17654 431
48.19665 461
48.21677 449
48.23688 496
48.257 440
48.27711 467
48.29722 474
48.31734 455
48.33745 480
48.35756 485
48.37768 453
48.39779 449
48.4179 457
48.43802 499
48.45813 480
48.47825 535
48.49836 517
48.51847 455
48.53859 472
48.5587 483
48.57881 437
48.59893 517
48.61904 451
48.63916 476
48.65927 500
48.67938 490
48.6995 485
48.71961 529
48.73972 454
48.75984 471
48.77995 506
48.80006 506
48.82018 512
48.84029 485
48.86041 456
48.88052 488
48.90063 498
48.92075 480
48.94086 499
48.96097 477
48.98109 474
49.0012 497
49.02132 460
49.04143 485
49.06154 454
49.08166 491
49.10177 458
49.12188 516
49.142 503
49.16211 572
49.18223 564
49.20234 525
49.22245 516
49.24257 520
49.26268 518
49.28279 512
49.30291 579
49.32302 544
49.34313 549
49.36325 555
49.38336 574
49.40348 583
49.42359 552
49.4437 546
49.46382 519
49.48393 553
49.50404 565
49.52416 523
49.54427 547
49.56439 514
49.5845 522
49.60461 500
49.62473 479
49.64484 493
49.66495 525
49.68507 520
49.70518 515
49.7253 477
49.74541 502
49.76552 504
49.78564 506
49.80575 536
49.82586 519
49.84598 463
49.86609 481
49.8862 497
49.90632 473
49.92643 496
49.94655 487
49.96666 495
49.98677 487
50.00689 484
50.027 498
50.04711 497
50.06723 473
50.08734 497
50.10746 515
50.12757 479
50.14768 470
50.1678 489
50.18791 442
50.20802 476
50.22814 429
50.24825 508
50.26837 460
50.28848 465
50.30859 497
50.32871 456
50.34882 438
50.36893 489
50.38905 450
50.40916 427
50.42927 463
50.44939 458
50.4695 448
50.48962 450
50.50973 476
50.52984 454
50.54996 431
50.57007 455
50.59018 499
50.6103 482
50.63041 438
50.65053 459
50.67064 481
50.69075 455
50.71087 465
50.73098 457
50.75109 485
50.77121 521
50.79132 480
50.81143 471
50.83155 462
50.85166 464
50.87178 513
50.89189 450
50.912 489
50.93212 479
50.95223 485
50.97234 439
50.99246 453
51.01257 507
51.03269 486
51.0528 447
51.07291 495
51.09303 469
51.11314 467
51.13325 468
51.15337 485
51.17348 471
51.1936 498
51.21371 473
51.23382 454
51.25394 415
51.27405 477
51.29416 468
51.31428 518
51.33439 470
51.3545 512
51.37462 495
51.39473 474
51.41485 451
51.43496 478
51.45507 456
51.47519 504
51.4953 480
51.51541 440
51.53553 486
51.55564 454
51.57576 456
51.59587 486
51.61598 444
51.6361 492
51.65621 420
51.67632 466
51.69644 448
51.71655 437
51.73667 474
51.75678 468
51.77689 494
51.79701 431
51.81712 471
51.83723 477
51.85735 458
51.87746 467
51.89757 478
51.91769 492
51.9378 487
51.95792 488
51.97803 482
51.99814 488
52.01826 498
52.03837 444
52.05848 512
52.0786 447
52.09871 496
52.11883 484
52.13894 448
52.15905 468
52.17917 491
52.19928 507
52.21939 499
52.23951 482
52.25962 502
52.27974 468
52.29985 487
52.31996 471
52.34008 435
52.36019 433
52.3803 473
52.40042 455
52.42053 457
52.44064 495
52.46076 455
52.48087 489
52.50099 481
52.5211 493
52.54121 467
52.56133 468
52.58144 483
52.60155 471
52.62167 430
52.64178 445
52.6619 433
52.68201 449
52.70212 491
52.72224 458
52.74235 427
52.76246 476
52.78258 459
52.80269 483
52.8228 500
52.84292 466
52.86303 477
52.88315 508
52.90326 479
52.92337 443
52.94349 477
52.9636 446
52.98371 486
53.00383 476
53.02394 512
53.04406 528
53.06417 499
53.08428 511
53.1044 483
53.12451 498
53.14462 492
53.16474 494
53.18485 458
53.20497 493
53.22508 496
53.24519 525
53.26531 507
53.28542 527
53.30553 504
53.32565 493
53.34576 545
53.36587 537
53.38599 502
53.4061 513
53.42622 533
53.44633 525
53.46644 538
53.48656 540
53.50667 518
53.52678 523
53.5469 499
53.56701 487
53.58713 551
53.60724 558
53.62735 537
53.64747 538
53.66758 502
53.68769 537
53.70781 566
53.72792 594
53.74804 561
53.76815 556
53.78826 561
53.80838 580
53.82849 579
53.8486 554
53.86872 590
53.88883 622
53.90894 596
53.92906 582
53.94917 625
53.96929 605
53.9894 617
54.00951 615
54.02963 646
54.04974 615
54.06985 601
54.08997 593
54.11008 586
54.1302 542
54.15031 577
54.17042 540
54.19054 518
54.21065 525
54.23076 556
54.25088 527
54.27099 536
54.29111 541
54.31122 521
54.33133 528
54.35145 495
54.37156 518
54.39167 524
54.41179 561
54.4319 554
54.45201 525
54.47213 492
54.49224 487
54.51236 514
54.53247 541
54.55258 490
54.5727 491
54.59281 474
54.61292 487
54.63304 504
54.65315 517
54.67327 480
54.69338 503
54.71349 517
54.73361 510
54.75372 551
54.77383 573
54.79395 532
54.81406 530
54.83417 512
54.85429 522
54.8744 541
54.89452 541
54.91463 495
54.93474 542
54.95486 518
54.97497 503
54.99508 542
55.0152 516
55.03531 519
55.05543 501
55.07554 504
55.09565 517
55.11577 500
55.13588 465
55.15599 515
55.17611 501
55.19622 498
55.21634 493
55.23645 485
55.25656 486
55.27668 487
55.29679 493
55.3169 474
55.33702 500
55.35713 502
55.37724 486
55.39736 481
55.41747 495
55.43759 479
55.4577 450
55.47781 504
55.49793 491
55.51804 512
55.53815 476
55.55827 492
55.57838 483
55.5985 488
55.61861 477
55.63872 481
55.65884 486
55.67895 483
55.69906 490
55.71918 470
55.73929 494
55.75941 486
55.77952 469
55.79963 460
55.81975 484
55.83986 477
55.85997 476
55.88009 493
55.9002 497
55.92031 486
55.94043 473
55.96054 483
55.98066 483
56.00077 455
56.02088 505
56.041 445
56.06111 474
56.08122 495
56.10134 503
56.12145 506
56.14157 490
56.16168 518
56.18179 498
56.20191 495
56.22202 508
56.24213 499
56.26225 509
56.28236 511
56.30248 509
56.32259 526
56.3427 509
56.36282 562
56.38293 566
56.40304 580
56.42316 582
56.44327 537
56.46338 513
56.4835 522
56.50361 550
56.52373 542
56.54384 564
56.56395 569
56.58407 547
56.60418 564
56.62429 492
56.64441 541
56.66452 549
56.68464 531
56.70475 508
56.72486 500
56.74498 526
56.76509 549
56.7852 520
56.80532 488
56.82543 497
56.84554 523
56.86566 490
56.88577 476
56.90589 501
56.926 537
56.94611 448
56.96623 492
56.98634 478
57.00645 477
57.02657 479
57.04668 497
57.0668 529
57.08691 486
57.10702 501
57.12714 491
57.14725 497
57.16736 504
57.18748 500
57.20759 514
57.22771 470
57.24782 488
57.26793 500
57.28805 455
57.30816 461
57.32827 485
57.34839 485
57.3685 462
57.38861 512
57.40873 491
57.42884 492
57.44896 463
57.46907 509
57.48918 523
57.5093 456
57.52941 466
57.54952 474
57.56964 481
57.58975 505
57.60987 453
57.62998 495
57.65009 456
57.67021 443
57.69032 445
57.71043 483
57.73055 442
57.75066 463
57.77078 461
57.79089 445
57.811 462
57.83112 462
57.85123 476
57.87134 429
57.89146 467
57.91157 436
57.93168 452
57.9518 461
57.97191 468
57.99203 419
58.01214 439
58.03225 480
58.05237 460
58.07248 418
58.09259 470
58.11271 465
58.13282 456
58.15294 435
58.17305 436
58.19316 431
58.21328 458
58.23339 452
58.2535 427
58.27362 444
58.29373 458
58.31385 422
58.33396 446
58.35407 441
58.37419 459
58.3943 442
58.41441 435
58.43453 435
58.45464 423
58.47475 389
58.49487 439
58.51498 436
58.5351 435
58.55521 396
58.57532 444
58.59544 411
58.61555 441
58.63566 456
58.65578 446
58.67589 471
58.69601 442
58.71612 455
58.73623 473
58.75635 414
58.77646 440
58.79657 441
58.81669 468
58.8368 455
58.85691 436
58.87703 432
58.89714 468
58.91726 464
58.93737 435
58.95748 462
58.9776 426
58.99771 446
59.01782 423
59.03794 439
59.05805 510
59.07817 421
59.09828 479
59.11839 425
59.13851 418
59.15862 434
59.17873 466
59.19885 477
59.21896 467
59.23908 446
59.25919 476
59.2793 481
59.29942 449
59.31953 450
59.33964 430
59.35976 458
59.37987 425
59.39998 457
59.4201 424
59.44021 440
59.46033 475
59.48044 443
59.50055 433
59.52067 416
59.54078 469
59.56089 441
59.58101 448
59.60112 470
59.62124 447
59.64135 454
59.66146 422
59.68158 446
59.70169 470
59.7218 439
59.74192 462
59.76203 444
59.78215 437
59.80226 480
59.82237 462
59.84249 504
59.8626 485
59.88271 477
59.90283 454
59.92294 486
59.94305 472
59.96317 451
59.98328 458
60.0034 439
60.02351 464
60.04362 449
60.06374 479
60.08385 485
60.10396 487
60.12408 487
60.14419 494
60.16431 444
60.18442 503
60.20453 457
60.22465 482
60.24476 492
60.26487 455
60.28499 476
60.3051 449
60.32522 492
60.34533 503
60.36544 441
60.38556 475
60.40567 467
60.42578 478
60.4459 475
60.46601 447
60.48612 470
60.50624 485
60.52635 474
60.54647 481
60.56658 462
60.58669 491
60.60681 492
60.62692 477
60.64703 432
60.66715 453
60.68726 429
60.70738 503
60.72749 435
60.7476 473
60.76772 492
60.78783 471
60.80794 474
60.82806 499
60.84817 458
60.86828 464
60.8884 487
60.90851 517
60.92863 494
60.94874 517
60.96885 512
60.98897 501
61.00908 492
61.02919 505
61.04931 484
61.06942 478
61.08954 501
61.10965 515
61.12976 496
61.14988 493
61.16999 557
61.1901 515
61.21022 506
61.23033 450
61.25045 495
61.27056 521
61.29067 484
61.31079 525
61.3309 533
61.35101 532
61.37113 586
61.39124 521
61.41135 551
61.43147 564
61.45158 594
61.4717 533
61.49181 584
61.51192 555
61.53204 524
61.55215 576
61.57226 530
61.59238 588
61.61249 600
61.63261 606
61.65272 529
61.67283 594
61.69295 553
61.71306 562
61.73317 561
61.75329 536
61.7734 562
61.79352 537
61.81363 575
61.83374 549
61.85386 551
61.87397 522
61.89408 543
61.9142 560
61.93431 582
61.95442 552
61.97454 540
61.99465 578
62.01477 598
62.03488 584
62.05499 550
62.07511 551
62.09522 595
62.11533 560
62.13545 558
62.15556 615
62.17568 642
62.19579 567
62.2159 628
62.23602 638
62.25613 607
62.27624 611
62.29636 617
62.31647 655
62.33659 609
62.3567 626
62.37681 579
62.39693 602
62.41704 607
62.43715 611
62.45727 612
62.47738 570
62.49749 552
62.51761 568
62.53772 535
62.55784 553
62.57795 535
62.59806 558
62.61818 575
62.63829 512
62.6584 582
62.67852 572
62.69863 553
62.71875 549
62.73886 534
62.75897 502
62.77909 521
62.7992 510
62.81931 488
62.83943 503
62.85954 499
62.87965 485
62.89977 493
62.91988 497
62.94 468
62.96011 499
62.98022 520
63.00034 499
63.02045 458
63.04056 471
63.06068 477
63.08079 449
63.10091 458
63.12102 525
63.14113 480
63.16125 457
63.18136 494
63.20147 467
63.22159 420
63.2417 508
63.26182 435
63.28193 434
63.30204 466
63.32216 485
63.34227 453
63.36238 486
63.3825 462
63.40261 482
63.42272 472
63.44284 414
63.46295 458
63.48307 452
63.50318 452
63.52329 469
63.54341 458
63.56352 472
63.58363 446
63.60375 487
63.62386 497
63.64398 518
63.66409 471
63.6842 457
63.70432 475
63.72443 513
63.74454 507
63.76466 459
63.78477 477
63.80489 519
63.825 516
63.84511 509
63.86523 522
63.88534 515
63.90545 569
63.92557 490
63.94568 501
63.96579 492
63.98591 491
64.00602 516
64.02614 496
64.04625 447
64.06636 466
64.08648 481
64.10659 466
64.1267 505
64.14682 453
64.16693 451
64.18705 424
64.20716 482
64.22727 478
64.24739 455
64.2675 442
64.28761 432
64.30773 455
64.32784 430
64.34796 472
64.36807 451
64.38818 414
64.4083 420
64.42841 436
64.44852 409
64.46864 430
64.48875 443
64.50886 443
64.52898 430
64.54909 443
64.56921 455
64.58932 426
64.60943 434
64.62955 478
64.64966 446
64.66977 436
64.68989 418
64.71 416
64.73012 389
64.75023 425
64.77034 420
64.79046 403
64.81057 435
64.83068 473
64.8508 451
64.87091 457
64.89102 429
64.91114 437
64.93125 377
64.95137 421
64.97148 434
64.99159 429
65.01171 412
65.03182 434
65.05193 419
65.07205 422
65.09216 422
65.11228 440
65.13239 378
65.1525 408
65.17262 481
65.19273 434
65.21284 419
65.23296 483
65.25307 439
65.27319 445
65.2933 445
65.31341 437
65.33353 437
65.35364 430
65.37375 437
65.39387 449
65.41398 423
65.43409 439
65.45421 434
65.47432 431
65.49444 455
65.51455 446
65.53466 434
65.55478 421
65.57489 447
65.595 496
65.61512 468
65.63523 431
65.65535 431
65.67546 464
65.69557 451
65.71569 500
65.7358 468
65.75591 451
65.77603 432
65.79614 455
65.81626 471
65.83637 466
65.85648 445
65.8766 478
65.89671 476
65.91682 500
65.93694 471
65.95705 427
65.97716 469
65.99728 475
66.01739 429
66.03751 446
66.05762 451
66.07773 459
66.09785 432
66.11796 427
66.13807 423
66.15819 457
66.1783 463
66.19842 441
66.21853 465
66.23864 408
66.25876 432
66.27887 451
66.29898 420
66.3191 421
66.33921 412
66.35933 438
66.37944 439
66.39955 451
66.41967 434
66.43978 437
66.45989 439
66.48001 446
66.50012 381
66.52023 405
66.54035 406
66.56046 409
66.58058 420
66.60069 444
66.6208 432
66.64092 399
66.66103 410
66.68114 432
66.70126 452
66.72137 411
66.74149 452
66.7616 437
66.78171 432
66.80183 422
66.82194 435
66.84205 454
66.86217 408
66.88228 450
66.90239 409
66.92251 413
66.94262 449
66.96274 453
66.98285 442
67.00296 423
67.02308 402
67.04319 412
67.0633 407
67.08342 425
67.10353 430
67.12365 431
67.14376 444
67.16387 398
67.18399 418
67.2041 434
67.22421 413
67.24433 433
67.26444 414
67.28456 445
67.30467 431
67.32478 414
67.3449 396
67.36501 426
67.38512 456
67.40524 436
67.42535 427
67.44546 466
67.46558 421
67.48569 442
67.50581 436
67.52592 416
67.54603 430
67.56615 434
67.58626 463
67.60637 429
67.62649 432
67.6466 462
67.66672 412
67.68683 429
67.70694 420
67.72706 432
67.74717 430
67.76728 442
67.7874 458
67.80751 437
67.82763 433
67.84774 475
67.86785 441
67.88797 399
67.90808 417
67.92819 440
67.94831 432
67.96842 416
67.98853 445
68.00865 434
68.02876 430
68.04888 431
68.06899 432
68.0891 431
68.10922 411
68.12933 435
68.14944 403
68.16956 452
68.18967 404
68.20979 425
68.2299 429
68.25001 450
68.27013 423
68.29024 439
68.31035 437
68.33047 401
68.35058 443
68.3707 438
68.39081 420
68.41092 412
68.43104 431
68.45115 434
68.47126 416
68.49138 425
68.51149 410
68.5316 384
68.55172 425
68.57183 426
68.59195 421
68.61206 417
68.63217 412
68.65229 411
68.6724 426
68.69251 409
68.71263 437
68.73274 416
68.75286 406
68.77297 404
68.79308 404
68.8132 405
68.83331 434
68.85342 431
68.87354 364
68.89365 450
68.91376 412
68.93388 432
68.95399 437
68.97411 436
68.99422 392
69.01433 406
69.03445 418
69.05456 443
69.07467 419
69.09479 400
69.1149 407
69.13502 399
69.15513 429
69.17524 404
69.19536 423
69.21547 426
69.23558 421
69.2557 438
69.27581 415
69.29593 428
69.31604 421
69.33615 458
69.35627 414
69.37638 427
69.39649 401
69.41661 431
69.43672 406
69.45683 407
69.47695 425
69.49706 409
69.51718 396
69.53729 419
69.5574 429
69.57752 418
69.59763 470
69.61774 385
69.63786 394
69.65797 399
69.67809 427
69.6982 428
69.71831 435
69.73843 401
69.75854 429
69.77865 458
69.79877 413
69.81888 414
69.839 421
69.85911 440
69.87922 413
69.89934 399
69.91945 411
69.93956 427
69.95968 412
69.97979 402
69.9999 383
70.02002 441
70.04013 377
70.06025 474
70.08036 422
70.10047 421
70.12059 383
70.1407 406
70.16081 419
70.18093 416
70.20104 414
70.22116 402
70.24127 417
70.26138 407
70.2815 404
70.30161 386
70.32172 413
70.34184 408
70.36195 428
70.38207 451
70.40218 417
70.42229 416
70.44241 448
70.46252 408
70.48263 418
70.50275 422
70.52286 407
70.54297 443
70.56309 440
70.5832 409
70.60332 450
70.62343 417
70.64354 429
70.66366 439
70.68377 403
70.70388 390
70.724 425
70.74411 392
70.76423 421
70.78434 430
70.80445 398
70.82457 441
70.84468 420
70.86479 395
70.88491 392
70.90502 402
70.92513 417
70.94525 452
70.96536 422
70.98548 414
71.00559 384
71.0257 406
71.04582 452
71.06593 397
71.08604 438
71.10616 380
71.12627 441
71.14639 422
71.1665 421
71.18661 451
71.20673 456
71.22684 459
71.24695 413
71.26707 437
71.28718 453
71.3073 414
71.32741 428
71.34752 486
71.36764 405
71.38775 446
71.40786 431
71.42798 414
71.44809 424
71.4682 442
71.48832 428
71.50843 446
71.52855 449
71.54866 414
71.56877 443
71.58889 435
71.609 438
71.62911 430
71.64923 405
71.66934 394
71.68946 432
71.70957 425
71.72968 393
71.7498 375
71.76991 445
71.79002 429
71.81014 413
71.83025 392
71.85037 417
71.87048 434
71.89059 414
71.91071 435
71.93082 434
71.95093 392
71.97105 405
71.99116 402
72.01127 432
72.03139 416
72.0515 438
72.07162 440
72.09173 375
72.11184 400
72.13196 433
72.15207 418
72.17218 392
72.1923 414
72.21241 441
72.23253 404
72.25264 404
72.27275 396
72.29287 413
72.31298 406
72.33309 433
72.35321 401
72.37332 442
72.39344 441
72.41355 436
72.43366 402
72.45378 422
72.47389 413
72.494 417
72.51412 430
72.53423 421
72.55434 429
72.57446 413
72.59457 410
72.61469 397
72.6348 413
72.65491 433
72.67503 426
72.69514 457
72.71525 436
72.73537 418
72.75548 441
72.7756 407
72.79571 416
72.81582 401
72.83594 443
72.85605 460
72.87616 420
72.89628 439
72.91639 402
72.9365 423
72.95662 450
72.97673 430
72.99685 446
73.01696 422
73.03707 395
73.05719 436
73.0773 445
73.09741 419
73.11753 474
73.13764 467
73.15776 436
73.17787 396
73.19798 420
73.2181 424
73.23821 436
73.25832 427
73.27844 425
73.29855 433
73.31867 418
73.33878 438
73.35889 418
73.37901 406
73.39912 397
73.41923 426
73.43935 412
73.45946 449
73.47957 391
73.49969 412
73.5198 424
73.53992 448
73.56003 433
73.58014 434
73.60026 400
73.62037 430
73.64048 443
73.6606 460
73.68071 449
73.70083 445
73.72094 399
73.74105 437
73.76117 424
73.78128 434
73.80139 446
73.82151 454
73.84162 407
73.86174 462
73.88185 435
73.90196 454
73.92208 419
73.94219 426
73.9623 413
73.98242 432
74.00253 414
74.02264 432
74.04276 424
74.06287 411
74.08299 396
74.1031 411
74.12321 418
74.14333 437
74.16344 426
74.18355 424
74.20367 387
74.22378 453
74.2439 386
74.26401 410
74.28412 447
74.30424 407
74.32435 423
74.34446 427
74.36458 398
74.38469 405
74.40481 387
74.42492 413
74.44503 414
74.46515 416
74.48526 412
74.50537 416
74.52549 385
74.5456 368
74.56571 391
74.58583 429
74.60594 433
74.62606 410
74.64617 428
74.66628 444
74.6864 431
74.70651 387
74.72662 384
74.74674 385
74.76685 393
74.78697 426
74.80708 418
74.82719 390
74.84731 420
74.86742 405
74.88753 416
74.90765 427
74.92776 428
74.94787 416
74.96799 405
74.9881 411
75.00822 397
