3.00117 20448
3.02128 19221
3.0414 19066
3.06151 18257
3.08162 17808
3.10174 17761
3.12185 16527
3.14197 16352
3.16208 15876
3.18219 15316
3.20231 15331
3.22242 14407
3.24253 14231
3.26265 13356
3.28276 13004
3.30288 12827
3.32299 12149
3.3431 11927
3.36322 11727
3.38333 11195
3.40344 11265
3.42356 10440
3.44367 10150
3.46379 9931
3.4839 9448
3.50401 9342
3.52413 8786
3.54424 8537
3.56435 8257
3.58447 7960
3.60458 7786
3.62469 7338
3.64481 7020
3.66492 6762
3.68504 6369
3.70515 6600
3.72526 5814
3.74538 5801
3.76549 5727
3.7856 5342
3.80572 5112
3.82583 4818
3.84595 4763
3.86606 4518
3.88617 4344
3.90629 4337
3.9264 3751
3.94651 3926
3.96663 3620
3.98674 3409
4.00686 3455
4.02697 2960
4.04708 2997
4.0672 2840
4.08731 2829
4.10742 2765
4.12754 2546
4.14765 2580
4.16776 2289
4.18788 2341
4.20799 2304
4.22811 2070
4.24822 2049
4.26833 1950
4.28845 1920
4.30856 1970
4.32867 1712
4.34879 1800
4.3689 1737
4.38902 1698
4.40913 1572
4.42924 1578
4.44936 1509
4.46947 1534
4.48958 1439
4.5097 1516
4.52981 1279
4.54992 1338
4.57004 1321
4.59015 1287
4.61027 1301
4.63038 1184
4.65049 1228
4.67061 1158
4.69072 1233
4.71083 1125
4.73095 1025
4.75106 1014
4.77118 1011
4.79129 998
4.8114 1056
4.83152 900
4.85163 953
4.87174 948
4.89186 922
4.91197 882
4.93209 815
4.9522 867
4.97231 848
4.99243 821
5.01254 787
5.03265 735
5.05277 712
5.07288 808
5.09299 767
5.11311 673
5.13322 740
5.15334 687
5.17345 672
5.19356 624
5.21368 630
5.23379 645
5.2539 615
5.27402 611
5.29413 560
5.31425 558
5.33436 578
5.35447 586
5.37459 507
5.3947 543
5.41481 477
5.43493 520
5.45504 447
5.47516 498
5.49527 432
5.51538 473
5.5355 499
5.55561 463
5.57572 422
5.59584 441
5.61595 445
5.63606 419
5.65618 421
5.67629 419
5.69641 433
5.71652 391
5.73663 384
5.75675 398
5.77686 413
5.79697 402
5.81709 360
5.8372 349
5.85732 361
5.87743 370
5.89754 391
5.91766 367
5.93777 337
5.95788 386
5.978 342
5.99811 356
6.01823 321
6.03834 307
6.05845 326
6.07857 277
6.09868 340
6.11879 341
6.13891 337
6.15902 294
6.17913 313
6.19925 331
6.21936 336
6.23948 286
6.25959 320
6.2797 300
6.29982 323
6.31993 304
6.34004 295
6.36016 339
6.38027 324
6.40039 328
6.4205 287
6.44061 287
6.46073 307
6.48084 282
6.50095 328
6.52107 300
6.54118 290
6.56129 322
6.58141 301
6.60152 324
6.62164 303
6.64175 283
6.66186 271
6.68198 272
6.70209 270
6.7222 277
6.74232 283
6.76243 261
6.78255 261
6.80266 273
6.82277 277
6.84289 257
6.863 285
6.88311 247
6.90323 289
6.92334 284
6.94346 287
6.96357 258
6.98368 274
7.0038 276
7.02391 250
7.04402 284
7.06414 248
7.08425 288
7.10436 238
7.12448 273
7.14459 275
7.16471 263
7.18482 275
7.20493 249
7.22505 289
7.24516 259
7.26527 240
7.28539 274
7.3055 255
7.32562 267
7.34573 269
7.36584 272
7.38596 258
7.40607 289
7.42618 263
7.4463 237
7.46641 263
7.48653 277
7.50664 261
7.52675 229
7.54687 256
7.56698 272
7.58709 236
7.60721 265
7.62732 261
7.64743 292
7.66755 256
7.68766 257
7.70778 263
7.72789 272
7.748 220
7.76812 256
7.78823 257
7.80834 274
7.82846 243
7.84857 275
7.86869 254
7.8888 232
7.90891 269
7.92903 262
7.94914 295
7.96925 267
7.98937 250
8.00948 247
8.0296 295
8.04971 252
8.06982 268
8.08994 275
8.11005 261
8.13016 284
8.15028 264
8.17039 273
8.1905 246
8.21062 262
8.23073 249
8.25085 274
8.27096 265
8.29107 241
8.31119 256
8.3313 253
8.35141 259
8.37153 290
8.39164 285
8.41176 274
8.43187 252
8.45198 302
8.4721 274
8.49221 283
8.51232 318
8.53244 275
8.55255 239
8.57266 283
8.59278 230
8.61289 289
8.63301 257
8.65312 267
8.67323 259
8.69335 278
8.71346 295
8.73357 244
8.75369 301
8.7738 311
8.79392 268
8.81403 299
8.83414 273
8.85426 249
8.87437 262
8.89448 269
8.9146 285
8.93471 283
8.95483 291
8.97494 263
8.99505 239
9.01517 245
9.03528 262
9.05539 289
9.07551 281
9.09562 253
9.11573 305
9.13585 250
9.15596 256
9.17608 282
9.19619 274
9.2163 261
9.23642 272
9.25653 266
9.27664 266
9.29676 256
9.31687 263
9.33699 251
9.3571 280
9.37721 247
9.39733 237
9.41744 268
9.43755 247
9.45767 276
9.47778 234
9.4979 246
9.51801 249
9.53812 258
9.55824 251
9.57835 274
9.59846 233
9.61858 271
9.63869 244
9.6588 260
9.67892 225
9.69903 284
9.71915 218
9.73926 283
9.75937 242
9.77949 254
9.7996 252
9.81971 249
9.83983 264
9.85994 256
9.88006 254
9.90017 226
9.92028 281
9.9404 253
9.96051 242
9.98062 218
10.00074 252
10.02085 223
10.04097 262
10.06108 294
10.08119 262
10.10131 256
10.12142 259
10.14153 255
10.16165 272
10.18176 238
10.20187 255
10.22199 242
10.2421 270
10.26222 265
10.28233 261
10.30244 270
10.32256 247
10.34267 237
10.36278 238
10.3829 260
10.40301 279
10.42313 234
10.44324 251
10.46335 247
10.48347 279
10.50358 251
10.52369 250
10.54381 264
10.56392 255
10.58403 262
10.60415 236
10.62426 247
10.64438 237
10.66449 278
10.6846 259
10.70472 261
10.72483 240
10.74494 246
10.76506 237
10.78517 259
10.80529 265
10.8254 255
10.84551 263
10.86563 265
10.88574 261
10.90585 227
10.92597 267
10.94608 232
10.9662 258
10.98631 282
11.00642 228
11.02654 219
11.04665 225
11.06676 237
11.08688 246
11.10699 272
11.1271 262
11.14722 236
11.16733 249
11.18745 242
11.20756 260
11.22767 250
11.24779 264
11.2679 267
11.28801 255
11.30813 237
11.32824 234
11.34836 244
11.36847 250
11.38858 219
11.4087 258
11.42881 253
11.44892 250
11.46904 253
11.48915 230
11.50927 261
11.52938 244
11.54949 249
11.56961 292
11.58972 234
11.60983 254
11.62995 273
11.65006 255
11.67017 233
11.69029 245
11.7104 268
11.73052 249
11.75063 226
11.77074 255
11.79086 253
11.81097 267
11.83108 244
11.8512 261
11.87131 259
11.89143 260
11.91154 300
11.93165 260
11.95177 255
11.97188 258
11.99199 296
12.01211 278
12.03222 263
12.05234 280
12.07245 267
12.09256 291
12.11268 249
12.13279 253
12.1529 295
12.17302 281
12.19313 274
12.21324 280
12.23336 280
12.25347 293
12.27359 286
12.2937 289
12.31381 277
12.33393 287
12.35404 259
12.37415 274
12.39427 277
12.41438 251
12.4345 234
12.45461 254
12.47472 284
12.49484 252
12.51495 261
12.53506 239
12.55518 248
12.57529 259
12.5954 225
12.61552 228
12.63563 261
12.65575 219
12.67586 233
12.69597 261
12.71609 233
12.7362 228
12.75631 230
12.77643 273
12.79654 257
12.81666 223
12.83677 247
12.85688 227
12.877 246
12.89711 234
12.91722 232
12.93734 214
12.95745 238
12.97757 248
12.99768 224
13.01779 267
13.03791 272
13.05802 248
13.07813 272
13.09825 300
13.11836 287
13.13847 294
13.15859 263
13.1787 267
13.19882 271
13.21893 222
13.23904 227
13.25916 251
13.27927 226
13.29938 255
13.3195 236
13.33961 223
13.35973 228
13.37984 233
13.39995 244
13.42007 244
13.44018 243
13.46029 241
13.48041 267
13.50052 273
13.52064 287
13.54075 287
13.56086 296
13.58098 300
13.60109 312
13.6212 318
13.64132 341
13.66143 342
13.68154 299
13.70166 315
13.72177 294
13.74189 246
13.762 275
13.78211 308
13.80223 286
13.82234 304
13.84245 278
13.86257 325
13.88268 282
13.9028 285
13.92291 246
13.94302 253
13.96314 231
13.98325 261
14.00336 196
14.02348 225
14.04359 224
14.06371 230
14.08382 210
14.10393 197
14.12405 220
14.14416 223
14.16427 219
14.18439 222
14.2045 242
14.22461 243
14.24473 211
14.26484 216
14.28496 204
14.30507 226
14.32518 230
14.3453 229
14.36541 223
14.38552 199
14.40564 232
14.42575 226
14.44587 208
14.46598 225
14.48609 229
14.50621 211
14.52632 215
14.54643 220
14.56655 227
14.58666 215
14.60677 243
14.62689 231
14.647 222
14.66712 227
14.68723 226
14.70734 231
14.72746 218
14.74757 249
14.76768 235
14.7878 224
14.80791 251
14.82803 237
14.84814 294
14.86825 279
14.88837 307
14.90848 290
14.92859 248
14.94871 308
14.96882 262
14.98894 248
15.00905 257
15.02916 272
15.04928 247
15.06939 251
15.0895 242
15.10962 223
15.12973 241
15.14984 223
15.16996 222
15.19007 248
15.21019 267
15.2303 264
15.25041 293
15.27053 265
15.29064 238
15.31075 228
15.33087 204
15.35098 206
15.3711 196
15.39121 233
15.41132 230
15.43144 219
15.45155 196
15.47166 200
15.49178 221
15.51189 193
15.53201 206
15.55212 219
15.57223 243
15.59235 201
15.61246 211
15.63257 213
15.65269 206
15.6728 244
15.69291 234
15.71303 244
15.73314 204
15.75326 221
15.77337 225
15.79348 216
15.8136 185
15.83371 194
15.85382 243
15.87394 205
15.89405 217
15.91417 226
15.93428 177
15.95439 227
15.97451 229
15.99462 204
16.01473 238
16.03485 202
16.05496 189
16.07508 185
16.09519 225
16.1153 192
16.13542 233
16.15553 211
16.17564 207
16.19576 211
16.21587 224
16.23598 213
16.2561 194
16.27621 202
16.29633 225
16.31644 195
16.33655 193
16.35667 179
16.37678 191
16.39689 185
16.41701 201
16.43712 202
16.45724 192
16.47735 193
16.49746 218
16.51758 216
16.53769 190
16.5578 203
16.57792 198
16.59803 196
16.61814 190
16.63826 194
16.65837 215
16.67849 190
16.6986 180
16.71871 196
16.73883 198
16.75894 195
16.77905 208
16.79917 173
16.81928 198
16.8394 189
16.85951 200
16.87962 230
16.89974 208
16.91985 210
16.93996 193
16.96008 188
16.98019 204
17.00031 217
17.02042 208
17.04053 211
17.06065 229
17.08076 220
17.10087 197
17.12099 192
17.1411 206
17.16121 189
17.18133 225
17.20144 203
17.22156 205
17.24167 188
17.26178 208
17.2819 203
17.30201 214
17.32212 196
17.34224 209
17.36235 214
17.38247 220
17.40258 190
17.42269 205
17.44281 218
17.46292 235
17.48303 180
17.50315 195
17.52326 209
17.54338 194
17.56349 238
17.5836 229
17.60372 209
17.62383 179
17.64394 190
17.66406 207
17.68417 184
17.70428 207
17.7244 203
17.74451 187
17.76463 224
17.78474 202
17.80485 236
17.82497 229
17.84508 190
17.86519 228
17.88531 243
17.90542 190
17.92554 207
17.94565 205
17.96576 201
17.98588 215
18.00599 224
18.0261 187
18.04622 189
18.06633 213
18.08645 221
18.10656 227
18.12667 217
18.14679 236
18.1669 214
18.18701 206
18.20713 215
18.22724 185
18.24735 208
18.26747 177
18.28758 179
18.3077 211
18.32781 214
18.34792 170
18.36804 238
18.38815 204
18.40826 182
18.42838 193
18.44849 237
18.46861 214
18.48872 203
18.50883 187
18.52895 214
18.54906 218
18.56917 206
18.58929 212
18.6094 204
18.62951 212
18.64963 202
18.66974 204
18.68986 188
18.70997 213
18.73008 185
18.7502 202
18.77031 205
18.79042 197
18.81054 215
18.83065 239
18.85077 207
18.87088 202
18.89099 200
18.91111 217
18.93122 224
18.95133 203
18.97145 216
18.99156 176
19.01168 212
19.03179 230
19.0519 233
19.07202 230
19.09213 163
19.11224 189
19.13236 181
19.15247 207
19.17258 242
19.1927 226
19.21281 232
19.23293 253
19.25304 282
19.27315 268
19.29327 276
19.31338 256
19.33349 240
19.35361 252
19.37372 266
19.39384 240
19.41395 237
19.43406 207
19.45418 267
19.47429 253
19.4944 251
19.51452 234
19.53463 284
19.55475 277
19.57486 291
19.59497 279
19.61509 313
19.6352 306
19.65531 326
19.67543 315
19.69554 320
19.71565 302
19.73577 325
19.75588 328
19.776 364
19.79611 363
19.81622 335
19.83634 330
19.85645 361
19.87656 402
19.89668 382
19.91679 396
19.93691 383
19.95702 353
19.97713 339
19.99725 357
20.01736 363
20.03747 319
20.05759 363
20.0777 319
20.09782 333
20.11793 319
20.13804 338
20.15816 348
20.17827 376
20.19838 334
20.2185 347
20.23861 323
20.25872 319
20.27884 318
20.29895 339
20.31907 325
20.33918 377
20.35929 346
20.37941 393
20.39952 373
20.41963 394
20.43975 404
20.45986 385
20.47998 406
20.50009 412
20.5202 402
20.54032 429
20.56043 389
20.58054 437
20.60066 484
20.62077 533
20.64088 548
20.661 666
20.68111 821
20.70123 1027
20.72134 1375
20.74145 1850
20.76157 2700
20.78168 3371
20.80179 4316
20.82191 4793
20.84202 4750
20.86214 4313
20.88225 3400
20.90236 2650
20.92248 2015
20.94259 1533
20.9627 1244
20.98282 1151
21.00293 1197
21.02305 1166
21.04316 982
21.06327 814
21.08339 731
21.1035 567
21.12361 510
21.14373 440
21.16384 414
21.18395 397
21.20407 390
21.22418 357
21.2443 359
21.26441 338
21.28452 376
21.30464 324
21.32475 361
21.34486 358
21.36498 350
21.38509 350
21.40521 338
21.42532 327
21.44543 342
21.46555 331
21.48566 306
21.50577 271
21.52589 301
21.546 296
21.56612 298
21.58623 335
21.60634 302
21.62646 322
21.64657 340
21.66668 335
21.6868 288
21.70691 288
21.72702 280
21.74714 326
21.76725 303
21.78737 298
21.80748 335
21.82759 329
21.84771 364
21.86782 413
21.88793 445
21.90805 493
21.92816 576
21.94828 715
21.96839 788
21.9885 752
22.00862 737
22.02873 666
22.04884 571
22.06896 491
22.08907 417
22.10919 362
22.1293 349
22.14941 366
22.16953 342
22.18964 322
22.20975 323
22.22987 398
22.24998 412
22.27009 456
22.29021 416
22.31032 458
22.33044 360
22.35055 372
22.37066 342
22.39078 354
22.41089 323
22.431 331
22.45112 327
22.47123 309
22.49135 341
22.51146 318
22.53157 305
22.55169 379
22.5718 357
22.59191 340
22.61203 345
22.63214 338
22.65225 313
22.67237 312
22.69248 291
22.7126 286
22.73271 287
22.75282 294
22.77294 315
22.79305 287
22.81316 338
22.83328 325
22.85339 304
22.87351 366
22.89362 339
22.91373 385
22.93385 410
22.95396 436
22.97407 414
22.99419 415
23.0143 404
23.03442 459
23.05453 459
23.07464 437
23.09476 474
23.11487 518
23.13498 544
23.1551 575
23.17521 624
23.19532 600
23.21544 553
23.23555 511
23.25567 484
23.27578 457
23.29589 449
23.31601 350
23.33612 368
23.35623 376
23.37635 346
23.39646 366
23.41658 400
23.43669 346
23.4568 429
23.47692 447
23.49703 460
23.51714 460
23.53726 575
23.55737 510
23.57749 509
23.5976 531
23.61771 508
23.63783 504
23.65794 415
23.67805 440
23.69817 408
23.71828 399
23.73839 410
23.75851 376
23.77862 426
23.79874 406
23.81885 494
23.83896 497
23.85908 475
23.87919 549
23.8993 641
23.91942 731
23.93953 783
23.95965 747
23.97976 747
23.99987 714
24.01999 673
24.0401 565
24.06021 515
24.08033 488
24.10044 441
24.12056 438
24.14067 388
24.16078 417
24.1809 464
24.20101 501
24.22112 455
24.24124 548
24.26135 579
24.28146 533
24.30158 563
24.32169 559
24.34181 536
24.36192 449
24.38203 416
24.40215 395
24.42226 366
24.44237 378
24.46249 337
24.4826 298
24.50272 292
24.52283 323
24.54294 314
24.56306 335
24.58317 356
24.60328 324
24.6234 353
24.64351 390
24.66362 371
24.68374 406
24.70385 375
24.72397 389
24.74408 436
24.76419 368
24.78431 384
24.80442 361
24.82453 357
24.84465 330
24.86476 350
24.88488 365
24.90499 384
24.9251 322
24.94522 358
24.96533 344
24.98544 340
25.00556 325
25.02567 336
25.04579 342
25.0659 316
25.08601 322
25.10613 315
25.12624 339
25.14635 354
25.16647 319
25.18658 319
25.20669 350
25.22681 360
25.24692 369
25.26704 363
25.28715 353
25.30726 394
25.32738 386
25.34749 391
25.3676 419
25.38772 464
25.40783 509
25.42795 559
25.44806 619
25.46817 705
25.48829 727
25.5084 803
25.52851 790
25.54863 782
25.56874 794
25.58886 733
25.60897 787
25.62908 776
25.6492 737
25.66931 673
25.68942 615
25.70954 573
25.72965 555
25.74976 470
25.76988 444
25.78999 437
25.81011 394
25.83022 411
25.85033 459
25.87045 427
25.89056 447
25.91067 391
25.93079 411
25.9509 427
25.97102 428
25.99113 445
26.01124 412
26.03136 443
26.05147 450
26.07158 481
26.0917 500
26.11181 514
26.13193 525
26.15204 647
26.17215 648
26.19227 648
26.21238 716
26.23249 812
26.25261 821
26.27272 952
26.29283 972
26.31295 1103
26.33306 1284
26.35318 1486
26.37329 1779
26.3934 2021
26.41352 2349
26.43363 2839
26.45374 3569
26.47386 4501
26.49397 6253
26.51409 8532
26.5342 11420
26.55431 15118
26.57443 18500
26.59454 20814
26.61465 21095
26.63477 19503
26.65488 15938
26.67499 12246
26.69511 9001
26.71522 6164
26.73534 3864
26.75545 2319
26.77556 1591
26.79568 1315
26.81579 1155
26.8359 1060
26.85602 1020
26.87613 985
26.89625 1022
26.91636 961
26.93647 945
26.95659 1069
26.9767 1050
26.99681 1168
27.01693 1233
27.03704 1270
27.05716 1227
27.07727 1127
27.09738 943
27.1175 986
27.13761 834
27.15772 744
27.17784 685
27.19795 695
27.21806 677
27.23818 741
27.25829 816
27.27841 905
27.29852 983
27.31863 1145
27.33875 1347
27.35886 1452
27.37897 1586
27.39909 1783
27.4192 1749
27.43932 1817
27.45943 1698
27.47954 1563
27.49966 1350
27.51977 1190
27.53988 947
27.56 838
27.58011 714
27.60023 648
27.62034 679
27.64045 707
27.66057 731
27.68068 800
27.70079 885
27.72091 912
27.74102 997
27.76113 1047
27.78125 1053
27.80136 1079
27.82148 1057
27.84159 1098
27.8617 1120
27.88182 1112
27.90193 1144
27.92204 1193
27.94216 1202
27.96227 1104
27.98239 1018
28.0025 893
28.02261 740
28.04273 658
28.06284 559
28.08295 546
28.10307 432
28.12318 462
28.1433 448
28.16341 478
28.18352 405
28.20364 521
28.22375 505
28.24386 535
28.26398 509
28.28409 466
28.3042 427
28.32432 425
28.34443 356
28.36455 341
28.38466 342
28.40477 343
28.42489 337
28.445 303
28.46511 279
28.48523 297
28.50534 306
28.52546 306
28.54557 293
28.56568 298
28.5858 257
28.60591 286
28.62602 294
28.64614 293
28.66625 272
28.68636 276
28.70648 281
28.72659 223
28.74671 276
28.76682 288
28.78693 238
28.80705 230
28.82716 276
28.84727 249
28.86739 296
28.8875 302
28.90762 255
28.92773 266
28.94784 273
28.96796 277
28.98807 288
29.00818 317
29.0283 263
29.04841 279
29.06853 263
29.08864 264
29.10875 287
29.12887 260
29.14898 275
29.16909 292
29.18921 277
29.20932 289
29.22943 290
29.24955 307
29.26966 273
29.28978 292
29.30989 345
29.33 364
29.35012 424
29.37023 433
29.39034 475
29.41046 472
29.43057 420
29.45069 429
29.4708 444
29.49091 426
29.51103 358
29.53114 377
29.55125 369
29.57137 369
29.59148 330
29.6116 321
29.63171 365
29.65182 357
29.67194 379
29.69205 361
29.71216 358
29.73228 419
29.75239 378
29.7725 402
29.79262 431
29.81273 413
29.83285 412
29.85296 390
29.87307 374
29.89319 352
29.9133 377
29.93341 373
29.95353 392
29.97364 360
29.99376 396
30.01387 387
30.03398 435
30.0541 447
30.07421 437
30.09432 466
30.11444 540
30.13455 521
30.15467 533
30.17478 563
30.19489 532
30.21501 536
30.23512 520
30.25523 482
30.27535 486
30.29546 450
30.31557 484
30.33569 479
30.3558 481
30.37592 457
30.39603 496
30.41614 469
30.43626 434
30.45637 424
30.47648 436
30.4966 388
30.51671 383
30.53683 317
30.55694 331
30.57705 339
30.59717 360
30.61728 396
30.63739 421
30.65751 472
30.67762 457
30.69773 540
30.71785 490
30.73796 553
30.75808 585
30.77819 467
30.7983 508
30.81842 471
30.83853 478
30.85864 432
30.87876 428
30.89887 414
30.91899 320
30.9391 378
30.95921 288
30.97933 297
30.99944 256
31.01955 257
31.03967 233
31.05978 245
31.0799 260
31.10001 239
31.12012 259
31.14024 254
31.16035 250
31.18046 255
31.20058 272
31.22069 290
31.2408 282
31.26092 315
31.28103 258
31.30115 312
31.32126 307
31.34137 316
31.36149 312
31.3816 301
31.40171 313
31.42183 303
31.44194 260
31.46206 252
31.48217 269
31.50228 251
31.5224 211
31.54251 262
31.56262 239
31.58274 244
31.60285 233
31.62297 233
31.64308 255
31.66319 194
31.68331 258
31.70342 242
31.72353 221
31.74365 182
31.76376 231
31.78387 247
31.80399 233
31.8241 197
31.84422 227
31.86433 220
31.88444 213
31.90456 206
31.92467 239
31.94478 261
31.9649 260
31.98501 268
32.00513 246
32.02524 280
32.04535 277
32.06547 273
32.08558 293
32.10569 279
32.12581 280
32.14592 327
32.16604 297
32.18615 274
32.20626 295
32.22638 283
32.24649 249
32.2666 263
32.28672 283
32.30683 286
32.32694 298
32.34706 304
32.36717 320
32.38729 348
32.4074 342
32.42751 346
32.44763 334
32.46774 305
32.48785 296
32.50797 296
32.52808 282
32.5482 240
32.56831 241
32.58842 250
32.60854 247
32.62865 236
32.64876 197
32.66888 238
32.68899 197
32.7091 239
32.72922 247
32.74933 220
32.76945 228
32.78956 178
32.80967 233
32.82979 209
32.8499 253
32.87001 200
32.89013 204
32.91024 210
32.93036 235
32.95047 206
32.97058 224
32.9907 231
33.01081 212
33.03092 220
33.05104 224
33.07115 192
33.09127 209
33.11138 219
33.13149 196
33.15161 185
33.17172 218
33.19183 220
33.21195 202
33.23206 216
33.25217 192
33.27229 211
33.2924 229
33.31252 193
33.33263 225
33.35274 227
33.37286 220
33.39297 212
33.41308 223
33.4332 217
33.45331 204
33.47343 221
33.49354 188
33.51365 217
33.53377 204
33.55388 206
33.57399 187
33.59411 203
33.61422 192
33.63434 209
33.65445 229
33.67456 238
33.69468 263
33.71479 240
33.7349 244
33.75502 237
33.77513 253
33.79524 255
33.81536 267
33.83547 264
33.85559 274
33.8757 267
33.89581 238
33.91593 271
33.93604 225
33.95615 221
33.97627 270
33.99638 238
34.0165 266
34.03661 268
34.05672 278
34.07684 302
34.09695 328
34.11706 330
34.13718 347
34.15729 412
34.17741 430
34.19752 424
34.21763 448
34.23775 381
34.25786 380
34.27797 368
34.29809 349
34.3182 352
34.33831 318
34.35843 280
34.37854 273
34.39866 306
34.41877 279
34.43888 270
34.459 315
34.47911 279
34.49922 311
34.51934 301
34.53945 319
34.55957 341
34.57968 379
34.59979 365
34.61991 352
34.64002 360
34.66013 352
34.68025 320
34.70036 332
34.72047 332
34.74059 315
34.7607 344
34.78082 308
34.80093 327
34.82104 382
34.84116 396
34.86127 353
34.88138 374
34.9015 364
34.92161 376
34.94173 388
34.96184 351
34.98195 342
35.00207 348
35.02218 339
35.04229 398
35.06241 372
35.08252 383
35.10264 376
35.12275 365
35.14286 370
35.16298 416
35.18309 416
35.2032 421
35.22332 368
35.24343 399
35.26354 439
35.28366 379
35.30377 425
35.32389 381
35.344 402
35.36411 413
35.38423 405
35.40434 387
35.42445 375
35.44457 390
35.46468 431
35.4848 475
35.50491 449
35.52502 433
35.54514 431
35.56525 417
35.58536 420
35.60548 355
35.62559 368
35.64571 373
35.66582 332
35.68593 289
35.70605 316
35.72616 290
35.74627 287
35.76639 283
35.7865 289
35.80661 297
35.82673 270
35.84684 339
35.86696 274
35.88707 309
35.90718 291
35.9273 274
35.94741 286
35.96752 291
35.98764 286
36.00775 331
36.02787 287
36.04798 310
36.06809 303
36.08821 299
36.10832 296
36.12843 298
36.14855 301
36.16866 328
36.18878 312
36.20889 357
36.229 361
36.24912 324
36.26923 347
36.28934 357
36.30946 409
36.32957 470
36.34968 488
36.3698 590
36.38991 708
36.41003 901
36.43014 1009
36.45025 1220
36.47037 1398
36.49048 1585
36.51059 1526
36.53071 1450
36.55082 1280
36.57094 1083
36.59105 972
36.61116 857
36.63128 678
36.65139 572
36.6715 429
36.69162 380
36.71173 386
36.73184 337
36.75196 337
36.77207 318
36.79219 400
36.8123 330
36.83241 383
36.85253 342
36.87264 345
36.89275 385
36.91287 380
36.93298 390
36.9531 353
36.97321 383
36.99332 395
37.01344 354
37.03355 355
37.05366 345
37.07378 323
37.09389 309
37.11401 305
37.13412 298
37.15423 270
37.17435 253
37.19446 264
37.21457 274
37.23469 240
37.2548 273
37.27491 251
37.29503 295
37.31514 245
37.33526 276
37.35537 283
37.37548 230
37.3956 295
37.41571 249
37.43582 261
37.45594 282
37.47605 281
37.49617 291
37.51628 260
37.53639 279
37.55651 296
37.57662 298
37.59673 312
37.61685 289
37.63696 273
37.65708 296
37.67719 267
37.6973 268
37.71742 237
37.73753 269
37.75764 285
37.77776 258
37.79787 229
37.81798 227
37.8381 246
37.85821 229
37.87833 230
37.89844 235
37.91855 252
37.93867 228
37.95878 256
37.97889 238
37.99901 229
38.01912 249
38.03924 239
38.05935 222
38.07946 241
38.09958 222
38.11969 244
38.1398 238
38.15992 240
38.18003 257
38.20015 254
38.22026 241
38.24037 260
38.26049 280
38.2806 269
38.30071 283
38.32083 235
38.34094 291
38.36105 304
38.38117 252
38.40128 264
38.4214 300
38.44151 319
38.46162 358
38.48174 283
38.50185 324
38.52196 350
38.54208 296
38.56219 311
38.58231 287
38.60242 315
38.62253 284
38.64265 278
38.66276 239
38.68287 252
38.70299 252
38.7231 268
38.74321 262
38.76333 208
38.78344 238
38.80356 256
38.82367 236
38.84378 222
38.8639 243
38.88401 250
38.90412 251
38.92424 261
38.94435 264
38.96447 274
38.98458 279
39.00469 270
39.02481 266
39.04492 279
39.06503 290
39.08515 261
39.10526 269
39.12538 319
39.14549 310
39.1656 333
39.18572 305
39.20583 365
39.22594 378
39.24606 408
39.26617 520
39.28628 478
39.3064 624
39.32651 736
39.34663 900
39.36674 1001
39.38685 1231
39.40697 1423
39.42708 1434
39.44719 1384
39.46731 1199
39.48742 1082
39.50754 919
39.52765 804
39.54776 736
39.56788 568
39.58799 468
39.6081 343
39.62822 342
39.64833 299
39.66845 287
39.68856 254
39.70867 282
39.72879 261
39.7489 234
39.76901 230
39.78913 235
39.80924 255
39.82935 235
39.84947 222
39.86958 217
39.8897 258
39.90981 255
39.92992 209
39.95004 237
39.97015 284
39.99026 250
40.01038 261
40.03049 299
40.05061 294
40.07072 347
40.09083 354
40.11095 396
40.13106 390
40.15117 456
40.17129 560
40.1914 626
40.21152 741
40.23163 770
40.25174 842
40.27186 718
40.29197 669
40.31208 611
40.3322 552
40.35231 548
40.37242 456
40.39254 393
40.41265 365
40.43277 261
40.45288 266
40.47299 262
40.49311 255
40.51322 275
40.53333 278
40.55345 245
40.57356 244
40.59368 214
40.61379 205
40.6339 239
40.65402 234
40.67413 227
40.69424 224
40.71436 212
40.73447 215
40.75458 225
40.7747 225
40.79481 211
40.81493 215
40.83504 255
40.85515 229
40.87527 216
40.89538 218
40.91549 226
40.93561 200
40.95572 223
40.97584 244
40.99595 207
41.01606 215
41.03618 219
41.05629 234
41.0764 229
41.09652 219
41.11663 228
41.13675 203
41.15686 226
41.17697 193
41.19709 221
41.2172 226
41.23731 217
41.25743 246
41.27754 245
41.29765 220
41.31777 228
41.33788 229
41.358 223
41.37811 240
41.39822 230
41.41834 241
41.43845 229
41.45856 240
41.47868 243
41.49879 246
41.51891 285
41.53902 253
41.55913 271
41.57925 288
41.59936 290
41.61947 311
41.63959 346
41.6597 331
41.67982 378
41.69993 395
41.72004 461
41.74016 489
41.76027 498
41.78038 486
41.8005 473
41.82061 469
41.84072 418
41.86084 372
41.88095 353
41.90107 318
41.92118 293
41.94129 310
41.96141 281
41.98152 267
42.00163 261
42.02175 220
42.04186 250
42.06198 253
42.08209 277
42.1022 243
42.12232 286
42.14243 294
42.16254 283
42.18266 308
42.20277 340
42.22289 384
42.243 443
42.26311 414
42.28323 516
42.30334 620
42.32345 735
42.34357 862
42.36368 976
42.38379 1047
42.40391 1067
42.42402 1099
42.44414 979
42.46425 825
42.48436 788
42.50448 702
42.52459 685
42.5447 563
42.56482 440
42.58493 363
42.60505 338
42.62516 304
42.64527 318
42.66539 282
42.6855 291
42.70561 294
42.72573 307
42.74584 306
42.76595 309
42.78607 285
42.80618 313
42.8263 305
42.84641 264
42.86652 272
42.88664 275
42.90675 270
42.92686 251
42.94698 259
42.96709 256
42.98721 236
43.00732 250
43.02743 235
43.04755 255
43.06766 231
43.08777 229
43.10789 252
43.128 223
43.14812 228
43.16823 216
43.18834 216
43.20846 228
43.22857 224
43.24868 213
43.2688 236
43.28891 219
43.30902 178
43.32914 219
43.34925 224
43.36937 197
43.38948 213
43.40959 212
43.42971 229
43.44982 222
43.46993 217
43.49005 228
43.51016 242
43.53028 242
43.55039 241
43.5705 251
43.59062 223
43.61073 234
43.63084 230
43.65096 211
43.67107 188
43.69119 217
43.7113 195
43.73141 227
43.75153 209
43.77164 220
43.79175 191
43.81187 207
43.83198 218
43.85209 239
43.87221 207
43.89232 224
43.91244 218
43.93255 228
43.95266 200
43.97278 214
43.99289 223
44.013 214
44.03312 195
44.05323 200
44.07335 206
44.09346 216
44.11357 230
44.13369 232
44.1538 228
44.17391 197
44.19403 211
44.21414 214
44.23426 194
44.25437 202
44.27448 210
44.2946 208
44.31471 230
44.33482 206
44.35494 214
44.37505 217
44.39516 205
44.41528 183
44.43539 170
44.45551 200
44.47562 213
44.49573 223
44.51585 217
44.53596 219
44.55607 219
44.57619 221
44.5963 214
44.61642 205
44.63653 231
44.65664 215
44.67676 207
44.69687 230
44.71698 209
44.7371 194
44.75721 226
44.77732 197
44.79744 185
44.81755 215
44.83767 215
44.85778 210
44.87789 221
44.89801 210
44.91812 217
44.93823 225
44.95835 230
44.97846 188
44.99858 206
45.01869 220
45.0388 211
45.05892 205
45.07903 231
45.09914 208
45.11926 214
45.13937 204
45.15949 227
45.1796 233
45.19971 197
45.21983 220
45.23994 214
45.26005 206
45.28017 231
45.30028 237
45.32039 245
45.34051 250
45.36062 242
45.38074 233
45.40085 256
45.42096 290
45.44108 266
45.46119 276
45.4813 318
45.50142 336
45.52153 320
45.54165 320
45.56176 364
45.58187 368
45.60199 449
45.6221 502
45.64221 523
45.66233 561
45.68244 614
45.70256 758
45.72267 756
45.74278 872
45.7629 766
45.78301 753
45.80312 619
45.82324 573
45.84335 525
45.86346 533
45.88358 499
45.90369 414
45.92381 374
45.94392 296
45.96403 278
45.98415 248
46.00426 276
46.02437 221
46.04449 216
46.0646 244
46.08472 246
46.10483 234
46.12494 232
46.14506 235
46.16517 239
46.18528 240
46.2054 250
46.22551 213
46.24563 228
46.26574 222
46.28585 233
46.30597 211
46.32608 213
46.34619 228
46.36631 206
46.38642 233
46.40653 189
46.42665 189
46.44676 204
46.46688 196
46.48699 194
46.5071 213
46.52722 190
46.54733 175
46.56744 225
46.58756 177
46.60767 190
46.62779 195
46.6479 209
46.66801 176
46.68813 178
46.70824 190
46.72835 184
46.74847 206
46.76858 203
46.78869 192
46.80881 214
46.82892 219
46.84904 218
46.86915 252
46.88926 200
46.90938 230
46.92949 209
46.9496 213
46.96972 239
46.98983 237
47.00995 248
47.03006 293
47.05017 252
47.07029 263
47.0904 275
47.11051 237
47.13063 270
47.15074 253
47.17086 259
47.19097 251
47.21108 246
47.2312 225
47.25131 227
47.27142 224
47.29154 207
47.31165 272
47.33176 241
47.35188 250
47.37199 255
47.39211 241
47.41222 249
47.43233 256
47.45245 282
47.47256 263
47.49267 263
47.51279 231
47.5329 235
47.55302 254
47.57313 238
47.59324 217
47.61336 228
47.63347 239
47.65358 229
47.6737 203
47.69381 221
47.71393 194
47.73404 190
47.75415 193
47.77427 204
47.79438 188
47.81449 202
47.83461 167
47.85472 202
47.87483 199
47.89495 203
47.91506 201
47.93518 205
47.95529 189
47.9754 204
47.99552 193
48.01563 231
48.03574 218
48.05586 207
48.07597 231
48.09609 206
48.1162 200
48.13631 196
48.15643 213
48.17654 207
48.19665 200
48.21677 233
48.23688 212
48.257 217
48.27711 218
48.29722 226
48.31734 225
48.33745 220
48.35756 212
48.37768 209
48.39779 217
48.4179 193
48.43802 212
48.45813 196
48.47825 195
48.49836 215
48.51847 172
48.53859 187
48.5587 195
48.57881 215
48.59893 210
48.61904 231
48.63916 193
48.65927 244
48.67938 259
48.6995 225
48.71961 255
48.73972 238
48.75984 257
48.77995 230
48.80006 266
48.82018 265
48.84029 253
48.86041 253
48.88052 256
48.90063 251
48.92075 297
48.94086 274
48.96097 280
48.98109 270
49.0012 293
49.02132 274
49.04143 261
49.06154 267
49.08166 260
49.10177 249
49.12188 264
49.142 275
49.16211 307
49.18223 233
49.20234 262
49.22245 249
49.24257 252
49.26268 243
49.28279 217
49.30291 199
49.32302 247
49.34313 214
49.36325 192
49.38336 236
49.40348 199
49.42359 211
49.4437 220
49.46382 223
49.48393 242
49.50404 242
49.52416 218
49.54427 217
49.56439 240
49.5845 252
49.60461 264
49.62473 252
49.64484 244
49.66495 274
49.68507 288
49.70518 334
49.7253 323
49.74541 341
49.76552 379
49.78564 401
49.80575 411
49.82586 411
49.84598 485
49.86609 503
49.8862 580
49.90632 630
49.92643 710
49.94655 815
49.96666 922
49.98677 1110
50.00689 1415
50.027 1634
50.04711 1892
50.06723 2060
50.08734 2327
50.10746 2190
50.12757 1937
50.14768 1624
50.1678 1374
50.18791 1300
50.20802 1305
50.22814 1222
50.24825 1041
50.26837 889
50.28848 683
50.30859 524
50.32871 409
50.34882 407
50.36893 356
50.38905 422
50.40916 431
50.42927 424
50.44939 484
50.4695 504
50.48962 489
50.50973 496
50.52984 537
50.54996 525
50.57007 530
50.59018 480
50.6103 482
50.63041 457
50.65053 449
50.67064 393
50.69075 401
50.71087 371
50.73098 360
50.75109 325
50.77121 328
50.79132 313
50.81143 314
50.83155 328
50.85166 300
50.87178 306
50.89189 286
50.912 283
50.93212 272
50.95223 244
50.97234 245
50.99246 242
51.01257 263
51.03269 265
51.0528 237
51.07291 237
51.09303 240
51.11314 241
51.13325 289
51.15337 230
51.17348 257
51.1936 256
51.21371 289
51.23382 257
51.25394 258
51.27405 242
51.29416 278
51.31428 266
51.33439 250
51.3545 245
51.37462 213
51.39473 208
51.41485 233
51.43496 216
51.45507 241
51.47519 199
51.4953 212
51.51541 194
51.53553 204
51.55564 185
51.57576 205
51.59587 185
51.61598 172
51.6361 185
51.65621 181
51.67632 175
51.69644 186
51.71655 180
51.73667 174
51.75678 164
51.77689 194
51.79701 153
51.81712 166
51.83723 186
51.85735 197
51.87746 182
51.89757 187
51.91769 210
51.9378 174
51.95792 194
51.97803 164
51.99814 190
52.01826 182
52.03837 171
52.05848 214
52.0786 190
52.09871 213
52.11883 181
52.13894 191
52.15905 173
52.17917 210
52.19928 200
52.21939 214
52.23951 181
52.25962 221
52.27974 206
52.29985 201
52.31996 223
52.34008 201
52.36019 202
52.3803 169
52.40042 179
52.42053 193
52.44064 206
52.46076 227
52.48087 190
52.50099 220
52.5211 199
52.54121 204
52.56133 188
52.58144 250
52.60155 233
52.62167 208
52.64178 219
52.6619 231
52.68201 227
52.70212 234
52.72224 204
52.74235 222
52.76246 237
52.78258 211
52.80269 226
52.8228 227
52.84292 203
52.86303 222
52.88315 239
52.90326 222
52.92337 238
52.94349 244
52.9636 210
52.98371 216
53.00383 209
53.02394 235
53.04406 239
53.06417 222
53.08428 187
53.1044 252
53.12451 201
53.14462 217
53.16474 229
53.18485 208
53.20497 236
53.22508 220
53.24519 218
53.26531 228
53.28542 272
53.30553 225
53.32565 220
53.34576 212
53.36587 208
53.38599 217
53.4061 239
53.42622 226
53.44633 194
53.46644 214
53.48656 227
53.50667 203
53.52678 242
53.5469 189
53.56701 205
53.58713 218
53.60724 198
53.62735 198
53.64747 210
53.66758 224
53.68769 201
53.70781 231
53.72792 229
53.74804 215
53.76815 189
53.78826 244
53.80838 217
53.82849 204
53.8486 193
53.86872 238
53.88883 236
53.90894 236
53.92906 197
53.94917 196
53.96929 230
53.9894 241
54.00951 220
54.02963 212
54.04974 222
54.06985 217
54.08997 203
54.11008 227
54.1302 215
54.15031 229
54.17042 235
54.19054 253
54.21065 248
54.23076 197
54.25088 209
54.27099 262
54.29111 234
54.31122 233
54.33133 245
54.35145 224
54.37156 253
54.39167 232
54.41179 243
54.4319 250
54.45201 253
54.47213 242
54.49224 252
54.51236 265
54.53247 246
54.55258 263
54.5727 260
54.59281 250
54.61292 285
54.63304 299
54.65315 337
54.67327 365
54.69338 424
54.71349 454
54.73361 523
54.75372 620
54.77383 674
54.79395 712
54.81406 778
54.83417 851
54.85429 730
54.8744 630
54.89452 569
54.91463 520
54.93474 486
54.95486 487
54.97497 491
54.99508 489
55.0152 429
55.03531 361
55.05543 324
55.07554 287
55.09565 307
55.11577 310
55.13588 319
55.15599 357
55.17611 317
55.19622 371
55.21634 393
55.23645 417
55.25656 463
55.27668 491
55.29679 477
55.3169 428
55.33702 428
55.35713 351
55.37724 370
55.39736 381
55.41747 359
55.43759 331
55.4577 354
55.47781 296
55.49793 310
55.51804 291
55.53815 254
55.55827 266
55.57838 253
55.5985 227
55.61861 251
55.63872 244
55.65884 238
55.67895 206
55.69906 204
55.71918 214
55.73929 230
55.75941 224
55.77952 189
55.79963 200
55.81975 190
55.83986 194
55.85997 215
55.88009 218
55.9002 192
55.92031 200
55.94043 192
55.96054 208
55.98066 224
56.00077 206
56.02088 207
56.041 188
56.06111 216
56.08122 195
56.10134 192
56.12145 200
56.14157 207
56.16168 194
56.18179 188
56.20191 168
56.22202 172
56.24213 196
56.26225 184
56.28236 188
56.30248 173
56.32259 188
56.3427 180
56.36282 188
56.38293 202
56.40304 178
56.42316 209
56.44327 187
56.46338 204
56.4835 181
56.50361 198
56.52373 199
56.54384 191
56.56395 199
56.58407 196
56.60418 235
56.62429 227
56.64441 201
56.66452 227
56.68464 207
56.70475 225
56.72486 209
56.74498 204
56.76509 242
56.7852 215
56.80532 206
56.82543 190
56.84554 195
56.86566 204
56.88577 196
56.90589 196
56.926 190
56.94611 203
56.96623 209
56.98634 196
57.00645 182
57.02657 198
57.04668 174
57.0668 192
57.08691 188
57.10702 205
57.12714 208
57.14725 217
57.16736 242
57.18748 231
57.20759 227
57.22771 243
57.24782 213
57.26793 215
57.28805 209
57.30816 212
57.32827 213
57.34839 213
57.3685 204
57.38861 219
57.40873 194
57.42884 226
57.44896 217
57.46907 228
57.48918 227
57.5093 214
57.52941 199
57.54952 223
57.56964 202
57.58975 206
57.60987 211
57.62998 210
57.65009 199
57.67021 181
57.69032 189
57.71043 174
57.73055 202
57.75066 172
57.77078 192
57.79089 180
57.811 187
57.83112 191
57.85123 194
57.87134 187
57.89146 193
57.91157 196
57.93168 206
57.9518 189
57.97191 198
57.99203 178
58.01214 197
58.03225 204
58.05237 174
58.07248 211
58.09259 214
58.11271 198
58.13282 216
58.15294 168
58.17305 191
58.19316 177
58.21328 203
58.23339 189
58.2535 213
58.27362 225
58.29373 199
58.31385 228
58.33396 196
58.35407 200
58.37419 189
58.3943 214
58.41441 225
58.43453 249
58.45464 229
58.47475 220
58.49487 218
58.51498 241
58.5351 216
58.55521 235
58.57532 204
58.59544 247
58.61555 222
58.63566 245
58.65578 242
58.67589 221
58.69601 250
58.71612 238
58.73623 209
58.75635 223
58.77646 199
58.79657 230
58.81669 217
58.8368 199
58.85691 178
58.87703 186
58.89714 154
58.91726 186
58.93737 162
58.95748 166
58.9776 178
58.99771 186
59.01782 177
59.03794 219
59.05805 210
59.07817 199
59.09828 190
59.11839 187
59.13851 209
59.15862 197
59.17873 234
59.19885 195
59.21896 215
59.23908 197
59.25919 202
59.2793 206
59.29942 207
59.31953 217
59.33964 206
59.35976 233
59.37987 225
59.39998 222
59.4201 239
59.44021 204
59.46033 248
59.48044 224
59.50055 255
59.52067 268
59.54078 259
59.56089 295
59.58101 292
59.60112 306
59.62124 322
59.64135 318
59.66146 395
59.68158 386
59.70169 422
59.7218 490
59.74192 574
59.76203 616
59.78215 714
59.80226 782
59.82237 986
59.84249 1152
59.8626 1275
59.88271 1461
59.90283 1449
59.92294 1436
59.94305 1268
59.96317 1070
59.98328 934
60.0034 836
60.02351 820
60.04362 827
60.06374 864
60.08385 766
60.10396 667
60.12408 577
60.14419 421
60.16431 416
60.18442 324
60.20453 306
60.22465 282
60.24476 256
60.26487 237
60.28499 264
60.3051 231
60.32522 235
60.34533 255
60.36544 238
60.38556 221
60.40567 237
60.42578 225
60.4459 215
60.46601 199
60.48612 227
60.50624 201
60.52635 213
60.54647 196
60.56658 243
60.58669 219
60.60681 210
60.62692 188
60.64703 213
60.66715 196
60.68726 183
60.70738 211
60.72749 189
60.7476 184
60.76772 208
60.78783 205
60.80794 206
60.82806 208
60.84817 213
60.86828 188
60.8884 190
60.90851 187
60.92863 216
60.94874 215
60.96885 209
60.98897 209
61.00908 233
61.02919 239
61.04931 286
61.06942 236
61.08954 255
61.10965 255
61.12976 263
61.14988 234
61.16999 259
61.1901 253
61.21022 233
61.23033 249
61.25045 232
61.27056 232
61.29067 249
61.31079 204
61.3309 223
61.35101 180
61.37113 231
61.39124 205
61.41135 207
61.43147 226
61.45158 205
61.4717 216
61.49181 244
61.51192 205
61.53204 220
61.55215 216
61.57226 225
61.59238 245
61.61249 226
61.63261 218
61.65272 232
61.67283 217
61.69295 225
61.71306 223
61.73317 237
61.75329 214
61.7734 230
61.79352 220
61.81363 240
61.83374 212
61.85386 201
61.87397 227
61.89408 252
61.9142 230
61.93431 215
61.95442 198
61.97454 241
61.99465 236
62.01477 229
62.03488 233
62.05499 247
62.07511 231
62.09522 229
62.11533 244
62.13545 220
62.15556 222
62.17568 256
62.19579 200
62.2159 235
62.23602 238
62.25613 226
62.27624 198
62.29636 230
62.31647 245
62.33659 237
62.3567 237
62.37681 208
62.39693 263
62.41704 193
62.43715 226
62.45727 227
62.47738 201
62.49749 238
62.51761 238
62.53772 242
62.55784 220
62.57795 257
62.59806 219
62.61818 209
62.63829 229
62.6584 201
62.67852 204
62.69863 194
62.71875 219
62.73886 212
62.75897 212
62.77909 227
62.7992 220
62.81931 205
62.83943 223
62.85954 219
62.87965 233
62.89977 228
62.91988 255
62.94 202
62.96011 241
62.98022 235
63.00034 252
63.02045 247
63.04056 218
63.06068 262
63.08079 261
63.10091 225
63.12102 239
63.14113 257
63.16125 219
63.18136 235
63.20147 245
63.22159 236
63.2417 258
63.26182 224
63.28193 205
63.30204 218
63.32216 223
63.34227 217
63.36238 228
63.3825 214
63.40261 229
63.42272 214
63.44284 218
63.46295 204
63.48307 191
63.50318 207
63.52329 249
63.54341 212
63.56352 227
63.58363 238
63.60375 233
63.62386 258
63.64398 226
63.66409 250
63.6842 278
63.70432 288
63.72443 306
63.74454 295
63.76466 301
63.78477 325
63.80489 320
63.825 345
63.84511 321
63.86523 359
63.88534 376
63.90545 419
63.92557 449
63.94568 474
63.96579 463
63.98591 496
64.00602 496
64.02614 392
64.04625 403
64.06636 366
64.08648 325
64.10659 331
64.1267 337
64.14682 349
64.16693 350
64.18705 311
64.20716 286
64.22727 258
64.24739 218
64.2675 226
64.28761 202
64.30773 204
64.32784 209
64.34796 198
64.36807 208
64.38818 193
64.4083 169
64.42841 205
64.44852 187
64.46864 184
64.48875 167
64.50886 145
64.52898 175
64.54909 158
64.56921 146
64.58932 187
64.60943 181
64.62955 166
64.64966 179
64.66977 201
64.68989 181
64.71 206
64.73012 180
64.75023 190
64.77034 166
64.79046 204
64.81057 201
64.83068 157
64.8508 201
64.87091 188
64.89102 208
64.91114 208
64.93125 212
64.95137 214
64.97148 200
64.99159 227
65.01171 219
65.03182 180
65.05193 217
65.07205 230
65.09216 247
65.11228 222
65.13239 268
65.1525 248
65.17262 207
65.19273 218
65.21284 241
65.23296 223
65.25307 240
65.27319 219
65.2933 268
65.31341 266
65.33353 273
65.35364 273
65.37375 247
65.39387 226
65.41398 224
65.43409 249
65.45421 217
65.47432 228
65.49444 217
65.51455 207
65.53466 224
65.55478 199
65.57489 226
65.595 252
65.61512 215
65.63523 217
65.65535 230
65.67546 224
65.69557 233
65.71569 244
65.7358 265
65.75591 246
65.77603 202
65.79614 222
65.81626 196
65.83637 222
65.85648 205
65.8766 212
65.89671 217
65.91682 200
65.93694 200
65.95705 216
65.97716 196
65.99728 197
66.01739 184
66.03751 199
66.05762 195
66.07773 200
66.09785 176
66.11796 201
66.13807 210
66.15819 222
66.1783 208
66.19842 229
66.21853 216
66.23864 237
66.25876 225
66.27887 224
66.29898 253
66.3191 250
66.33921 218
66.35933 230
66.37944 222
66.39955 224
66.41967 213
66.43978 213
66.45989 201
66.48001 216
66.50012 198
66.52023 213
66.54035 207
66.56046 201
66.58058 204
66.60069 193
66.6208 219
66.64092 187
66.66103 194
66.68114 232
66.70126 203
66.72137 207
66.74149 201
66.7616 189
66.78171 187
66.80183 219
66.82194 211
66.84205 212
66.86217 226
66.88228 227
66.90239 220
66.92251 220
66.94262 207
66.96274 218
66.98285 220
67.00296 212
67.02308 221
67.04319 217
67.0633 215
67.08342 219
67.10353 212
67.12365 208
67.14376 217
67.16387 217
67.18399 217
67.2041 218
67.22421 213
67.24433 214
67.26444 218
67.28456 235
67.30467 250
67.32478 251
67.3449 262
67.36501 259
67.38512 268
67.40524 286
67.42535 289
67.44546 288
67.46558 326
67.48569 361
67.50581 367
67.52592 474
67.54603 465
67.56615 517
67.58626 604
67.60637 685
67.62649 730
67.6466 884
67.66672 952
67.68683 996
67.70694 978
67.72706 871
67.74717 753
67.76728 661
67.7874 621
67.80751 640
67.82763 674
67.84774 654
67.86785 736
67.88797 778
67.90808 791
67.92819 735
67.94831 718
67.96842 719
67.98853 785
68.00865 893
68.02876 992
68.04888 1122
68.06899 1155
68.0891 1281
68.10922 1225
68.12933 1200
68.14944 1060
68.16956 1001
68.18967 999
68.20979 1062
68.2299 1079
68.25001 1111
68.27013 1203
68.29024 1103
68.31035 958
68.33047 817
68.35058 671
68.3707 636
68.39081 589
68.41092 522
68.43104 533
68.45115 499
68.47126 461
68.49138 424
68.51149 376
68.5316 302
68.55172 303
68.57183 267
68.59195 270
68.61206 230
68.63217 258
68.65229 229
68.6724 246
68.69251 209
68.71263 246
68.73274 236
68.75286 229
68.77297 229
68.79308 209
68.8132 224
68.83331 208
68.85342 223
68.87354 231
68.89365 209
68.91376 236
68.93388 191
68.95399 201
68.97411 227
68.99422 178
69.01433 217
69.03445 192
69.05456 197
69.07467 184
69.09479 194
69.1149 204
69.13502 214
69.15513 219
69.17524 178
69.19536 212
69.21547 219
69.23558 203
69.2557 198
69.27581 189
69.29593 231
69.31604 219
69.33615 181
69.35627 208
69.37638 204
69.39649 213
69.41661 191
69.43672 203
69.45683 191
69.47695 179
69.49706 193
69.51718 205
69.53729 165
69.5574 191
69.57752 191
69.59763 192
69.61774 202
69.63786 191
69.65797 200
69.67809 204
69.6982 194
69.71831 196
69.73843 201
69.75854 199
69.77865 173
69.79877 217
69.81888 181
69.839 187
69.85911 205
69.87922 193
69.89934 189
69.91945 182
69.93956 200
69.95968 189
69.97979 194
69.9999 176
70.02002 195
70.04013 195
70.06025 178
70.08036 213
70.10047 201
70.12059 182
70.1407 163
70.16081 187
70.18093 184
70.20104 206
70.22116 180
70.24127 174
70.26138 185
70.2815 176
70.30161 192
70.32172 172
70.34184 162
70.36195 192
70.38207 180
70.40218 155
70.42229 180
70.44241 170
70.46252 163
70.48263 161
70.50275 168
70.52286 196
70.54297 179
70.56309 210
70.5832 179
70.60332 204
70.62343 202
70.64354 205
70.66366 200
70.68377 203
70.70388 176
70.724 194
70.74411 192
70.76423 197
70.78434 204
70.80445 191
70.82457 201
70.84468 202
70.86479 203
70.88491 207
70.90502 200
70.92513 203
70.94525 178
70.96536 164
70.98548 212
71.00559 211
71.0257 190
71.04582 167
71.06593 185
71.08604 179
71.10616 174
71.12627 181
71.14639 193
71.1665 177
71.18661 196
71.20673 195
71.22684 183
71.24695 184
71.26707 184
71.28718 195
71.3073 187
71.32741 205
71.34752 197
71.36764 206
71.38775 185
71.40786 216
71.42798 186
71.44809 196
71.4682 202
71.48832 197
71.50843 186
71.52855 199
71.54866 197
71.56877 201
71.58889 200
71.609 195
71.62911 192
71.64923 188
71.66934 202
71.68946 189
71.70957 193
71.72968 193
71.7498 180
71.76991 204
71.79002 177
71.81014 187
71.83025 197
71.85037 205
71.87048 196
71.89059 211
71.91071 180
71.93082 179
71.95093 168
71.97105 195
71.99116 228
72.01127 206
72.03139 194
72.0515 243
72.07162 201
72.09173 211
72.11184 215
72.13196 200
72.15207 210
72.17218 201
72.1923 215
72.21241 195
72.23253 222
72.25264 228
72.27275 220
72.29287 214
72.31298 199
72.33309 219
72.35321 197
72.37332 199
72.39344 200
72.41355 185
72.43366 188
72.45378 160
72.47389 212
72.494 181
72.51412 171
72.53423 165
72.55434 210
72.57446 188
72.59457 190
72.61469 194
72.6348 183
72.65491 184
72.67503 175
72.69514 178
72.71525 179
72.73537 194
72.75548 169
72.7756 202
72.79571 174
72.81582 189
72.83594 186
72.85605 194
72.87616 206
72.89628 193
72.91639 183
72.9365 208
72.95662 195
72.97673 216
72.99685 237
73.01696 222
73.03707 236
73.05719 262
73.0773 228
73.09741 226
73.11753 237
73.13764 240
73.15776 248
73.17787 236
73.19798 259
73.2181 274
73.23821 247
73.25832 297
73.27844 323
73.29855 337
73.31867 373
73.33878 432
73.35889 408
73.37901 424
73.39912 470
73.41923 440
73.43935 440
73.45946 410
73.47957 370
73.49969 298
73.5198 308
73.53992 298
73.56003 305
73.58014 299
73.60026 322
73.62037 352
73.64048 319
73.6606 331
73.68071 297
73.70083 269
73.72094 231
73.74105 204
73.76117 215
73.78128 198
73.80139 238
73.82151 209
73.84162 208
73.86174 199
73.88185 219
73.90196 206
73.92208 237
73.94219 216
73.9623 178
73.98242 210
74.00253 206
74.02264 191
74.04276 190
74.06287 209
74.08299 204
74.1031 177
74.12321 212
74.14333 178
74.16344 215
74.18355 202
74.20367 162
74.22378 175
74.2439 163
74.26401 198
74.28412 192
74.30424 200
74.32435 199
74.34446 206
74.36458 184
74.38469 226
74.40481 195
74.42492 170
74.44503 217
74.46515 209
74.48526 214
74.50537 212
74.52549 176
74.5456 205
74.56571 189
74.58583 201
74.60594 213
74.62606 209
74.64617 215
74.66628 175
74.6864 199
74.70651 209
74.72662 220
74.74674 205
74.76685 215
74.78697 191
74.80708 193
74.82719 195
74.84731 214
74.86742 235
74.88753 217
74.90765 206
74.92776 195
74.94787 224
74.96799 200
74.9881 214
75.00822 205
