3.00117 22927
3.02128 23038
3.0414 22323
3.06151 21598
3.08162 21279
3.10174 20161
3.12185 19955
3.14197 19304
3.16208 18879
3.18219 18389
3.20231 17345
3.22242 17421
3.24253 16683
3.26265 16303
3.28276 15764
3.30288 15079
3.32299 15033
3.3431 14640
3.36322 13921
3.38333 13447
3.40344 12797
3.42356 12886
3.44367 12096
3.46379 11923
3.4839 11300
3.50401 11069
3.52413 10695
3.54424 10381
3.56435 10053
3.58447 9203
3.60458 9222
3.62469 8971
3.64481 8581
3.66492 8454
3.68504 7853
3.70515 7520
3.72526 7541
3.74538 6891
3.76549 6880
3.7856 6455
3.80572 6299
3.82583 6156
3.84595 5733
3.86606 5595
3.88617 5280
3.90629 5057
3.9264 5121
3.94651 4822
3.96663 4691
3.98674 4451
4.00686 4162
4.02697 4126
4.04708 3891
4.0672 3671
4.08731 3588
4.10742 3386
4.12754 3397
4.14765 3147
4.16776 2986
4.18788 2899
4.20799 2796
4.22811 2782
4.24822 2697
4.26833 2602
4.28845 2433
4.30856 2386
4.32867 2332
4.34879 2372
4.3689 2143
4.38902 2136
4.40913 2079
4.42924 2242
4.44936 2143
4.46947 1901
4.48958 2052
4.5097 1945
4.52981 1971
4.54992 1934
4.57004 1735
4.59015 1753
4.61027 1769
4.63038 1683
4.65049 1771
4.67061 1606
4.69072 1610
4.71083 1563
4.73095 1526
4.75106 1579
4.77118 1557
4.79129 1546
4.8114 1439
4.83152 1446
4.85163 1490
4.87174 1447
4.89186 1372
4.91197 1381
4.93209 1325
4.9522 1379
4.97231 1323
4.99243 1344
5.01254 1280
5.03265 1264
5.05277 1264
5.07288 1238
5.09299 1233
5.11311 1207
5.13322 1123
5.15334 1166
5.17345 1125
5.19356 1123
5.21368 1077
5.23379 1061
5.2539 1084
5.27402 967
5.29413 1090
5.31425 1034
5.33436 1093
5.35447 989
5.37459 954
5.3947 996
5.41481 997
5.43493 993
5.45504 952
5.47516 939
5.49527 961
5.51538 919
5.5355 939
5.55561 980
5.57572 909
5.59584 879
5.61595 896
5.63606 923
5.65618 911
5.67629 858
5.69641 889
5.71652 884
5.73663 887
5.75675 909
5.77686 846
5.79697 809
5.81709 881
5.8372 823
5.85732 826
5.87743 916
5.89754 858
5.91766 779
5.93777 916
5.95788 842
5.978 823
5.99811 787
6.01823 843
6.03834 839
6.05845 812
6.07857 859
6.09868 870
6.11879 774
6.13891 804
6.15902 810
6.17913 830
6.19925 835
6.21936 829
6.23948 799
6.25959 866
6.2797 778
6.29982 753
6.31993 803
6.34004 812
6.36016 781
6.38027 835
6.40039 824
6.4205 818
6.44061 816
6.46073 764
6.48084 819
6.50095 827
6.52107 842
6.54118 767
6.56129 791
6.58141 803
6.60152 788
6.62164 772
6.64175 812
6.66186 817
6.68198 788
6.70209 821
6.7222 790
6.74232 823
6.76243 727
6.78255 806
6.80266 751
6.82277 731
6.84289 777
6.863 794
6.88311 763
6.90323 803
6.92334 818
6.94346 806
6.96357 841
6.98368 768
7.0038 818
7.02391 825
7.04402 805
7.06414 738
7.08425 782
7.10436 728
7.12448 773
7.14459 754
7.16471 788
7.18482 775
7.20493 825
7.22505 701
7.24516 795
7.26527 721
7.28539 818
7.3055 753
7.32562 755
7.34573 821
7.36584 850
7.38596 801
7.40607 778
7.42618 819
7.4463 772
7.46641 736
7.48653 758
7.50664 791
7.52675 798
7.54687 796
7.56698 812
7.58709 764
7.60721 819
7.62732 809
7.64743 790
7.66755 768
7.68766 813
7.70778 762
7.72789 770
7.748 755
7.76812 773
7.78823 787
7.80834 793
7.82846 797
7.84857 812
7.86869 762
7.8888 837
7.90891 742
7.92903 811
7.94914 800
7.96925 768
7.98937 783
8.00948 828
8.0296 776
8.04971 756
8.06982 805
8.08994 789
8.11005 811
8.13016 797
8.15028 746
8.17039 773
8.1905 760
8.21062 841
8.23073 797
8.25085 817
8.27096 815
8.29107 773
8.31119 829
8.3313 799
8.35141 755
8.37153 774
8.39164 766
8.41176 796
8.43187 852
8.45198 823
8.4721 732
8.49221 828
8.51232 784
8.53244 821
8.55255 820
8.57266 810
8.59278 789
8.61289 750
8.63301 820
8.65312 735
8.67323 801
8.69335 789
8.71346 748
8.73357 811
8.75369 763
8.7738 843
8.79392 749
8.81403 821
8.83414 795
8.85426 779
8.87437 776
8.89448 745
8.9146 802
8.93471 741
8.95483 811
8.97494 775
8.99505 831
9.01517 851
9.03528 790
9.05539 742
9.07551 782
9.09562 776
9.11573 795
9.13585 767
9.15596 795
9.17608 724
9.19619 771
9.2163 789
9.23642 770
9.25653 768
9.27664 816
9.29676 770
9.31687 777
9.33699 769
9.3571 737
9.37721 765
9.39733 795
9.41744 808
9.43755 800
9.45767 773
9.47778 830
9.4979 805
9.51801 842
9.53812 726
9.55824 808
9.57835 803
9.59846 830
9.61858 782
9.63869 824
9.6588 753
9.67892 807
9.69903 815
9.71915 776
9.73926 817
9.75937 753
9.77949 766
9.7996 810
9.81971 769
9.83983 810
9.85994 792
9.88006 781
9.90017 726
9.92028 730
9.9404 807
9.96051 792
9.98062 764
10.00074 793
10.02085 808
10.04097 842
10.06108 795
10.08119 748
10.10131 765
10.12142 760
10.14153 841
10.16165 787
10.18176 749
10.20187 796
10.22199 725
10.2421 790
10.26222 772
10.28233 829
10.30244 789
10.32256 792
10.34267 795
10.36278 759
10.3829 878
10.40301 778
10.42313 835
10.44324 819
10.46335 794
10.48347 818
10.50358 794
10.52369 793
10.54381 776
10.56392 836
10.58403 855
10.60415 799
10.62426 829
10.64438 808
10.66449 785
10.6846 824
10.70472 811
10.72483 837
10.74494 779
10.76506 849
10.78517 795
10.80529 814
10.8254 759
10.84551 823
10.86563 774
10.88574 846
10.90585 806
10.92597 809
10.94608 818
10.9662 805
10.98631 821
11.00642 872
11.02654 826
11.04665 854
11.06676 820
11.08688 807
11.10699 821
11.1271 830
11.14722 834
11.16733 765
11.18745 769
11.20756 864
11.22767 831
11.24779 813
11.2679 778
11.28801 818
11.30813 832
11.32824 794
11.34836 845
11.36847 856
11.38858 875
11.4087 847
11.42881 778
11.44892 840
11.46904 794
11.48915 785
11.50927 830
11.52938 817
11.54949 836
11.56961 854
11.58972 835
11.60983 786
11.62995 785
11.65006 861
11.67017 840
11.69029 870
11.7104 808
11.73052 836
11.75063 866
11.77074 853
11.79086 845
11.81097 848
11.83108 810
11.8512 871
11.87131 856
11.89143 904
11.91154 896
11.93165 840
11.95177 859
11.97188 862
11.99199 909
12.01211 939
12.03222 920
12.05234 908
12.07245 947
12.09256 931
12.11268 916
12.13279 979
12.1529 996
12.17302 958
12.19313 987
12.21324 926
12.23336 998
12.25347 1036
12.27359 1011
12.2937 995
12.31381 1088
12.33393 1090
12.35404 1081
12.37415 1066
12.39427 1018
12.41438 1004
12.4345 1001
12.45461 965
12.47472 968
12.49484 887
12.51495 881
12.53506 931
12.55518 962
12.57529 908
12.5954 863
12.61552 839
12.63563 873
12.65575 830
12.67586 858
12.69597 776
12.71609 906
12.7362 857
12.75631 789
12.77643 848
12.79654 817
12.81666 848
12.83677 772
12.85688 860
12.877 832
12.89711 799
12.91722 862
12.93734 811
12.95745 798
12.97757 793
12.99768 826
13.01779 816
13.03791 765
13.05802 809
13.07813 798
13.09825 794
13.11836 769
13.13847 827
13.15859 843
13.1787 775
13.19882 785
13.21893 814
13.23904 773
13.25916 773
13.27927 802
13.29938 812
13.3195 837
13.33961 764
13.35973 860
13.37984 819
13.39995 836
13.42007 784
13.44018 768
13.46029 798
13.48041 815
13.50052 764
13.52064 837
13.54075 832
13.56086 819
13.58098 805
13.60109 842
13.6212 770
13.64132 760
13.66143 776
13.68154 753
13.70166 771
13.72177 783
13.74189 853
13.762 798
13.78211 830
13.80223 795
13.82234 817
13.84245 766
13.86257 775
13.88268 774
13.9028 772
13.92291 798
13.94302 770
13.96314 753
13.98325 769
14.00336 831
14.02348 796
14.04359 776
14.06371 821
14.08382 779
14.10393 810
14.12405 811
14.14416 831
14.16427 776
14.18439 769
14.2045 823
14.22461 806
14.24473 771
14.26484 743
14.28496 790
14.30507 789
14.32518 810
14.3453 755
14.36541 798
14.38552 814
14.40564 758
14.42575 797
14.44587 779
14.46598 799
14.48609 804
14.50621 747
14.52632 789
14.54643 777
14.56655 767
14.58666 770
14.60677 850
14.62689 762
14.647 795
14.66712 814
14.68723 819
14.70734 812
14.72746 831
14.74757 733
14.76768 813
14.7878 760
14.80791 825
14.82803 788
14.84814 812
14.86825 764
14.88837 826
14.90848 851
14.92859 775
14.94871 784
14.96882 769
14.98894 800
15.00905 771
15.02916 781
15.04928 802
15.06939 842
15.0895 756
15.10962 829
15.12973 722
15.14984 833
15.16996 819
15.19007 810
15.21019 852
15.2303 768
15.25041 821
15.27053 812
15.29064 756
15.31075 807
15.33087 791
15.35098 822
15.3711 777
15.39121 766
15.41132 785
15.43144 795
15.45155 838
15.47166 841
15.49178 780
15.51189 812
15.53201 776
15.55212 821
15.57223 773
15.59235 793
15.61246 794
15.63257 783
15.65269 790
15.6728 762
15.69291 791
15.71303 760
15.73314 779
15.75326 765
15.77337 784
15.79348 760
15.8136 796
15.83371 751
15.85382 764
15.87394 727
15.89405 790
15.91417 810
15.93428 807
15.95439 817
15.97451 798
15.99462 808
16.01473 825
16.03485 783
16.05496 793
16.07508 776
16.09519 829
16.1153 811
16.13542 791
16.15553 785
16.17564 813
16.19576 782
16.21587 752
16.23598 768
16.2561 799
16.27621 798
16.29633 814
16.31644 809
16.33655 799
16.35667 764
16.37678 762
16.39689 834
16.41701 783
16.43712 756
16.45724 799
16.47735 770
16.49746 789
16.51758 752
16.53769 817
16.5578 806
16.57792 777
16.59803 783
16.61814 846
16.63826 811
16.65837 827
16.67849 808
16.6986 776
16.71871 814
16.73883 828
16.75894 801
16.77905 802
16.79917 777
16.81928 774
16.8394 806
16.85951 754
16.87962 796
16.89974 759
16.91985 766
16.93996 733
16.96008 812
16.98019 777
17.00031 838
17.02042 807
17.04053 827
17.06065 816
17.08076 730
17.10087 771
17.12099 812
17.1411 849
17.16121 827
17.18133 796
17.20144 826
17.22156 775
17.24167 859
17.26178 756
17.2819 780
17.30201 803
17.32212 836
17.34224 742
17.36235 776
17.38247 771
17.40258 784
17.42269 817
17.44281 845
17.46292 785
17.48303 808
17.50315 739
17.52326 783
17.54338 732
17.56349 751
17.5836 820
17.60372 801
17.62383 779
17.64394 780
17.66406 788
17.68417 834
17.70428 777
17.7244 799
17.74451 777
17.76463 782
17.78474 836
17.80485 829
17.82497 804
17.84508 770
17.86519 773
17.88531 809
17.90542 762
17.92554 847
17.94565 799
17.96576 818
17.98588 797
18.00599 826
18.0261 835
18.04622 780
18.06633 792
18.08645 790
18.10656 786
18.12667 800
18.14679 845
18.1669 801
18.18701 824
18.20713 805
18.22724 804
18.24735 755
18.26747 796
18.28758 829
18.3077 845
18.32781 798
18.34792 793
18.36804 847
18.38815 802
18.40826 815
18.42838 844
18.44849 817
18.46861 798
18.48872 857
18.50883 813
18.52895 827
18.54906 785
18.56917 766
18.58929 756
18.6094 844
18.62951 825
18.64963 792
18.66974 814
18.68986 813
18.70997 832
18.73008 785
18.7502 787
18.77031 792
18.79042 781
18.81054 816
18.83065 788
18.85077 816
18.87088 817
18.89099 828
18.91111 895
18.93122 780
18.95133 870
18.97145 806
18.99156 818
19.01168 766
19.03179 796
19.0519 791
19.07202 820
19.09213 808
19.11224 819
19.13236 779
19.15247 814
19.17258 827
19.1927 838
19.21281 807
19.23293 803
19.25304 795
19.27315 863
19.29327 796
19.31338 867
19.33349 853
19.35361 833
19.37372 863
19.39384 865
19.41395 860
19.43406 843
19.45418 843
19.47429 848
19.4944 899
19.51452 828
19.53463 857
19.55475 835
19.57486 875
19.59497 824
19.61509 925
19.6352 958
19.65531 897
19.67543 941
19.69554 907
19.71565 972
19.73577 967
19.75588 980
19.776 998
19.79611 970
19.81622 1090
19.83634 1091
19.85645 1025
19.87656 1055
19.89668 1087
19.91679 1072
19.93691 1086
19.95702 1003
19.97713 1068
19.99725 1052
20.01736 1032
20.03747 1020
20.05759 1049
20.0777 1016
20.09782 1053
20.11793 1011
20.13804 1053
20.15816 1022
20.17827 1007
20.19838 1049
20.2185 1028
20.23861 991
20.25872 1006
20.27884 1069
20.29895 1056
20.31907 993
20.33918 1038
20.35929 1028
20.37941 1112
20.39952 1029
20.41963 1026
20.43975 1004
20.45986 956
20.47998 1045
20.50009 966
20.5202 1013
20.54032 994
20.56043 1026
20.58054 1012
20.60066 984
20.62077 1018
20.64088 1023
20.661 1054
20.68111 1047
20.70123 1096
20.72134 1124
20.74145 1214
20.76157 1306
20.78168 1295
20.80179 1453
20.82191 1479
20.84202 1380
20.86214 1383
20.88225 1373
20.90236 1206
20.92248 1161
20.94259 1099
20.9627 1045
20.98282 1067
21.00293 1039
21.02305 958
21.04316 1092
21.06327 969
21.08339 999
21.1035 1018
21.12361 1013
21.14373 994
21.16384 932
21.18395 1025
21.20407 1010
21.22418 1060
21.2443 997
21.26441 1021
21.28452 952
21.30464 1067
21.32475 1010
21.34486 1049
21.36498 986
21.38509 1011
21.40521 1004
21.42532 917
21.44543 1055
21.46555 996
21.48566 1038
21.50577 967
21.52589 918
21.546 941
21.56612 989
21.58623 935
21.60634 953
21.62646 963
21.64657 918
21.66668 930
21.6868 1000
21.70691 969
21.72702 1023
21.74714 953
21.76725 957
21.78737 916
21.80748 936
21.82759 917
21.84771 935
21.86782 914
21.88793 926
21.90805 945
21.92816 949
21.94828 942
21.96839 958
21.9885 891
22.00862 953
22.02873 952
22.04884 879
22.06896 890
22.08907 913
22.10919 972
22.1293 888
22.14941 904
22.16953 928
22.18964 876
22.20975 927
22.22987 897
22.24998 888
22.27009 938
22.29021 894
22.31032 836
22.33044 881
22.35055 925
22.37066 913
22.39078 943
22.41089 938
22.431 866
22.45112 845
22.47123 872
22.49135 858
22.51146 926
22.53157 900
22.55169 840
22.5718 901
22.59191 855
22.61203 905
22.63214 857
22.65225 874
22.67237 962
22.69248 902
22.7126 916
22.73271 907
22.75282 904
22.77294 880
22.79305 873
22.81316 965
22.83328 882
22.85339 886
22.87351 946
22.89362 856
22.91373 858
22.93385 891
22.95396 876
22.97407 880
22.99419 836
23.0143 862
23.03442 913
23.05453 861
23.07464 919
23.09476 939
23.11487 902
23.13498 823
23.1551 929
23.17521 895
23.19532 878
23.21544 970
23.23555 896
23.25567 861
23.27578 929
23.29589 905
23.31601 902
23.33612 869
23.35623 890
23.37635 868
23.39646 915
23.41658 879
23.43669 861
23.4568 971
23.47692 873
23.49703 949
23.51714 920
23.53726 919
23.55737 922
23.57749 897
23.5976 871
23.61771 901
23.63783 862
23.65794 870
23.67805 939
23.69817 873
23.71828 905
23.73839 926
23.75851 974
23.77862 972
23.79874 917
23.81885 937
23.83896 966
23.85908 983
23.87919 945
23.8993 948
23.91942 1013
23.93953 978
23.95965 1011
23.97976 1004
23.99987 1012
24.01999 1033
24.0401 1021
24.06021 1114
24.08033 1130
24.10044 1100
24.12056 1123
24.14067 1145
24.16078 1112
24.1809 1128
24.20101 1129
24.22112 1094
24.24124 1109
24.26135 1031
24.28146 1105
24.30158 1029
24.32169 1032
24.34181 996
24.36192 1022
24.38203 1038
24.40215 983
24.42226 1028
24.44237 1029
24.46249 1021
24.4826 1020
24.50272 1010
24.52283 998
24.54294 976
24.56306 984
24.58317 1008
24.60328 973
24.6234 996
24.64351 1021
24.66362 1002
24.68374 970
24.70385 984
24.72397 982
24.74408 1019
24.76419 1024
24.78431 1104
24.80442 1053
24.82453 1139
24.84465 1116
24.86476 1070
24.88488 1078
24.90499 1100
24.9251 1113
24.94522 1040
24.96533 1058
24.98544 1081
25.00556 977
25.02567 1029
25.04579 963
25.0659 942
25.08601 966
25.10613 1015
25.12624 1000
25.14635 1049
25.16647 972
25.18658 970
25.20669 940
25.22681 988
25.24692 1009
25.26704 984
25.28715 1004
25.30726 996
25.32738 942
25.34749 918
25.3676 859
25.38772 907
25.40783 959
25.42795 961
25.44806 905
25.46817 865
25.48829 914
25.5084 926
25.52851 922
25.54863 857
25.56874 912
25.58886 914
25.60897 941
25.62908 941
25.6492 896
25.66931 881
25.68942 861
25.70954 882
25.72965 897
25.74976 943
25.76988 976
25.78999 949
25.81011 921
25.83022 932
25.85033 885
25.87045 917
25.89056 922
25.91067 931
25.93079 883
25.9509 917
25.97102 904
25.99113 899
26.01124 993
26.03136 928
26.05147 890
26.07158 968
26.0917 891
26.11181 951
26.13193 896
26.15204 946
26.17215 909
26.19227 935
26.21238 944
26.23249 931
26.25261 906
26.27272 973
26.29283 954
26.31295 960
26.33306 972
26.35318 1008
26.37329 981
26.3934 1045
26.41352 1053
26.43363 1154
26.45374 1262
26.47386 1418
26.49397 1611
26.51409 1905
26.5342 2354
26.55431 2671
26.57443 3160
26.59454 3318
26.61465 3325
26.63477 3081
26.65488 2733
26.67499 2295
26.69511 1878
26.71522 1553
26.73534 1306
26.75545 1175
26.77556 1046
26.79568 971
26.81579 1008
26.8359 966
26.85602 1029
26.87613 1009
26.89625 958
26.91636 938
26.93647 874
26.95659 925
26.9767 920
26.99681 894
27.01693 853
27.03704 883
27.05716 891
27.07727 910
27.09738 852
27.1175 900
27.13761 847
27.15772 919
27.17784 877
27.19795 923
27.21806 895
27.23818 910
27.25829 853
27.27841 852
27.29852 872
27.31863 867
27.33875 909
27.35886 948
27.37897 917
27.39909 926
27.4192 884
27.43932 930
27.45943 908
27.47954 933
27.49966 923
27.51977 930
27.53988 824
27.56 914
27.58011 875
27.60023 862
27.62034 880
27.64045 885
27.66057 882
27.68068 885
27.70079 881
27.72091 888
27.74102 902
27.76113 865
27.78125 818
27.80136 910
27.82148 878
27.84159 896
27.8617 877
27.88182 876
27.90193 880
27.92204 847
27.94216 887
27.96227 912
27.98239 933
28.0025 869
28.02261 848
28.04273 869
28.06284 878
28.08295 872
28.10307 841
28.12318 872
28.1433 871
28.16341 900
28.18352 848
28.20364 846
28.22375 877
28.24386 854
28.26398 871
28.28409 874
28.3042 892
28.32432 869
28.34443 877
28.36455 873
28.38466 882
28.40477 857
28.42489 874
28.445 862
28.46511 855
28.48523 823
28.50534 859
28.52546 857
28.54557 947
28.56568 896
28.5858 853
28.60591 845
28.62602 885
28.64614 882
28.66625 891
28.68636 855
28.70648 851
28.72659 848
28.74671 872
28.76682 826
28.78693 882
28.80705 881
28.82716 870
28.84727 842
28.86739 874
28.8875 863
28.90762 829
28.92773 876
28.94784 861
28.96796 832
28.98807 833
29.00818 892
29.0283 847
29.04841 908
29.06853 859
29.08864 841
29.10875 843
29.12887 769
29.14898 800
29.16909 859
29.18921 854
29.20932 822
29.22943 895
29.24955 893
29.26966 842
29.28978 905
29.30989 907
29.33 885
29.35012 919
29.37023 854
29.39034 837
29.41046 851
29.43057 887
29.45069 852
29.4708 866
29.49091 865
29.51103 859
29.53114 802
29.55125 881
29.57137 864
29.59148 891
29.6116 854
29.63171 910
29.65182 851
29.67194 853
29.69205 917
29.71216 878
29.73228 875
29.75239 855
29.7725 882
29.79262 866
29.81273 863
29.83285 873
29.85296 860
29.87307 861
29.89319 889
29.9133 883
29.93341 876
29.95353 878
29.97364 903
29.99376 899
30.01387 892
30.03398 878
30.0541 882
30.07421 902
30.09432 832
30.11444 866
30.13455 904
30.15467 933
30.17478 886
30.19489 961
30.21501 934
30.23512 922
30.25523 908
30.27535 891
30.29546 934
30.31557 978
30.33569 934
30.3558 958
30.37592 940
30.39603 876
30.41614 892
30.43626 875
30.45637 943
30.47648 923
30.4966 912
30.51671 844
30.53683 902
30.55694 845
30.57705 891
30.59717 883
30.61728 897
30.63739 874
30.65751 887
30.67762 963
30.69773 828
30.71785 862
30.73796 850
30.75808 936
30.77819 875
30.7983 917
30.81842 866
30.83853 857
30.85864 905
30.87876 850
30.89887 865
30.91899 919
30.9391 871
30.95921 892
30.97933 876
30.99944 860
31.01955 810
31.03967 898
31.05978 865
31.0799 909
31.10001 846
31.12012 807
31.14024 856
31.16035 885
31.18046 826
31.20058 866
31.22069 837
31.2408 905
31.26092 802
31.28103 886
31.30115 856
31.32126 880
31.34137 886
31.36149 882
31.3816 891
31.40171 862
31.42183 847
31.44194 921
31.46206 870
31.48217 835
31.50228 827
31.5224 851
31.54251 833
31.56262 825
31.58274 831
31.60285 829
31.62297 863
31.64308 844
31.66319 874
31.68331 884
31.70342 908
31.72353 945
31.74365 888
31.76376 867
31.78387 897
31.80399 915
31.8241 848
31.84422 887
31.86433 884
31.88444 874
31.90456 906
31.92467 847
31.94478 872
31.9649 858
31.98501 923
32.00513 856
32.02524 923
32.04535 877
32.06547 882
32.08558 888
32.10569 914
32.12581 908
32.14592 944
32.16604 916
32.18615 905
32.20626 904
32.22638 834
32.24649 880
32.2666 882
32.28672 899
32.30683 864
32.32694 894
32.34706 935
32.36717 874
32.38729 906
32.4074 919
32.42751 931
32.44763 979
32.46774 969
32.48785 940
32.50797 885
32.52808 980
32.5482 974
32.56831 982
32.58842 953
32.60854 1028
32.62865 934
32.64876 1024
32.66888 995
32.68899 1024
32.7091 1051
32.72922 991
32.74933 1028
32.76945 991
32.78956 999
32.80967 1044
32.82979 1080
32.8499 1048
32.87001 1139
32.89013 1112
32.91024 1088
32.93036 1163
32.95047 1138
32.97058 1334
32.9907 1256
33.01081 1249
33.03092 1459
33.05104 1454
33.07115 1460
33.09127 1541
33.11138 1566
33.13149 1548
33.15161 1496
33.17172 1498
33.19183 1463
33.21195 1435
33.23206 1385
33.25217 1280
33.27229 1309
33.2924 1251
33.31252 1225
33.33263 1101
33.35274 1111
33.37286 1164
33.39297 1130
33.41308 1148
33.4332 1030
33.45331 1073
33.47343 1072
33.49354 1057
33.51365 974
33.53377 1055
33.55388 1044
33.57399 1030
33.59411 1041
33.61422 979
33.63434 1018
33.65445 988
33.67456 911
33.69468 931
33.71479 930
33.7349 944
33.75502 950
33.77513 892
33.79524 938
33.81536 969
33.83547 938
33.85559 954
33.8757 905
33.89581 916
33.91593 970
33.93604 918
33.95615 908
33.97627 966
33.99638 844
34.0165 881
34.03661 899
34.05672 896
34.07684 925
34.09695 925
34.11706 882
34.13718 839
34.15729 927
34.17741 892
34.19752 893
34.21763 927
34.23775 905
34.25786 917
34.27797 911
34.29809 895
34.3182 883
34.33831 898
34.35843 928
34.37854 905
34.39866 873
34.41877 900
34.43888 927
34.459 944
34.47911 849
34.49922 890
34.51934 894
34.53945 925
34.55957 959
34.57968 960
34.59979 990
34.61991 963
34.64002 955
34.66013 980
34.68025 946
34.70036 948
34.72047 1014
34.74059 968
34.7607 976
34.78082 980
34.80093 967
34.82104 1065
34.84116 967
34.86127 1047
34.88138 1086
34.9015 1011
34.92161 1062
34.94173 1038
34.96184 1073
34.98195 1045
35.00207 1016
35.02218 1062
35.04229 999
35.06241 982
35.08252 1113
35.10264 1049
35.12275 1013
35.14286 1064
35.16298 1105
35.18309 1011
35.2032 1018
35.22332 1028
35.24343 1074
35.26354 1059
35.28366 1086
35.30377 1122
35.32389 1162
35.344 1070
35.36411 1183
35.38423 1210
35.40434 1257
35.42445 1220
35.44457 1256
35.46468 1353
35.4848 1388
35.50491 1514
35.52502 1583
35.54514 1621
35.56525 1721
35.58536 1761
35.60548 1782
35.62559 1737
35.64571 1706
35.66582 1730
35.68593 1753
35.70605 1685
35.72616 1712
35.74627 1629
35.76639 1543
35.7865 1545
35.80661 1510
35.82673 1413
35.84684 1418
35.86696 1449
35.88707 1305
35.90718 1237
35.9273 1244
35.94741 1222
35.96752 1246
35.98764 1145
36.00775 1083
36.02787 1119
36.04798 1051
36.06809 1056
36.08821 1015
36.10832 1039
36.12843 1040
36.14855 1030
36.16866 1000
36.18878 1040
36.20889 997
36.229 975
36.24912 1050
36.26923 1002
36.28934 943
36.30946 961
36.32957 1009
36.34968 1000
36.3698 1017
36.38991 1032
36.41003 1033
36.43014 1022
36.45025 1152
36.47037 1074
36.49048 1116
36.51059 1084
36.53071 1073
36.55082 1095
36.57094 1029
36.59105 1058
36.61116 967
36.63128 975
36.65139 1013
36.6715 990
36.69162 950
36.71173 978
36.73184 918
36.75196 950
36.77207 991
36.79219 931
36.8123 923
36.83241 910
36.85253 959
36.87264 940
36.89275 956
36.91287 933
36.93298 921
36.9531 957
36.97321 959
36.99332 979
37.01344 970
37.03355 972
37.05366 991
37.07378 926
37.09389 959
37.11401 979
37.13412 884
37.15423 887
37.17435 933
37.19446 948
37.21457 914
37.23469 896
37.2548 918
37.27491 857
37.29503 947
37.31514 896
37.33526 913
37.35537 955
37.37548 925
37.3956 941
37.41571 947
37.43582 932
37.45594 937
37.47605 891
37.49617 934
37.51628 955
37.53639 936
37.55651 906
37.57662 925
37.59673 972
37.61685 959
37.63696 904
37.65708 891
37.67719 945
37.6973 934
37.71742 878
37.73753 897
37.75764 956
37.77776 962
37.79787 885
37.81798 909
37.8381 846
37.85821 896
37.87833 896
37.89844 964
37.91855 945
37.93867 991
37.95878 936
37.97889 885
37.99901 872
38.01912 868
38.03924 940
38.05935 944
38.07946 947
38.09958 915
38.11969 959
38.1398 947
38.15992 919
38.18003 927
38.20015 953
38.22026 978
38.24037 960
38.26049 931
38.2806 935
38.30071 984
38.32083 967
38.34094 928
38.36105 966
38.38117 985
38.40128 981
38.4214 1005
38.44151 963
38.46162 1002
38.48174 926
38.50185 1023
38.52196 977
38.54208 933
38.56219 897
38.58231 959
38.60242 928
38.62253 967
38.64265 894
38.66276 925
38.68287 938
38.70299 929
38.7231 953
38.74321 909
38.76333 851
38.78344 893
38.80356 924
38.82367 923
38.84378 882
38.8639 891
38.88401 876
38.90412 941
38.92424 924
38.94435 972
38.96447 900
38.98458 937
39.00469 909
39.02481 965
39.04492 944
39.06503 932
39.08515 951
39.10526 937
39.12538 919
39.14549 987
39.1656 926
39.18572 965
39.20583 961
39.22594 964
39.24606 961
39.26617 962
39.28628 950
39.3064 933
39.32651 974
39.34663 1014
39.36674 1074
39.38685 965
39.40697 1136
39.42708 1025
39.44719 1044
39.46731 972
39.48742 996
39.50754 945
39.52765 950
39.54776 925
39.56788 855
39.58799 909
39.6081 906
39.62822 881
39.64833 889
39.66845 875
39.68856 833
39.70867 910
39.72879 881
39.7489 882
39.76901 840
39.78913 899
39.80924 899
39.82935 936
39.84947 872
39.86958 836
39.8897 860
39.90981 849
39.92992 897
39.95004 905
39.97015 912
39.99026 907
40.01038 884
40.03049 856
40.05061 851
40.07072 855
40.09083 884
40.11095 892
40.13106 964
40.15117 913
40.17129 883
40.1914 970
40.21152 980
40.23163 949
40.25174 952
40.27186 961
40.29197 915
40.31208 965
40.3322 970
40.35231 899
40.37242 896
40.39254 917
40.41265 862
40.43277 880
40.45288 866
40.47299 874
40.49311 979
40.51322 971
40.53333 889
40.55345 897
40.57356 928
40.59368 925
40.61379 953
40.6339 942
40.65402 971
40.67413 974
40.69424 982
40.71436 984
40.73447 910
40.75458 990
40.7747 1027
40.79481 1020
40.81493 1087
40.83504 1064
40.85515 1081
40.87527 1096
40.89538 1023
40.91549 1057
40.93561 1103
40.95572 996
40.97584 995
40.99595 1061
41.01606 999
41.03618 1008
41.05629 971
41.0764 1010
41.09652 974
41.11663 1005
41.13675 948
41.15686 897
41.17697 922
41.19709 864
41.2172 878
41.23731 972
41.25743 932
41.27754 896
41.29765 906
41.31777 913
41.33788 954
41.358 915
41.37811 905
41.39822 912
41.41834 903
41.43845 891
41.45856 910
41.47868 870
41.49879 876
41.51891 911
41.53902 901
41.55913 934
41.57925 917
41.59936 865
41.61947 847
41.63959 850
41.6597 890
41.67982 881
41.69993 937
41.72004 872
41.74016 827
41.76027 892
41.78038 850
41.8005 874
41.82061 824
41.84072 819
41.86084 850
41.88095 875
41.90107 904
41.92118 852
41.94129 850
41.96141 825
41.98152 856
42.00163 862
42.02175 842
42.04186 855
42.06198 891
42.08209 914
42.1022 895
42.12232 900
42.14243 851
42.16254 865
42.18266 859
42.20277 848
42.22289 889
42.243 905
42.26311 885
42.28323 932
42.30334 897
42.32345 911
42.34357 946
42.36368 970
42.38379 954
42.40391 965
42.42402 862
42.44414 893
42.46425 914
42.48436 939
42.50448 880
42.52459 846
42.5447 897
42.56482 843
42.58493 875
42.60505 838
42.62516 848
42.64527 862
42.66539 843
42.6855 836
42.70561 841
42.72573 863
42.74584 906
42.76595 823
42.78607 826
42.80618 861
42.8263 877
42.84641 868
42.86652 815
42.88664 823
42.90675 846
42.92686 880
42.94698 828
42.96709 881
42.98721 826
43.00732 807
43.02743 821
43.04755 887
43.06766 902
43.08777 876
43.10789 888
43.128 846
43.14812 868
43.16823 880
43.18834 843
43.20846 829
43.22857 817
43.24868 892
43.2688 833
43.28891 837
43.30902 862
43.32914 915
43.34925 863
43.36937 921
43.38948 881
43.40959 935
43.42971 932
43.44982 892
43.46993 846
43.49005 908
43.51016 834
43.53028 876
43.55039 870
43.5705 892
43.59062 913
43.61073 831
43.63084 868
43.65096 835
43.67107 868
43.69119 912
43.7113 908
43.73141 817
43.75153 840
43.77164 850
43.79175 882
43.81187 842
43.83198 888
43.85209 802
43.87221 894
43.89232 853
43.91244 837
43.93255 871
43.95266 809
43.97278 811
43.99289 868
44.013 837
44.03312 873
44.05323 801
44.07335 806
44.09346 875
44.11357 816
44.13369 868
44.1538 823
44.17391 892
44.19403 859
44.21414 879
44.23426 855
44.25437 864
44.27448 815
44.2946 831
44.31471 891
44.33482 866
44.35494 871
44.37505 813
44.39516 846
44.41528 795
44.43539 870
44.45551 917
44.47562 858
44.49573 877
44.51585 852
44.53596 835
44.55607 842
44.57619 799
44.5963 872
44.61642 872
44.63653 814
44.65664 819
44.67676 885
44.69687 852
44.71698 826
44.7371 870
44.75721 871
44.77732 845
44.79744 846
44.81755 838
44.83767 832
44.85778 837
44.87789 815
44.89801 823
44.91812 883
44.93823 828
44.95835 817
44.97846 859
44.99858 899
45.01869 866
45.0388 797
45.05892 826
45.07903 816
45.09914 835
45.11926 858
45.13937 808
45.15949 861
45.1796 884
45.19971 821
45.21983 852
45.23994 876
45.26005 806
45.28017 844
45.30028 864
45.32039 894
45.34051 858
45.36062 821
45.38074 861
45.40085 850
45.42096 857
45.44108 880
45.46119 832
45.4813 893
45.50142 904
45.52153 892
45.54165 851
45.56176 893
45.58187 905
45.60199 895
45.6221 871
45.64221 894
45.66233 934
45.68244 921
45.70256 919
45.72267 950
45.74278 852
45.7629 922
45.78301 960
45.80312 870
45.82324 925
45.84335 876
45.86346 874
45.88358 875
45.90369 848
45.92381 886
45.94392 836
45.96403 834
45.98415 809
46.00426 968
46.02437 829
46.04449 851
46.0646 861
46.08472 797
46.10483 848
46.12494 886
46.14506 838
46.16517 800
46.18528 858
46.2054 855
46.22551 881
46.24563 852
46.26574 869
46.28585 819
46.30597 820
46.32608 780
46.34619 861
46.36631 867
46.38642 828
46.40653 845
46.42665 891
46.44676 868
46.46688 804
46.48699 863
46.5071 882
46.52722 861
46.54733 884
46.56744 852
46.58756 830
46.60767 843
46.62779 862
46.6479 843
46.66801 885
46.68813 829
46.70824 832
46.72835 855
46.74847 844
46.76858 782
46.78869 854
46.80881 831
46.82892 865
46.84904 852
46.86915 848
46.88926 888
46.90938 870
46.92949 853
46.9496 863
46.96972 862
46.98983 860
47.00995 812
47.03006 824
47.05017 826
47.07029 843
47.0904 848
47.11051 834
47.13063 867
47.15074 894
47.17086 866
47.19097 842
47.21108 846
47.2312 858
47.25131 800
47.27142 850
47.29154 852
47.31165 828
47.33176 820
47.35188 826
47.37199 893
47.39211 860
47.41222 821
47.43233 818
47.45245 783
47.47256 836
47.49267 824
47.51279 831
47.5329 846
47.55302 856
47.57313 817
47.59324 883
47.61336 898
47.63347 855
47.65358 844
47.6737 886
47.69381 796
47.71393 934
47.73404 799
47.75415 805
47.77427 874
47.79438 870
47.81449 898
47.83461 882
47.85472 857
47.87483 869
47.89495 876
47.91506 897
47.93518 852
47.95529 821
47.9754 841
47.99552 915
48.01563 798
48.03574 868
48.05586 895
48.07597 858
48.09609 839
48.1162 802
48.13631 853
48.15643 890
48.17654 879
48.19665 885
48.21677 918
48.23688 836
48.257 876
48.27711 846
48.29722 877
48.31734 871
48.33745 856
48.35756 846
48.37768 901
48.39779 856
48.4179 816
48.43802 891
48.45813 820
48.47825 854
48.49836 862
48.51847 886
48.53859 814
48.5587 877
48.57881 915
48.59893 863
48.61904 893
48.63916 861
48.65927 807
48.67938 847
48.6995 825
48.71961 897
48.73972 871
48.75984 858
48.77995 883
48.80006 890
48.82018 919
48.84029 875
48.86041 870
48.88052 910
48.90063 835
48.92075 950
48.94086 897
48.96097 870
48.98109 854
49.0012 922
49.02132 896
49.04143 939
49.06154 907
49.08166 912
49.10177 896
49.12188 875
49.142 879
49.16211 914
49.18223 946
49.20234 955
49.22245 942
49.24257 963
49.26268 953
49.28279 968
49.30291 1026
49.32302 1005
49.34313 1000
49.36325 1054
49.38336 1104
49.40348 1051
49.42359 1035
49.4437 1015
49.46382 1010
49.48393 1054
49.50404 1088
49.52416 1085
49.54427 1088
49.56439 995
49.5845 967
49.60461 957
49.62473 999
49.64484 966
49.66495 985
49.68507 994
49.70518 950
49.7253 997
49.74541 943
49.76552 976
49.78564 992
49.80575 899
49.82586 957
49.84598 916
49.86609 943
49.8862 931
49.90632 900
49.92643 912
49.94655 955
49.96666 985
49.98677 1016
50.00689 1013
50.027 1122
50.04711 1103
50.06723 1125
50.08734 1050
50.10746 1070
50.12757 1094
50.14768 1024
50.1678 1025
50.18791 1019
50.20802 961
50.22814 1018
50.24825 958
50.26837 939
50.28848 887
50.30859 873
50.32871 843
50.34882 901
50.36893 890
50.38905 856
50.40916 860
50.42927 838
50.44939 882
50.4695 840
50.48962 786
50.50973 890
50.52984 872
50.54996 836
50.57007 904
50.59018 871
50.6103 844
50.63041 840
50.65053 861
50.67064 817
50.69075 870
50.71087 825
50.73098 836
50.75109 842
50.77121 861
50.79132 852
50.81143 889
50.83155 809
50.85166 867
50.87178 804
50.89189 857
50.912 815
50.93212 872
50.95223 857
50.97234 844
50.99246 833
51.01257 864
51.03269 902
51.0528 832
51.07291 866
51.09303 841
51.11314 852
51.13325 814
51.15337 883
51.17348 888
51.1936 865
51.21371 855
51.23382 854
51.25394 920
51.27405 822
51.29416 863
51.31428 833
51.33439 803
51.3545 849
51.37462 834
51.39473 858
51.41485 876
51.43496 883
51.45507 877
51.47519 831
51.4953 835
51.51541 789
51.53553 852
51.55564 853
51.57576 812
51.59587 866
51.61598 847
51.6361 804
51.65621 875
51.67632 870
51.69644 831
51.71655 925
51.73667 838
51.75678 803
51.77689 798
51.79701 858
51.81712 875
51.83723 856
51.85735 804
51.87746 827
51.89757 812
51.91769 800
51.9378 822
51.95792 804
51.97803 824
51.99814 804
52.01826 851
52.03837 863
52.05848 836
52.0786 796
52.09871 787
52.11883 838
52.13894 795
52.15905 871
52.17917 832
52.19928 869
52.21939 828
52.23951 857
52.25962 850
52.27974 868
52.29985 778
52.31996 837
52.34008 862
52.36019 776
52.3803 875
52.40042 862
52.42053 829
52.44064 842
52.46076 860
52.48087 822
52.50099 810
52.5211 857
52.54121 816
52.56133 832
52.58144 926
52.60155 802
52.62167 836
52.64178 843
52.6619 820
52.68201 873
52.70212 815
52.72224 865
52.74235 840
52.76246 866
52.78258 865
52.80269 835
52.8228 852
52.84292 823
52.86303 847
52.88315 835
52.90326 814
52.92337 837
52.94349 832
52.9636 822
52.98371 841
53.00383 877
53.02394 794
53.04406 849
53.06417 872
53.08428 894
53.1044 863
53.12451 865
53.14462 846
53.16474 887
53.18485 871
53.20497 914
53.22508 881
53.24519 843
53.26531 905
53.28542 935
53.30553 884
53.32565 853
53.34576 885
53.36587 887
53.38599 857
53.4061 849
53.42622 922
53.44633 879
53.46644 841
53.48656 892
53.50667 949
53.52678 919
53.5469 932
53.56701 880
53.58713 941
53.60724 922
53.62735 952
53.64747 898
53.66758 951
53.68769 937
53.70781 992
53.72792 951
53.74804 897
53.76815 1013
53.78826 1023
53.80838 1010
53.82849 1035
53.8486 1019
53.86872 1125
53.88883 1000
53.90894 1113
53.92906 1090
53.94917 1109
53.96929 1146
53.9894 1184
54.00951 1153
54.02963 1150
54.04974 1165
54.06985 1137
54.08997 1171
54.11008 1206
54.1302 1149
54.15031 1164
54.17042 1110
54.19054 1216
54.21065 1063
54.23076 1091
54.25088 1155
54.27099 1094
54.29111 1088
54.31122 1078
54.33133 1064
54.35145 1044
54.37156 1093
54.39167 1039
54.41179 1018
54.4319 989
54.45201 1022
54.47213 969
54.49224 961
54.51236 965
54.53247 981
54.55258 985
54.5727 961
54.59281 953
54.61292 951
54.63304 961
54.65315 923
54.67327 943
54.69338 965
54.71349 970
54.73361 955
54.75372 962
54.77383 990
54.79395 1018
54.81406 1014
54.83417 929
54.85429 998
54.8744 938
54.89452 975
54.91463 969
54.93474 956
54.95486 980
54.97497 908
54.99508 947
55.0152 929
55.03531 895
55.05543 947
55.07554 971
55.09565 911
55.11577 949
55.13588 898
55.15599 903
55.17611 946
55.19622 909
55.21634 951
55.23645 928
55.25656 888
55.27668 969
55.29679 958
55.3169 926
55.33702 868
55.35713 911
55.37724 906
55.39736 885
55.41747 898
55.43759 919
55.4577 873
55.47781 879
55.49793 838
55.51804 913
55.53815 871
55.55827 895
55.57838 872
55.5985 855
55.61861 864
55.63872 861
55.65884 878
55.67895 882
55.69906 881
55.71918 891
55.73929 850
55.75941 849
55.77952 835
55.79963 887
55.81975 896
55.83986 868
55.85997 892
55.88009 824
55.9002 817
55.92031 845
55.94043 860
55.96054 863
55.98066 898
56.00077 872
56.02088 814
56.041 881
56.06111 878
56.08122 815
56.10134 904
56.12145 830
56.14157 878
56.16168 896
56.18179 809
56.20191 865
56.22202 909
56.24213 842
56.26225 854
56.28236 888
56.30248 896
56.32259 888
56.3427 864
56.36282 879
56.38293 830
56.40304 837
56.42316 853
56.44327 914
56.46338 863
56.4835 841
56.50361 813
56.52373 803
56.54384 908
56.56395 796
56.58407 881
56.60418 877
56.62429 885
56.64441 860
56.66452 860
56.68464 896
56.70475 835
56.72486 870
56.74498 886
56.76509 835
56.7852 867
56.80532 834
56.82543 840
56.84554 860
56.86566 883
56.88577 879
56.90589 879
56.926 907
56.94611 864
56.96623 851
56.98634 891
57.00645 887
57.02657 889
57.04668 894
57.0668 886
57.08691 875
57.10702 899
57.12714 895
57.14725 926
57.16736 919
57.18748 816
57.20759 896
57.22771 872
57.24782 874
57.26793 900
57.28805 914
57.30816 896
57.32827 906
57.34839 950
57.3685 914
57.38861 954
57.40873 941
57.42884 915
57.44896 968
57.46907 897
57.48918 936
57.5093 965
57.52941 941
57.54952 947
57.56964 921
57.58975 896
57.60987 911
57.62998 945
57.65009 874
57.67021 902
57.69032 897
57.71043 827
57.73055 932
57.75066 867
57.77078 897
57.79089 895
57.811 884
57.83112 843
57.85123 866
57.87134 898
57.89146 820
57.91157 903
57.93168 908
57.9518 913
57.97191 833
57.99203 849
58.01214 849
58.03225 858
58.05237 854
58.07248 845
58.09259 809
58.11271 894
58.13282 840
58.15294 797
58.17305 904
58.19316 880
58.21328 790
58.23339 847
58.2535 874
58.27362 841
58.29373 826
58.31385 827
58.33396 824
58.35407 843
58.37419 846
58.3943 894
58.41441 833
58.43453 849
58.45464 829
58.47475 858
58.49487 861
58.51498 834
58.5351 856
58.55521 876
58.57532 814
58.59544 826
58.61555 827
58.63566 821
58.65578 836
58.67589 829
58.69601 869
58.71612 813
58.73623 806
58.75635 848
58.77646 862
58.79657 821
58.81669 832
58.8368 793
58.85691 862
58.87703 808
58.89714 825
58.91726 875
58.93737 836
58.95748 873
58.9776 804
58.99771 856
59.01782 803
59.03794 863
59.05805 871
59.07817 847
59.09828 829
59.11839 828
59.13851 806
59.15862 813
59.17873 845
59.19885 770
59.21896 847
59.23908 810
59.25919 828
59.2793 846
59.29942 832
59.31953 845
59.33964 815
59.35976 811
59.37987 799
59.39998 888
59.4201 833
59.44021 850
59.46033 858
59.48044 823
59.50055 858
59.52067 827
59.54078 848
59.56089 871
59.58101 893
59.60112 829
59.62124 861
59.64135 836
59.66146 796
59.68158 891
59.70169 850
59.7218 797
59.74192 861
59.76203 878
59.78215 846
59.80226 951
59.82237 920
59.84249 979
59.8626 957
59.88271 972
59.90283 986
59.92294 949
59.94305 927
59.96317 924
59.98328 919
60.0034 903
60.02351 946
60.04362 887
60.06374 897
60.08385 921
60.10396 811
60.12408 858
60.14419 823
60.16431 896
60.18442 841
60.20453 856
60.22465 799
60.24476 827
60.26487 851
60.28499 830
60.3051 836
60.32522 835
60.34533 851
60.36544 814
60.38556 797
60.40567 870
60.42578 844
60.4459 802
60.46601 843
60.48612 805
60.50624 844
60.52635 893
60.54647 858
60.56658 807
60.58669 862
60.60681 849
60.62692 859
60.64703 812
60.66715 788
60.68726 830
60.70738 789
60.72749 871
60.7476 846
60.76772 843
60.78783 881
60.80794 819
60.82806 851
60.84817 810
60.86828 832
60.8884 781
60.90851 872
60.92863 825
60.94874 840
60.96885 818
60.98897 850
61.00908 859
61.02919 798
61.04931 827
61.06942 893
61.08954 854
61.10965 848
61.12976 828
61.14988 810
61.16999 842
61.1901 885
61.21022 873
61.23033 841
61.25045 832
61.27056 834
61.29067 851
61.31079 859
61.3309 804
61.35101 837
61.37113 801
61.39124 828
61.41135 866
61.43147 824
61.45158 824
61.4717 846
61.49181 847
61.51192 840
61.53204 864
61.55215 857
61.57226 870
61.59238 869
61.61249 843
61.63261 863
61.65272 883
61.67283 842
61.69295 867
61.71306 842
61.73317 911
61.75329 822
61.7734 870
61.79352 919
61.81363 877
61.83374 858
61.85386 857
61.87397 894
61.89408 935
61.9142 840
61.93431 941
61.95442 900
61.97454 949
61.99465 919
62.01477 971
62.03488 962
62.05499 936
62.07511 945
62.09522 1021
62.11533 971
62.13545 968
62.15556 959
62.17568 1041
62.19579 1052
62.2159 1016
62.23602 1028
62.25613 1078
62.27624 1032
62.29636 1048
62.31647 1025
62.33659 1034
62.3567 1012
62.37681 1106
62.39693 990
62.41704 1050
62.43715 1054
62.45727 1067
62.47738 1035
62.49749 988
62.51761 975
62.53772 1010
62.55784 976
62.57795 1039
62.59806 1022
62.61818 949
62.63829 1016
62.6584 952
62.67852 963
62.69863 953
62.71875 998
62.73886 956
62.75897 972
62.77909 947
62.7992 951
62.81931 947
62.83943 945
62.85954 914
62.87965 889
62.89977 948
62.91988 854
62.94 1008
62.96011 919
62.98022 933
63.00034 898
63.02045 883
63.04056 905
63.06068 926
63.08079 940
63.10091 951
63.12102 883
63.14113 904
63.16125 910
63.18136 916
63.20147 899
63.22159 907
63.2417 908
63.26182 930
63.28193 949
63.30204 877
63.32216 915
63.34227 893
63.36238 884
63.3825 917
63.40261 875
63.42272 887
63.44284 893
63.46295 908
63.48307 900
63.50318 904
63.52329 910
63.54341 875
63.56352 865
63.58363 907
63.60375 861
63.62386 913
63.64398 890
63.66409 899
63.6842 882
63.70432 870
63.72443 916
63.74454 955
63.76466 942
63.78477 888
63.80489 941
63.825 920
63.84511 943
63.86523 977
63.88534 1010
63.90545 927
63.92557 1010
63.94568 999
63.96579 957
63.98591 1049
64.00602 1018
64.02614 1001
64.04625 1099
64.06636 1056
64.08648 1055
64.10659 1110
64.1267 976
64.14682 1029
64.16693 1051
64.18705 1044
64.20716 1005
64.22727 988
64.24739 969
64.2675 929
64.28761 940
64.30773 999
64.32784 953
64.34796 946
64.36807 911
64.38818 890
64.4083 898
64.42841 927
64.44852 892
64.46864 889
64.48875 904
64.50886 880
64.52898 889
64.54909 856
64.56921 824
64.58932 875
64.60943 905
64.62955 895
64.64966 810
64.66977 876
64.68989 845
64.71 830
64.73012 842
64.75023 835
64.77034 821
64.79046 812
64.81057 865
64.83068 805
64.8508 816
64.87091 873
64.89102 825
64.91114 800
64.93125 848
64.95137 848
64.97148 816
64.99159 788
65.01171 837
65.03182 815
65.05193 849
65.07205 847
65.09216 813
65.11228 811
65.13239 814
65.1525 772
65.17262 824
65.19273 828
65.21284 829
65.23296 793
65.25307 815
65.27319 830
65.2933 853
65.31341 790
65.33353 837
65.35364 787
65.37375 813
65.39387 793
65.41398 797
65.43409 766
65.45421 839
65.47432 831
65.49444 838
65.51455 766
65.53466 800
65.55478 807
65.57489 795
65.595 831
65.61512 816
65.63523 866
65.65535 770
65.67546 810
65.69557 802
65.71569 755
65.7358 793
65.75591 782
65.77603 818
65.79614 809
65.81626 815
65.83637 782
65.85648 797
65.8766 791
65.89671 839
65.91682 817
65.93694 830
65.95705 774
65.97716 811
65.99728 765
66.01739 801
66.03751 833
66.05762 807
66.07773 821
66.09785 830
66.11796 824
66.13807 786
66.15819 861
66.1783 808
66.19842 817
66.21853 829
66.23864 826
66.25876 839
66.27887 833
66.29898 805
66.3191 796
66.33921 751
66.35933 838
66.37944 764
66.39955 785
66.41967 776
66.43978 767
66.45989 797
66.48001 729
66.50012 802
66.52023 818
66.54035 779
66.56046 790
66.58058 822
66.60069 815
66.6208 817
66.64092 780
66.66103 813
66.68114 798
66.70126 812
66.72137 812
66.74149 840
66.7616 833
66.78171 839
66.80183 799
66.82194 801
66.84205 824
66.86217 768
66.88228 787
66.90239 814
66.92251 844
66.94262 830
66.96274 800
66.98285 828
67.00296 807
67.02308 813
67.04319 823
67.0633 760
67.08342 776
67.10353 822
67.12365 785
67.14376 734
67.16387 751
67.18399 829
67.2041 759
67.22421 792
67.24433 839
67.26444 777
67.28456 815
67.30467 756
67.32478 793
67.3449 788
67.36501 790
67.38512 817
67.40524 799
67.42535 798
67.44546 801
67.46558 803
67.48569 785
67.50581 838
67.52592 884
67.54603 885
67.56615 830
67.58626 857
67.60637 836
67.62649 797
67.6466 851
67.66672 926
67.68683 882
67.70694 836
67.72706 815
67.74717 847
67.76728 799
67.7874 923
67.80751 858
67.82763 906
67.84774 837
67.86785 896
67.88797 858
67.90808 845
67.92819 895
67.94831 879
67.96842 824
67.98853 912
68.00865 907
68.02876 906
68.04888 929
68.06899 915
68.0891 927
68.10922 911
68.12933 926
68.14944 904
68.16956 925
68.18967 898
68.20979 891
68.2299 917
68.25001 956
68.27013 899
68.29024 833
68.31035 837
68.33047 870
68.35058 882
68.3707 826
68.39081 865
68.41092 866
68.43104 901
68.45115 844
68.47126 876
68.49138 838
68.51149 798
68.5316 796
68.55172 807
68.57183 828
68.59195 736
68.61206 825
68.63217 838
68.65229 850
68.6724 860
68.69251 819
68.71263 782
68.73274 790
68.75286 776
68.77297 788
68.79308 741
68.8132 797
68.83331 769
68.85342 749
68.87354 772
68.89365 801
68.91376 806
68.93388 740
68.95399 760
68.97411 801
68.99422 807
69.01433 768
69.03445 765
69.05456 796
69.07467 823
69.09479 797
69.1149 819
69.13502 748
69.15513 803
69.17524 810
69.19536 826
69.21547 829
69.23558 777
69.2557 781
69.27581 790
69.29593 789
69.31604 778
69.33615 790
69.35627 819
69.37638 818
69.39649 800
69.41661 796
69.43672 776
69.45683 808
69.47695 792
69.49706 804
69.51718 803
69.53729 791
69.5574 812
69.57752 784
69.59763 822
69.61774 801
69.63786 773
69.65797 810
69.67809 787
69.6982 755
69.71831 777
69.73843 805
69.75854 800
69.77865 771
69.79877 795
69.81888 823
69.839 766
69.85911 836
69.87922 820
69.89934 822
69.91945 812
69.93956 797
69.95968 775
69.97979 801
69.9999 781
70.02002 773
70.04013 756
70.06025 812
70.08036 842
70.10047 793
70.12059 793
70.1407 772
70.16081 840
70.18093 799
70.20104 797
70.22116 781
70.24127 819
70.26138 738
70.2815 778
70.30161 765
70.32172 818
70.34184 765
70.36195 788
70.38207 806
70.40218 766
70.42229 793
70.44241 767
70.46252 737
70.48263 716
70.50275 775
70.52286 814
70.54297 782
70.56309 833
70.5832 836
70.60332 810
70.62343 752
70.64354 807
70.66366 823
70.68377 775
70.70388 797
70.724 819
70.74411 769
70.76423 772
70.78434 761
70.80445 783
70.82457 790
70.84468 750
70.86479 764
70.88491 771
70.90502 818
70.92513 766
70.94525 734
70.96536 716
70.98548 814
71.00559 832
71.0257 748
71.04582 746
71.06593 775
71.08604 757
71.10616 764
71.12627 770
71.14639 804
71.1665 743
71.18661 757
71.20673 765
71.22684 789
71.24695 831
71.26707 766
71.28718 774
71.3073 791
71.32741 796
71.34752 770
71.36764 765
71.38775 808
71.40786 784
71.42798 779
71.44809 751
71.4682 775
71.48832 783
71.50843 767
71.52855 811
71.54866 823
71.56877 790
71.58889 757
71.609 823
71.62911 817
71.64923 818
71.66934 804
71.68946 822
71.70957 793
71.72968 780
71.7498 840
71.76991 756
71.79002 805
71.81014 863
71.83025 792
71.85037 822
71.87048 821
71.89059 801
71.91071 804
71.93082 788
71.95093 813
71.97105 768
71.99116 818
72.01127 825
72.03139 816
72.0515 819
72.07162 847
72.09173 732
72.11184 841
72.13196 871
72.15207 845
72.17218 880
72.1923 861
72.21241 823
72.23253 782
72.25264 858
72.27275 828
72.29287 786
72.31298 800
72.33309 772
72.35321 816
72.37332 785
72.39344 852
72.41355 825
72.43366 796
72.45378 810
72.47389 803
72.494 762
72.51412 729
72.53423 821
72.55434 822
72.57446 812
72.59457 737
72.61469 787
72.6348 776
72.65491 758
72.67503 789
72.69514 759
72.71525 739
72.73537 782
72.75548 817
72.7756 780
72.79571 771
72.81582 774
72.83594 777
72.85605 795
72.87616 784
72.89628 814
72.91639 842
72.9365 812
72.95662 745
72.97673 807
72.99685 790
73.01696 740
73.03707 800
73.05719 842
73.0773 767
73.09741 768
73.11753 759
73.13764 808
73.15776 774
73.17787 808
73.19798 807
73.2181 833
73.23821 784
73.25832 809
73.27844 796
73.29855 770
73.31867 785
73.33878 808
73.35889 803
73.37901 817
73.39912 824
73.41923 809
73.43935 830
73.45946 787
73.47957 772
73.49969 828
73.5198 767
73.53992 781
73.56003 786
73.58014 793
73.60026 786
73.62037 796
73.64048 816
73.6606 764
73.68071 758
73.70083 748
73.72094 782
73.74105 771
73.76117 753
73.78128 785
73.80139 788
73.82151 768
73.84162 740
73.86174 782
73.88185 779
73.90196 764
73.92208 782
73.94219 760
73.9623 780
73.98242 770
74.00253 797
74.02264 744
74.04276 718
74.06287 788
74.08299 738
74.1031 794
74.12321 790
74.14333 779
74.16344 718
74.18355 784
74.20367 741
74.22378 761
74.2439 776
74.26401 787
74.28412 741
74.30424 754
74.32435 728
74.34446 746
74.36458 780
74.38469 786
74.40481 761
74.42492 778
74.44503 802
74.46515 750
74.48526 738
74.50537 774
74.52549 755
74.5456 795
74.56571 778
74.58583 793
74.60594 783
74.62606 755
74.64617 788
74.66628 782
74.6864 807
74.70651 802
74.72662 771
74.74674 746
74.76685 780
74.78697 772
74.80708 783
74.82719 774
74.84731 788
74.86742 769
74.88753 794
74.90765 782
74.92776 813
74.94787 813
74.96799 770
74.9881 769
75.00822 750
