3.00117 19877
3.02128 19453
3.0414 18758
3.06151 18119
3.08162 17732
3.10174 17309
3.12185 16718
3.14197 16551
3.16208 15451
3.18219 15487
3.20231 14770
3.22242 14522
3.24253 14224
3.26265 13662
3.28276 13206
3.30288 12798
3.32299 12420
3.3431 12112
3.36322 11432
3.38333 11336
3.40344 10949
3.42356 10241
3.44367 10339
3.46379 9884
3.4839 9474
3.50401 9252
3.52413 8779
3.54424 8614
3.56435 8079
3.58447 8020
3.60458 7543
3.62469 7269
3.64481 7106
3.66492 6562
3.68504 6551
3.70515 6134
3.72526 5828
3.74538 5655
3.76549 5278
3.7856 5123
3.80572 5049
3.82583 4750
3.84595 4560
3.86606 4245
3.88617 4096
3.90629 4009
3.9264 3872
3.94651 3701
3.96663 3378
3.98674 3374
4.00686 3153
4.02697 2956
4.04708 3059
4.0672 2668
4.08731 2521
4.10742 2568
4.12754 2386
4.14765 2332
4.16776 2065
4.18788 2112
4.20799 1920
4.22811 1922
4.24822 1952
4.26833 1678
4.28845 1695
4.30856 1638
4.32867 1636
4.34879 1641
4.3689 1450
4.38902 1465
4.40913 1421
4.42924 1354
4.44936 1334
4.46947 1227
4.48958 1238
4.5097 1196
4.52981 1147
4.54992 1167
4.57004 1093
4.59015 1074
4.61027 1181
4.63038 1018
4.65049 997
4.67061 942
4.69072 976
4.71083 925
4.73095 954
4.75106 926
4.77118 942
4.79129 836
4.8114 938
4.83152 874
4.85163 857
4.87174 772
4.89186 750
4.91197 780
4.93209 754
4.9522 754
4.97231 687
4.99243 718
5.01254 697
5.03265 647
5.05277 664
5.07288 597
5.09299 580
5.11311 601
5.13322 584
5.15334 579
5.17345 606
5.19356 561
5.21368 530
5.23379 518
5.2539 538
5.27402 499
5.29413 486
5.31425 471
5.33436 482
5.35447 431
5.37459 431
5.3947 450
5.41481 461
5.43493 496
5.45504 391
5.47516 411
5.49527 379
5.51538 384
5.5355 360
5.55561 365
5.57572 374
5.59584 323
5.61595 350
5.63606 329
5.65618 304
5.67629 352
5.69641 337
5.71652 320
5.73663 310
5.75675 327
5.77686 275
5.79697 310
5.81709 330
5.8372 301
5.85732 244
5.87743 293
5.89754 301
5.91766 276
5.93777 269
5.95788 289
5.978 271
5.99811 259
6.01823 258
6.03834 262
6.05845 261
6.07857 253
6.09868 256
6.11879 251
6.13891 273
6.15902 242
6.17913 254
6.19925 238
6.21936 236
6.23948 256
6.25959 244
6.2797 269
6.29982 241
6.31993 251
6.34004 216
6.36016 252
6.38027 217
6.40039 266
6.4205 220
6.44061 233
6.46073 225
6.48084 243
6.50095 240
6.52107 240
6.54118 201
6.56129 231
6.58141 213
6.60152 238
6.62164 196
6.64175 229
6.66186 226
6.68198 223
6.70209 247
6.7222 245
6.74232 217
6.76243 216
6.78255 225
6.80266 209
6.82277 255
6.84289 209
6.863 206
6.88311 248
6.90323 227
6.92334 236
6.94346 229
6.96357 240
6.98368 231
7.0038 234
7.02391 230
7.04402 202
7.06414 233
7.08425 242
7.10436 230
7.12448 211
7.14459 243
7.16471 208
7.18482 228
7.20493 220
7.22505 214
7.24516 247
7.26527 253
7.28539 237
7.3055 232
7.32562 223
7.34573 226
7.36584 225
7.38596 230
7.40607 239
7.42618 226
7.4463 248
7.46641 237
7.48653 226
7.50664 215
7.52675 236
7.54687 233
7.56698 199
7.58709 222
7.60721 242
7.62732 268
7.64743 227
7.66755 214
7.68766 266
7.70778 264
7.72789 277
7.748 223
7.76812 263
7.78823 254
7.80834 232
7.82846 255
7.84857 202
7.86869 221
7.8888 239
7.90891 239
7.92903 217
7.94914 245
7.96925 230
7.98937 205
8.00948 239
8.0296 235
8.04971 279
8.06982 221
8.08994 224
8.11005 285
8.13016 259
8.15028 243
8.17039 243
8.1905 229
8.21062 242
8.23073 250
8.25085 251
8.27096 231
8.29107 274
8.31119 254
8.3313 245
8.35141 281
8.37153 277
8.39164 265
8.41176 248
8.43187 230
8.45198 259
8.4721 259
8.49221 260
8.51232 254
8.53244 268
8.55255 273
8.57266 283
8.59278 264
8.61289 284
8.63301 252
8.65312 312
8.67323 264
8.69335 314
8.71346 283
8.73357 279
8.75369 301
8.7738 307
8.79392 286
8.81403 317
8.83414 319
8.85426 333
8.87437 318
8.89448 324
8.9146 299
8.93471 311
8.95483 322
8.97494 302
8.99505 289
9.01517 280
9.03528 264
9.05539 260
9.07551 256
9.09562 258
9.11573 260
9.13585 248
9.15596 253
9.17608 248
9.19619 274
9.2163 251
9.23642 266
9.25653 253
9.27664 254
9.29676 301
9.31687 247
9.33699 248
9.3571 266
9.37721 240
9.39733 271
9.41744 245
9.43755 282
9.45767 281
9.47778 225
9.4979 263
9.51801 232
9.53812 245
9.55824 263
9.57835 282
9.59846 293
9.61858 257
9.63869 281
9.6588 260
9.67892 256
9.69903 231
9.71915 250
9.73926 283
9.75937 255
9.77949 229
9.7996 234
9.81971 262
9.83983 238
9.85994 260
9.88006 251
9.90017 250
9.92028 265
9.9404 255
9.96051 245
9.98062 221
10.00074 218
10.02085 224
10.04097 252
10.06108 250
10.08119 277
10.10131 269
10.12142 231
10.14153 246
10.16165 261
10.18176 257
10.20187 233
10.22199 240
10.2421 253
10.26222 241
10.28233 252
10.30244 218
10.32256 223
10.34267 252
10.36278 280
10.3829 230
10.40301 239
10.42313 276
10.44324 241
10.46335 263
10.48347 266
10.50358 241
10.52369 250
10.54381 227
10.56392 252
10.58403 270
10.60415 256
10.62426 265
10.64438 268
10.66449 269
10.6846 278
10.70472 247
10.72483 245
10.74494 263
10.76506 235
10.78517 279
10.80529 249
10.8254 255
10.84551 262
10.86563 260
10.88574 256
10.90585 243
10.92597 271
10.94608 235
10.9662 242
10.98631 232
11.00642 263
11.02654 268
11.04665 264
11.06676 217
11.08688 257
11.10699 249
11.1271 240
11.14722 234
11.16733 272
11.18745 257
11.20756 249
11.22767 244
11.24779 269
11.2679 240
11.28801 252
11.30813 253
11.32824 263
11.34836 244
11.36847 244
11.38858 253
11.4087 244
11.42881 228
11.44892 256
11.46904 272
11.48915 279
11.50927 306
11.52938 294
11.54949 280
11.56961 264
11.58972 248
11.60983 279
11.62995 273
11.65006 244
11.67017 245
11.69029 282
11.7104 292
11.73052 265
11.75063 245
11.77074 271
11.79086 263
11.81097 257
11.83108 286
11.8512 274
11.87131 282
11.89143 269
11.91154 290
11.93165 318
11.95177 303
11.97188 331
11.99199 342
12.01211 278
12.03222 305
12.05234 325
12.07245 309
12.09256 314
12.11268 324
12.13279 306
12.1529 293
12.17302 303
12.19313 348
12.21324 325
12.23336 319
12.25347 358
12.27359 311
12.2937 324
12.31381 327
12.33393 342
12.35404 351
12.37415 306
12.39427 362
12.41438 332
12.4345 355
12.45461 320
12.47472 305
12.49484 291
12.51495 289
12.53506 287
12.55518 297
12.57529 287
12.5954 252
12.61552 259
12.63563 278
12.65575 262
12.67586 250
12.69597 278
12.71609 296
12.7362 277
12.75631 266
12.77643 243
12.79654 234
12.81666 247
12.83677 260
12.85688 239
12.877 229
12.89711 258
12.91722 239
12.93734 242
12.95745 230
12.97757 234
12.99768 229
13.01779 266
13.03791 232
13.05802 251
13.07813 241
13.09825 230
13.11836 234
13.13847 240
13.15859 264
13.1787 263
13.19882 226
13.21893 257
13.23904 253
13.25916 224
13.27927 260
13.29938 232
13.3195 203
13.33961 225
13.35973 246
13.37984 220
13.39995 220
13.42007 231
13.44018 233
13.46029 219
13.48041 234
13.50052 246
13.52064 195
13.54075 231
13.56086 251
13.58098 226
13.60109 212
13.6212 234
13.64132 241
13.66143 274
13.68154 266
13.70166 266
13.72177 242
13.74189 215
13.762 218
13.78211 206
13.80223 217
13.82234 253
13.84245 270
13.86257 243
13.88268 265
13.9028 273
13.92291 254
13.94302 234
13.96314 229
13.98325 236
14.00336 260
14.02348 232
14.04359 231
14.06371 233
14.08382 230
14.10393 225
14.12405 215
14.14416 219
14.16427 207
14.18439 216
14.2045 232
14.22461 226
14.24473 213
14.26484 229
14.28496 214
14.30507 199
14.32518 224
14.3453 204
14.36541 188
14.38552 228
14.40564 249
14.42575 217
14.44587 197
14.46598 207
14.48609 208
14.50621 197
14.52632 198
14.54643 193
14.56655 214
14.58666 237
14.60677 204
14.62689 215
14.647 229
14.66712 202
14.68723 228
14.70734 210
14.72746 218
14.74757 199
14.76768 199
14.7878 200
14.80791 205
14.82803 220
14.84814 204
14.86825 201
14.88837 207
14.90848 208
14.92859 261
14.94871 248
14.96882 221
14.98894 216
15.00905 228
15.02916 182
15.04928 253
15.06939 229
15.0895 220
15.10962 217
15.12973 214
15.14984 218
15.16996 211
15.19007 194
15.21019 237
15.2303 206
15.25041 188
15.27053 238
15.29064 215
15.31075 202
15.33087 223
15.35098 204
15.3711 200
15.39121 197
15.41132 188
15.43144 195
15.45155 191
15.47166 203
15.49178 199
15.51189 179
15.53201 199
15.55212 198
15.57223 193
15.59235 211
15.61246 199
15.63257 201
15.65269 187
15.6728 212
15.69291 218
15.71303 188
15.73314 201
15.75326 197
15.77337 179
15.79348 191
15.8136 183
15.83371 216
15.85382 219
15.87394 186
15.89405 189
15.91417 198
15.93428 180
15.95439 176
15.97451 222
15.99462 207
16.01473 217
16.03485 196
16.05496 188
16.07508 198
16.09519 186
16.1153 192
16.13542 219
16.15553 172
16.17564 208
16.19576 199
16.21587 188
16.23598 187
16.2561 220
16.27621 178
16.29633 184
16.31644 222
16.33655 210
16.35667 187
16.37678 193
16.39689 201
16.41701 185
16.43712 184
16.45724 200
16.47735 186
16.49746 224
16.51758 184
16.53769 202
16.5578 182
16.57792 192
16.59803 203
16.61814 192
16.63826 186
16.65837 211
16.67849 183
16.6986 169
16.71871 189
16.73883 173
16.75894 205
16.77905 206
16.79917 190
16.81928 205
16.8394 186
16.85951 201
16.87962 182
16.89974 193
16.91985 192
16.93996 206
16.96008 198
16.98019 179
17.00031 194
17.02042 226
17.04053 190
17.06065 198
17.08076 191
17.10087 185
17.12099 199
17.1411 187
17.16121 196
17.18133 193
17.20144 179
17.22156 165
17.24167 193
17.26178 226
17.2819 212
17.30201 180
17.32212 214
17.34224 202
17.36235 175
17.38247 220
17.40258 211
17.42269 193
17.44281 180
17.46292 206
17.48303 213
17.50315 189
17.52326 196
17.54338 194
17.56349 205
17.5836 167
17.60372 180
17.62383 199
17.64394 197
17.66406 228
17.68417 185
17.70428 205
17.7244 215
17.74451 227
17.76463 208
17.78474 200
17.80485 171
17.82497 197
17.84508 209
17.86519 176
17.88531 191
17.90542 212
17.92554 193
17.94565 186
17.96576 210
17.98588 220
18.00599 177
18.0261 203
18.04622 180
18.06633 217
18.08645 219
18.10656 173
18.12667 204
18.14679 194
18.1669 184
18.18701 190
18.20713 206
18.22724 227
18.24735 193
18.26747 173
18.28758 194
18.3077 174
18.32781 184
18.34792 203
18.36804 188
18.38815 196
18.40826 194
18.42838 171
18.44849 175
18.46861 211
18.48872 162
18.50883 175
18.52895 204
18.54906 195
18.56917 192
18.58929 199
18.6094 185
18.62951 213
18.64963 192
18.66974 162
18.68986 196
18.70997 185
18.73008 222
18.7502 196
18.77031 192
18.79042 215
18.81054 194
18.83065 214
18.85077 190
18.87088 205
18.89099 202
18.91111 212
18.93122 180
18.95133 164
18.97145 193
18.99156 169
19.01168 223
19.03179 186
19.0519 191
19.07202 192
19.09213 175
19.11224 225
19.13236 182
19.15247 208
19.17258 212
19.1927 190
19.21281 227
19.23293 216
19.25304 226
19.27315 213
19.29327 206
19.31338 237
19.33349 208
19.35361 200
19.37372 241
19.39384 230
19.41395 211
19.43406 231
19.45418 241
19.47429 232
19.4944 217
19.51452 229
19.53463 226
19.55475 226
19.57486 223
19.59497 232
19.61509 261
19.6352 283
19.65531 239
19.67543 273
19.69554 295
19.71565 275
19.73577 295
19.75588 314
19.776 332
19.79611 337
19.81622 386
19.83634 325
19.85645 390
19.87656 412
19.89668 399
19.91679 381
19.93691 391
19.95702 429
19.97713 415
19.99725 359
20.01736 360
20.03747 355
20.05759 349
20.0777 334
20.09782 359
20.11793 356
20.13804 306
20.15816 385
20.17827 366
20.19838 345
20.2185 355
20.23861 394
20.25872 366
20.27884 343
20.29895 355
20.31907 376
20.33918 347
20.35929 368
20.37941 370
20.39952 390
20.41963 377
20.43975 392
20.45986 418
20.47998 381
20.50009 408
20.5202 440
20.54032 410
20.56043 420
20.58054 468
20.60066 448
20.62077 452
20.64088 469
20.661 479
20.68111 575
20.70123 657
20.72134 757
20.74145 977
20.76157 1351
20.78168 1900
20.80179 2742
20.82191 3738
20.84202 5232
20.86214 6620
20.88225 7540
20.90236 7354
20.92248 6051
20.94259 4484
20.9627 3080
20.98282 1846
21.00293 1128
21.02305 872
21.04316 775
21.06327 747
21.08339 617
21.1035 624
21.12361 485
21.14373 510
21.16384 471
21.18395 414
21.20407 405
21.22418 349
21.2443 408
21.26441 401
21.28452 347
21.30464 349
21.32475 370
21.34486 395
21.36498 321
21.38509 356
21.40521 349
21.42532 341
21.44543 364
21.46555 330
21.48566 327
21.50577 278
21.52589 309
21.546 343
21.56612 286
21.58623 331
21.60634 316
21.62646 330
21.64657 334
21.66668 288
21.6868 305
21.70691 305
21.72702 292
21.74714 314
21.76725 299
21.78737 293
21.80748 282
21.82759 282
21.84771 314
21.86782 307
21.88793 309
21.90805 304
21.92816 346
21.94828 346
21.96839 376
21.9885 395
22.00862 497
22.02873 573
22.04884 571
22.06896 500
22.08907 555
22.10919 466
22.1293 384
22.14941 330
22.16953 315
22.18964 293
22.20975 284
22.22987 269
22.24998 305
22.27009 284
22.29021 298
22.31032 303
22.33044 322
22.35055 291
22.37066 277
22.39078 296
22.41089 280
22.431 251
22.45112 249
22.47123 261
22.49135 256
22.51146 295
22.53157 279
22.55169 257
22.5718 251
22.59191 273
22.61203 276
22.63214 283
22.65225 265
22.67237 287
22.69248 274
22.7126 257
22.73271 285
22.75282 313
22.77294 272
22.79305 280
22.81316 285
22.83328 288
22.85339 273
22.87351 309
22.89362 254
22.91373 311
22.93385 290
22.95396 288
22.97407 299
22.99419 300
23.0143 293
23.03442 337
23.05453 318
23.07464 346
23.09476 344
23.11487 325
23.13498 321
23.1551 314
23.17521 317
23.19532 335
23.21544 341
23.23555 347
23.25567 334
23.27578 346
23.29589 311
23.31601 313
23.33612 287
23.35623 286
23.37635 278
23.39646 256
23.41658 282
23.43669 292
23.4568 300
23.47692 291
23.49703 293
23.51714 305
23.53726 340
23.55737 327
23.57749 408
23.5976 373
23.61771 363
23.63783 377
23.65794 329
23.67805 284
23.69817 291
23.71828 324
23.73839 278
23.75851 268
23.77862 291
23.79874 305
23.81885 320
23.83896 302
23.85908 323
23.87919 355
23.8993 323
23.91942 343
23.93953 374
23.95965 395
23.97976 404
23.99987 414
24.01999 435
24.0401 414
24.06021 442
24.08033 377
24.10044 396
24.12056 355
24.14067 357
24.16078 379
24.1809 394
24.20101 402
24.22112 385
24.24124 425
24.26135 402
24.28146 430
24.30158 433
24.32169 395
24.34181 380
24.36192 357
24.38203 389
24.40215 368
24.42226 331
24.44237 328
24.46249 289
24.4826 277
24.50272 308
24.52283 281
24.54294 272
24.56306 297
24.58317 302
24.60328 299
24.6234 283
24.64351 288
24.66362 301
24.68374 339
24.70385 312
24.72397 347
24.74408 302
24.76419 342
24.78431 334
24.80442 314
24.82453 294
24.84465 308
24.86476 325
24.88488 308
24.90499 346
24.9251 358
24.94522 336
24.96533 363
24.98544 308
25.00556 319
25.02567 311
25.04579 332
25.0659 336
25.08601 317
25.10613 341
25.12624 334
25.14635 292
25.16647 357
25.18658 312
25.20669 313
25.22681 316
25.24692 301
25.26704 316
25.28715 327
25.30726 314
25.32738 345
25.34749 319
25.3676 354
25.38772 340
25.40783 342
25.42795 390
25.44806 333
25.46817 383
25.48829 391
25.5084 425
25.52851 433
25.54863 505
25.56874 432
25.58886 462
25.60897 448
25.62908 453
25.6492 450
25.66931 460
25.68942 472
25.70954 481
25.72965 471
25.74976 462
25.76988 428
25.78999 424
25.81011 440
25.83022 420
25.85033 401
25.87045 430
25.89056 488
25.91067 418
25.93079 415
25.9509 421
25.97102 416
25.99113 411
26.01124 405
26.03136 497
26.05147 427
26.07158 493
26.0917 470
26.11181 468
26.13193 517
26.15204 525
26.17215 535
26.19227 599
26.21238 628
26.23249 629
26.25261 748
26.27272 722
26.29283 803
26.31295 834
26.33306 900
26.35318 988
26.37329 1147
26.3934 1207
26.41352 1399
26.43363 1620
26.45374 2014
26.47386 2559
26.49397 3310
26.51409 4464
26.5342 6299
26.55431 8785
26.57443 12484
26.59454 17171
26.61465 23321
26.63477 29906
26.65488 33946
26.67499 33236
26.69511 27245
26.71522 20935
26.73534 16157
26.75545 11342
26.77556 6522
26.79568 3319
26.81579 2027
26.8359 1536
26.85602 1393
26.87613 1207
26.89625 1086
26.91636 1088
26.93647 999
26.95659 1018
26.9767 1055
26.99681 917
27.01693 895
27.03704 815
27.05716 804
27.07727 758
27.09738 733
27.1175 693
27.13761 589
27.15772 537
27.17784 530
27.19795 509
27.21806 473
27.23818 488
27.25829 500
27.27841 442
27.29852 542
27.31863 512
27.33875 563
27.35886 541
27.37897 573
27.39909 609
27.4192 623
27.43932 718
27.45943 738
27.47954 811
27.49966 786
27.51977 662
27.53988 722
27.56 573
27.58011 526
27.60023 501
27.62034 491
27.64045 435
27.66057 459
27.68068 475
27.70079 507
27.72091 504
27.74102 531
27.76113 625
27.78125 555
27.80136 564
27.82148 568
27.84159 584
27.8617 630
27.88182 631
27.90193 747
27.92204 759
27.94216 800
27.96227 808
27.98239 743
28.0025 699
28.02261 655
28.04273 604
28.06284 480
28.08295 443
28.10307 449
28.12318 397
28.1433 384
28.16341 393
28.18352 426
28.20364 398
28.22375 389
28.24386 371
28.26398 411
28.28409 396
28.3042 374
28.32432 373
28.34443 383
28.36455 349
28.38466 332
28.40477 335
28.42489 291
28.445 276
28.46511 308
28.48523 267
28.50534 292
28.52546 306
28.54557 305
28.56568 282
28.5858 292
28.60591 275
28.62602 262
28.64614 270
28.66625 266
28.68636 266
28.70648 273
28.72659 250
28.74671 294
28.76682 260
28.78693 211
28.80705 265
28.82716 267
28.84727 257
28.86739 253
28.8875 255
28.90762 250
28.92773 263
28.94784 281
28.96796 250
28.98807 269
29.00818 266
29.0283 244
29.04841 288
29.06853 274
29.08864 238
29.10875 259
29.12887 257
29.14898 261
29.16909 233
29.18921 256
29.20932 262
29.22943 240
29.24955 232
29.26966 257
29.28978 250
29.30989 277
29.33 251
29.35012 279
29.37023 299
29.39034 268
29.41046 295
29.43057 310
29.45069 314
29.4708 303
29.49091 352
29.51103 307
29.53114 285
29.55125 273
29.57137 287
29.59148 256
29.6116 290
29.63171 268
29.65182 274
29.67194 255
29.69205 285
29.71216 221
29.73228 243
29.75239 256
29.7725 253
29.79262 248
29.81273 285
29.83285 297
29.85296 254
29.87307 258
29.89319 286
29.9133 283
29.93341 314
29.95353 285
29.97364 319
29.99376 293
30.01387 291
30.03398 291
30.0541 289
30.07421 315
30.09432 331
30.11444 314
30.13455 318
30.15467 326
30.17478 304
30.19489 329
30.21501 296
30.23512 352
30.25523 319
30.27535 345
30.29546 322
30.31557 296
30.33569 301
30.3558 303
30.37592 318
30.39603 283
30.41614 311
30.43626 285
30.45637 329
30.47648 320
30.4966 320
30.51671 316
30.53683 314
30.55694 287
30.57705 327
30.59717 253
30.61728 269
30.63739 250
30.65751 275
30.67762 268
30.69773 272
30.71785 289
30.73796 281
30.75808 304
30.77819 284
30.7983 320
30.81842 287
30.83853 286
30.85864 295
30.87876 292
30.89887 266
30.91899 287
30.9391 283
30.95921 257
30.97933 253
30.99944 265
31.01955 238
31.03967 272
31.05978 213
31.0799 219
31.10001 225
31.12012 242
31.14024 232
31.16035 230
31.18046 246
31.20058 257
31.22069 231
31.2408 263
31.26092 242
31.28103 260
31.30115 269
31.32126 268
31.34137 271
31.36149 249
31.3816 270
31.40171 240
31.42183 241
31.44194 241
31.46206 235
31.48217 224
31.50228 234
31.5224 233
31.54251 218
31.56262 235
31.58274 207
31.60285 213
31.62297 223
31.64308 241
31.66319 196
31.68331 218
31.70342 219
31.72353 207
31.74365 204
31.76376 219
31.78387 236
31.80399 219
31.8241 231
31.84422 214
31.86433 203
31.88444 230
31.90456 201
31.92467 223
31.94478 189
31.9649 218
31.98501 213
32.00513 212
32.02524 219
32.04535 230
32.06547 213
32.08558 220
32.10569 246
32.12581 207
32.14592 230
32.16604 226
32.18615 220
32.20626 213
32.22638 218
32.24649 223
32.2666 203
32.28672 192
32.30683 221
32.32694 248
32.34706 240
32.36717 238
32.38729 220
32.4074 201
32.42751 202
32.44763 235
32.46774 223
32.48785 245
32.50797 225
32.52808 234
32.5482 226
32.56831 218
32.58842 206
32.60854 193
32.62865 194
32.64876 175
32.66888 204
32.68899 212
32.7091 192
32.72922 200
32.74933 205
32.76945 188
32.78956 204
32.80967 198
32.82979 196
32.8499 198
32.87001 237
32.89013 219
32.91024 227
32.93036 214
32.95047 225
32.97058 187
32.9907 181
33.01081 208
33.03092 208
33.05104 226
33.07115 188
33.09127 193
33.11138 172
33.13149 210
33.15161 221
33.17172 224
33.19183 201
33.21195 198
33.23206 204
33.25217 219
33.27229 202
33.2924 224
33.31252 217
33.33263 240
33.35274 201
33.37286 204
33.39297 186
33.41308 192
33.4332 199
33.45331 189
33.47343 211
33.49354 204
33.51365 203
33.53377 186
33.55388 194
33.57399 179
33.59411 181
33.61422 188
33.63434 182
33.65445 182
33.67456 181
33.69468 226
33.71479 218
33.7349 211
33.75502 223
33.77513 207
33.79524 202
33.81536 187
33.83547 194
33.85559 212
33.8757 224
33.89581 219
33.91593 235
33.93604 225
33.95615 215
33.97627 221
33.99638 201
34.0165 215
34.03661 266
34.05672 239
34.07684 203
34.09695 251
34.11706 197
34.13718 270
34.15729 244
34.17741 244
34.19752 251
34.21763 302
34.23775 268
34.25786 295
34.27797 269
34.29809 298
34.3182 308
34.33831 257
34.35843 247
34.37854 211
34.39866 270
34.41877 252
34.43888 248
34.459 235
34.47911 256
34.49922 283
34.51934 261
34.53945 250
34.55957 245
34.57968 248
34.59979 238
34.61991 242
34.64002 240
34.66013 263
34.68025 249
34.70036 301
34.72047 277
34.74059 274
34.7607 288
34.78082 242
34.80093 268
34.82104 313
34.84116 353
34.86127 282
34.88138 322
34.9015 314
34.92161 352
34.94173 318
34.96184 298
34.98195 336
35.00207 324
35.02218 315
35.04229 315
35.06241 323
35.08252 311
35.10264 323
35.12275 284
35.14286 307
35.16298 310
35.18309 309
35.2032 297
35.22332 254
35.24343 302
35.26354 279
35.28366 283
35.30377 305
35.32389 263
35.344 264
35.36411 306
35.38423 302
35.40434 285
35.42445 288
35.44457 252
35.46468 284
35.4848 305
35.50491 251
35.52502 275
35.54514 281
35.56525 293
35.58536 272
35.60548 272
35.62559 268
35.64571 271
35.66582 259
35.68593 268
35.70605 262
35.72616 280
35.74627 279
35.76639 260
35.7865 254
35.80661 288
35.82673 279
35.84684 279
35.86696 289
35.88707 264
35.90718 264
35.9273 258
35.94741 255
35.96752 277
35.98764 279
36.00775 287
36.02787 278
36.04798 271
36.06809 272
36.08821 278
36.10832 266
36.12843 246
36.14855 264
36.16866 257
36.18878 278
36.20889 277
36.229 288
36.24912 299
36.26923 306
36.28934 331
36.30946 331
36.32957 348
36.34968 400
36.3698 441
36.38991 525
36.41003 600
36.43014 735
36.45025 950
36.47037 1140
36.49048 1452
36.51059 1839
36.53071 2100
36.55082 2319
36.57094 2307
36.59105 1936
36.61116 1564
36.63128 1355
36.65139 1226
36.6715 1028
36.69162 847
36.71173 568
36.73184 428
36.75196 369
36.77207 376
36.79219 329
36.8123 327
36.83241 307
36.85253 266
36.87264 318
36.89275 308
36.91287 304
36.93298 297
36.9531 293
36.97321 323
36.99332 299
37.01344 284
37.03355 264
37.05366 271
37.07378 278
37.09389 255
37.11401 263
37.13412 292
37.15423 274
37.17435 249
37.19446 218
37.21457 250
37.23469 212
37.2548 256
37.27491 233
37.29503 246
37.31514 252
37.33526 265
37.35537 218
37.37548 245
37.3956 230
37.41571 252
37.43582 241
37.45594 241
37.47605 226
37.49617 235
37.51628 271
37.53639 241
37.55651 273
37.57662 282
37.59673 252
37.61685 236
37.63696 258
37.65708 296
37.67719 263
37.6973 261
37.71742 245
37.73753 240
37.75764 211
37.77776 229
37.79787 225
37.81798 244
37.8381 241
37.85821 253
37.87833 236
37.89844 249
37.91855 248
37.93867 269
37.95878 244
37.97889 222
37.99901 228
38.01912 248
38.03924 244
38.05935 235
38.07946 236
38.09958 225
38.11969 228
38.1398 263
38.15992 241
38.18003 242
38.20015 252
38.22026 243
38.24037 244
38.26049 247
38.2806 246
38.30071 261
38.32083 232
38.34094 240
38.36105 251
38.38117 281
38.40128 270
38.4214 287
38.44151 275
38.46162 274
38.48174 269
38.50185 276
38.52196 297
38.54208 275
38.56219 264
38.58231 280
38.60242 255
38.62253 274
38.64265 253
38.66276 258
38.68287 244
38.70299 224
38.7231 240
38.74321 239
38.76333 227
38.78344 238
38.80356 257
38.82367 227
38.84378 232
38.8639 246
38.88401 243
38.90412 213
38.92424 221
38.94435 246
38.96447 220
38.98458 268
39.00469 207
39.02481 269
39.04492 244
39.06503 224
39.08515 264
39.10526 274
39.12538 277
39.14549 246
39.1656 278
39.18572 297
39.20583 315
39.22594 320
39.24606 339
39.26617 376
39.28628 412
39.3064 488
39.32651 592
39.34663 674
39.36674 776
39.38685 1020
39.40697 1287
39.42708 1557
39.44719 1885
39.46731 2085
39.48742 2185
39.50754 1822
39.52765 1486
39.54776 1174
39.56788 1181
39.58799 1082
39.6081 901
39.62822 639
39.64833 410
39.66845 325
39.68856 315
39.70867 267
39.72879 260
39.7489 256
39.76901 263
39.78913 261
39.80924 271
39.82935 230
39.84947 226
39.86958 238
39.8897 227
39.90981 266
39.92992 266
39.95004 231
39.97015 268
39.99026 235
40.01038 248
40.03049 284
40.05061 258
40.07072 277
40.09083 294
40.11095 351
40.13106 360
40.15117 370
40.17129 455
40.1914 551
40.21152 653
40.23163 750
40.25174 891
40.27186 997
40.29197 1110
40.31208 1100
40.3322 909
40.35231 797
40.37242 698
40.39254 650
40.41265 643
40.43277 522
40.45288 426
40.47299 334
40.49311 269
40.51322 242
40.53333 236
40.55345 259
40.57356 205
40.59368 258
40.61379 191
40.6339 201
40.65402 252
40.67413 220
40.69424 219
40.71436 214
40.73447 210
40.75458 211
40.7747 220
40.79481 218
40.81493 212
40.83504 220
40.85515 220
40.87527 203
40.89538 203
40.91549 219
40.93561 218
40.95572 191
40.97584 221
40.99595 187
41.01606 230
41.03618 206
41.05629 206
41.0764 213
41.09652 215
41.11663 213
41.13675 214
41.15686 223
41.17697 235
41.19709 211
41.2172 216
41.23731 216
41.25743 250
41.27754 196
41.29765 186
41.31777 234
41.33788 210
41.358 216
41.37811 209
41.39822 228
41.41834 225
41.43845 244
41.45856 230
41.47868 212
41.49879 239
41.51891 240
41.53902 229
41.55913 225
41.57925 226
41.59936 214
41.61947 248
41.63959 232
41.6597 213
41.67982 231
41.69993 225
41.72004 243
41.74016 235
41.76027 304
41.78038 310
41.8005 277
41.82061 322
41.84072 277
41.86084 263
41.88095 262
41.90107 253
41.92118 267
41.94129 257
41.96141 242
41.98152 221
42.00163 221
42.02175 253
42.04186 224
42.06198 241
42.08209 215
42.1022 229
42.12232 229
42.14243 263
42.16254 271
42.18266 250
42.20277 265
42.22289 302
42.243 283
42.26311 358
42.28323 377
42.30334 481
42.32345 531
42.34357 656
42.36368 803
42.38379 968
42.40391 1172
42.42402 1378
42.44414 1465
42.46425 1541
42.48436 1381
42.50448 1115
42.52459 907
42.5447 900
42.56482 857
42.58493 766
42.60505 568
42.62516 437
42.64527 306
42.66539 270
42.6855 269
42.70561 253
42.72573 236
42.74584 248
42.76595 217
42.78607 245
42.80618 217
42.8263 244
42.84641 208
42.86652 215
42.88664 211
42.90675 174
42.92686 208
42.94698 215
42.96709 191
42.98721 202
43.00732 190
43.02743 200
43.04755 215
43.06766 164
43.08777 186
43.10789 215
43.128 196
43.14812 205
43.16823 186
43.18834 199
43.20846 198
43.22857 203
43.24868 198
43.2688 184
43.28891 218
43.30902 187
43.32914 179
43.34925 177
43.36937 184
43.38948 183
43.40959 201
43.42971 199
43.44982 197
43.46993 188
43.49005 207
43.51016 186
43.53028 201
43.55039 175
43.5705 219
43.59062 201
43.61073 188
43.63084 193
43.65096 191
43.67107 207
43.69119 179
43.7113 183
43.73141 176
43.75153 197
43.77164 170
43.79175 174
43.81187 169
43.83198 175
43.85209 199
43.87221 167
43.89232 189
43.91244 187
43.93255 177
43.95266 154
43.97278 178
43.99289 191
44.013 179
44.03312 186
44.05323 192
44.07335 164
44.09346 185
44.11357 194
44.13369 194
44.1538 182
44.17391 171
44.19403 187
44.21414 198
44.23426 200
44.25437 175
44.27448 189
44.2946 187
44.31471 204
44.33482 178
44.35494 170
44.37505 201
44.39516 192
44.41528 169
44.43539 163
44.45551 184
44.47562 200
44.49573 197
44.51585 195
44.53596 204
44.55607 182
44.57619 185
44.5963 190
44.61642 194
44.63653 173
44.65664 190
44.67676 193
44.69687 185
44.71698 175
44.7371 199
44.75721 186
44.77732 184
44.79744 207
44.81755 209
44.83767 195
44.85778 212
44.87789 200
44.89801 201
44.91812 163
44.93823 200
44.95835 192
44.97846 212
44.99858 199
45.01869 187
45.0388 197
45.05892 208
45.07903 174
45.09914 178
45.11926 186
45.13937 200
45.15949 191
45.1796 176
45.19971 210
45.21983 189
45.23994 194
45.26005 196
45.28017 204
45.30028 202
45.32039 200
45.34051 198
45.36062 223
45.38074 225
45.40085 244
45.42096 220
45.44108 209
45.46119 252
45.4813 241
45.50142 252
45.52153 279
45.54165 270
45.56176 267
45.58187 272
45.60199 324
45.6221 315
45.64221 363
45.66233 449
45.68244 464
45.70256 595
45.72267 655
45.74278 890
45.7629 905
45.78301 1015
45.80312 1039
45.82324 940
45.84335 846
45.86346 719
45.88358 615
45.90369 600
45.92381 609
45.94392 520
45.96403 435
45.98415 323
46.00426 246
46.02437 216
46.04449 215
46.0646 214
46.08472 194
46.10483 218
46.12494 192
46.14506 205
46.16517 190
46.18528 191
46.2054 177
46.22551 198
46.24563 208
46.26574 201
46.28585 188
46.30597 200
46.32608 180
46.34619 197
46.36631 206
46.38642 195
46.40653 189
46.42665 176
46.44676 168
46.46688 197
46.48699 181
46.5071 199
46.52722 161
46.54733 181
46.56744 193
46.58756 179
46.60767 166
46.62779 182
46.6479 193
46.66801 179
46.68813 181
46.70824 175
46.72835 172
46.74847 195
46.76858 201
46.78869 191
46.80881 163
46.82892 179
46.84904 166
46.86915 176
46.88926 173
46.90938 189
46.92949 181
46.9496 183
46.96972 202
46.98983 185
47.00995 170
47.03006 192
47.05017 191
47.07029 175
47.0904 178
47.11051 175
47.13063 214
47.15074 178
47.17086 158
47.19097 168
47.21108 184
47.2312 205
47.25131 186
47.27142 180
47.29154 178
47.31165 202
47.33176 171
47.35188 173
47.37199 173
47.39211 186
47.41222 203
47.43233 197
47.45245 181
47.47256 205
47.49267 204
47.51279 173
47.5329 195
47.55302 188
47.57313 198
47.59324 178
47.61336 178
47.63347 186
47.65358 189
47.6737 175
47.69381 186
47.71393 189
47.73404 202
47.75415 159
47.77427 185
47.79438 191
47.81449 168
47.83461 191
47.85472 182
47.87483 157
47.89495 185
47.91506 162
47.93518 187
47.95529 171
47.9754 175
47.99552 187
48.01563 190
48.03574 196
48.05586 184
48.07597 173
48.09609 213
48.1162 200
48.13631 183
48.15643 156
48.17654 165
48.19665 185
48.21677 201
48.23688 177
48.257 184
48.27711 182
48.29722 181
48.31734 200
48.33745 178
48.35756 163
48.37768 190
48.39779 174
48.4179 199
48.43802 177
48.45813 180
48.47825 172
48.49836 167
48.51847 205
48.53859 197
48.5587 168
48.57881 188
48.59893 177
48.61904 181
48.63916 165
48.65927 165
48.67938 167
48.6995 176
48.71961 190
48.73972 199
48.75984 206
48.77995 173
48.80006 208
48.82018 202
48.84029 190
48.86041 184
48.88052 171
48.90063 205
48.92075 184
48.94086 206
48.96097 193
48.98109 202
49.0012 203
49.02132 186
49.04143 192
49.06154 196
49.08166 219
49.10177 217
49.12188 202
49.142 229
49.16211 217
49.18223 204
49.20234 210
49.22245 216
49.24257 204
49.26268 212
49.28279 201
49.30291 209
49.32302 230
49.34313 215
49.36325 200
49.38336 221
49.40348 193
49.42359 180
49.4437 185
49.46382 172
49.48393 201
49.50404 199
49.52416 174
49.54427 199
49.56439 220
49.5845 219
49.60461 220
49.62473 251
49.64484 215
49.66495 257
49.68507 243
49.70518 251
49.7253 251
49.74541 269
49.76552 309
49.78564 260
49.80575 310
49.82586 354
49.84598 393
49.86609 452
49.8862 469
49.90632 522
49.92643 561
49.94655 653
49.96666 741
49.98677 885
50.00689 1073
50.027 1312
50.04711 1669
50.06723 2042
50.08734 2482
50.10746 2827
50.12757 3145
50.14768 3202
50.1678 2919
50.18791 2309
50.20802 1869
50.22814 1650
50.24825 1694
50.26837 1584
50.28848 1533
50.30859 1247
50.32871 835
50.34882 609
50.36893 434
50.38905 371
50.40916 317
50.42927 312
50.44939 336
50.4695 308
50.48962 284
50.50973 341
50.52984 304
50.54996 340
50.57007 315
50.59018 329
50.6103 307
50.63041 332
50.65053 324
50.67064 283
50.69075 271
50.71087 269
50.73098 242
50.75109 268
50.77121 234
50.79132 261
50.81143 235
50.83155 200
50.85166 210
50.87178 219
50.89189 204
50.912 179
50.93212 197
50.95223 185
50.97234 208
50.99246 217
51.01257 192
51.03269 223
51.0528 170
51.07291 191
51.09303 209
51.11314 182
51.13325 180
51.15337 206
51.17348 193
51.1936 218
51.21371 201
51.23382 206
51.25394 200
51.27405 172
51.29416 208
51.31428 194
51.33439 205
51.3545 178
51.37462 176
51.39473 172
51.41485 185
51.43496 174
51.45507 175
51.47519 165
51.4953 149
51.51541 170
51.53553 180
51.55564 166
51.57576 182
51.59587 207
51.61598 154
51.6361 166
51.65621 168
51.67632 169
51.69644 167
51.71655 146
51.73667 160
51.75678 159
51.77689 169
51.79701 157
51.81712 165
51.83723 160
51.85735 158
51.87746 163
51.89757 169
51.91769 181
51.9378 171
51.95792 158
51.97803 173
51.99814 165
52.01826 187
52.03837 152
52.05848 159
52.0786 173
52.09871 178
52.11883 164
52.13894 160
52.15905 147
52.17917 168
52.19928 197
52.21939 170
52.23951 154
52.25962 143
52.27974 177
52.29985 159
52.31996 176
52.34008 181
52.36019 170
52.3803 162
52.40042 185
52.42053 176
52.44064 158
52.46076 181
52.48087 159
52.50099 190
52.5211 175
52.54121 171
52.56133 163
52.58144 165
52.60155 165
52.62167 180
52.64178 161
52.6619 168
52.68201 167
52.70212 175
52.72224 180
52.74235 160
52.76246 231
52.78258 174
52.80269 189
52.8228 186
52.84292 180
52.86303 180
52.88315 184
52.90326 182
52.92337 187
52.94349 147
52.9636 175
52.98371 185
53.00383 190
53.02394 176
53.04406 185
53.06417 206
53.08428 186
53.1044 181
53.12451 177
53.14462 175
53.16474 196
53.18485 196
53.20497 184
53.22508 185
53.24519 187
53.26531 190
53.28542 174
53.30553 196
53.32565 168
53.34576 189
53.36587 216
53.38599 192
53.4061 215
53.42622 201
53.44633 181
53.46644 178
53.48656 181
53.50667 195
53.52678 199
53.5469 180
53.56701 201
53.58713 181
53.60724 164
53.62735 180
53.64747 190
53.66758 221
53.68769 205
53.70781 204
53.72792 182
53.74804 181
53.76815 197
53.78826 189
53.80838 196
53.82849 202
53.8486 207
53.86872 178
53.88883 193
53.90894 181
53.92906 216
53.94917 201
53.96929 193
53.9894 149
54.00951 214
54.02963 199
54.04974 214
54.06985 153
54.08997 187
54.11008 204
54.1302 205
54.15031 184
54.17042 195
54.19054 208
54.21065 177
54.23076 227
54.25088 204
54.27099 195
54.29111 200
54.31122 187
54.33133 202
54.35145 197
54.37156 225
54.39167 217
54.41179 233
54.4319 232
54.45201 235
54.47213 209
54.49224 230
54.51236 235
54.53247 244
54.55258 232
54.5727 261
54.59281 203
54.61292 265
54.63304 272
54.65315 296
54.67327 320
54.69338 367
54.71349 403
54.73361 447
54.75372 484
54.77383 619
54.79395 721
54.81406 835
54.83417 857
54.85429 956
54.8744 1050
54.89452 977
54.91463 775
54.93474 709
54.95486 623
54.97497 619
54.99508 566
55.0152 617
55.03531 624
55.05543 524
55.07554 403
55.09565 317
55.11577 309
55.13588 307
55.15599 288
55.17611 350
55.19622 368
55.21634 364
55.23645 390
55.25656 503
55.27668 497
55.29679 560
55.3169 558
55.33702 537
55.35713 536
55.37724 432
55.39736 383
55.41747 357
55.43759 340
55.4577 385
55.47781 352
55.49793 330
55.51804 289
55.53815 235
55.55827 217
55.57838 224
55.5985 207
55.61861 214
55.63872 201
55.65884 218
55.67895 202
55.69906 227
55.71918 190
55.73929 189
55.75941 198
55.77952 179
55.79963 185
55.81975 176
55.83986 188
55.85997 190
55.88009 181
55.9002 166
55.92031 167
55.94043 183
55.96054 180
55.98066 158
56.00077 181
56.02088 171
56.041 170
56.06111 199
56.08122 190
56.10134 166
56.12145 186
56.14157 178
56.16168 176
56.18179 191
56.20191 174
56.22202 168
56.24213 163
56.26225 175
56.28236 197
56.30248 172
56.32259 153
56.3427 157
56.36282 173
56.38293 157
56.40304 144
56.42316 190
56.44327 174
56.46338 173
56.4835 169
56.50361 155
56.52373 174
56.54384 175
56.56395 184
56.58407 174
56.60418 161
56.62429 172
56.64441 183
56.66452 183
56.68464 162
56.70475 185
56.72486 163
56.74498 174
56.76509 189
56.7852 185
56.80532 169
56.82543 171
56.84554 163
56.86566 172
56.88577 172
56.90589 167
56.926 171
56.94611 172
56.96623 177
56.98634 169
57.00645 195
57.02657 164
57.04668 171
57.0668 154
57.08691 171
57.10702 178
57.12714 183
57.14725 189
57.16736 220
57.18748 214
57.20759 181
57.22771 226
57.24782 214
57.26793 209
57.28805 200
57.30816 194
57.32827 174
57.34839 186
57.3685 211
57.38861 205
57.40873 178
57.42884 181
57.44896 184
57.46907 191
57.48918 176
57.5093 171
57.52941 196
57.54952 179
57.56964 161
57.58975 163
57.60987 184
57.62998 173
57.65009 188
57.67021 165
57.69032 182
57.71043 160
57.73055 168
57.75066 164
57.77078 160
57.79089 166
57.811 171
57.83112 167
57.85123 172
57.87134 165
57.89146 173
57.91157 203
57.93168 147
57.9518 166
57.97191 180
57.99203 148
58.01214 190
58.03225 191
58.05237 175
58.07248 164
58.09259 179
58.11271 173
58.13282 177
58.15294 172
58.17305 160
58.19316 160
58.21328 162
58.23339 154
58.2535 169
58.27362 179
58.29373 170
58.31385 157
58.33396 156
58.35407 208
58.37419 163
58.3943 151
58.41441 179
58.43453 182
58.45464 178
58.47475 160
58.49487 164
58.51498 178
58.5351 174
58.55521 180
58.57532 173
58.59544 195
58.61555 178
58.63566 211
58.65578 189
58.67589 191
58.69601 175
58.71612 202
58.73623 174
58.75635 179
58.77646 174
58.79657 183
58.81669 169
58.8368 175
58.85691 161
58.87703 163
58.89714 180
58.91726 162
58.93737 160
58.95748 167
58.9776 168
58.99771 174
59.01782 176
59.03794 161
59.05805 177
59.07817 166
59.09828 181
59.11839 173
59.13851 156
59.15862 198
59.17873 168
59.19885 189
59.21896 149
59.23908 156
59.25919 165
59.2793 166
59.29942 189
59.31953 183
59.33964 172
59.35976 164
59.37987 176
59.39998 189
59.4201 174
59.44021 179
59.46033 205
59.48044 202
59.50055 212
59.52067 201
59.54078 222
59.56089 221
59.58101 227
59.60112 248
59.62124 263
59.64135 301
59.66146 306
59.68158 328
59.70169 349
59.7218 416
59.74192 454
59.76203 509
59.78215 591
59.80226 717
59.82237 798
59.84249 1010
59.8626 1159
59.88271 1471
59.90283 1708
59.92294 1790
59.94305 1843
59.96317 1861
59.98328 1715
60.0034 1435
60.02351 1141
60.04362 1014
60.06374 965
60.08385 1000
60.10396 1029
60.12408 1024
60.14419 862
60.16431 721
60.18442 473
60.20453 366
60.22465 280
60.24476 308
60.26487 254
60.28499 221
60.3051 244
60.32522 247
60.34533 245
60.36544 231
60.38556 215
60.40567 210
60.42578 212
60.4459 209
60.46601 210
60.48612 200
60.50624 196
60.52635 211
60.54647 196
60.56658 182
60.58669 194
60.60681 197
60.62692 180
60.64703 182
60.66715 199
60.68726 181
60.70738 180
60.72749 180
60.7476 188
60.76772 190
60.78783 173
60.80794 194
60.82806 171
60.84817 171
60.86828 167
60.8884 201
60.90851 148
60.92863 162
60.94874 153
60.96885 186
60.98897 175
61.00908 168
61.02919 174
61.04931 177
61.06942 169
61.08954 203
61.10965 209
61.12976 220
61.14988 195
61.16999 166
61.1901 181
61.21022 172
61.23033 168
61.25045 202
61.27056 167
61.29067 196
61.31079 185
61.3309 183
61.35101 187
61.37113 187
61.39124 178
61.41135 207
61.43147 167
61.45158 199
61.4717 177
61.49181 170
61.51192 185
61.53204 200
61.55215 180
61.57226 179
61.59238 193
61.61249 172
61.63261 179
61.65272 197
61.67283 170
61.69295 203
61.71306 185
61.73317 177
61.75329 203
61.7734 189
61.79352 168
61.81363 186
61.83374 181
61.85386 151
61.87397 178
61.89408 168
61.9142 182
61.93431 185
61.95442 195
61.97454 201
61.99465 180
62.01477 190
62.03488 181
62.05499 181
62.07511 184
62.09522 206
62.11533 202
62.13545 190
62.15556 204
62.17568 181
62.19579 195
62.2159 211
62.23602 207
62.25613 177
62.27624 199
62.29636 208
62.31647 200
62.33659 206
62.3567 212
62.37681 191
62.39693 186
62.41704 208
62.43715 186
62.45727 200
62.47738 198
62.49749 206
62.51761 178
62.53772 187
62.55784 164
62.57795 174
62.59806 176
62.61818 194
62.63829 185
62.6584 188
62.67852 181
62.69863 148
62.71875 158
62.73886 181
62.75897 172
62.77909 155
62.7992 182
62.81931 184
62.83943 191
62.85954 193
62.87965 183
62.89977 171
62.91988 182
62.94 177
62.96011 181
62.98022 168
63.00034 197
63.02045 170
63.04056 178
63.06068 174
63.08079 165
63.10091 182
63.12102 195
63.14113 188
63.16125 162
63.18136 192
63.20147 161
63.22159 171
63.2417 186
63.26182 174
63.28193 167
63.30204 193
63.32216 163
63.34227 169
63.36238 173
63.3825 186
63.40261 167
63.42272 152
63.44284 161
63.46295 166
63.48307 183
63.50318 197
63.52329 154
63.54341 159
63.56352 209
63.58363 189
63.60375 183
63.62386 196
63.64398 174
63.66409 181
63.6842 204
63.70432 181
63.72443 183
63.74454 202
63.76466 196
63.78477 232
63.80489 240
63.825 230
63.84511 250
63.86523 262
63.88534 279
63.90545 302
63.92557 315
63.94568 385
63.96579 385
63.98591 397
64.00602 488
64.02614 493
64.04625 481
64.06636 433
64.08648 367
64.10659 328
64.1267 290
64.14682 296
64.16693 326
64.18705 326
64.20716 320
64.22727 300
64.24739 268
64.2675 238
64.28761 217
64.30773 190
64.32784 185
64.34796 187
64.36807 183
64.38818 136
64.4083 181
64.42841 173
64.44852 172
64.46864 161
64.48875 144
64.50886 166
64.52898 156
64.54909 153
64.56921 144
64.58932 137
64.60943 178
64.62955 148
64.64966 179
64.66977 155
64.68989 151
64.71 127
64.73012 158
64.75023 153
64.77034 160
64.79046 156
64.81057 148
64.83068 149
64.8508 160
64.87091 155
64.89102 179
64.91114 153
64.93125 163
64.95137 184
64.97148 168
64.99159 177
65.01171 163
65.03182 156
65.05193 162
65.07205 172
65.09216 147
65.11228 181
65.13239 153
65.1525 177
65.17262 181
65.19273 160
65.21284 198
65.23296 183
65.25307 181
65.27319 173
65.2933 162
65.31341 165
65.33353 162
65.35364 184
65.37375 161
65.39387 150
65.41398 164
65.43409 185
65.45421 167
65.47432 147
65.49444 155
65.51455 179
65.53466 149
65.55478 179
65.57489 175
65.595 174
65.61512 161
65.63523 195
65.65535 201
65.67546 212
65.69557 196
65.71569 204
65.7358 204
65.75591 211
65.77603 220
65.79614 216
65.81626 214
65.83637 213
65.85648 208
65.8766 195
65.89671 187
65.91682 193
65.93694 214
65.95705 192
65.97716 198
65.99728 186
66.01739 179
66.03751 180
66.05762 145
66.07773 171
66.09785 162
66.11796 150
66.13807 160
66.15819 174
66.1783 185
66.19842 180
66.21853 155
66.23864 173
66.25876 183
66.27887 166
66.29898 173
66.3191 182
66.33921 173
66.35933 148
66.37944 168
66.39955 168
66.41967 159
66.43978 165
66.45989 161
66.48001 165
66.50012 157
66.52023 154
66.54035 162
66.56046 173
66.58058 164
66.60069 164
66.6208 164
66.64092 149
66.66103 150
66.68114 145
66.70126 142
66.72137 159
66.74149 160
66.7616 153
66.78171 152
66.80183 164
66.82194 170
66.84205 162
66.86217 181
66.88228 173
66.90239 167
66.92251 179
66.94262 182
66.96274 187
66.98285 190
67.00296 172
67.02308 183
67.04319 171
67.0633 196
67.08342 200
67.10353 178
67.12365 170
67.14376 181
67.16387 210
67.18399 184
67.2041 190
67.22421 175
67.24433 203
67.26444 184
67.28456 210
67.30467 196
67.32478 201
67.3449 220
67.36501 187
67.38512 218
67.40524 254
67.42535 255
67.44546 225
67.46558 263
67.48569 278
67.50581 304
67.52592 325
67.54603 380
67.56615 405
67.58626 509
67.60637 601
67.62649 672
67.6466 788
67.66672 865
67.68683 1005
67.70694 1054
67.72706 1161
67.74717 1117
67.76728 996
67.7874 893
67.80751 751
67.82763 721
67.84774 714
67.86785 712
67.88797 815
67.90808 867
67.92819 874
67.94831 870
67.96842 855
67.98853 805
68.00865 823
68.02876 925
68.04888 1041
68.06899 1140
68.0891 1343
68.10922 1487
68.12933 1600
68.14944 1620
68.16956 1389
68.18967 1313
68.20979 1140
68.2299 1175
68.25001 1242
68.27013 1331
68.29024 1375
68.31035 1443
68.33047 1380
68.35058 1169
68.3707 931
68.39081 833
68.41092 607
68.43104 592
68.45115 563
68.47126 576
68.49138 577
68.51149 508
68.5316 465
68.55172 396
68.57183 308
68.59195 261
68.61206 242
68.63217 207
68.65229 199
68.6724 204
68.69251 205
68.71263 191
68.73274 178
68.75286 166
68.77297 171
68.79308 167
68.8132 189
68.83331 183
68.85342 166
68.87354 158
68.89365 176
68.91376 178
68.93388 174
68.95399 195
68.97411 168
68.99422 192
69.01433 171
69.03445 164
69.05456 187
69.07467 171
69.09479 166
69.1149 154
69.13502 156
69.15513 178
69.17524 158
69.19536 174
69.21547 165
69.23558 164
69.2557 159
69.27581 181
69.29593 149
69.31604 160
69.33615 148
69.35627 159
69.37638 169
69.39649 186
69.41661 159
69.43672 182
69.45683 171
69.47695 173
69.49706 160
69.51718 155
69.53729 170
69.5574 162
69.57752 162
69.59763 147
69.61774 167
69.63786 155
69.65797 149
69.67809 159
69.6982 160
69.71831 150
69.73843 160
69.75854 134
69.77865 168
69.79877 176
69.81888 165
69.839 158
69.85911 176
69.87922 175
69.89934 150
69.91945 148
69.93956 172
69.95968 158
69.97979 152
69.9999 176
70.02002 157
70.04013 178
70.06025 160
70.08036 154
70.10047 150
70.12059 180
70.1407 152
70.16081 149
70.18093 153
70.20104 141
70.22116 149
70.24127 143
70.26138 138
70.2815 136
70.30161 149
70.32172 160
70.34184 159
70.36195 155
70.38207 150
70.40218 140
70.42229 125
70.44241 133
70.46252 134
70.48263 172
70.50275 160
70.52286 169
70.54297 156
70.56309 128
70.5832 159
70.60332 164
70.62343 144
70.64354 154
70.66366 156
70.68377 143
70.70388 133
70.724 168
70.74411 145
70.76423 142
70.78434 140
70.80445 149
70.82457 149
70.84468 145
70.86479 137
70.88491 152
70.90502 164
70.92513 141
70.94525 150
70.96536 166
70.98548 144
71.00559 167
71.0257 141
71.04582 161
71.06593 126
71.08604 134
71.10616 179
71.12627 180
71.14639 157
71.1665 150
71.18661 155
71.20673 143
71.22684 146
71.24695 180
71.26707 142
71.28718 139
71.3073 157
71.32741 142
71.34752 162
71.36764 155
71.38775 163
71.40786 149
71.42798 148
71.44809 140
71.4682 162
71.48832 156
71.50843 147
71.52855 174
71.54866 157
71.56877 160
71.58889 174
71.609 150
71.62911 151
71.64923 187
71.66934 149
71.68946 153
71.70957 139
71.72968 161
71.7498 158
71.76991 147
71.79002 168
71.81014 130
71.83025 151
71.85037 138
71.87048 151
71.89059 158
71.91071 138
71.93082 153
71.95093 141
71.97105 150
71.99116 159
72.01127 135
72.03139 163
72.0515 161
72.07162 160
72.09173 155
72.11184 148
72.13196 146
72.15207 164
72.17218 153
72.1923 153
72.21241 145
72.23253 135
72.25264 141
72.27275 150
72.29287 145
72.31298 146
72.33309 147
72.35321 167
72.37332 153
72.39344 164
72.41355 145
72.43366 147
72.45378 155
72.47389 135
72.494 130
72.51412 155
72.53423 150
72.55434 155
72.57446 151
72.59457 153
72.61469 155
72.6348 125
72.65491 147
72.67503 120
72.69514 160
72.71525 149
72.73537 163
72.75548 151
72.7756 151
72.79571 145
72.81582 166
72.83594 159
72.85605 153
72.87616 160
72.89628 154
72.91639 153
72.9365 164
72.95662 142
72.97673 151
72.99685 152
73.01696 139
73.03707 144
73.05719 198
73.0773 179
73.09741 177
73.11753 189
73.13764 176
73.15776 206
73.17787 203
73.19798 218
73.2181 210
73.23821 234
73.25832 229
73.27844 245
73.29855 266
73.31867 298
73.33878 303
73.35889 341
73.37901 357
73.39912 395
73.41923 499
73.43935 434
73.45946 494
73.47957 487
73.49969 435
73.5198 366
73.53992 306
73.56003 283
73.58014 261
73.60026 265
73.62037 319
73.64048 299
73.6606 288
73.68071 322
73.70083 282
73.72094 243
73.74105 234
73.76117 176
73.78128 178
73.80139 168
73.82151 183
73.84162 134
73.86174 172
73.88185 163
73.90196 169
73.92208 159
73.94219 172
73.9623 157
73.98242 156
74.00253 160
74.02264 150
74.04276 153
74.06287 130
74.08299 148
74.1031 157
74.12321 144
74.14333 148
74.16344 151
74.18355 145
74.20367 143
74.22378 143
74.2439 151
74.26401 150
74.28412 137
74.30424 157
74.32435 154
74.34446 167
74.36458 149
74.38469 149
74.40481 136
74.42492 156
74.44503 130
74.46515 139
74.48526 154
74.50537 181
74.52549 145
74.5456 164
74.56571 170
74.58583 149
74.60594 160
74.62606 151
74.64617 155
74.66628 161
74.6864 149
74.70651 157
74.72662 154
74.74674 157
74.76685 176
74.78697 139
74.80708 167
74.82719 161
74.84731 139
74.86742 143
74.88753 151
74.90765 154
74.92776 165
74.94787 143
74.96799 160
74.9881 152
75.00822 154
