3.00117 19713
3.02128 19514
3.0414 19047
3.06151 18335
3.08162 18332
3.10174 17596
3.12185 17114
3.14197 16615
3.16208 16087
3.18219 15549
3.20231 15153
3.22242 14645
3.24253 14573
3.26265 13957
3.28276 13722
3.30288 13082
3.32299 12711
3.3431 12513
3.36322 11909
3.38333 11666
3.40344 11370
3.42356 10982
3.44367 10931
3.46379 10113
3.4839 10213
3.50401 9808
3.52413 9239
3.54424 8998
3.56435 8503
3.58447 8270
3.60458 7976
3.62469 7799
3.64481 7756
3.66492 7265
3.68504 7050
3.70515 6962
3.72526 6464
3.74538 6398
3.76549 6014
3.7856 5813
3.80572 5586
3.82583 5453
3.84595 5340
3.86606 5040
3.88617 4759
3.90629 4773
3.9264 4487
3.94651 4395
3.96663 4195
3.98674 4130
4.00686 3799
4.02697 3724
4.04708 3793
4.0672 3419
4.08731 3476
4.10742 3246
4.12754 3172
4.14765 3117
4.16776 2891
4.18788 2987
4.20799 2779
4.22811 2777
4.24822 2718
4.26833 2517
4.28845 2481
4.30856 2613
4.32867 2449
4.34879 2507
4.3689 2247
4.38902 2288
4.40913 2290
4.42924 2194
4.44936 2235
4.46947 2171
4.48958 2119
4.5097 2072
4.52981 1996
4.54992 2020
4.57004 1845
4.59015 1957
4.61027 1979
4.63038 1933
4.65049 1932
4.67061 1742
4.69072 1813
4.71083 1844
4.73095 1826
4.75106 1799
4.77118 1726
4.79129 1758
4.8114 1791
4.83152 1725
4.85163 1604
4.87174 1626
4.89186 1607
4.91197 1697
4.93209 1587
4.9522 1580
4.97231 1579
4.99243 1554
5.01254 1601
5.03265 1570
5.05277 1485
5.07288 1496
5.09299 1433
5.11311 1500
5.13322 1424
5.15334 1408
5.17345 1472
5.19356 1437
5.21368 1457
5.23379 1456
5.2539 1332
5.27402 1339
5.29413 1308
5.31425 1324
5.33436 1355
5.35447 1351
5.37459 1339
5.3947 1296
5.41481 1332
5.43493 1318
5.45504 1290
5.47516 1364
5.49527 1290
5.51538 1267
5.5355 1281
5.55561 1297
5.57572 1227
5.59584 1226
5.61595 1199
5.63606 1239
5.65618 1190
5.67629 1210
5.69641 1159
5.71652 1255
5.73663 1198
5.75675 1164
5.77686 1232
5.79697 1175
5.81709 1172
5.8372 1210
5.85732 1168
5.87743 1129
5.89754 1128
5.91766 1190
5.93777 1089
5.95788 1194
5.978 1217
5.99811 1145
6.01823 1081
6.03834 1133
6.05845 1169
6.07857 1063
6.09868 1135
6.11879 1098
6.13891 1147
6.15902 1098
6.17913 1075
6.19925 1032
6.21936 1094
6.23948 1014
6.25959 985
6.2797 993
6.29982 967
6.31993 981
6.34004 976
6.36016 922
6.38027 998
6.40039 968
6.4205 934
6.44061 883
6.46073 882
6.48084 887
6.50095 899
6.52107 827
6.54118 913
6.56129 820
6.58141 836
6.60152 872
6.62164 843
6.64175 844
6.66186 778
6.68198 806
6.70209 835
6.7222 778
6.74232 748
6.76243 813
6.78255 848
6.80266 766
6.82277 807
6.84289 785
6.863 760
6.88311 810
6.90323 680
6.92334 739
6.94346 745
6.96357 733
6.98368 707
7.0038 703
7.02391 701
7.04402 700
7.06414 746
7.08425 702
7.10436 719
7.12448 716
7.14459 698
7.16471 696
7.18482 672
7.20493 694
7.22505 646
7.24516 633
7.26527 662
7.28539 659
7.3055 619
7.32562 596
7.34573 586
7.36584 646
7.38596 613
7.40607 661
7.42618 607
7.4463 604
7.46641 604
7.48653 648
7.50664 578
7.52675 572
7.54687 597
7.56698 626
7.58709 592
7.60721 616
7.62732 633
7.64743 539
7.66755 587
7.68766 598
7.70778 567
7.72789 581
7.748 581
7.76812 608
7.78823 565
7.80834 606
7.82846 556
7.84857 619
7.86869 586
7.8888 544
7.90891 581
7.92903 559
7.94914 613
7.96925 545
7.98937 552
8.00948 576
8.0296 598
8.04971 536
8.06982 556
8.08994 504
8.11005 537
8.13016 582
8.15028 539
8.17039 602
8.1905 565
8.21062 495
8.23073 514
8.25085 526
8.27096 588
8.29107 532
8.31119 524
8.3313 562
8.35141 559
8.37153 525
8.39164 549
8.41176 510
8.43187 512
8.45198 532
8.4721 548
8.49221 514
8.51232 529
8.53244 547
8.55255 532
8.57266 539
8.59278 546
8.61289 569
8.63301 528
8.65312 542
8.67323 556
8.69335 547
8.71346 543
8.73357 518
8.75369 558
8.7738 548
8.79392 512
8.81403 576
8.83414 510
8.85426 530
8.87437 545
8.89448 504
8.9146 483
8.93471 430
8.95483 492
8.97494 494
8.99505 447
9.01517 480
9.03528 445
9.05539 490
9.07551 465
9.09562 440
9.11573 440
9.13585 455
9.15596 431
9.17608 447
9.19619 439
9.2163 493
9.23642 460
9.25653 440
9.27664 436
9.29676 452
9.31687 436
9.33699 409
9.3571 454
9.37721 434
9.39733 412
9.41744 447
9.43755 445
9.45767 438
9.47778 420
9.4979 431
9.51801 402
9.53812 372
9.55824 427
9.57835 405
9.59846 435
9.61858 402
9.63869 430
9.6588 407
9.67892 403
9.69903 399
9.71915 388
9.73926 413
9.75937 443
9.77949 414
9.7996 436
9.81971 413
9.83983 375
9.85994 399
9.88006 374
9.90017 358
9.92028 404
9.9404 356
9.96051 397
9.98062 371
10.00074 383
10.02085 370
10.04097 360
10.06108 371
10.08119 360
10.10131 374
10.12142 387
10.14153 383
10.16165 382
10.18176 376
10.20187 403
10.22199 412
10.2421 385
10.26222 390
10.28233 338
10.30244 397
10.32256 387
10.34267 361
10.36278 355
10.3829 391
10.40301 410
10.42313 374
10.44324 411
10.46335 430
10.48347 390
10.50358 412
10.52369 398
10.54381 349
10.56392 360
10.58403 384
10.60415 364
10.62426 350
10.64438 359
10.66449 381
10.6846 363
10.70472 365
10.72483 364
10.74494 365
10.76506 369
10.78517 371
10.80529 382
10.8254 369
10.84551 352
10.86563 358
10.88574 374
10.90585 348
10.92597 363
10.94608 415
10.9662 352
10.98631 351
11.00642 361
11.02654 391
11.04665 356
11.06676 364
11.08688 380
11.10699 361
11.1271 379
11.14722 347
11.16733 369
11.18745 328
11.20756 351
11.22767 380
11.24779 395
11.2679 339
11.28801 395
11.30813 336
11.32824 379
11.34836 389
11.36847 339
11.38858 339
11.4087 393
11.42881 398
11.44892 350
11.46904 361
11.48915 320
11.50927 347
11.52938 383
11.54949 358
11.56961 356
11.58972 399
11.60983 359
11.62995 398
11.65006 313
11.67017 320
11.69029 385
11.7104 356
11.73052 368
11.75063 386
11.77074 359
11.79086 369
11.81097 409
11.83108 405
11.8512 353
11.87131 374
11.89143 403
11.91154 368
11.93165 406
11.95177 367
11.97188 381
11.99199 366
12.01211 397
12.03222 377
12.05234 378
12.07245 379
12.09256 361
12.11268 408
12.13279 373
12.1529 369
12.17302 403
12.19313 428
12.21324 367
12.23336 377
12.25347 435
12.27359 461
12.2937 436
12.31381 452
12.33393 445
12.35404 416
12.37415 490
12.39427 440
12.41438 421
12.4345 454
12.45461 425
12.47472 434
12.49484 384
12.51495 353
12.53506 391
12.55518 397
12.57529 384
12.5954 363
12.61552 365
12.63563 348
12.65575 365
12.67586 417
12.69597 389
12.71609 385
12.7362 339
12.75631 356
12.77643 381
12.79654 323
12.81666 332
12.83677 362
12.85688 352
12.877 350
12.89711 349
12.91722 384
12.93734 356
12.95745 364
12.97757 311
12.99768 339
13.01779 348
13.03791 372
13.05802 322
13.07813 336
13.09825 332
13.11836 333
13.13847 343
13.15859 348
13.1787 359
13.19882 345
13.21893 361
13.23904 343
13.25916 362
13.27927 304
13.29938 383
13.3195 370
13.33961 375
13.35973 369
13.37984 317
13.39995 349
13.42007 326
13.44018 327
13.46029 313
13.48041 349
13.50052 358
13.52064 394
13.54075 333
13.56086 348
13.58098 365
13.60109 354
13.6212 352
13.64132 343
13.66143 329
13.68154 355
13.70166 355
13.72177 365
13.74189 378
13.762 381
13.78211 371
13.80223 362
13.82234 360
13.84245 370
13.86257 340
13.88268 346
13.9028 382
13.92291 362
13.94302 356
13.96314 327
13.98325 362
14.00336 348
14.02348 360
14.04359 355
14.06371 310
14.08382 348
14.10393 352
14.12405 337
14.14416 345
14.16427 355
14.18439 322
14.2045 347
14.22461 341
14.24473 326
14.26484 381
14.28496 373
14.30507 312
14.32518 359
14.3453 357
14.36541 346
14.38552 369
14.40564 346
14.42575 335
14.44587 341
14.46598 350
14.48609 317
14.50621 324
14.52632 379
14.54643 320
14.56655 300
14.58666 305
14.60677 316
14.62689 347
14.647 330
14.66712 363
14.68723 337
14.70734 335
14.72746 333
14.74757 317
14.76768 391
14.7878 328
14.80791 332
14.82803 354
14.84814 357
14.86825 347
14.88837 322
14.90848 392
14.92859 321
14.94871 321
14.96882 350
14.98894 354
15.00905 326
15.02916 370
15.04928 366
15.06939 340
15.0895 347
15.10962 371
15.12973 352
15.14984 354
15.16996 351
15.19007 347
15.21019 358
15.2303 332
15.25041 311
15.27053 349
15.29064 368
15.31075 325
15.33087 358
15.35098 357
15.3711 340
15.39121 366
15.41132 332
15.43144 359
15.45155 362
15.47166 364
15.49178 328
15.51189 365
15.53201 351
15.55212 351
15.57223 351
15.59235 351
15.61246 309
15.63257 329
15.65269 335
15.6728 338
15.69291 332
15.71303 348
15.73314 371
15.75326 377
15.77337 325
15.79348 365
15.8136 350
15.83371 322
15.85382 361
15.87394 355
15.89405 350
15.91417 334
15.93428 367
15.95439 357
15.97451 306
15.99462 337
16.01473 349
16.03485 364
16.05496 376
16.07508 382
16.09519 361
16.1153 358
16.13542 334
16.15553 352
16.17564 373
16.19576 368
16.21587 320
16.23598 338
16.2561 327
16.27621 331
16.29633 328
16.31644 339
16.33655 351
16.35667 371
16.37678 354
16.39689 344
16.41701 358
16.43712 367
16.45724 370
16.47735 374
16.49746 299
16.51758 365
16.53769 340
16.5578 371
16.57792 326
16.59803 362
16.61814 327
16.63826 354
16.65837 367
16.67849 351
16.6986 326
16.71871 380
16.73883 318
16.75894 403
16.77905 351
16.79917 347
16.81928 339
16.8394 331
16.85951 352
16.87962 331
16.89974 374
16.91985 415
16.93996 355
16.96008 354
16.98019 360
17.00031 358
17.02042 353
17.04053 335
17.06065 389
17.08076 332
17.10087 371
17.12099 355
17.1411 387
17.16121 364
17.18133 351
17.20144 372
17.22156 365
17.24167 367
17.26178 411
17.2819 391
17.30201 393
17.32212 372
17.34224 355
17.36235 344
17.38247 372
17.40258 360
17.42269 355
17.44281 365
17.46292 369
17.48303 381
17.50315 384
17.52326 399
17.54338 364
17.56349 413
17.5836 371
17.60372 404
17.62383 400
17.64394 358
17.66406 436
17.68417 373
17.70428 388
17.7244 391
17.74451 407
17.76463 365
17.78474 436
17.80485 381
17.82497 384
17.84508 396
17.86519 407
17.88531 381
17.90542 377
17.92554 359
17.94565 378
17.96576 366
17.98588 415
18.00599 388
18.0261 349
18.04622 397
18.06633 364
18.08645 358
18.10656 375
18.12667 401
18.14679 358
18.1669 366
18.18701 415
18.20713 371
18.22724 364
18.24735 392
18.26747 371
18.28758 358
18.3077 361
18.32781 349
18.34792 375
18.36804 387
18.38815 352
18.40826 412
18.42838 377
18.44849 345
18.46861 366
18.48872 396
18.50883 364
18.52895 401
18.54906 406
18.56917 374
18.58929 368
18.6094 428
18.62951 404
18.64963 388
18.66974 388
18.68986 391
18.70997 361
18.73008 397
18.7502 388
18.77031 406
18.79042 396
18.81054 413
18.83065 384
18.85077 372
18.87088 393
18.89099 394
18.91111 368
18.93122 354
18.95133 415
18.97145 371
18.99156 398
19.01168 388
19.03179 377
19.0519 447
19.07202 399
19.09213 454
19.11224 385
19.13236 447
19.15247 431
19.17258 459
19.1927 496
19.21281 452
19.23293 466
19.25304 489
19.27315 489
19.29327 521
19.31338 581
19.33349 516
19.35361 567
19.37372 516
19.39384 533
19.41395 535
19.43406 598
19.45418 616
19.47429 627
19.4944 667
19.51452 751
19.53463 694
19.55475 764
19.57486 766
19.59497 877
19.61509 782
19.6352 871
19.65531 929
19.67543 954
19.69554 942
19.71565 941
19.73577 993
19.75588 1010
19.776 957
19.79611 994
19.81622 945
19.83634 952
19.85645 970
19.87656 848
19.89668 914
19.91679 894
19.93691 845
19.95702 807
19.97713 744
19.99725 761
20.01736 697
20.03747 715
20.05759 703
20.0777 740
20.09782 739
20.11793 686
20.13804 690
20.15816 709
20.17827 680
20.19838 669
20.2185 670
20.23861 663
20.25872 626
20.27884 620
20.29895 654
20.31907 644
20.33918 660
20.35929 635
20.37941 593
20.39952 586
20.41963 597
20.43975 638
20.45986 568
20.47998 585
20.50009 591
20.5202 611
20.54032 586
20.56043 612
20.58054 559
20.60066 622
20.62077 630
20.64088 632
20.661 671
20.68111 689
20.70123 719
20.72134 862
20.74145 897
20.76157 1125
20.78168 1114
20.80179 1215
20.82191 1166
20.84202 1168
20.86214 997
20.88225 887
20.90236 789
20.92248 665
20.94259 736
20.9627 657
20.98282 609
21.00293 598
21.02305 641
21.04316 590
21.06327 556
21.08339 569
21.1035 545
21.12361 568
21.14373 541
21.16384 530
21.18395 557
21.20407 531
21.22418 566
21.2443 542
21.26441 556
21.28452 522
21.30464 505
21.32475 563
21.34486 520
21.36498 538
21.38509 515
21.40521 489
21.42532 531
21.44543 502
21.46555 511
21.48566 504
21.50577 510
21.52589 495
21.546 524
21.56612 495
21.58623 565
21.60634 514
21.62646 513
21.64657 495
21.66668 496
21.6868 508
21.70691 479
21.72702 522
21.74714 483
21.76725 503
21.78737 495
21.80748 494
21.82759 471
21.84771 513
21.86782 501
21.88793 516
21.90805 571
21.92816 592
21.94828 576
21.96839 625
21.9885 555
22.00862 562
22.02873 538
22.04884 533
22.06896 516
22.08907 534
22.10919 487
22.1293 491
22.14941 466
22.16953 512
22.18964 488
22.20975 445
22.22987 475
22.24998 472
22.27009 469
22.29021 474
22.31032 457
22.33044 454
22.35055 511
22.37066 497
22.39078 522
22.41089 489
22.431 472
22.45112 481
22.47123 514
22.49135 504
22.51146 497
22.53157 480
22.55169 473
22.5718 489
22.59191 484
22.61203 479
22.63214 460
22.65225 494
22.67237 513
22.69248 500
22.7126 470
22.73271 491
22.75282 511
22.77294 495
22.79305 509
22.81316 541
22.83328 564
22.85339 561
22.87351 521
22.89362 577
22.91373 601
22.93385 573
22.95396 608
22.97407 617
22.99419 710
23.0143 671
23.03442 665
23.05453 663
23.07464 697
23.09476 585
23.11487 585
23.13498 552
23.1551 536
23.17521 512
23.19532 519
23.21544 467
23.23555 495
23.25567 467
23.27578 501
23.29589 473
23.31601 477
23.33612 510
23.35623 482
23.37635 470
23.39646 546
23.41658 536
23.43669 503
23.4568 508
23.47692 590
23.49703 522
23.51714 585
23.53726 518
23.55737 574
23.57749 524
23.5976 543
23.61771 530
23.63783 485
23.65794 539
23.67805 502
23.69817 520
23.71828 493
23.73839 518
23.75851 514
23.77862 517
23.79874 555
23.81885 543
23.83896 524
23.85908 557
23.87919 508
23.8993 483
23.91942 511
23.93953 524
23.95965 519
23.97976 550
23.99987 489
24.01999 489
24.0401 533
24.06021 519
24.08033 519
24.10044 514
24.12056 551
24.14067 523
24.16078 554
24.1809 538
24.20101 537
24.22112 513
24.24124 532
24.26135 547
24.28146 510
24.30158 491
24.32169 460
24.34181 518
24.36192 482
24.38203 500
24.40215 472
24.42226 454
24.44237 487
24.46249 467
24.4826 498
24.50272 472
24.52283 474
24.54294 485
24.56306 481
24.58317 535
24.60328 465
24.6234 489
24.64351 494
24.66362 512
24.68374 532
24.70385 476
24.72397 495
24.74408 502
24.76419 493
24.78431 527
24.80442 542
24.82453 496
24.84465 541
24.86476 541
24.88488 516
24.90499 529
24.9251 550
24.94522 492
24.96533 567
24.98544 529
25.00556 540
25.02567 519
25.04579 522
25.0659 516
25.08601 506
25.10613 531
25.12624 569
25.14635 523
25.16647 540
25.18658 589
25.20669 572
25.22681 545
25.24692 575
25.26704 586
25.28715 554
25.30726 556
25.32738 571
25.34749 570
25.3676 528
25.38772 506
25.40783 555
25.42795 563
25.44806 537
25.46817 507
25.48829 522
25.5084 556
25.52851 527
25.54863 518
25.56874 528
25.58886 539
25.60897 567
25.62908 566
25.6492 528
25.66931 526
25.68942 523
25.70954 455
25.72965 496
25.74976 524
25.76988 507
25.78999 491
25.81011 493
25.83022 491
25.85033 540
25.87045 537
25.89056 514
25.91067 474
25.93079 522
25.9509 493
25.97102 530
25.99113 534
26.01124 541
26.03136 520
26.05147 544
26.07158 556
26.0917 543
26.11181 545
26.13193 512
26.15204 543
26.17215 554
26.19227 579
26.21238 570
26.23249 582
26.25261 609
26.27272 609
26.29283 642
26.31295 646
26.33306 682
26.35318 750
26.37329 743
26.3934 859
26.41352 955
26.43363 1088
26.45374 1325
26.47386 1675
26.49397 1977
26.51409 2511
26.5342 2992
26.55431 3334
26.57443 3615
26.59454 3582
26.61465 3190
26.63477 2932
26.65488 2337
26.67499 1907
26.69511 1564
26.71522 1223
26.73534 970
26.75545 864
26.77556 753
26.79568 697
26.81579 650
26.8359 642
26.85602 657
26.87613 606
26.89625 604
26.91636 586
26.93647 579
26.95659 596
26.9767 559
26.99681 554
27.01693 596
27.03704 575
27.05716 537
27.07727 612
27.09738 570
27.1175 545
27.13761 572
27.15772 582
27.17784 561
27.19795 569
27.21806 565
27.23818 554
27.25829 564
27.27841 549
27.29852 570
27.31863 554
27.33875 607
27.35886 602
27.37897 670
27.39909 660
27.4192 618
27.43932 658
27.45943 665
27.47954 622
27.49966 584
27.51977 601
27.53988 659
27.56 610
27.58011 575
27.60023 628
27.62034 566
27.64045 627
27.66057 645
27.68068 663
27.70079 672
27.72091 691
27.74102 758
27.76113 644
27.78125 682
27.80136 693
27.82148 727
27.84159 696
27.8617 674
27.88182 677
27.90193 721
27.92204 684
27.94216 669
27.96227 622
27.98239 604
28.0025 572
28.02261 578
28.04273 527
28.06284 563
28.08295 559
28.10307 538
28.12318 574
28.1433 512
28.16341 545
28.18352 486
28.20364 528
28.22375 515
28.24386 540
28.26398 479
28.28409 510
28.3042 546
28.32432 470
28.34443 517
28.36455 526
28.38466 504
28.40477 497
28.42489 526
28.445 456
28.46511 500
28.48523 470
28.50534 471
28.52546 451
28.54557 500
28.56568 449
28.5858 521
28.60591 477
28.62602 502
28.64614 478
28.66625 502
28.68636 491
28.70648 479
28.72659 501
28.74671 481
28.76682 479
28.78693 510
28.80705 495
28.82716 467
28.84727 471
28.86739 486
28.8875 463
28.90762 518
28.92773 472
28.94784 506
28.96796 549
28.98807 506
29.00818 501
29.0283 555
29.04841 540
29.06853 558
29.08864 551
29.10875 595
29.12887 611
29.14898 634
29.16909 681
29.18921 793
29.20932 837
29.22943 982
29.24955 1143
29.26966 1257
29.28978 1571
29.30989 1873
29.33 2206
29.35012 2476
29.37023 2551
29.39034 2456
29.41046 2289
29.43057 2026
29.45069 1787
29.4708 1516
29.49091 1283
29.51103 1056
29.53114 894
29.55125 828
29.57137 676
29.59148 632
29.6116 615
29.63171 589
29.65182 587
29.67194 560
29.69205 527
29.71216 582
29.73228 559
29.75239 600
29.7725 532
29.79262 569
29.81273 539
29.83285 578
29.85296 557
29.87307 536
29.89319 549
29.9133 489
29.93341 514
29.95353 480
29.97364 468
29.99376 508
30.01387 540
30.03398 485
30.0541 507
30.07421 535
30.09432 521
30.11444 460
30.13455 494
30.15467 502
30.17478 454
30.19489 461
30.21501 459
30.23512 454
30.25523 482
30.27535 489
30.29546 513
30.31557 521
30.33569 539
30.3558 482
30.37592 482
30.39603 488
30.41614 485
30.43626 496
30.45637 461
30.47648 479
30.4966 460
30.51671 448
30.53683 479
30.55694 468
30.57705 497
30.59717 462
30.61728 474
30.63739 507
30.65751 468
30.67762 497
30.69773 500
30.71785 475
30.73796 470
30.75808 488
30.77819 501
30.7983 462
30.81842 460
30.83853 470
30.85864 450
30.87876 493
30.89887 474
30.91899 444
30.9391 436
30.95921 419
30.97933 462
30.99944 454
31.01955 418
31.03967 459
31.05978 393
31.0799 441
31.10001 448
31.12012 440
31.14024 443
31.16035 492
31.18046 445
31.20058 468
31.22069 450
31.2408 445
31.26092 480
31.28103 451
31.30115 462
31.32126 464
31.34137 456
31.36149 461
31.3816 456
31.40171 456
31.42183 481
31.44194 458
31.46206 439
31.48217 450
31.50228 465
31.5224 456
31.54251 469
31.56262 460
31.58274 383
31.60285 419
31.62297 406
31.64308 399
31.66319 391
31.68331 382
31.70342 402
31.72353 441
31.74365 379
31.76376 466
31.78387 418
31.80399 379
31.8241 400
31.84422 405
31.86433 461
31.88444 431
31.90456 416
31.92467 450
31.94478 423
31.9649 427
31.98501 429
32.00513 446
32.02524 385
32.04535 419
32.06547 400
32.08558 429
32.10569 434
32.12581 418
32.14592 392
32.16604 427
32.18615 410
32.20626 399
32.22638 424
32.24649 414
32.2666 426
32.28672 408
32.30683 406
32.32694 429
32.34706 437
32.36717 405
32.38729 414
32.4074 402
32.42751 402
32.44763 412
32.46774 375
32.48785 429
32.50797 402
32.52808 435
32.5482 413
32.56831 424
32.58842 431
32.60854 403
32.62865 404
32.64876 385
32.66888 394
32.68899 405
32.7091 366
32.72922 382
32.74933 430
32.76945 420
32.78956 440
32.80967 391
32.82979 411
32.8499 427
32.87001 432
32.89013 424
32.91024 443
32.93036 481
32.95047 443
32.97058 435
32.9907 416
33.01081 452
33.03092 457
33.05104 438
33.07115 438
33.09127 435
33.11138 443
33.13149 430
33.15161 443
33.17172 435
33.19183 441
33.21195 463
33.23206 451
33.25217 466
33.27229 414
33.2924 450
33.31252 417
33.33263 439
33.35274 408
33.37286 409
33.39297 379
33.41308 399
33.4332 429
33.45331 400
33.47343 427
33.49354 396
33.51365 400
33.53377 438
33.55388 375
33.57399 435
33.59411 423
33.61422 393
33.63434 408
33.65445 440
33.67456 427
33.69468 432
33.71479 427
33.7349 440
33.75502 446
33.77513 415
33.79524 432
33.81536 439
33.83547 406
33.85559 433
33.8757 448
33.89581 449
33.91593 441
33.93604 466
33.95615 445
33.97627 475
33.99638 442
34.0165 457
34.03661 470
34.05672 464
34.07684 480
34.09695 500
34.11706 468
34.13718 492
34.15729 490
34.17741 503
34.19752 470
34.21763 516
34.23775 499
34.25786 523
34.27797 536
34.29809 579
34.3182 577
34.33831 592
34.35843 600
34.37854 609
34.39866 630
34.41877 646
34.43888 636
34.459 645
34.47911 676
34.49922 658
34.51934 670
34.53945 640
34.55957 674
34.57968 671
34.59979 687
34.61991 673
34.64002 697
34.66013 695
34.68025 710
34.70036 730
34.72047 717
34.74059 658
34.7607 766
34.78082 753
34.80093 786
34.82104 758
34.84116 773
34.86127 737
34.88138 711
34.9015 695
34.92161 765
34.94173 716
34.96184 698
34.98195 716
35.00207 750
35.02218 684
35.04229 629
35.06241 670
35.08252 682
35.10264 674
35.12275 649
35.14286 640
35.16298 618
35.18309 629
35.2032 645
35.22332 629
35.24343 644
35.26354 576
35.28366 618
35.30377 619
35.32389 658
35.344 576
35.36411 667
35.38423 584
35.40434 619
35.42445 607
35.44457 597
35.46468 542
35.4848 604
35.50491 578
35.52502 638
35.54514 613
35.56525 605
35.58536 615
35.60548 613
35.62559 616
35.64571 600
35.66582 577
35.68593 568
35.70605 511
35.72616 610
35.74627 561
35.76639 604
35.7865 550
35.80661 599
35.82673 628
35.84684 699
35.86696 649
35.88707 670
35.90718 726
35.9273 765
35.94741 719
35.96752 711
35.98764 735
36.00775 774
36.02787 659
36.04798 633
36.06809 624
36.08821 603
36.10832 589
36.12843 537
36.14855 512
36.16866 532
36.18878 546
36.20889 478
36.229 554
36.24912 541
36.26923 541
36.28934 550
36.30946 548
36.32957 547
36.34968 560
36.3698 577
36.38991 650
36.41003 651
36.43014 677
36.45025 720
36.47037 725
36.49048 701
36.51059 718
36.53071 710
36.55082 655
36.57094 615
36.59105 620
36.61116 610
36.63128 574
36.65139 621
36.6715 557
36.69162 554
36.71173 518
36.73184 509
36.75196 554
36.77207 586
36.79219 543
36.8123 564
36.83241 562
36.85253 561
36.87264 533
36.89275 565
36.91287 527
36.93298 541
36.9531 500
36.97321 490
36.99332 517
37.01344 539
37.03355 513
37.05366 520
37.07378 497
37.09389 515
37.11401 549
37.13412 460
37.15423 490
37.17435 503
37.19446 458
37.21457 531
37.23469 461
37.2548 510
37.27491 538
37.29503 517
37.31514 519
37.33526 521
37.35537 498
37.37548 505
37.3956 526
37.41571 484
37.43582 497
37.45594 518
37.47605 575
37.49617 482
37.51628 500
37.53639 523
37.55651 566
37.57662 526
37.59673 552
37.61685 481
37.63696 461
37.65708 477
37.67719 485
37.6973 522
37.71742 517
37.73753 538
37.75764 516
37.77776 522
37.79787 464
37.81798 473
37.8381 510
37.85821 450
37.87833 454
37.89844 444
37.91855 421
37.93867 450
37.95878 452
37.97889 473
37.99901 433
38.01912 429
38.03924 472
38.05935 417
38.07946 458
38.09958 427
38.11969 412
38.1398 434
38.15992 457
38.18003 455
38.20015 439
38.22026 421
38.24037 390
38.26049 422
38.2806 422
38.30071 459
38.32083 404
38.34094 436
38.36105 446
38.38117 449
38.40128 469
38.4214 433
38.44151 416
38.46162 446
38.48174 415
38.50185 426
38.52196 429
38.54208 380
38.56219 470
38.58231 395
38.60242 452
38.62253 409
38.64265 419
38.66276 439
38.68287 386
38.70299 427
38.7231 418
38.74321 465
38.76333 447
38.78344 422
38.80356 405
38.82367 411
38.84378 441
38.8639 437
38.88401 414
38.90412 415
38.92424 380
38.94435 421
38.96447 448
38.98458 423
39.00469 423
39.02481 378
39.04492 453
39.06503 425
39.08515 441
39.10526 460
39.12538 429
39.14549 457
39.1656 481
39.18572 502
39.20583 537
39.22594 530
39.24606 562
39.26617 623
39.28628 640
39.3064 686
39.32651 766
39.34663 879
39.36674 891
39.38685 957
39.40697 898
39.42708 842
39.44719 816
39.46731 805
39.48742 713
39.50754 732
39.52765 632
39.54776 582
39.56788 570
39.58799 510
39.6081 489
39.62822 475
39.64833 479
39.66845 422
39.68856 505
39.70867 445
39.72879 466
39.7489 483
39.76901 454
39.78913 434
39.80924 449
39.82935 437
39.84947 457
39.86958 425
39.8897 448
39.90981 407
39.92992 439
39.95004 448
39.97015 422
39.99026 463
40.01038 450
40.03049 467
40.05061 446
40.07072 517
40.09083 438
40.11095 448
40.13106 477
40.15117 466
40.17129 521
40.1914 522
40.21152 486
40.23163 511
40.25174 541
40.27186 511
40.29197 469
40.31208 471
40.3322 474
40.35231 456
40.37242 449
40.39254 397
40.41265 470
40.43277 432
40.45288 433
40.47299 397
40.49311 467
40.51322 416
40.53333 412
40.55345 421
40.57356 433
40.59368 420
40.61379 433
40.6339 410
40.65402 425
40.67413 445
40.69424 425
40.71436 405
40.73447 424
40.75458 381
40.7747 460
40.79481 412
40.81493 390
40.83504 406
40.85515 392
40.87527 411
40.89538 419
40.91549 411
40.93561 416
40.95572 435
40.97584 431
40.99595 430
41.01606 444
41.03618 459
41.05629 428
41.0764 415
41.09652 411
41.11663 432
41.13675 454
41.15686 415
41.17697 434
41.19709 441
41.2172 400
41.23731 398
41.25743 425
41.27754 435
41.29765 421
41.31777 424
41.33788 403
41.358 440
41.37811 381
41.39822 446
41.41834 414
41.43845 431
41.45856 382
41.47868 396
41.49879 418
41.51891 372
41.53902 415
41.55913 447
41.57925 418
41.59936 415
41.61947 398
41.63959 436
41.6597 398
41.67982 446
41.69993 403
41.72004 387
41.74016 393
41.76027 469
41.78038 414
41.8005 432
41.82061 431
41.84072 390
41.86084 426
41.88095 413
41.90107 416
41.92118 392
41.94129 407
41.96141 369
41.98152 409
42.00163 421
42.02175 396
42.04186 389
42.06198 422
42.08209 408
42.1022 408
42.12232 389
42.14243 440
42.16254 403
42.18266 409
42.20277 406
42.22289 426
42.243 505
42.26311 464
42.28323 482
42.30334 499
42.32345 512
42.34357 519
42.36368 533
42.38379 535
42.40391 551
42.42402 522
42.44414 509
42.46425 437
42.48436 520
42.50448 456
42.52459 457
42.5447 440
42.56482 417
42.58493 399
42.60505 421
42.62516 421
42.64527 442
42.66539 455
42.6855 402
42.70561 386
42.72573 402
42.74584 409
42.76595 414
42.78607 397
42.80618 447
42.8263 457
42.84641 419
42.86652 461
42.88664 391
42.90675 394
42.92686 420
42.94698 432
42.96709 452
42.98721 456
43.00732 462
43.02743 527
43.04755 525
43.06766 579
43.08777 613
43.10789 699
43.128 676
43.14812 682
43.16823 674
43.18834 575
43.20846 628
43.22857 608
43.24868 568
43.2688 561
43.28891 472
43.30902 499
43.32914 444
43.34925 436
43.36937 433
43.38948 404
43.40959 415
43.42971 407
43.44982 400
43.46993 439
43.49005 417
43.51016 408
43.53028 400
43.55039 357
43.5705 424
43.59062 376
43.61073 387
43.63084 352
43.65096 375
43.67107 376
43.69119 412
43.7113 394
43.73141 379
43.75153 393
43.77164 414
43.79175 386
43.81187 361
43.83198 364
43.85209 404
43.87221 390
43.89232 391
43.91244 354
43.93255 367
43.95266 358
43.97278 407
43.99289 406
44.013 361
44.03312 387
44.05323 335
44.07335 373
44.09346 405
44.11357 379
44.13369 393
44.1538 379
44.17391 388
44.19403 390
44.21414 379
44.23426 431
44.25437 366
44.27448 364
44.2946 362
44.31471 342
44.33482 393
44.35494 373
44.37505 397
44.39516 396
44.41528 370
44.43539 383
44.45551 359
44.47562 371
44.49573 360
44.51585 387
44.53596 381
44.55607 394
44.57619 373
44.5963 410
44.61642 393
44.63653 421
44.65664 368
44.67676 395
44.69687 365
44.71698 422
44.7371 398
44.75721 429
44.77732 384
44.79744 392
44.81755 384
44.83767 417
44.85778 404
44.87789 391
44.89801 407
44.91812 402
44.93823 384
44.95835 403
44.97846 399
44.99858 428
45.01869 403
45.0388 397
45.05892 419
45.07903 386
45.09914 397
45.11926 409
45.13937 434
45.15949 385
45.1796 385
45.19971 394
45.21983 394
45.23994 400
45.26005 415
45.28017 372
45.30028 392
45.32039 383
45.34051 371
45.36062 418
45.38074 374
45.40085 389
45.42096 379
45.44108 374
45.46119 404
45.4813 430
45.50142 406
45.52153 401
45.54165 389
45.56176 366
45.58187 391
45.60199 411
45.6221 422
45.64221 416
45.66233 451
45.68244 477
45.70256 425
45.72267 436
45.74278 444
45.7629 414
45.78301 465
45.80312 406
45.82324 412
45.84335 420
45.86346 444
45.88358 448
45.90369 396
45.92381 378
45.94392 430
45.96403 394
45.98415 381
46.00426 381
46.02437 368
46.04449 375
46.0646 373
46.08472 372
46.10483 348
46.12494 377
46.14506 332
46.16517 384
46.18528 369
46.2054 353
46.22551 345
46.24563 345
46.26574 353
46.28585 364
46.30597 341
46.32608 352
46.34619 366
46.36631 350
46.38642 370
46.40653 348
46.42665 363
46.44676 354
46.46688 365
46.48699 375
46.5071 358
46.52722 350
46.54733 382
46.56744 321
46.58756 350
46.60767 350
46.62779 376
46.6479 329
46.66801 396
46.68813 381
46.70824 339
46.72835 337
46.74847 364
46.76858 383
46.78869 356
46.80881 368
46.82892 367
46.84904 379
46.86915 364
46.88926 384
46.90938 380
46.92949 347
46.9496 394
46.96972 399
46.98983 423
47.00995 366
47.03006 453
47.05017 456
47.07029 448
47.0904 450
47.11051 457
47.13063 481
47.15074 499
47.17086 458
47.19097 432
47.21108 407
47.2312 462
47.25131 464
47.27142 421
47.29154 457
47.31165 434
47.33176 522
47.35188 515
47.37199 552
47.39211 549
47.41222 622
47.43233 575
47.45245 629
47.47256 658
47.49267 649
47.51279 653
47.5329 624
47.55302 565
47.57313 608
47.59324 538
47.61336 555
47.63347 542
47.65358 478
47.6737 463
47.69381 423
47.71393 419
47.73404 437
47.75415 395
47.77427 377
47.79438 383
47.81449 366
47.83461 385
47.85472 383
47.87483 435
47.89495 377
47.91506 388
47.93518 399
47.95529 390
47.9754 387
47.99552 381
48.01563 390
48.03574 387
48.05586 394
48.07597 384
48.09609 400
48.1162 395
48.13631 384
48.15643 402
48.17654 422
48.19665 390
48.21677 359
48.23688 397
48.257 393
48.27711 409
48.29722 440
48.31734 416
48.33745 446
48.35756 557
48.37768 549
48.39779 584
48.4179 590
48.43802 643
48.45813 674
48.47825 649
48.49836 652
48.51847 595
48.53859 644
48.5587 583
48.57881 538
48.59893 573
48.61904 525
48.63916 515
48.65927 491
48.67938 436
48.6995 422
48.71961 451
48.73972 415
48.75984 398
48.77995 409
48.80006 381
48.82018 360
48.84029 393
48.86041 345
48.88052 325
48.90063 387
48.92075 335
48.94086 384
48.96097 361
48.98109 355
49.0012 373
49.02132 365
49.04143 342
49.06154 334
49.08166 333
49.10177 377
49.12188 377
49.142 357
49.16211 337
49.18223 381
49.20234 371
49.22245 348
49.24257 357
49.26268 330
49.28279 364
49.30291 346
49.32302 378
49.34313 332
49.36325 343
49.38336 365
49.40348 339
49.42359 370
49.4437 337
49.46382 381
49.48393 386
49.50404 351
49.52416 350
49.54427 323
49.56439 352
49.5845 362
49.60461 340
49.62473 374
49.64484 378
49.66495 337
49.68507 351
49.70518 357
49.7253 385
49.74541 354
49.76552 394
49.78564 378
49.80575 367
49.82586 363
49.84598 384
49.86609 388
49.8862 421
49.90632 389
49.92643 404
49.94655 511
49.96666 510
49.98677 515
50.00689 606
50.027 617
50.04711 638
50.06723 618
50.08734 588
50.10746 589
50.12757 517
50.14768 526
50.1678 531
50.18791 469
50.20802 459
50.22814 439
50.24825 434
50.26837 409
50.28848 369
50.30859 352
50.32871 348
50.34882 398
50.36893 358
50.38905 371
50.40916 378
50.42927 344
50.44939 341
50.4695 357
50.48962 330
50.50973 382
50.52984 374
50.54996 395
50.57007 377
50.59018 363
50.6103 363
50.63041 365
50.65053 338
50.67064 363
50.69075 365
50.71087 349
50.73098 332
50.75109 340
50.77121 336
50.79132 327
50.81143 329
50.83155 343
50.85166 304
50.87178 369
50.89189 351
50.912 352
50.93212 343
50.95223 324
50.97234 343
50.99246 325
51.01257 366
51.03269 326
51.0528 336
51.07291 342
51.09303 348
51.11314 370
51.13325 339
51.15337 325
51.17348 359
51.1936 347
51.21371 356
51.23382 351
51.25394 325
51.27405 341
51.29416 363
51.31428 336
51.33439 329
51.3545 328
51.37462 338
51.39473 331
51.41485 313
51.43496 337
51.45507 344
51.47519 327
51.4953 333
51.51541 310
51.53553 344
51.55564 330
51.57576 334
51.59587 330
51.61598 333
51.6361 274
51.65621 347
51.67632 336
51.69644 342
51.71655 300
51.73667 289
51.75678 336
51.77689 352
51.79701 343
51.81712 322
51.83723 331
51.85735 334
51.87746 319
51.89757 293
51.91769 305
51.9378 335
51.95792 333
51.97803 295
51.99814 326
52.01826 330
52.03837 329
52.05848 313
52.0786 311
52.09871 352
52.11883 316
52.13894 303
52.15905 317
52.17917 334
52.19928 349
52.21939 357
52.23951 311
52.25962 325
52.27974 344
52.29985 345
52.31996 356
52.34008 316
52.36019 343
52.3803 346
52.40042 372
52.42053 344
52.44064 331
52.46076 351
52.48087 354
52.50099 323
52.5211 337
52.54121 360
52.56133 341
52.58144 341
52.60155 321
52.62167 369
52.64178 324
52.6619 343
52.68201 331
52.70212 346
52.72224 325
52.74235 333
52.76246 338
52.78258 361
52.80269 341
52.8228 364
52.84292 358
52.86303 366
52.88315 357
52.90326 327
52.92337 343
52.94349 342
52.9636 363
52.98371 367
53.00383 356
53.02394 353
53.04406 345
53.06417 335
53.08428 360
53.1044 380
53.12451 373
53.14462 378
53.16474 344
53.18485 367
53.20497 336
53.22508 348
53.24519 388
53.26531 405
53.28542 405
53.30553 384
53.32565 358
53.34576 382
53.36587 409
53.38599 389
53.4061 350
53.42622 392
53.44633 398
53.46644 418
53.48656 403
53.50667 395
53.52678 408
53.5469 404
53.56701 393
53.58713 370
53.60724 386
53.62735 393
53.64747 404
53.66758 385
53.68769 399
53.70781 423
53.72792 400
53.74804 407
53.76815 435
53.78826 396
53.80838 390
53.82849 419
53.8486 407
53.86872 440
53.88883 420
53.90894 429
53.92906 420
53.94917 402
53.96929 418
53.9894 387
54.00951 395
54.02963 427
54.04974 408
54.06985 403
54.08997 427
54.11008 406
54.1302 401
54.15031 424
54.17042 435
54.19054 387
54.21065 384
54.23076 388
54.25088 422
54.27099 370
54.29111 439
54.31122 435
54.33133 411
54.35145 410
54.37156 423
54.39167 402
54.41179 411
54.4319 409
54.45201 375
54.47213 403
54.49224 384
54.51236 375
54.53247 406
54.55258 432
54.5727 406
54.59281 414
54.61292 428
54.63304 409
54.65315 401
54.67327 421
54.69338 438
54.71349 456
54.73361 438
54.75372 475
54.77383 439
54.79395 492
54.81406 467
54.83417 446
54.85429 447
54.8744 444
54.89452 439
54.91463 442
54.93474 423
54.95486 425
54.97497 455
54.99508 484
55.0152 405
55.03531 447
55.05543 421
55.07554 397
55.09565 435
55.11577 427
55.13588 420
55.15599 421
55.17611 441
55.19622 438
55.21634 440
55.23645 421
55.25656 416
55.27668 430
55.29679 435
55.3169 395
55.33702 402
55.35713 403
55.37724 455
55.39736 441
55.41747 420
55.43759 405
55.4577 376
55.47781 353
55.49793 387
55.51804 406
55.53815 426
55.55827 408
55.57838 392
55.5985 403
55.61861 433
55.63872 397
55.65884 419
55.67895 412
55.69906 400
55.71918 375
55.73929 397
55.75941 383
55.77952 386
55.79963 387
55.81975 353
55.83986 406
55.85997 404
55.88009 387
55.9002 403
55.92031 403
55.94043 396
55.96054 408
55.98066 390
56.00077 357
56.02088 381
56.041 365
56.06111 370
56.08122 383
56.10134 366
56.12145 361
56.14157 370
56.16168 394
56.18179 349
56.20191 364
56.22202 396
56.24213 361
56.26225 396
56.28236 380
56.30248 395
56.32259 400
56.3427 383
56.36282 393
56.38293 403
56.40304 419
56.42316 388
56.44327 402
56.46338 400
56.4835 387
56.50361 399
56.52373 417
56.54384 432
56.56395 415
56.58407 445
56.60418 429
56.62429 414
56.64441 422
56.66452 400
56.68464 397
56.70475 405
56.72486 389
56.74498 405
56.76509 388
56.7852 401
56.80532 384
56.82543 387
56.84554 380
56.86566 347
56.88577 394
56.90589 352
56.926 378
56.94611 379
56.96623 372
56.98634 389
57.00645 349
57.02657 374
57.04668 358
57.0668 373
57.08691 371
57.10702 375
57.12714 392
57.14725 389
57.16736 384
57.18748 388
57.20759 393
57.22771 413
57.24782 402
57.26793 442
57.28805 428
57.30816 437
57.32827 470
57.34839 460
57.3685 489
57.38861 497
57.40873 494
57.42884 451
57.44896 469
57.46907 460
57.48918 445
57.5093 447
57.52941 479
57.54952 414
57.56964 408
57.58975 390
57.60987 407
57.62998 408
57.65009 377
57.67021 367
57.69032 365
57.71043 359
57.73055 363
57.75066 390
57.77078 364
57.79089 369
57.811 346
57.83112 350
57.85123 354
57.87134 344
57.89146 369
57.91157 395
57.93168 369
57.9518 370
57.97191 360
57.99203 346
58.01214 333
58.03225 340
58.05237 348
58.07248 365
58.09259 318
58.11271 361
58.13282 355
58.15294 359
58.17305 398
58.19316 352
58.21328 351
58.23339 338
58.2535 342
58.27362 330
58.29373 328
58.31385 348
58.33396 375
58.35407 355
58.37419 367
58.3943 338
58.41441 308
58.43453 351
58.45464 341
58.47475 366
58.49487 352
58.51498 341
58.5351 321
58.55521 349
58.57532 368
58.59544 324
58.61555 361
58.63566 319
58.65578 366
58.67589 368
58.69601 324
58.71612 376
58.73623 320
58.75635 315
58.77646 371
58.79657 345
58.81669 388
58.8368 357
58.85691 352
58.87703 377
58.89714 323
58.91726 357
58.93737 348
58.95748 339
58.9776 315
58.99771 346
59.01782 333
59.03794 366
59.05805 328
59.07817 348
59.09828 339
59.11839 363
59.13851 366
59.15862 334
59.17873 365
59.19885 360
59.21896 361
59.23908 353
59.25919 422
59.2793 345
59.29942 382
59.31953 390
59.33964 386
59.35976 365
59.37987 354
59.39998 307
59.4201 356
59.44021 317
59.46033 327
59.48044 364
59.50055 339
59.52067 371
59.54078 371
59.56089 346
59.58101 358
59.60112 353
59.62124 353
59.64135 379
59.66146 394
59.68158 419
59.70169 430
59.7218 406
59.74192 447
59.76203 458
59.78215 446
59.80226 498
59.82237 543
59.84249 537
59.8626 556
59.88271 548
59.90283 542
59.92294 481
59.94305 528
59.96317 493
59.98328 459
60.0034 487
60.02351 525
60.04362 461
60.06374 506
60.08385 437
60.10396 410
60.12408 449
60.14419 384
60.16431 395
60.18442 379
60.20453 391
60.22465 377
60.24476 371
60.26487 430
60.28499 390
60.3051 385
60.32522 425
60.34533 410
60.36544 398
60.38556 375
60.40567 390
60.42578 415
60.4459 359
60.46601 371
60.48612 409
60.50624 408
60.52635 364
60.54647 442
60.56658 453
60.58669 445
60.60681 438
60.62692 413
60.64703 443
60.66715 448
60.68726 467
60.70738 487
60.72749 442
60.7476 428
60.76772 427
60.78783 441
60.80794 415
60.82806 432
60.84817 404
60.86828 458
60.8884 423
60.90851 431
60.92863 412
60.94874 458
60.96885 424
60.98897 437
61.00908 431
61.02919 479
61.04931 479
61.06942 435
61.08954 449
61.10965 430
61.12976 450
61.14988 419
61.16999 420
61.1901 451
61.21022 455
61.23033 478
61.25045 495
61.27056 487
61.29067 507
61.31079 516
61.3309 502
61.35101 492
61.37113 528
61.39124 487
61.41135 534
61.43147 509
61.45158 526
61.4717 505
61.49181 515
61.51192 540
61.53204 490
61.55215 548
61.57226 548
61.59238 511
61.61249 478
61.63261 516
61.65272 515
61.67283 507
61.69295 499
61.71306 472
61.73317 497
61.75329 525
61.7734 490
61.79352 484
61.81363 480
61.83374 455
61.85386 491
61.87397 464
61.89408 482
61.9142 485
61.93431 500
61.95442 471
61.97454 447
61.99465 431
62.01477 436
62.03488 423
62.05499 412
62.07511 423
62.09522 426
62.11533 425
62.13545 408
62.15556 409
62.17568 386
62.19579 406
62.2159 414
62.23602 428
62.25613 450
62.27624 423
62.29636 406
62.31647 399
62.33659 377
62.3567 353
62.37681 364
62.39693 368
62.41704 397
62.43715 412
62.45727 392
62.47738 395
62.49749 394
62.51761 356
62.53772 350
62.55784 375
62.57795 384
62.59806 372
62.61818 369
62.63829 355
62.6584 372
62.67852 374
62.69863 383
62.71875 345
62.73886 354
62.75897 379
62.77909 344
62.7992 363
62.81931 391
62.83943 346
62.85954 347
62.87965 353
62.89977 369
62.91988 350
62.94 375
62.96011 374
62.98022 386
63.00034 357
63.02045 385
63.04056 353
63.06068 363
63.08079 390
63.10091 338
63.12102 340
63.14113 365
63.16125 331
63.18136 368
63.20147 366
63.22159 369
63.2417 346
63.26182 363
63.28193 352
63.30204 342
63.32216 337
63.34227 351
63.36238 363
63.3825 342
63.40261 353
63.42272 341
63.44284 340
63.46295 324
63.48307 376
63.50318 358
63.52329 313
63.54341 325
63.56352 349
63.58363 348
63.60375 351
63.62386 340
63.64398 330
63.66409 333
63.6842 356
63.70432 364
63.72443 381
63.74454 352
63.76466 371
63.78477 398
63.80489 389
63.825 394
63.84511 346
63.86523 346
63.88534 354
63.90545 380
63.92557 398
63.94568 420
63.96579 414
63.98591 377
64.00602 332
64.02614 375
64.04625 336
64.06636 351
64.08648 311
64.10659 336
64.1267 362
64.14682 354
64.16693 338
64.18705 336
64.20716 344
64.22727 332
64.24739 348
64.2675 334
64.28761 355
64.30773 322
64.32784 339
64.34796 347
64.36807 292
64.38818 322
64.4083 339
64.42841 339
64.44852 362
64.46864 353
64.48875 341
64.50886 373
64.52898 394
64.54909 378
64.56921 411
64.58932 399
64.60943 394
64.62955 394
64.64966 413
64.66977 440
64.68989 393
64.71 394
64.73012 393
64.75023 419
64.77034 375
64.79046 360
64.81057 345
64.83068 340
64.8508 386
64.87091 362
64.89102 363
64.91114 350
64.93125 374
64.95137 345
64.97148 335
64.99159 350
65.01171 332
65.03182 328
65.05193 382
65.07205 359
65.09216 329
65.11228 322
65.13239 363
65.1525 318
65.17262 343
65.19273 304
65.21284 335
65.23296 313
65.25307 332
65.27319 323
65.2933 314
65.31341 332
65.33353 338
65.35364 322
65.37375 361
65.39387 329
65.41398 346
65.43409 351
65.45421 360
65.47432 356
65.49444 349
65.51455 361
65.53466 367
65.55478 379
65.57489 383
65.595 378
65.61512 377
65.63523 368
65.65535 368
65.67546 378
65.69557 378
65.71569 359
65.7358 337
65.75591 370
65.77603 339
65.79614 373
65.81626 346
65.83637 361
65.85648 326
65.8766 368
65.89671 319
65.91682 361
65.93694 321
65.95705 328
65.97716 322
65.99728 338
66.01739 331
66.03751 398
66.05762 339
66.07773 319
66.09785 336
66.11796 292
66.13807 334
66.15819 337
66.1783 310
66.19842 351
66.21853 314
66.23864 315
66.25876 306
66.27887 318
66.29898 339
66.3191 340
66.33921 330
66.35933 334
66.37944 350
66.39955 360
66.41967 324
66.43978 323
66.45989 353
66.48001 334
66.50012 328
66.52023 338
66.54035 313
66.56046 338
66.58058 334
66.60069 353
66.6208 336
66.64092 332
66.66103 333
66.68114 320
66.70126 330
66.72137 341
66.74149 317
66.7616 337
66.78171 336
66.80183 317
66.82194 343
66.84205 317
66.86217 313
66.88228 322
66.90239 336
66.92251 315
66.94262 325
66.96274 347
66.98285 331
67.00296 354
67.02308 329
67.04319 327
67.0633 350
67.08342 324
67.10353 330
67.12365 317
67.14376 326
67.16387 351
67.18399 321
67.2041 314
67.22421 358
67.24433 346
67.26444 314
67.28456 350
67.30467 306
67.32478 360
67.3449 383
67.36501 343
67.38512 335
67.40524 352
67.42535 311
67.44546 353
67.46558 379
67.48569 329
67.50581 370
67.52592 395
67.54603 354
67.56615 405
67.58626 379
67.60637 466
67.62649 404
67.6466 425
67.66672 406
67.68683 457
67.70694 392
67.72706 388
67.74717 366
67.76728 397
67.7874 389
67.80751 362
67.82763 432
67.84774 405
67.86785 408
67.88797 393
67.90808 386
67.92819 431
67.94831 407
67.96842 399
67.98853 474
68.00865 467
68.02876 464
68.04888 451
68.06899 482
68.0891 424
68.10922 493
68.12933 444
68.14944 444
68.16956 480
68.18967 427
68.20979 494
68.2299 458
68.25001 429
68.27013 476
68.29024 426
68.31035 399
68.33047 380
68.35058 365
68.3707 401
68.39081 381
68.41092 349
68.43104 359
68.45115 365
68.47126 358
68.49138 352
68.51149 311
68.5316 344
68.55172 340
68.57183 333
68.59195 332
68.61206 330
68.63217 348
68.65229 316
68.6724 353
68.69251 311
68.71263 333
68.73274 354
68.75286 316
68.77297 370
68.79308 359
68.8132 328
68.83331 391
68.85342 315
68.87354 373
68.89365 347
68.91376 320
68.93388 364
68.95399 343
68.97411 344
68.99422 339
69.01433 337
69.03445 335
69.05456 355
69.07467 341
69.09479 361
69.1149 344
69.13502 365
69.15513 329
69.17524 372
69.19536 384
69.21547 384
69.23558 338
69.2557 374
69.27581 380
69.29593 364
69.31604 349
69.33615 341
69.35627 376
69.37638 413
69.39649 363
69.41661 369
69.43672 405
69.45683 363
69.47695 376
69.49706 369
69.51718 340
69.53729 370
69.5574 355
69.57752 371
69.59763 377
69.61774 349
69.63786 352
69.65797 405
69.67809 350
69.6982 373
69.71831 360
69.73843 378
69.75854 382
69.77865 397
69.79877 345
69.81888 378
69.839 342
69.85911 371
69.87922 360
69.89934 375
69.91945 395
69.93956 360
69.95968 385
69.97979 367
69.9999 396
70.02002 377
70.04013 374
70.06025 345
70.08036 380
70.10047 384
70.12059 342
70.1407 398
70.16081 383
70.18093 375
70.20104 391
70.22116 395
70.24127 364
70.26138 373
70.2815 410
70.30161 329
70.32172 372
70.34184 404
70.36195 372
70.38207 370
70.40218 368
70.42229 377
70.44241 370
70.46252 388
70.48263 391
70.50275 376
70.52286 367
70.54297 391
70.56309 363
70.5832 346
70.60332 333
70.62343 353
70.64354 370
70.66366 376
70.68377 353
70.70388 355
70.724 379
70.74411 338
70.76423 343
70.78434 364
70.80445 358
70.82457 376
70.84468 368
70.86479 317
70.88491 328
70.90502 380
70.92513 368
70.94525 388
70.96536 400
70.98548 385
71.00559 374
71.0257 376
71.04582 363
71.06593 371
71.08604 390
71.10616 376
71.12627 358
71.14639 361
71.1665 351
71.18661 373
71.20673 386
71.22684 381
71.24695 379
71.26707 391
71.28718 387
71.3073 399
71.32741 404
71.34752 365
71.36764 367
71.38775 371
71.40786 365
71.42798 400
71.44809 393
71.4682 378
71.48832 432
71.50843 387
71.52855 392
71.54866 393
71.56877 407
71.58889 410
71.609 383
71.62911 450
71.64923 418
71.66934 421
71.68946 437
71.70957 386
71.72968 418
71.7498 399
71.76991 405
71.79002 410
71.81014 419
71.83025 411
71.85037 398
71.87048 412
71.89059 380
71.91071 423
71.93082 458
71.95093 427
71.97105 482
71.99116 427
72.01127 417
72.03139 470
72.0515 443
72.07162 413
72.09173 489
72.11184 478
72.13196 463
72.15207 406
72.17218 467
72.1923 452
72.21241 456
72.23253 488
72.25264 472
72.27275 438
72.29287 452
72.31298 467
72.33309 497
72.35321 478
72.37332 479
72.39344 448
72.41355 460
72.43366 457
72.45378 473
72.47389 483
72.494 432
72.51412 477
72.53423 459
72.55434 450
72.57446 456
72.59457 462
72.61469 440
72.6348 459
72.65491 454
72.67503 464
72.69514 459
72.71525 474
72.73537 423
72.75548 436
72.7756 460
72.79571 477
72.81582 447
72.83594 466
72.85605 440
72.87616 444
72.89628 433
72.91639 471
72.9365 452
72.95662 448
72.97673 436
72.99685 438
73.01696 473
73.03707 426
73.05719 449
73.0773 463
73.09741 472
73.11753 459
73.13764 428
73.15776 437
73.17787 431
73.19798 401
73.2181 446
73.23821 450
73.25832 403
73.27844 422
73.29855 424
73.31867 417
73.33878 422
73.35889 474
73.37901 429
73.39912 428
73.41923 412
73.43935 433
73.45946 418
73.47957 424
73.49969 417
73.5198 397
73.53992 416
73.56003 408
73.58014 411
73.60026 438
73.62037 400
73.64048 408
73.6606 402
73.68071 389
73.70083 391
73.72094 353
73.74105 388
73.76117 397
73.78128 409
73.80139 399
73.82151 385
73.84162 401
73.86174 364
73.88185 395
73.90196 404
73.92208 387
73.94219 397
73.9623 402
73.98242 415
74.00253 424
74.02264 398
74.04276 392
74.06287 392
74.08299 429
74.1031 362
74.12321 407
74.14333 393
74.16344 396
74.18355 390
74.20367 435
74.22378 409
74.2439 411
74.26401 394
74.28412 426
74.30424 419
74.32435 422
74.34446 432
74.36458 457
74.38469 411
74.40481 413
74.42492 451
74.44503 421
74.46515 394
74.48526 441
74.50537 388
74.52549 384
74.5456 436
74.56571 428
74.58583 441
74.60594 440
74.62606 448
74.64617 421
74.66628 441
74.6864 406
74.70651 421
74.72662 459
74.74674 450
74.76685 380
74.78697 439
74.80708 422
74.82719 453
74.84731 440
74.86742 398
74.88753 421
74.90765 426
74.92776 415
74.94787 461
74.96799 424
74.9881 432
75.00822 481
