3.00117 18983
3.02128 18644
3.0414 17930
3.06151 17583
3.08162 17069
3.10174 16567
3.12185 16060
3.14197 15784
3.16208 15082
3.18219 14712
3.20231 14299
3.22242 13727
3.24253 13414
3.26265 13033
3.28276 12786
3.30288 12412
3.32299 11957
3.3431 11358
3.36322 11170
3.38333 10739
3.40344 10430
3.42356 9837
3.44367 9686
3.46379 9346
3.4839 9029
3.50401 8846
3.52413 8387
3.54424 8138
3.56435 7692
3.58447 7537
3.60458 7348
3.62469 7032
3.64481 6812
3.66492 6361
3.68504 6034
3.70515 5906
3.72526 5707
3.74538 5557
3.76549 5212
3.7856 4920
3.80572 5020
3.82583 4726
3.84595 4458
3.86606 4182
3.88617 4070
3.90629 4066
3.9264 3694
3.94651 3717
3.96663 3419
3.98674 3195
4.00686 3157
4.02697 2858
4.04708 2907
4.0672 2702
4.08731 2432
4.10742 2557
4.12754 2435
4.14765 2292
4.16776 2112
4.18788 2085
4.20799 2053
4.22811 1837
4.24822 1827
4.26833 1710
4.28845 1646
4.30856 1638
4.32867 1720
4.34879 1602
4.3689 1371
4.38902 1482
4.40913 1422
4.42924 1411
4.44936 1325
4.46947 1244
4.48958 1318
4.5097 1213
4.52981 1236
4.54992 1167
4.57004 1062
4.59015 1073
4.61027 1130
4.63038 1083
4.65049 985
4.67061 977
4.69072 908
4.71083 957
4.73095 984
4.75106 881
4.77118 862
4.79129 869
4.8114 919
4.83152 839
4.85163 802
4.87174 752
4.89186 775
4.91197 735
4.93209 750
4.9522 715
4.97231 716
4.99243 638
5.01254 669
5.03265 680
5.05277 549
5.07288 597
5.09299 623
5.11311 558
5.13322 601
5.15334 527
5.17345 503
5.19356 501
5.21368 555
5.23379 520
5.2539 467
5.27402 498
5.29413 465
5.31425 433
5.33436 466
5.35447 428
5.37459 453
5.3947 435
5.41481 366
5.43493 435
5.45504 366
5.47516 391
5.49527 393
5.51538 365
5.5355 355
5.55561 314
5.57572 330
5.59584 353
5.61595 345
5.63606 327
5.65618 291
5.67629 285
5.69641 320
5.71652 306
5.73663 291
5.75675 282
5.77686 276
5.79697 291
5.81709 251
5.8372 270
5.85732 261
5.87743 259
5.89754 273
5.91766 259
5.93777 271
5.95788 240
5.978 253
5.99811 256
6.01823 225
6.03834 228
6.05845 221
6.07857 207
6.09868 230
6.11879 224
6.13891 250
6.15902 203
6.17913 213
6.19925 234
6.21936 253
6.23948 186
6.25959 208
6.2797 235
6.29982 225
6.31993 227
6.34004 192
6.36016 208
6.38027 200
6.40039 207
6.4205 183
6.44061 200
6.46073 194
6.48084 200
6.50095 228
6.52107 224
6.54118 239
6.56129 190
6.58141 200
6.60152 206
6.62164 177
6.64175 198
6.66186 188
6.68198 195
6.70209 190
6.7222 191
6.74232 203
6.76243 189
6.78255 198
6.80266 186
6.82277 196
6.84289 192
6.863 190
6.88311 182
6.90323 179
6.92334 186
6.94346 184
6.96357 182
6.98368 199
7.0038 184
7.02391 206
7.04402 162
7.06414 181
7.08425 194
7.10436 188
7.12448 158
7.14459 208
7.16471 187
7.18482 208
7.20493 200
7.22505 163
7.24516 186
7.26527 194
7.28539 187
7.3055 196
7.32562 206
7.34573 209
7.36584 186
7.38596 200
7.40607 173
7.42618 176
7.4463 167
7.46641 183
7.48653 171
7.50664 218
7.52675 223
7.54687 187
7.56698 205
7.58709 200
7.60721 218
7.62732 210
7.64743 215
7.66755 192
7.68766 225
7.70778 195
7.72789 236
7.748 176
7.76812 190
7.78823 221
7.80834 217
7.82846 201
7.84857 202
7.86869 211
7.8888 217
7.90891 206
7.92903 195
7.94914 215
7.96925 166
7.98937 200
8.00948 196
8.0296 200
8.04971 195
8.06982 227
8.08994 208
8.11005 208
8.13016 201
8.15028 216
8.17039 203
8.1905 209
8.21062 223
8.23073 206
8.25085 207
8.27096 244
8.29107 226
8.31119 197
8.3313 213
8.35141 242
8.37153 205
8.39164 226
8.41176 213
8.43187 208
8.45198 221
8.4721 211
8.49221 210
8.51232 232
8.53244 221
8.55255 223
8.57266 214
8.59278 214
8.61289 207
8.63301 185
8.65312 207
8.67323 195
8.69335 224
8.71346 241
8.73357 228
8.75369 206
8.7738 220
8.79392 228
8.81403 215
8.83414 245
8.85426 197
8.87437 222
8.89448 234
8.9146 219
8.93471 208
8.95483 190
8.97494 214
8.99505 203
9.01517 212
9.03528 193
9.05539 198
9.07551 247
9.09562 205
9.11573 203
9.13585 227
9.15596 213
9.17608 212
9.19619 210
9.2163 204
9.23642 191
9.25653 226
9.27664 200
9.29676 193
9.31687 223
9.33699 196
9.3571 214
9.37721 198
9.39733 203
9.41744 213
9.43755 238
9.45767 210
9.47778 184
9.4979 217
9.51801 218
9.53812 204
9.55824 199
9.57835 226
9.59846 220
9.61858 186
9.63869 223
9.6588 211
9.67892 213
9.69903 222
9.71915 222
9.73926 210
9.75937 218
9.77949 212
9.7996 208
9.81971 197
9.83983 200
9.85994 193
9.88006 213
9.90017 230
9.92028 213
9.9404 206
9.96051 209
9.98062 213
10.00074 188
10.02085 227
10.04097 220
10.06108 185
10.08119 226
10.10131 194
10.12142 211
10.14153 210
10.16165 201
10.18176 225
10.20187 220
10.22199 228
10.2421 212
10.26222 228
10.28233 244
10.30244 221
10.32256 229
10.34267 243
10.36278 208
10.3829 266
10.40301 217
10.42313 219
10.44324 218
10.46335 210
10.48347 212
10.50358 220
10.52369 226
10.54381 233
10.56392 251
10.58403 207
10.60415 228
10.62426 238
10.64438 214
10.66449 243
10.6846 216
10.70472 228
10.72483 221
10.74494 194
10.76506 211
10.78517 216
10.80529 199
10.8254 183
10.84551 221
10.86563 250
10.88574 223
10.90585 231
10.92597 229
10.94608 189
10.9662 212
10.98631 217
11.00642 201
11.02654 239
11.04665 220
11.06676 256
11.08688 239
11.10699 217
11.1271 233
11.14722 224
11.16733 207
11.18745 213
11.20756 228
11.22767 220
11.24779 226
11.2679 194
11.28801 217
11.30813 239
11.32824 196
11.34836 218
11.36847 236
11.38858 229
11.4087 225
11.42881 214
11.44892 230
11.46904 231
11.48915 221
11.50927 233
11.52938 239
11.54949 212
11.56961 213
11.58972 196
11.60983 221
11.62995 202
11.65006 229
11.67017 211
11.69029 224
11.7104 178
11.73052 205
11.75063 178
11.77074 229
11.79086 207
11.81097 237
11.83108 204
11.8512 206
11.87131 208
11.89143 192
11.91154 224
11.93165 243
11.95177 204
11.97188 215
11.99199 243
12.01211 239
12.03222 240
12.05234 241
12.07245 246
12.09256 228
12.11268 226
12.13279 236
12.1529 196
12.17302 216
12.19313 213
12.21324 205
12.23336 199
12.25347 232
12.27359 244
12.2937 199
12.31381 205
12.33393 208
12.35404 191
12.37415 216
12.39427 213
12.41438 204
12.4345 216
12.45461 198
12.47472 166
12.49484 185
12.51495 212
12.53506 195
12.55518 230
12.57529 230
12.5954 190
12.61552 190
12.63563 168
12.65575 191
12.67586 206
12.69597 191
12.71609 191
12.7362 206
12.75631 197
12.77643 211
12.79654 196
12.81666 182
12.83677 218
12.85688 206
12.877 198
12.89711 202
12.91722 193
12.93734 208
12.95745 196
12.97757 223
12.99768 237
13.01779 235
13.03791 232
13.05802 230
13.07813 212
13.09825 231
13.11836 206
13.13847 245
13.15859 225
13.1787 222
13.19882 204
13.21893 214
13.23904 214
13.25916 204
13.27927 220
13.29938 181
13.3195 188
13.33961 208
13.35973 219
13.37984 219
13.39995 233
13.42007 191
13.44018 207
13.46029 225
13.48041 255
13.50052 231
13.52064 238
13.54075 265
13.56086 232
13.58098 278
13.60109 276
13.6212 280
13.64132 245
13.66143 266
13.68154 228
13.70166 243
13.72177 242
13.74189 230
13.762 233
13.78211 258
13.80223 237
13.82234 227
13.84245 234
13.86257 239
13.88268 243
13.9028 225
13.92291 223
13.94302 214
13.96314 187
13.98325 229
14.00336 190
14.02348 201
14.04359 204
14.06371 166
14.08382 188
14.10393 173
14.12405 188
14.14416 201
14.16427 192
14.18439 187
14.2045 190
14.22461 184
14.24473 220
14.26484 204
14.28496 190
14.30507 198
14.32518 199
14.3453 181
14.36541 179
14.38552 207
14.40564 220
14.42575 191
14.44587 200
14.46598 187
14.48609 207
14.50621 168
14.52632 193
14.54643 180
14.56655 208
14.58666 180
14.60677 176
14.62689 188
14.647 197
14.66712 171
14.68723 181
14.70734 187
14.72746 180
14.74757 194
14.76768 206
14.7878 236
14.80791 202
14.82803 243
14.84814 217
14.86825 206
14.88837 243
14.90848 228
14.92859 211
14.94871 194
14.96882 222
14.98894 204
15.00905 211
15.02916 206
15.04928 186
15.06939 231
15.0895 199
15.10962 198
15.12973 197
15.14984 204
15.16996 235
15.19007 208
15.21019 190
15.2303 200
15.25041 193
15.27053 218
15.29064 202
15.31075 203
15.33087 193
15.35098 206
15.3711 160
15.39121 205
15.41132 181
15.43144 191
15.45155 155
15.47166 206
15.49178 199
15.51189 185
15.53201 185
15.55212 174
15.57223 190
15.59235 168
15.61246 207
15.63257 194
15.65269 192
15.6728 174
15.69291 181
15.71303 193
15.73314 205
15.75326 157
15.77337 188
15.79348 172
15.8136 182
15.83371 160
15.85382 170
15.87394 170
15.89405 161
15.91417 157
15.93428 202
15.95439 188
15.97451 178
15.99462 171
16.01473 169
16.03485 186
16.05496 159
16.07508 169
16.09519 162
16.1153 191
16.13542 167
16.15553 165
16.17564 175
16.19576 179
16.21587 159
16.23598 169
16.2561 162
16.27621 170
16.29633 158
16.31644 160
16.33655 166
16.35667 197
16.37678 173
16.39689 147
16.41701 189
16.43712 176
16.45724 199
16.47735 162
16.49746 173
16.51758 193
16.53769 150
16.5578 156
16.57792 182
16.59803 142
16.61814 199
16.63826 181
16.65837 164
16.67849 134
16.6986 180
16.71871 172
16.73883 179
16.75894 186
16.77905 183
16.79917 191
16.81928 185
16.8394 169
16.85951 176
16.87962 165
16.89974 161
16.91985 150
16.93996 192
16.96008 169
16.98019 159
17.00031 174
17.02042 170
17.04053 161
17.06065 171
17.08076 140
17.10087 155
17.12099 172
17.1411 173
17.16121 161
17.18133 169
17.20144 179
17.22156 166
17.24167 179
17.26178 166
17.2819 180
17.30201 152
17.32212 188
17.34224 184
17.36235 177
17.38247 172
17.40258 162
17.42269 178
17.44281 150
17.46292 140
17.48303 175
17.50315 156
17.52326 143
17.54338 175
17.56349 177
17.5836 191
17.60372 153
17.62383 161
17.64394 195
17.66406 189
17.68417 171
17.70428 174
17.7244 173
17.74451 166
17.76463 150
17.78474 196
17.80485 154
17.82497 139
17.84508 172
17.86519 179
17.88531 172
17.90542 155
17.92554 173
17.94565 159
17.96576 176
17.98588 163
18.00599 165
18.0261 188
18.04622 162
18.06633 207
18.08645 164
18.10656 176
18.12667 164
18.14679 168
18.1669 172
18.18701 170
18.20713 138
18.22724 175
18.24735 165
18.26747 187
18.28758 162
18.3077 184
18.32781 167
18.34792 210
18.36804 184
18.38815 180
18.40826 183
18.42838 156
18.44849 149
18.46861 172
18.48872 170
18.50883 184
18.52895 172
18.54906 181
18.56917 182
18.58929 173
18.6094 171
18.62951 191
18.64963 172
18.66974 174
18.68986 185
18.70997 203
18.73008 177
18.7502 204
18.77031 187
18.79042 183
18.81054 197
18.83065 207
18.85077 195
18.87088 207
18.89099 178
18.91111 197
18.93122 177
18.95133 166
18.97145 205
18.99156 185
19.01168 170
19.03179 212
19.0519 169
19.07202 204
19.09213 175
19.11224 183
19.13236 203
19.15247 194
19.17258 226
19.1927 159
19.21281 228
19.23293 218
19.25304 198
19.27315 209
19.29327 188
19.31338 206
19.33349 206
19.35361 200
19.37372 198
19.39384 191
19.41395 217
19.43406 189
19.45418 204
19.47429 198
19.4944 222
19.51452 192
19.53463 188
19.55475 209
19.57486 194
19.59497 201
19.61509 193
19.6352 208
19.65531 205
19.67543 233
19.69554 223
19.71565 207
19.73577 250
19.75588 236
19.776 232
19.79611 251
19.81622 217
19.83634 260
19.85645 245
19.87656 240
19.89668 227
19.91679 240
19.93691 226
19.95702 231
19.97713 253
19.99725 264
20.01736 267
20.03747 228
20.05759 253
20.0777 260
20.09782 244
20.11793 261
20.13804 260
20.15816 239
20.17827 282
20.19838 269
20.2185 279
20.23861 254
20.25872 252
20.27884 261
20.29895 254
20.31907 295
20.33918 285
20.35929 315
20.37941 284
20.39952 318
20.41963 330
20.43975 338
20.45986 350
20.47998 372
20.50009 370
20.5202 389
20.54032 421
20.56043 507
20.58054 579
20.60066 656
20.62077 778
20.64088 1017
20.661 1329
20.68111 1715
20.70123 2167
20.72134 2752
20.74145 3228
20.76157 3988
20.78168 4430
20.80179 4553
20.82191 4577
20.84202 4271
20.86214 3789
20.88225 3086
20.90236 2465
20.92248 1857
20.94259 1561
20.9627 1187
20.98282 990
21.00293 899
21.02305 821
21.04316 746
21.06327 619
21.08339 496
21.1035 423
21.12361 385
21.14373 361
21.16384 342
21.18395 344
21.20407 315
21.22418 256
21.2443 271
21.26441 273
21.28452 272
21.30464 295
21.32475 254
21.34486 240
21.36498 257
21.38509 277
21.40521 262
21.42532 253
21.44543 261
21.46555 229
21.48566 262
21.50577 237
21.52589 217
21.546 235
21.56612 229
21.58623 220
21.60634 218
21.62646 257
21.64657 231
21.66668 270
21.6868 249
21.70691 257
21.72702 283
21.74714 247
21.76725 297
21.78737 298
21.80748 353
21.82759 353
21.84771 413
21.86782 434
21.88793 464
21.90805 500
21.92816 471
21.94828 518
21.96839 464
21.9885 489
22.00862 436
22.02873 394
22.04884 333
22.06896 305
22.08907 316
22.10919 302
22.1293 334
22.14941 301
22.16953 320
22.18964 334
22.20975 370
22.22987 333
22.24998 319
22.27009 344
22.29021 333
22.31032 336
22.33044 318
22.35055 293
22.37066 265
22.39078 252
22.41089 256
22.431 209
22.45112 242
22.47123 260
22.49135 244
22.51146 283
22.53157 291
22.55169 277
22.5718 263
22.59191 250
22.61203 270
22.63214 260
22.65225 245
22.67237 243
22.69248 252
22.7126 261
22.73271 247
22.75282 239
22.77294 252
22.79305 254
22.81316 260
22.83328 267
22.85339 306
22.87351 297
22.89362 263
22.91373 314
22.93385 364
22.95396 363
22.97407 320
22.99419 320
23.0143 403
23.03442 414
23.05453 383
23.07464 408
23.09476 465
23.11487 480
23.13498 460
23.1551 432
23.17521 450
23.19532 407
23.21544 387
23.23555 430
23.25567 375
23.27578 311
23.29589 278
23.31601 290
23.33612 289
23.35623 270
23.37635 256
23.39646 279
23.41658 302
23.43669 332
23.4568 295
23.47692 331
23.49703 369
23.51714 368
23.53726 359
23.55737 368
23.57749 360
23.5976 390
23.61771 372
23.63783 339
23.65794 310
23.67805 314
23.69817 301
23.71828 333
23.73839 343
23.75851 317
23.77862 386
23.79874 398
23.81885 424
23.83896 475
23.85908 514
23.87919 538
23.8993 646
23.91942 604
23.93953 650
23.95965 658
23.97976 572
23.99987 516
24.01999 495
24.0401 416
24.06021 434
24.08033 364
24.10044 346
24.12056 361
24.14067 359
24.16078 368
24.1809 430
24.20101 423
24.22112 430
24.24124 490
24.26135 469
24.28146 467
24.30158 436
24.32169 417
24.34181 367
24.36192 345
24.38203 297
24.40215 270
24.42226 288
24.44237 258
24.46249 259
24.4826 251
24.50272 268
24.52283 284
24.54294 276
24.56306 289
24.58317 297
24.60328 327
24.6234 277
24.64351 331
24.66362 296
24.68374 313
24.70385 289
24.72397 272
24.74408 281
24.76419 281
24.78431 321
24.80442 269
24.82453 284
24.84465 271
24.86476 245
24.88488 248
24.90499 248
24.9251 242
24.94522 248
24.96533 253
24.98544 241
25.00556 255
25.02567 196
25.04579 231
25.0659 257
25.08601 211
25.10613 248
25.12624 238
25.14635 266
25.16647 260
25.18658 252
25.20669 251
25.22681 289
25.24692 241
25.26704 283
25.28715 319
25.30726 349
25.32738 352
25.34749 390
25.3676 421
25.38772 466
25.40783 450
25.42795 528
25.44806 555
25.46817 608
25.48829 587
25.5084 622
25.52851 638
25.54863 600
25.56874 566
25.58886 612
25.60897 578
25.62908 655
25.6492 576
25.66931 555
25.68942 480
25.70954 476
25.72965 510
25.74976 437
25.76988 423
25.78999 414
25.81011 422
25.83022 404
25.85033 388
25.87045 380
25.89056 409
25.91067 432
25.93079 447
25.9509 462
25.97102 493
25.99113 434
26.01124 517
26.03136 517
26.05147 537
26.07158 529
26.0917 606
26.11181 646
26.13193 697
26.15204 746
26.17215 799
26.19227 881
26.21238 984
26.23249 1123
26.25261 1263
26.27272 1474
26.29283 1674
26.31295 1919
26.33306 2351
26.35318 2762
26.37329 3396
26.3934 4148
26.41352 5076
26.43363 6597
26.45374 8475
26.47386 10587
26.49397 12992
26.51409 15611
26.5342 18097
26.55431 19431
26.57443 20224
26.59454 20103
26.61465 18410
26.63477 16184
26.65488 13668
26.67499 10681
26.69511 7717
26.71522 5523
26.73534 3988
26.75545 2584
26.77556 1816
26.79568 1472
26.81579 1311
26.8359 1177
26.85602 1036
26.87613 990
26.89625 1007
26.91636 976
26.93647 993
26.95659 948
26.9767 963
26.99681 946
27.01693 963
27.03704 929
27.05716 831
27.07727 780
27.09738 768
27.1175 723
27.13761 621
27.15772 698
27.17784 691
27.19795 692
27.21806 775
27.23818 835
27.25829 889
27.27841 1027
27.29852 1104
27.31863 1121
27.33875 1264
27.35886 1342
27.37897 1354
27.39909 1295
27.4192 1341
27.43932 1216
27.45943 1153
27.47954 1031
27.49966 953
27.51977 843
27.53988 804
27.56 736
27.58011 701
27.60023 632
27.62034 673
27.64045 725
27.66057 820
27.68068 900
27.70079 887
27.72091 953
27.74102 972
27.76113 929
27.78125 908
27.80136 863
27.82148 878
27.84159 878
27.8617 863
27.88182 818
27.90193 782
27.92204 749
27.94216 729
27.96227 691
27.98239 619
28.0025 530
28.02261 484
28.04273 447
28.06284 390
28.08295 423
28.10307 395
28.12318 400
28.1433 366
28.16341 379
28.18352 369
28.20364 417
28.22375 410
28.24386 375
28.26398 367
28.28409 380
28.3042 309
28.32432 331
28.34443 323
28.36455 329
28.38466 246
28.40477 262
28.42489 281
28.445 238
28.46511 231
28.48523 249
28.50534 246
28.52546 205
28.54557 221
28.56568 236
28.5858 254
28.60591 262
28.62602 250
28.64614 221
28.66625 257
28.68636 222
28.70648 223
28.72659 252
28.74671 242
28.76682 218
28.78693 211
28.80705 259
28.82716 221
28.84727 210
28.86739 208
28.8875 230
28.90762 202
28.92773 209
28.94784 236
28.96796 206
28.98807 243
29.00818 220
29.0283 210
29.04841 198
29.06853 215
29.08864 228
29.10875 214
29.12887 248
29.14898 249
29.16909 260
29.18921 281
29.20932 243
29.22943 276
29.24955 285
29.26966 324
29.28978 321
29.30989 332
29.33 345
29.35012 409
29.37023 377
29.39034 391
29.41046 387
29.43057 320
29.45069 320
29.4708 341
29.49091 342
29.51103 331
29.53114 296
29.55125 290
29.57137 277
29.59148 239
29.6116 287
29.63171 261
29.65182 264
29.67194 274
29.69205 277
29.71216 298
29.73228 279
29.75239 322
29.7725 309
29.79262 308
29.81273 262
29.83285 289
29.85296 272
29.87307 274
29.89319 300
29.9133 299
29.93341 320
29.95353 306
29.97364 285
29.99376 360
30.01387 358
30.03398 313
30.0541 390
30.07421 383
30.09432 428
30.11444 413
30.13455 428
30.15467 435
30.17478 420
30.19489 412
30.21501 467
30.23512 414
30.25523 441
30.27535 407
30.29546 383
30.31557 430
30.33569 386
30.3558 370
30.37592 385
30.39603 353
30.41614 330
30.43626 330
30.45637 288
30.47648 313
30.4966 314
30.51671 312
30.53683 307
30.55694 329
30.57705 287
30.59717 348
30.61728 361
30.63739 398
30.65751 409
30.67762 435
30.69773 441
30.71785 436
30.73796 393
30.75808 423
30.77819 396
30.7983 368
30.81842 342
30.83853 333
30.85864 319
30.87876 329
30.89887 273
30.91899 269
30.9391 246
30.95921 232
30.97933 229
30.99944 245
31.01955 213
31.03967 195
31.05978 236
31.0799 185
31.10001 187
31.12012 195
31.14024 186
31.16035 233
31.18046 207
31.20058 222
31.22069 217
31.2408 244
31.26092 216
31.28103 244
31.30115 252
31.32126 232
31.34137 225
31.36149 241
31.3816 207
31.40171 207
31.42183 203
31.44194 235
31.46206 232
31.48217 200
31.50228 236
31.5224 219
31.54251 217
31.56262 202
31.58274 194
31.60285 206
31.62297 171
31.64308 180
31.66319 202
31.68331 193
31.70342 228
31.72353 182
31.74365 213
31.76376 214
31.78387 192
31.80399 171
31.8241 185
31.84422 171
31.86433 183
31.88444 206
31.90456 178
31.92467 182
31.94478 204
31.9649 203
31.98501 195
32.00513 212
32.02524 269
32.04535 241
32.06547 224
32.08558 241
32.10569 249
32.12581 222
32.14592 247
32.16604 240
32.18615 214
32.20626 231
32.22638 206
32.24649 253
32.2666 231
32.28672 211
32.30683 236
32.32694 215
32.34706 209
32.36717 251
32.38729 264
32.4074 278
32.42751 261
32.44763 233
32.46774 252
32.48785 232
32.50797 208
32.52808 212
32.5482 193
32.56831 181
32.58842 175
32.60854 159
32.62865 160
32.64876 190
32.66888 166
32.68899 159
32.7091 172
32.72922 189
32.74933 143
32.76945 187
32.78956 169
32.80967 195
32.82979 174
32.8499 157
32.87001 160
32.89013 182
32.91024 168
32.93036 155
32.95047 153
32.97058 171
32.9907 155
33.01081 169
33.03092 151
33.05104 187
33.07115 149
33.09127 142
33.11138 169
33.13149 163
33.15161 187
33.17172 142
33.19183 156
33.21195 168
33.23206 167
33.25217 149
33.27229 174
33.2924 179
33.31252 187
33.33263 172
33.35274 158
33.37286 156
33.39297 181
33.41308 164
33.4332 141
33.45331 173
33.47343 165
33.49354 174
33.51365 143
33.53377 148
33.55388 152
33.57399 169
33.59411 169
33.61422 137
33.63434 164
33.65445 187
33.67456 210
33.69468 184
33.71479 196
33.7349 160
33.75502 201
33.77513 202
33.79524 229
33.81536 192
33.83547 211
33.85559 210
33.8757 191
33.89581 193
33.91593 218
33.93604 229
33.95615 237
33.97627 222
33.99638 269
34.0165 235
34.03661 250
34.05672 297
34.07684 273
34.09695 288
34.11706 272
34.13718 326
34.15729 285
34.17741 281
34.19752 282
34.21763 256
34.23775 262
34.25786 249
34.27797 222
34.29809 211
34.3182 216
34.33831 205
34.35843 203
34.37854 207
34.39866 235
34.41877 236
34.43888 221
34.459 239
34.47911 226
34.49922 260
34.51934 251
34.53945 249
34.55957 254
34.57968 274
34.59979 247
34.61991 242
34.64002 212
34.66013 220
34.68025 233
34.70036 257
34.72047 231
34.74059 225
34.7607 226
34.78082 222
34.80093 253
34.82104 221
34.84116 262
34.86127 235
34.88138 259
34.9015 225
34.92161 212
34.94173 186
34.96184 243
34.98195 223
35.00207 249
35.02218 235
35.04229 222
35.06241 259
35.08252 259
35.10264 266
35.12275 265
35.14286 305
35.16298 271
35.18309 279
35.2032 344
35.22332 274
35.24343 303
35.26354 308
35.28366 279
35.30377 286
35.32389 286
35.344 304
35.36411 301
35.38423 322
35.40434 328
35.42445 334
35.44457 345
35.46468 317
35.4848 317
35.50491 291
35.52502 289
35.54514 294
35.56525 280
35.58536 275
35.60548 286
35.62559 264
35.64571 206
35.66582 240
35.68593 242
35.70605 241
35.72616 197
35.74627 250
35.76639 203
35.7865 204
35.80661 225
35.82673 201
35.84684 220
35.86696 232
35.88707 235
35.90718 199
35.9273 209
35.94741 217
35.96752 216
35.98764 204
36.00775 218
36.02787 216
36.04798 228
36.06809 223
36.08821 248
36.10832 257
36.12843 278
36.14855 273
36.16866 292
36.18878 316
36.20889 305
36.229 363
36.24912 408
36.26923 439
36.28934 563
36.30946 579
36.32957 728
36.34968 763
36.3698 842
36.38991 1039
36.41003 1158
36.43014 1453
36.45025 1462
36.47037 1477
36.49048 1389
36.51059 1317
36.53071 1309
36.55082 1134
36.57094 1001
36.59105 796
36.61116 631
36.63128 543
36.65139 439
36.6715 360
36.69162 304
36.71173 320
36.73184 280
36.75196 258
36.77207 270
36.79219 280
36.8123 279
36.83241 273
36.85253 273
36.87264 259
36.89275 268
36.91287 301
36.93298 249
36.9531 271
36.97321 254
36.99332 271
37.01344 268
37.03355 264
37.05366 252
37.07378 219
37.09389 195
37.11401 199
37.13412 218
37.15423 189
37.17435 202
37.19446 161
37.21457 206
37.23469 184
37.2548 174
37.27491 156
37.29503 186
37.31514 165
37.33526 203
37.35537 209
37.37548 180
37.3956 188
37.41571 194
37.43582 199
37.45594 176
37.47605 203
37.49617 205
37.51628 218
37.53639 232
37.55651 217
37.57662 177
37.59673 211
37.61685 202
37.63696 198
37.65708 200
37.67719 204
37.6973 182
37.71742 187
37.73753 162
37.75764 152
37.77776 187
37.79787 146
37.81798 173
37.8381 151
37.85821 183
37.87833 169
37.89844 168
37.91855 164
37.93867 177
37.95878 172
37.97889 189
37.99901 176
38.01912 172
38.03924 166
38.05935 160
38.07946 175
38.09958 175
38.11969 151
38.1398 178
38.15992 187
38.18003 188
38.20015 177
38.22026 172
38.24037 196
38.26049 201
38.2806 181
38.30071 209
38.32083 186
38.34094 206
38.36105 214
38.38117 218
38.40128 218
38.4214 253
38.44151 244
38.46162 216
38.48174 233
38.50185 227
38.52196 226
38.54208 225
38.56219 235
38.58231 195
38.60242 215
38.62253 169
38.64265 188
38.66276 184
38.68287 186
38.70299 187
38.7231 167
38.74321 168
38.76333 171
38.78344 165
38.80356 187
38.82367 197
38.84378 202
38.8639 185
38.88401 185
38.90412 183
38.92424 197
38.94435 194
38.96447 218
38.98458 220
39.00469 233
39.02481 240
39.04492 246
39.06503 264
39.08515 257
39.10526 319
39.12538 327
39.14549 326
39.1656 423
39.18572 393
39.20583 479
39.22594 485
39.24606 620
39.26617 763
39.28628 846
39.3064 992
39.32651 1100
39.34663 1210
39.36674 1269
39.38685 1260
39.40697 1210
39.42708 1275
39.44719 1199
39.46731 1056
39.48742 924
39.50754 740
39.52765 634
39.54776 605
39.56788 487
39.58799 387
39.6081 361
39.62822 239
39.64833 250
39.66845 188
39.68856 204
39.70867 215
39.72879 226
39.7489 192
39.76901 207
39.78913 187
39.80924 196
39.82935 194
39.84947 221
39.86958 204
39.8897 187
39.90981 182
39.92992 230
39.95004 251
39.97015 242
39.99026 289
40.01038 300
40.03049 315
40.05061 322
40.07072 393
40.09083 445
40.11095 515
40.13106 574
40.15117 631
40.17129 659
40.1914 764
40.21152 746
40.23163 706
40.25174 734
40.27186 633
40.29197 528
40.31208 518
40.3322 434
40.35231 406
40.37242 385
40.39254 283
40.41265 251
40.43277 240
40.45288 212
40.47299 232
40.49311 189
40.51322 226
40.53333 192
40.55345 210
40.57356 186
40.59368 173
40.61379 180
40.6339 193
40.65402 204
40.67413 170
40.69424 168
40.71436 180
40.73447 168
40.75458 173
40.7747 177
40.79481 210
40.81493 173
40.83504 174
40.85515 184
40.87527 175
40.89538 158
40.91549 186
40.93561 170
40.95572 196
40.97584 164
40.99595 174
41.01606 154
41.03618 168
41.05629 165
41.0764 155
41.09652 157
41.11663 173
41.13675 179
41.15686 178
41.17697 189
41.19709 184
41.2172 158
41.23731 180
41.25743 173
41.27754 167
41.29765 171
41.31777 174
41.33788 177
41.358 197
41.37811 195
41.39822 183
41.41834 184
41.43845 198
41.45856 206
41.47868 231
41.49879 217
41.51891 238
41.53902 215
41.55913 266
41.57925 257
41.59936 272
41.61947 281
41.63959 329
41.6597 324
41.67982 353
41.69993 376
41.72004 371
41.74016 360
41.76027 348
41.78038 339
41.8005 337
41.82061 345
41.84072 311
41.86084 308
41.88095 277
41.90107 312
41.92118 266
41.94129 235
41.96141 215
41.98152 224
42.00163 230
42.02175 221
42.04186 223
42.06198 234
42.08209 281
42.1022 256
42.12232 298
42.14243 312
42.16254 331
42.18266 380
42.20277 429
42.22289 539
42.243 564
42.26311 655
42.28323 770
42.30334 848
42.32345 946
42.34357 1016
42.36368 1032
42.38379 1067
42.40391 913
42.42402 894
42.44414 856
42.46425 744
42.48436 676
42.50448 620
42.52459 537
42.5447 462
42.56482 375
42.58493 346
42.60505 316
42.62516 260
42.64527 271
42.66539 246
42.6855 259
42.70561 223
42.72573 234
42.74584 232
42.76595 226
42.78607 216
42.80618 234
42.8263 216
42.84641 227
42.86652 192
42.88664 206
42.90675 185
42.92686 195
42.94698 220
42.96709 215
42.98721 204
43.00732 192
43.02743 209
43.04755 177
43.06766 191
43.08777 196
43.10789 179
43.128 180
43.14812 182
43.16823 163
43.18834 179
43.20846 191
43.22857 175
43.24868 205
43.2688 160
43.28891 149
43.30902 197
43.32914 168
43.34925 166
43.36937 181
43.38948 135
43.40959 162
43.42971 196
43.44982 177
43.46993 179
43.49005 173
43.51016 163
43.53028 153
43.55039 165
43.5705 174
43.59062 168
43.61073 147
43.63084 154
43.65096 143
43.67107 135
43.69119 156
43.7113 141
43.73141 139
43.75153 163
43.77164 158
43.79175 167
43.81187 188
43.83198 150
43.85209 171
43.87221 141
43.89232 177
43.91244 155
43.93255 182
43.95266 182
43.97278 153
43.99289 162
44.013 172
44.03312 176
44.05323 182
44.07335 158
44.09346 189
44.11357 177
44.13369 177
44.1538 150
44.17391 166
44.19403 160
44.21414 187
44.23426 162
44.25437 170
44.27448 157
44.2946 148
44.31471 166
44.33482 159
44.35494 172
44.37505 167
44.39516 179
44.41528 171
44.43539 174
44.45551 152
44.47562 171
44.49573 169
44.51585 170
44.53596 148
44.55607 170
44.57619 174
44.5963 164
44.61642 142
44.63653 175
44.65664 168
44.67676 165
44.69687 159
44.71698 168
44.7371 171
44.75721 164
44.77732 180
44.79744 151
44.81755 170
44.83767 140
44.85778 169
44.87789 169
44.89801 151
44.91812 158
44.93823 159
44.95835 150
44.97846 144
44.99858 183
45.01869 170
45.0388 183
45.05892 158
45.07903 179
45.09914 165
45.11926 180
45.13937 163
45.15949 186
45.1796 165
45.19971 183
45.21983 192
45.23994 177
45.26005 205
45.28017 197
45.30028 197
45.32039 223
45.34051 205
45.36062 214
45.38074 231
45.40085 266
45.42096 254
45.44108 281
45.46119 297
45.4813 353
45.50142 366
45.52153 398
45.54165 391
45.56176 478
45.58187 508
45.60199 493
45.6221 582
45.64221 607
45.66233 699
45.68244 697
45.70256 746
45.72267 751
45.74278 720
45.7629 718
45.78301 662
45.80312 582
45.82324 489
45.84335 460
45.86346 387
45.88358 357
45.90369 326
45.92381 279
45.94392 231
45.96403 208
45.98415 209
46.00426 190
46.02437 170
46.04449 203
46.0646 181
46.08472 190
46.10483 203
46.12494 211
46.14506 192
46.16517 180
46.18528 189
46.2054 190
46.22551 192
46.24563 191
46.26574 176
46.28585 169
46.30597 188
46.32608 157
46.34619 167
46.36631 176
46.38642 178
46.40653 145
46.42665 162
46.44676 155
46.46688 159
46.48699 149
46.5071 169
46.52722 146
46.54733 163
46.56744 144
46.58756 151
46.60767 140
46.62779 134
46.6479 134
46.66801 161
46.68813 161
46.70824 158
46.72835 166
46.74847 153
46.76858 183
46.78869 171
46.80881 148
46.82892 175
46.84904 164
46.86915 171
46.88926 154
46.90938 197
46.92949 194
46.9496 191
46.96972 203
46.98983 202
47.00995 191
47.03006 219
47.05017 233
47.07029 229
47.0904 207
47.11051 203
47.13063 181
47.15074 201
47.17086 192
47.19097 199
47.21108 186
47.2312 204
47.25131 182
47.27142 180
47.29154 226
47.31165 176
47.33176 208
47.35188 183
47.37199 203
47.39211 217
47.41222 215
47.43233 191
47.45245 178
47.47256 197
47.49267 179
47.51279 208
47.5329 159
47.55302 149
47.57313 171
47.59324 159
47.61336 164
47.63347 161
47.65358 126
47.6737 165
47.69381 137
47.71393 152
47.73404 160
47.75415 143
47.77427 162
47.79438 139
47.81449 151
47.83461 151
47.85472 157
47.87483 164
47.89495 166
47.91506 170
47.93518 161
47.95529 174
47.9754 147
47.99552 157
48.01563 140
48.03574 158
48.05586 151
48.07597 161
48.09609 159
48.1162 156
48.13631 169
48.15643 136
48.17654 149
48.19665 164
48.21677 170
48.23688 164
48.257 155
48.27711 156
48.29722 165
48.31734 153
48.33745 175
48.35756 150
48.37768 165
48.39779 163
48.4179 150
48.43802 169
48.45813 176
48.47825 184
48.49836 179
48.51847 171
48.53859 174
48.5587 172
48.57881 204
48.59893 157
48.61904 187
48.63916 190
48.65927 182
48.67938 205
48.6995 186
48.71961 217
48.73972 181
48.75984 221
48.77995 194
48.80006 216
48.82018 199
48.84029 218
48.86041 225
48.88052 234
48.90063 231
48.92075 210
48.94086 235
48.96097 211
48.98109 208
49.0012 219
49.02132 223
49.04143 218
49.06154 219
49.08166 212
49.10177 228
49.12188 252
49.142 211
49.16211 219
49.18223 184
49.20234 201
49.22245 162
49.24257 196
49.26268 201
49.28279 176
49.30291 188
49.32302 164
49.34313 169
49.36325 167
49.38336 177
49.40348 179
49.42359 199
49.4437 205
49.46382 210
49.48393 194
49.50404 183
49.52416 208
49.54427 225
49.56439 234
49.5845 231
49.60461 271
49.62473 275
49.64484 304
49.66495 317
49.68507 329
49.70518 365
49.7253 359
49.74541 418
49.76552 492
49.78564 530
49.80575 549
49.82586 619
49.84598 695
49.86609 793
49.8862 911
49.90632 1023
49.92643 1204
49.94655 1296
49.96666 1513
49.98677 1750
50.00689 1957
50.027 2134
50.04711 2132
50.06723 2145
50.08734 2175
50.10746 2067
50.12757 1897
50.14768 1743
50.1678 1442
50.18791 1305
50.20802 1139
50.22814 1003
50.24825 902
50.26837 812
50.28848 634
50.30859 535
50.32871 451
50.34882 427
50.36893 394
50.38905 408
50.40916 388
50.42927 449
50.44939 454
50.4695 434
50.48962 443
50.50973 449
50.52984 419
50.54996 373
50.57007 382
50.59018 355
50.6103 361
50.63041 340
50.65053 312
50.67064 301
50.69075 282
50.71087 270
50.73098 287
50.75109 284
50.77121 260
50.79132 225
50.81143 214
50.83155 239
50.85166 219
50.87178 249
50.89189 214
50.912 221
50.93212 225
50.95223 219
50.97234 197
50.99246 194
51.01257 208
51.03269 196
51.0528 192
51.07291 212
51.09303 208
51.11314 189
51.13325 182
51.15337 199
51.17348 185
51.1936 204
51.21371 211
51.23382 218
51.25394 192
51.27405 184
51.29416 189
51.31428 170
51.33439 190
51.3545 180
51.37462 168
51.39473 161
51.41485 150
51.43496 186
51.45507 165
51.47519 151
51.4953 158
51.51541 160
51.53553 165
51.55564 159
51.57576 154
51.59587 128
51.61598 126
51.6361 163
51.65621 134
51.67632 143
51.69644 147
51.71655 151
51.73667 142
51.75678 135
51.77689 146
51.79701 119
51.81712 148
51.83723 156
51.85735 137
51.87746 146
51.89757 149
51.91769 137
51.9378 146
51.95792 147
51.97803 134
51.99814 140
52.01826 144
52.03837 135
52.05848 161
52.0786 139
52.09871 144
52.11883 151
52.13894 136
52.15905 166
52.17917 137
52.19928 145
52.21939 157
52.23951 157
52.25962 153
52.27974 141
52.29985 149
52.31996 165
52.34008 165
52.36019 181
52.3803 166
52.40042 160
52.42053 177
52.44064 163
52.46076 179
52.48087 180
52.50099 200
52.5211 180
52.54121 177
52.56133 156
52.58144 169
52.60155 171
52.62167 185
52.64178 165
52.6619 193
52.68201 177
52.70212 183
52.72224 162
52.74235 199
52.76246 138
52.78258 184
52.80269 178
52.8228 183
52.84292 167
52.86303 186
52.88315 155
52.90326 188
52.92337 178
52.94349 164
52.9636 173
52.98371 160
53.00383 169
53.02394 149
53.04406 153
53.06417 139
53.08428 147
53.1044 151
53.12451 176
53.14462 186
53.16474 159
53.18485 165
53.20497 134
53.22508 160
53.24519 167
53.26531 162
53.28542 147
53.30553 154
53.32565 150
53.34576 139
53.36587 125
53.38599 165
53.4061 146
53.42622 153
53.44633 171
53.46644 137
53.48656 162
53.50667 162
53.52678 129
53.5469 174
53.56701 174
53.58713 159
53.60724 140
53.62735 163
53.64747 168
53.66758 143
53.68769 159
53.70781 152
53.72792 151
53.74804 133
53.76815 145
53.78826 167
53.80838 152
53.82849 172
53.8486 157
53.86872 151
53.88883 160
53.90894 184
53.92906 161
53.94917 193
53.96929 156
53.9894 162
54.00951 177
54.02963 173
54.04974 176
54.06985 152
54.08997 171
54.11008 176
54.1302 167
54.15031 140
54.17042 154
54.19054 166
54.21065 233
54.23076 168
54.25088 153
54.27099 186
54.29111 172
54.31122 208
54.33133 191
54.35145 187
54.37156 190
54.39167 195
54.41179 172
54.4319 230
54.45201 213
54.47213 217
54.49224 228
54.51236 230
54.53247 263
54.55258 246
54.5727 272
54.59281 304
54.61292 338
54.63304 433
54.65315 401
54.67327 424
54.69338 544
54.71349 582
54.73361 666
54.75372 724
54.77383 725
54.79395 721
54.81406 752
54.83417 625
54.85429 646
54.8744 589
54.89452 529
54.91463 520
54.93474 450
54.95486 431
54.97497 450
54.99508 369
55.0152 350
55.03531 311
55.05543 321
55.07554 270
55.09565 279
55.11577 299
55.13588 303
55.15599 344
55.17611 350
55.19622 388
55.21634 429
55.23645 409
55.25656 424
55.27668 427
55.29679 451
55.3169 400
55.33702 349
55.35713 335
55.37724 286
55.39736 331
55.41747 262
55.43759 272
55.4577 264
55.47781 259
55.49793 240
55.51804 236
55.53815 188
55.55827 175
55.57838 158
55.5985 155
55.61861 143
55.63872 179
55.65884 157
55.67895 177
55.69906 143
55.71918 156
55.73929 169
55.75941 154
55.77952 155
55.79963 152
55.81975 159
55.83986 158
55.85997 157
55.88009 151
55.9002 137
55.92031 141
55.94043 141
55.96054 138
55.98066 149
56.00077 133
56.02088 159
56.041 136
56.06111 134
56.08122 119
56.10134 142
56.12145 135
56.14157 150
56.16168 131
56.18179 149
56.20191 128
56.22202 141
56.24213 132
56.26225 143
56.28236 153
56.30248 145
56.32259 147
56.3427 161
56.36282 136
56.38293 166
56.40304 143
56.42316 137
56.44327 139
56.46338 154
56.4835 140
56.50361 139
56.52373 142
56.54384 146
56.56395 136
56.58407 165
56.60418 154
56.62429 161
56.64441 150
56.66452 156
56.68464 159
56.70475 139
56.72486 162
56.74498 171
56.76509 148
56.7852 147
56.80532 147
56.82543 147
56.84554 148
56.86566 166
56.88577 140
56.90589 155
56.926 172
56.94611 195
56.96623 156
56.98634 139
57.00645 150
57.02657 157
57.04668 166
57.0668 190
57.08691 166
57.10702 168
57.12714 140
57.14725 180
57.16736 172
57.18748 173
57.20759 179
57.22771 178
57.24782 198
57.26793 167
57.28805 196
57.30816 212
57.32827 181
57.34839 174
57.3685 179
57.38861 173
57.40873 160
57.42884 156
57.44896 171
57.46907 136
57.48918 192
57.5093 135
57.52941 139
57.54952 144
57.56964 155
57.58975 163
57.60987 150
57.62998 146
57.65009 136
57.67021 150
57.69032 139
57.71043 137
57.73055 147
57.75066 127
57.77078 116
57.79089 146
57.811 145
57.83112 155
57.85123 166
57.87134 147
57.89146 133
57.91157 143
57.93168 150
57.9518 155
57.97191 159
57.99203 144
58.01214 161
58.03225 164
58.05237 155
58.07248 153
58.09259 170
58.11271 150
58.13282 120
58.15294 195
58.17305 139
58.19316 150
58.21328 127
58.23339 156
58.2535 176
58.27362 160
58.29373 174
58.31385 158
58.33396 143
58.35407 184
58.37419 196
58.3943 187
58.41441 173
58.43453 166
58.45464 157
58.47475 177
58.49487 160
58.51498 203
58.5351 180
58.55521 187
58.57532 201
58.59544 196
58.61555 168
58.63566 189
58.65578 171
58.67589 208
58.69601 196
58.71612 170
58.73623 163
58.75635 148
58.77646 159
58.79657 163
58.81669 141
58.8368 138
58.85691 147
58.87703 176
58.89714 164
58.91726 153
58.93737 151
58.95748 150
58.9776 167
58.99771 120
59.01782 147
59.03794 145
59.05805 164
59.07817 153
59.09828 174
59.11839 155
59.13851 151
59.15862 164
59.17873 179
59.19885 170
59.21896 149
59.23908 150
59.25919 172
59.2793 173
59.29942 147
59.31953 192
59.33964 193
59.35976 206
59.37987 210
59.39998 236
59.4201 226
59.44021 215
59.46033 255
59.48044 261
59.50055 271
59.52067 271
59.54078 316
59.56089 311
59.58101 333
59.60112 357
59.62124 410
59.64135 485
59.66146 558
59.68158 563
59.70169 698
59.7218 727
59.74192 814
59.76203 914
59.78215 1036
59.80226 1201
59.82237 1300
59.84249 1338
59.8626 1458
59.88271 1443
59.90283 1385
59.92294 1205
59.94305 1164
59.96317 1017
59.98328 869
60.0034 862
60.02351 758
60.04362 839
60.06374 649
60.08385 564
60.10396 509
60.12408 418
60.14419 340
60.16431 295
60.18442 286
60.20453 208
60.22465 208
60.24476 193
60.26487 223
60.28499 173
60.3051 189
60.32522 152
60.34533 164
60.36544 167
60.38556 189
60.40567 185
60.42578 176
60.4459 159
60.46601 173
60.48612 156
60.50624 153
60.52635 156
60.54647 177
60.56658 164
60.58669 132
60.60681 158
60.62692 132
60.64703 142
60.66715 129
60.68726 145
60.70738 152
60.72749 176
60.7476 162
60.76772 175
60.78783 154
60.80794 148
60.82806 177
60.84817 145
60.86828 178
60.8884 151
60.90851 179
60.92863 166
60.94874 201
60.96885 189
60.98897 187
61.00908 210
61.02919 168
61.04931 196
61.06942 214
61.08954 189
61.10965 188
61.12976 192
61.14988 190
61.16999 202
61.1901 188
61.21022 179
61.23033 183
61.25045 196
61.27056 164
61.29067 194
61.31079 168
61.3309 139
61.35101 170
61.37113 150
61.39124 165
61.41135 159
61.43147 152
61.45158 135
61.4717 167
61.49181 177
61.51192 145
61.53204 140
61.55215 148
61.57226 139
61.59238 143
61.61249 153
61.63261 151
61.65272 144
61.67283 140
61.69295 153
61.71306 148
61.73317 138
61.75329 136
61.7734 137
61.79352 156
61.81363 162
61.83374 171
61.85386 154
61.87397 135
61.89408 139
61.9142 140
61.93431 160
61.95442 125
61.97454 166
61.99465 179
62.01477 150
62.03488 157
62.05499 146
62.07511 167
62.09522 166
62.11533 156
62.13545 170
62.15556 167
62.17568 156
62.19579 168
62.2159 146
62.23602 174
62.25613 150
62.27624 171
62.29636 150
62.31647 176
62.33659 157
62.3567 151
62.37681 154
62.39693 144
62.41704 151
62.43715 173
62.45727 151
62.47738 145
62.49749 155
62.51761 143
62.53772 175
62.55784 154
62.57795 158
62.59806 155
62.61818 130
62.63829 168
62.6584 178
62.67852 182
62.69863 166
62.71875 171
62.73886 168
62.75897 174
62.77909 149
62.7992 175
62.81931 168
62.83943 189
62.85954 175
62.87965 171
62.89977 205
62.91988 187
62.94 177
62.96011 171
62.98022 198
63.00034 217
63.02045 226
63.04056 205
63.06068 188
63.08079 236
63.10091 188
63.12102 210
63.14113 161
63.16125 192
63.18136 194
63.20147 188
63.22159 186
63.2417 183
63.26182 190
63.28193 177
63.30204 177
63.32216 163
63.34227 175
63.36238 150
63.3825 166
63.40261 179
63.42272 189
63.44284 163
63.46295 174
63.48307 188
63.50318 180
63.52329 199
63.54341 188
63.56352 190
63.58363 207
63.60375 203
63.62386 228
63.64398 245
63.66409 224
63.6842 252
63.70432 249
63.72443 271
63.74454 292
63.76466 302
63.78477 345
63.80489 347
63.825 340
63.84511 362
63.86523 407
63.88534 413
63.90545 426
63.92557 417
63.94568 423
63.96579 424
63.98591 408
64.00602 383
64.02614 365
64.04625 325
64.06636 327
64.08648 282
64.10659 286
64.1267 296
64.14682 282
64.16693 222
64.18705 218
64.20716 214
64.22727 205
64.24739 167
64.2675 148
64.28761 171
64.30773 146
64.32784 148
64.34796 128
64.36807 141
64.38818 145
64.4083 133
64.42841 140
64.44852 144
64.46864 149
64.48875 152
64.50886 136
64.52898 146
64.54909 144
64.56921 145
64.58932 134
64.60943 160
64.62955 122
64.64966 150
64.66977 139
64.68989 149
64.71 154
64.73012 136
64.75023 130
64.77034 146
64.79046 174
64.81057 155
64.83068 173
64.8508 152
64.87091 171
64.89102 178
64.91114 178
64.93125 169
64.95137 184
64.97148 171
64.99159 192
65.01171 174
65.03182 185
65.05193 190
65.07205 182
65.09216 196
65.11228 189
65.13239 184
65.1525 177
65.17262 211
65.19273 191
65.21284 198
65.23296 197
65.25307 183
65.27319 210
65.2933 200
65.31341 182
65.33353 199
65.35364 210
65.37375 211
65.39387 196
65.41398 190
65.43409 190
65.45421 177
65.47432 176
65.49444 188
65.51455 161
65.53466 180
65.55478 159
65.57489 171
65.595 182
65.61512 215
65.63523 214
65.65535 193
65.67546 211
65.69557 219
65.71569 201
65.7358 182
65.75591 204
65.77603 177
65.79614 165
65.81626 177
65.83637 174
65.85648 173
65.8766 179
65.89671 175
65.91682 165
65.93694 190
65.95705 178
65.97716 177
65.99728 168
66.01739 162
66.03751 185
66.05762 152
66.07773 158
66.09785 174
66.11796 179
66.13807 178
66.15819 170
66.1783 173
66.19842 174
66.21853 170
66.23864 200
66.25876 187
66.27887 172
66.29898 186
66.3191 161
66.33921 182
66.35933 181
66.37944 189
66.39955 164
66.41967 178
66.43978 173
66.45989 188
66.48001 155
66.50012 168
66.52023 171
66.54035 163
66.56046 179
66.58058 166
66.60069 187
66.6208 167
66.64092 171
66.66103 190
66.68114 168
66.70126 155
66.72137 176
66.74149 163
66.7616 177
66.78171 179
66.80183 153
66.82194 177
66.84205 172
66.86217 181
66.88228 182
66.90239 171
66.92251 170
66.94262 183
66.96274 190
66.98285 161
67.00296 174
67.02308 194
67.04319 171
67.0633 197
67.08342 186
67.10353 185
67.12365 217
67.14376 216
67.16387 191
67.18399 191
67.2041 201
67.22421 200
67.24433 228
67.26444 248
67.28456 228
67.30467 243
67.32478 241
67.3449 296
67.36501 302
67.38512 329
67.40524 306
67.42535 355
67.44546 395
67.46558 466
67.48569 490
67.50581 582
67.52592 586
67.54603 692
67.56615 763
67.58626 814
67.60637 888
67.62649 913
67.6466 990
67.66672 954
67.68683 899
67.70694 940
67.72706 847
67.74717 836
67.76728 756
67.7874 743
67.80751 801
67.82763 842
67.84774 822
67.86785 847
67.88797 856
67.90808 839
67.92819 889
67.94831 931
67.96842 1006
67.98853 1061
68.00865 1172
68.02876 1237
68.04888 1313
68.06899 1299
68.0891 1277
68.10922 1311
68.12933 1165
68.14944 1155
68.16956 1208
68.18967 1204
68.20979 1160
68.2299 1131
68.25001 1081
68.27013 1051
68.29024 953
68.31035 822
68.33047 747
68.35058 642
68.3707 572
68.39081 512
68.41092 485
68.43104 431
68.45115 420
68.47126 380
68.49138 352
68.51149 277
68.5316 268
68.55172 258
68.57183 207
68.59195 201
68.61206 207
68.63217 206
68.65229 196
68.6724 182
68.69251 162
68.71263 195
68.73274 175
68.75286 175
68.77297 173
68.79308 174
68.8132 179
68.83331 173
68.85342 162
68.87354 174
68.89365 175
68.91376 150
68.93388 169
68.95399 171
68.97411 185
68.99422 174
69.01433 159
69.03445 155
69.05456 167
69.07467 190
69.09479 145
69.1149 163
69.13502 163
69.15513 160
69.17524 156
69.19536 168
69.21547 188
69.23558 162
69.2557 159
69.27581 173
69.29593 162
69.31604 162
69.33615 133
69.35627 183
69.37638 152
69.39649 167
69.41661 174
69.43672 141
69.45683 153
69.47695 151
69.49706 127
69.51718 158
69.53729 179
69.5574 161
69.57752 150
69.59763 141
69.61774 161
69.63786 162
69.65797 153
69.67809 138
69.6982 159
69.71831 154
69.73843 169
69.75854 158
69.77865 174
69.79877 148
69.81888 138
69.839 153
69.85911 153
69.87922 147
69.89934 145
69.91945 151
69.93956 157
69.95968 136
69.97979 157
69.9999 141
70.02002 135
70.04013 147
70.06025 137
70.08036 155
70.10047 142
70.12059 145
70.1407 145
70.16081 134
70.18093 130
70.20104 127
70.22116 142
70.24127 166
70.26138 158
70.2815 133
70.30161 154
70.32172 155
70.34184 140
70.36195 148
70.38207 145
70.40218 149
70.42229 136
70.44241 144
70.46252 144
70.48263 129
70.50275 157
70.52286 144
70.54297 144
70.56309 144
70.5832 136
70.60332 152
70.62343 163
70.64354 161
70.66366 139
70.68377 162
70.70388 146
70.724 158
70.74411 139
70.76423 132
70.78434 148
70.80445 158
70.82457 155
70.84468 155
70.86479 154
70.88491 154
70.90502 157
70.92513 163
70.94525 157
70.96536 141
70.98548 147
71.00559 150
71.0257 152
71.04582 136
71.06593 136
71.08604 129
71.10616 139
71.12627 146
71.14639 143
71.1665 129
71.18661 147
71.20673 154
71.22684 148
71.24695 146
71.26707 156
71.28718 141
71.3073 138
71.32741 143
71.34752 139
71.36764 175
71.38775 162
71.40786 141
71.42798 162
71.44809 145
71.4682 154
71.48832 183
71.50843 161
71.52855 156
71.54866 149
71.56877 163
71.58889 154
71.609 153
71.62911 152
71.64923 154
71.66934 150
71.68946 158
71.70957 158
71.72968 150
71.7498 155
71.76991 161
71.79002 141
71.81014 141
71.83025 129
71.85037 128
71.87048 152
71.89059 143
71.91071 170
71.93082 129
71.95093 145
71.97105 165
71.99116 167
72.01127 157
72.03139 152
72.0515 167
72.07162 182
72.09173 176
72.11184 158
72.13196 186
72.15207 161
72.17218 154
72.1923 137
72.21241 138
72.23253 166
72.25264 173
72.27275 174
72.29287 147
72.31298 155
72.33309 158
72.35321 156
72.37332 142
72.39344 161
72.41355 150
72.43366 134
72.45378 134
72.47389 144
72.494 123
72.51412 154
72.53423 137
72.55434 158
72.57446 140
72.59457 146
72.61469 134
72.6348 131
72.65491 123
72.67503 139
72.69514 150
72.71525 136
72.73537 128
72.75548 159
72.7756 152
72.79571 161
72.81582 156
72.83594 154
72.85605 154
72.87616 161
72.89628 163
72.91639 193
72.9365 169
72.95662 171
72.97673 180
72.99685 187
73.01696 172
73.03707 202
73.05719 214
73.0773 207
73.09741 205
73.11753 235
73.13764 226
73.15776 217
73.17787 263
73.19798 280
73.2181 303
73.23821 313
73.25832 321
73.27844 347
73.29855 389
73.31867 392
73.33878 421
73.35889 402
73.37901 450
73.39912 399
73.41923 375
73.43935 351
73.45946 331
73.47957 313
73.49969 329
73.5198 286
73.53992 329
73.56003 294
73.58014 282
73.60026 287
73.62037 253
73.64048 257
73.6606 229
73.68071 203
73.70083 204
73.72094 179
73.74105 178
73.76117 151
73.78128 182
73.80139 175
73.82151 177
73.84162 170
73.86174 151
73.88185 142
73.90196 157
73.92208 156
73.94219 148
73.9623 133
73.98242 132
74.00253 125
74.02264 148
74.04276 173
74.06287 159
74.08299 137
74.1031 139
74.12321 153
74.14333 144
74.16344 163
74.18355 133
74.20367 149
74.22378 148
74.2439 137
74.26401 141
74.28412 149
74.30424 143
74.32435 134
74.34446 170
74.36458 133
74.38469 173
74.40481 141
74.42492 175
74.44503 159
74.46515 155
74.48526 171
74.50537 182
74.52549 149
74.5456 150
74.56571 173
74.58583 178
74.60594 176
74.62606 155
74.64617 151
74.66628 168
74.6864 155
74.70651 163
74.72662 147
74.74674 136
74.76685 172
74.78697 162
74.80708 134
74.82719 164
74.84731 201
74.86742 149
74.88753 160
74.90765 167
74.92776 155
74.94787 154
74.96799 166
74.9881 161
75.00822 156
