3.00117 15650
3.02128 15533
3.0414 15015
3.06151 14830
3.08162 14058
3.10174 13869
3.12185 13442
3.14197 12666
3.16208 12355
3.18219 11946
3.20231 11783
3.22242 11429
3.24253 10706
3.26265 10750
3.28276 10294
3.30288 9692
3.32299 9518
3.3431 9105
3.36322 8651
3.38333 8487
3.40344 8391
3.42356 7794
3.44367 7423
3.46379 7304
3.4839 6989
3.50401 6785
3.52413 6578
3.54424 6092
3.56435 6003
3.58447 5695
3.60458 5438
3.62469 5349
3.64481 5050
3.66492 4901
3.68504 4700
3.70515 4418
3.72526 4227
3.74538 3935
3.76549 4004
3.7856 3710
3.80572 3525
3.82583 3488
3.84595 3209
3.86606 3240
3.88617 3047
3.90629 2735
3.9264 2667
3.94651 2499
3.96663 2501
3.98674 2513
4.00686 2203
4.02697 2172
4.04708 2065
4.0672 2096
4.08731 1933
4.10742 1810
4.12754 1785
4.14765 1564
4.16776 1658
4.18788 1701
4.20799 1573
4.22811 1391
4.24822 1481
4.26833 1450
4.28845 1519
4.30856 1333
4.32867 1333
4.34879 1305
4.3689 1323
4.38902 1272
4.40913 1169
4.42924 1197
4.44936 1065
4.46947 1105
4.48958 1141
4.5097 1029
4.52981 1042
4.54992 1029
4.57004 942
4.59015 1009
4.61027 894
4.63038 918
4.65049 807
4.67061 900
4.69072 950
4.71083 790
4.73095 832
4.75106 827
4.77118 778
4.79129 763
4.8114 681
4.83152 673
4.85163 678
4.87174 614
4.89186 613
4.91197 615
4.93209 593
4.9522 638
4.97231 647
4.99243 597
5.01254 512
5.03265 616
5.05277 547
5.07288 496
5.09299 503
5.11311 487
5.13322 442
5.15334 517
5.17345 444
5.19356 472
5.21368 376
5.23379 434
5.2539 491
5.27402 432
5.29413 373
5.31425 406
5.33436 380
5.35447 384
5.37459 381
5.3947 372
5.41481 347
5.43493 344
5.45504 369
5.47516 358
5.49527 322
5.51538 293
5.5355 270
5.55561 312
5.57572 311
5.59584 295
5.61595 295
5.63606 286
5.65618 296
5.67629 289
5.69641 272
5.71652 240
5.73663 277
5.75675 256
5.77686 274
5.79697 243
5.81709 248
5.8372 240
5.85732 269
5.87743 215
5.89754 249
5.91766 222
5.93777 257
5.95788 228
5.978 278
5.99811 228
6.01823 238
6.03834 254
6.05845 264
6.07857 241
6.09868 238
6.11879 238
6.13891 246
6.15902 242
6.17913 233
6.19925 213
6.21936 237
6.23948 238
6.25959 234
6.2797 213
6.29982 229
6.31993 203
6.34004 209
6.36016 218
6.38027 205
6.40039 225
6.4205 195
6.44061 200
6.46073 230
6.48084 215
6.50095 213
6.52107 195
6.54118 220
6.56129 170
6.58141 235
6.60152 200
6.62164 195
6.64175 219
6.66186 211
6.68198 170
6.70209 214
6.7222 190
6.74232 230
6.76243 202
6.78255 212
6.80266 208
6.82277 191
6.84289 213
6.863 184
6.88311 208
6.90323 193
6.92334 197
6.94346 219
6.96357 194
6.98368 210
7.0038 210
7.02391 226
7.04402 218
7.06414 229
7.08425 203
7.10436 213
7.12448 197
7.14459 186
7.16471 217
7.18482 241
7.20493 202
7.22505 166
7.24516 202
7.26527 213
7.28539 208
7.3055 222
7.32562 213
7.34573 183
7.36584 212
7.38596 232
7.40607 209
7.42618 207
7.4463 181
7.46641 187
7.48653 202
7.50664 199
7.52675 215
7.54687 187
7.56698 198
7.58709 205
7.60721 204
7.62732 182
7.64743 228
7.66755 201
7.68766 190
7.70778 205
7.72789 189
7.748 210
7.76812 218
7.78823 213
7.80834 214
7.82846 229
7.84857 245
7.86869 230
7.8888 213
7.90891 212
7.92903 236
7.94914 197
7.96925 195
7.98937 227
8.00948 213
8.0296 207
8.04971 219
8.06982 209
8.08994 231
8.11005 202
8.13016 230
8.15028 201
8.17039 200
8.1905 221
8.21062 209
8.23073 216
8.25085 235
8.27096 255
8.29107 247
8.31119 221
8.3313 241
8.35141 209
8.37153 212
8.39164 260
8.41176 250
8.43187 269
8.45198 233
8.4721 226
8.49221 255
8.51232 232
8.53244 248
8.55255 214
8.57266 257
8.59278 236
8.61289 218
8.63301 247
8.65312 247
8.67323 233
8.69335 226
8.71346 254
8.73357 265
8.75369 277
8.7738 261
8.79392 291
8.81403 227
8.83414 288
8.85426 256
8.87437 247
8.89448 265
8.9146 278
8.93471 250
8.95483 229
8.97494 208
8.99505 249
9.01517 217
9.03528 253
9.05539 227
9.07551 217
9.09562 239
9.11573 200
9.13585 250
9.15596 218
9.17608 197
9.19619 227
9.2163 191
9.23642 234
9.25653 219
9.27664 225
9.29676 245
9.31687 244
9.33699 257
9.3571 230
9.37721 207
9.39733 248
9.41744 237
9.43755 232
9.45767 191
9.47778 202
9.4979 218
9.51801 204
9.53812 214
9.55824 231
9.57835 200
9.59846 225
9.61858 233
9.63869 227
9.6588 220
9.67892 212
9.69903 228
9.71915 217
9.73926 226
9.75937 220
9.77949 221
9.7996 218
9.81971 198
9.83983 225
9.85994 205
9.88006 231
9.90017 215
9.92028 250
9.9404 252
9.96051 235
9.98062 217
10.00074 200
10.02085 247
10.04097 225
10.06108 221
10.08119 229
10.10131 258
10.12142 216
10.14153 241
10.16165 195
10.18176 205
10.20187 203
10.22199 234
10.2421 225
10.26222 252
10.28233 248
10.30244 235
10.32256 235
10.34267 232
10.36278 228
10.3829 231
10.40301 246
10.42313 224
10.44324 207
10.46335 230
10.48347 240
10.50358 236
10.52369 243
10.54381 239
10.56392 224
10.58403 234
10.60415 225
10.62426 198
10.64438 240
10.66449 211
10.6846 206
10.70472 233
10.72483 236
10.74494 226
10.76506 235
10.78517 214
10.80529 218
10.8254 247
10.84551 240
10.86563 217
10.88574 249
10.90585 250
10.92597 266
10.94608 238
10.9662 229
10.98631 225
11.00642 224
11.02654 235
11.04665 239
11.06676 223
11.08688 212
11.10699 228
11.1271 217
11.14722 206
11.16733 216
11.18745 242
11.20756 219
11.22767 209
11.24779 238
11.2679 212
11.28801 235
11.30813 244
11.32824 211
11.34836 228
11.36847 212
11.38858 199
11.4087 244
11.42881 238
11.44892 246
11.46904 255
11.48915 209
11.50927 233
11.52938 216
11.54949 235
11.56961 238
11.58972 233
11.60983 252
11.62995 234
11.65006 199
11.67017 250
11.69029 237
11.7104 227
11.73052 262
11.75063 245
11.77074 262
11.79086 250
11.81097 227
11.83108 218
11.8512 225
11.87131 208
11.89143 251
11.91154 239
11.93165 269
11.95177 251
11.97188 230
11.99199 256
12.01211 253
12.03222 275
12.05234 232
12.07245 249
12.09256 277
12.11268 235
12.13279 248
12.1529 244
12.17302 263
12.19313 275
12.21324 235
12.23336 242
12.25347 264
12.27359 243
12.2937 225
12.31381 249
12.33393 260
12.35404 253
12.37415 264
12.39427 244
12.41438 227
12.4345 237
12.45461 231
12.47472 268
12.49484 226
12.51495 254
12.53506 245
12.55518 207
12.57529 196
12.5954 252
12.61552 219
12.63563 218
12.65575 203
12.67586 221
12.69597 230
12.71609 194
12.7362 188
12.75631 237
12.77643 225
12.79654 227
12.81666 186
12.83677 224
12.85688 188
12.877 222
12.89711 216
12.91722 197
12.93734 224
12.95745 216
12.97757 235
12.99768 201
13.01779 229
13.03791 226
13.05802 210
13.07813 233
13.09825 233
13.11836 217
13.13847 221
13.15859 210
13.1787 206
13.19882 234
13.21893 257
13.23904 240
13.25916 222
13.27927 243
13.29938 216
13.3195 229
13.33961 224
13.35973 212
13.37984 216
13.39995 242
13.42007 246
13.44018 256
13.46029 221
13.48041 220
13.50052 239
13.52064 265
13.54075 249
13.56086 297
13.58098 279
13.60109 287
13.6212 289
13.64132 268
13.66143 322
13.68154 312
13.70166 282
13.72177 242
13.74189 239
13.762 233
13.78211 238
13.80223 237
13.82234 236
13.84245 256
13.86257 274
13.88268 244
13.9028 204
13.92291 242
13.94302 227
13.96314 218
13.98325 213
14.00336 207
14.02348 212
14.04359 216
14.06371 195
14.08382 225
14.10393 204
14.12405 195
14.14416 186
14.16427 188
14.18439 189
14.2045 208
14.22461 203
14.24473 200
14.26484 187
14.28496 240
14.30507 185
14.32518 183
14.3453 183
14.36541 203
14.38552 195
14.40564 196
14.42575 210
14.44587 196
14.46598 190
14.48609 177
14.50621 198
14.52632 188
14.54643 185
14.56655 207
14.58666 181
14.60677 174
14.62689 192
14.647 213
14.66712 184
14.68723 193
14.70734 206
14.72746 208
14.74757 210
14.76768 207
14.7878 208
14.80791 199
14.82803 183
14.84814 220
14.86825 256
14.88837 220
14.90848 220
14.92859 228
14.94871 235
14.96882 277
14.98894 251
15.00905 243
15.02916 235
15.04928 237
15.06939 252
15.0895 269
15.10962 230
15.12973 216
15.14984 237
15.16996 244
15.19007 191
15.21019 214
15.2303 249
15.25041 219
15.27053 198
15.29064 195
15.31075 217
15.33087 202
15.35098 187
15.3711 196
15.39121 191
15.41132 181
15.43144 202
15.45155 186
15.47166 186
15.49178 177
15.51189 198
15.53201 182
15.55212 195
15.57223 194
15.59235 188
15.61246 178
15.63257 186
15.65269 176
15.6728 192
15.69291 190
15.71303 188
15.73314 205
15.75326 199
15.77337 201
15.79348 203
15.8136 196
15.83371 185
15.85382 197
15.87394 171
15.89405 195
15.91417 165
15.93428 197
15.95439 201
15.97451 175
15.99462 190
16.01473 181
16.03485 177
16.05496 196
16.07508 184
16.09519 176
16.1153 197
16.13542 204
16.15553 187
16.17564 171
16.19576 169
16.21587 173
16.23598 184
16.2561 187
16.27621 175
16.29633 172
16.31644 179
16.33655 196
16.35667 161
16.37678 173
16.39689 160
16.41701 178
16.43712 187
16.45724 180
16.47735 169
16.49746 171
16.51758 187
16.53769 154
16.5578 180
16.57792 176
16.59803 189
16.61814 182
16.63826 187
16.65837 175
16.67849 168
16.6986 188
16.71871 169
16.73883 191
16.75894 165
16.77905 181
16.79917 187
16.81928 173
16.8394 191
16.85951 177
16.87962 184
16.89974 196
16.91985 176
16.93996 185
16.96008 181
16.98019 173
17.00031 207
17.02042 186
17.04053 175
17.06065 183
17.08076 166
17.10087 179
17.12099 195
17.1411 169
17.16121 180
17.18133 183
17.20144 175
17.22156 182
17.24167 198
17.26178 158
17.2819 168
17.30201 183
17.32212 193
17.34224 156
17.36235 171
17.38247 160
17.40258 194
17.42269 189
17.44281 167
17.46292 169
17.48303 196
17.50315 180
17.52326 183
17.54338 193
17.56349 167
17.5836 198
17.60372 169
17.62383 174
17.64394 177
17.66406 189
17.68417 182
17.70428 183
17.7244 190
17.74451 167
17.76463 178
17.78474 211
17.80485 187
17.82497 173
17.84508 165
17.86519 181
17.88531 179
17.90542 165
17.92554 169
17.94565 201
17.96576 175
17.98588 203
18.00599 176
18.0261 194
18.04622 167
18.06633 189
18.08645 199
18.10656 196
18.12667 195
18.14679 177
18.1669 175
18.18701 156
18.20713 175
18.22724 172
18.24735 179
18.26747 172
18.28758 198
18.3077 167
18.32781 185
18.34792 151
18.36804 182
18.38815 153
18.40826 179
18.42838 185
18.44849 169
18.46861 168
18.48872 176
18.50883 149
18.52895 148
18.54906 165
18.56917 197
18.58929 195
18.6094 161
18.62951 185
18.64963 195
18.66974 188
18.68986 204
18.70997 201
18.73008 198
18.7502 200
18.77031 185
18.79042 200
18.81054 176
18.83065 184
18.85077 204
18.87088 163
18.89099 188
18.91111 169
18.93122 173
18.95133 198
18.97145 181
18.99156 191
19.01168 210
19.03179 207
19.0519 191
19.07202 162
19.09213 205
19.11224 198
19.13236 173
19.15247 191
19.17258 181
19.1927 190
19.21281 210
19.23293 180
19.25304 191
19.27315 187
19.29327 223
19.31338 223
19.33349 224
19.35361 190
19.37372 194
19.39384 216
19.41395 231
19.43406 207
19.45418 210
19.47429 191
19.4944 204
19.51452 194
19.53463 190
19.55475 199
19.57486 224
19.59497 210
19.61509 211
19.6352 213
19.65531 210
19.67543 238
19.69554 249
19.71565 266
19.73577 233
19.75588 260
19.776 276
19.79611 286
19.81622 308
19.83634 290
19.85645 286
19.87656 270
19.89668 259
19.91679 283
19.93691 268
19.95702 265
19.97713 252
19.99725 276
20.01736 258
20.03747 247
20.05759 286
20.0777 229
20.09782 283
20.11793 280
20.13804 275
20.15816 257
20.17827 253
20.19838 272
20.2185 274
20.23861 259
20.25872 277
20.27884 293
20.29895 289
20.31907 294
20.33918 287
20.35929 303
20.37941 307
20.39952 343
20.41963 351
20.43975 314
20.45986 347
20.47998 355
20.50009 363
20.5202 359
20.54032 384
20.56043 394
20.58054 393
20.60066 479
20.62077 472
20.64088 557
20.661 708
20.68111 795
20.70123 1082
20.72134 1331
20.74145 1986
20.76157 2467
20.78168 3321
20.80179 4094
20.82191 4631
20.84202 4881
20.86214 4688
20.88225 3859
20.90236 3044
20.92248 2196
20.94259 1587
20.9627 1279
20.98282 1082
21.00293 1018
21.02305 962
21.04316 901
21.06327 788
21.08339 673
21.1035 561
21.12361 494
21.14373 450
21.16384 377
21.18395 359
21.20407 336
21.22418 348
21.2443 298
21.26441 313
21.28452 305
21.30464 315
21.32475 292
21.34486 275
21.36498 315
21.38509 296
21.40521 260
21.42532 306
21.44543 256
21.46555 289
21.48566 265
21.50577 262
21.52589 283
21.546 249
21.56612 257
21.58623 260
21.60634 257
21.62646 257
21.64657 277
21.66668 260
21.6868 270
21.70691 224
21.72702 238
21.74714 250
21.76725 268
21.78737 282
21.80748 273
21.82759 293
21.84771 263
21.86782 338
21.88793 303
21.90805 365
21.92816 410
21.94828 444
21.96839 506
21.9885 495
22.00862 493
22.02873 459
22.04884 440
22.06896 375
22.08907 320
22.10919 319
22.1293 263
22.14941 297
22.16953 324
22.18964 272
22.20975 295
22.22987 282
22.24998 294
22.27009 325
22.29021 309
22.31032 316
22.33044 352
22.35055 343
22.37066 342
22.39078 320
22.41089 311
22.431 330
22.45112 305
22.47123 328
22.49135 289
22.51146 277
22.53157 311
22.55169 292
22.5718 283
22.59191 298
22.61203 291
22.63214 265
22.65225 257
22.67237 234
22.69248 273
22.7126 267
22.73271 232
22.75282 249
22.77294 245
22.79305 223
22.81316 265
22.83328 222
22.85339 273
22.87351 281
22.89362 302
22.91373 308
22.93385 324
22.95396 288
22.97407 308
22.99419 334
23.0143 349
23.03442 351
23.05453 323
23.07464 354
23.09476 367
23.11487 353
23.13498 336
23.1551 400
23.17521 343
23.19532 360
23.21544 412
23.23555 384
23.25567 358
23.27578 347
23.29589 388
23.31601 339
23.33612 366
23.35623 341
23.37635 363
23.39646 368
23.41658 386
23.43669 429
23.4568 420
23.47692 455
23.49703 478
23.51714 518
23.53726 527
23.55737 558
23.57749 528
23.5976 487
23.61771 404
23.63783 421
23.65794 356
23.67805 415
23.69817 378
23.71828 370
23.73839 351
23.75851 348
23.77862 337
23.79874 343
23.81885 369
23.83896 387
23.85908 384
23.87919 420
23.8993 426
23.91942 413
23.93953 434
23.95965 426
23.97976 508
23.99987 502
24.01999 468
24.0401 431
24.06021 461
24.08033 370
24.10044 402
24.12056 350
24.14067 380
24.16078 392
24.1809 405
24.20101 436
24.22112 411
24.24124 474
24.26135 435
24.28146 396
24.30158 409
24.32169 390
24.34181 377
24.36192 333
24.38203 333
24.40215 332
24.42226 265
24.44237 311
24.46249 302
24.4826 309
24.50272 292
24.52283 284
24.54294 304
24.56306 338
24.58317 322
24.60328 326
24.6234 320
24.64351 323
24.66362 351
24.68374 319
24.70385 362
24.72397 324
24.74408 284
24.76419 325
24.78431 307
24.80442 311
24.82453 283
24.84465 305
24.86476 263
24.88488 309
24.90499 300
24.9251 305
24.94522 272
24.96533 292
24.98544 267
25.00556 302
25.02567 315
25.04579 285
25.0659 286
25.08601 299
25.10613 275
25.12624 326
25.14635 307
25.16647 297
25.18658 307
25.20669 295
25.22681 291
25.24692 292
25.26704 295
25.28715 323
25.30726 344
25.32738 310
25.34749 336
25.3676 370
25.38772 362
25.40783 416
25.42795 428
25.44806 424
25.46817 549
25.48829 580
25.5084 635
25.52851 607
25.54863 710
25.56874 670
25.58886 743
25.60897 688
25.62908 685
25.6492 562
25.66931 561
25.68942 544
25.70954 485
25.72965 463
25.74976 440
25.76988 447
25.78999 336
25.81011 384
25.83022 385
25.85033 406
25.87045 392
25.89056 378
25.91067 410
25.93079 408
25.9509 403
25.97102 402
25.99113 444
26.01124 419
26.03136 429
26.05147 454
26.07158 484
26.0917 456
26.11181 517
26.13193 532
26.15204 561
26.17215 619
26.19227 638
26.21238 700
26.23249 718
26.25261 869
26.27272 922
26.29283 1012
26.31295 1070
26.33306 1248
26.35318 1500
26.37329 1683
26.3934 2022
26.41352 2493
26.43363 3290
26.45374 3955
26.47386 5223
26.49397 6901
26.51409 9186
26.5342 11889
26.55431 14871
26.57443 17896
26.59454 20633
26.61465 21771
26.63477 20174
26.65488 16760
26.67499 12926
26.69511 9669
26.71522 7019
26.73534 4337
26.75545 2626
26.77556 1721
26.79568 1441
26.81579 1264
26.8359 1201
26.85602 1142
26.87613 1089
26.89625 1060
26.91636 1101
26.93647 1018
26.95659 993
26.9767 1103
26.99681 1120
27.01693 1111
27.03704 1115
27.05716 1083
27.07727 1063
27.09738 924
27.1175 788
27.13761 816
27.15772 707
27.17784 633
27.19795 609
27.21806 587
27.23818 631
27.25829 717
27.27841 665
27.29852 798
27.31863 888
27.33875 964
27.35886 1078
27.37897 1205
27.39909 1266
27.4192 1426
27.43932 1500
27.45943 1517
27.47954 1350
27.49966 1285
27.51977 1112
27.53988 1002
27.56 853
27.58011 709
27.60023 669
27.62034 663
27.64045 543
27.66057 623
27.68068 596
27.70079 633
27.72091 657
27.74102 639
27.76113 663
27.78125 641
27.80136 642
27.82148 691
27.84159 696
27.8617 766
27.88182 800
27.90193 776
27.92204 839
27.94216 766
27.96227 711
27.98239 567
28.0025 576
28.02261 497
28.04273 420
28.06284 428
28.08295 392
28.10307 387
28.12318 400
28.1433 368
28.16341 406
28.18352 411
28.20364 417
28.22375 415
28.24386 372
28.26398 390
28.28409 334
28.3042 338
28.32432 294
28.34443 291
28.36455 281
28.38466 270
28.40477 278
28.42489 212
28.445 237
28.46511 267
28.48523 233
28.50534 226
28.52546 243
28.54557 248
28.56568 236
28.5858 229
28.60591 250
28.62602 206
28.64614 258
28.66625 253
28.68636 243
28.70648 241
28.72659 226
28.74671 244
28.76682 219
28.78693 227
28.80705 235
28.82716 235
28.84727 241
28.86739 248
28.8875 232
28.90762 235
28.92773 221
28.94784 229
28.96796 206
28.98807 226
29.00818 223
29.0283 257
29.04841 271
29.06853 249
29.08864 243
29.10875 252
29.12887 258
29.14898 278
29.16909 293
29.18921 263
29.20932 252
29.22943 257
29.24955 264
29.26966 257
29.28978 288
29.30989 276
29.33 311
29.35012 335
29.37023 340
29.39034 333
29.41046 350
29.43057 315
29.45069 345
29.4708 356
29.49091 356
29.51103 298
29.53114 342
29.55125 304
29.57137 335
29.59148 337
29.6116 353
29.63171 312
29.65182 366
29.67194 331
29.69205 326
29.71216 375
29.73228 390
29.75239 386
29.7725 391
29.79262 417
29.81273 397
29.83285 358
29.85296 400
29.87307 462
29.89319 375
29.9133 321
29.93341 347
29.95353 373
29.97364 337
29.99376 358
30.01387 366
30.03398 379
30.0541 377
30.07421 390
30.09432 400
30.11444 386
30.13455 425
30.15467 435
30.17478 435
30.19489 453
30.21501 429
30.23512 370
30.25523 362
30.27535 339
30.29546 362
30.31557 345
30.33569 350
30.3558 340
30.37592 317
30.39603 296
30.41614 365
30.43626 372
30.45637 328
30.47648 323
30.4966 340
30.51671 337
30.53683 318
30.55694 319
30.57705 302
30.59717 322
30.61728 320
30.63739 361
30.65751 384
30.67762 394
30.69773 414
30.71785 453
30.73796 478
30.75808 456
30.77819 490
30.7983 467
30.81842 403
30.83853 441
30.85864 379
30.87876 360
30.89887 318
30.91899 302
30.9391 300
30.95921 256
30.97933 250
30.99944 234
31.01955 229
31.03967 224
31.05978 220
31.0799 195
31.10001 219
31.12012 217
31.14024 243
31.16035 250
31.18046 250
31.20058 248
31.22069 238
31.2408 248
31.26092 241
31.28103 209
31.30115 227
31.32126 240
31.34137 247
31.36149 233
31.3816 222
31.40171 224
31.42183 263
31.44194 205
31.46206 198
31.48217 209
31.50228 212
31.5224 216
31.54251 207
31.56262 241
31.58274 200
31.60285 199
31.62297 180
31.64308 201
31.66319 195
31.68331 213
31.70342 194
31.72353 199
31.74365 197
31.76376 206
31.78387 190
31.80399 214
31.8241 197
31.84422 216
31.86433 219
31.88444 208
31.90456 191
31.92467 216
31.94478 222
31.9649 218
31.98501 224
32.00513 226
32.02524 252
32.04535 248
32.06547 226
32.08558 252
32.10569 266
32.12581 242
32.14592 273
32.16604 282
32.18615 287
32.20626 301
32.22638 247
32.24649 255
32.2666 294
32.28672 295
32.30683 313
32.32694 283
32.34706 308
32.36717 251
32.38729 306
32.4074 262
32.42751 260
32.44763 246
32.46774 272
32.48785 247
32.50797 209
32.52808 226
32.5482 218
32.56831 233
32.58842 206
32.60854 195
32.62865 202
32.64876 164
32.66888 179
32.68899 165
32.7091 217
32.72922 212
32.74933 183
32.76945 193
32.78956 207
32.80967 195
32.82979 198
32.8499 203
32.87001 204
32.89013 174
32.91024 178
32.93036 193
32.95047 173
32.97058 167
32.9907 179
33.01081 176
33.03092 211
33.05104 201
33.07115 191
33.09127 216
33.11138 190
33.13149 217
33.15161 207
33.17172 247
33.19183 206
33.21195 189
33.23206 187
33.25217 207
33.27229 233
33.2924 212
33.31252 197
33.33263 206
33.35274 211
33.37286 165
33.39297 209
33.41308 203
33.4332 180
33.45331 183
33.47343 157
33.49354 180
33.51365 188
33.53377 208
33.55388 181
33.57399 193
33.59411 195
33.61422 204
33.63434 178
33.65445 202
33.67456 167
33.69468 195
33.71479 218
33.7349 192
33.75502 178
33.77513 238
33.79524 239
33.81536 208
33.83547 226
33.85559 200
33.8757 231
33.89581 212
33.91593 203
33.93604 239
33.95615 216
33.97627 206
33.99638 229
34.0165 219
34.03661 258
34.05672 225
34.07684 262
34.09695 284
34.11706 272
34.13718 274
34.15729 307
34.17741 326
34.19752 347
34.21763 317
34.23775 303
34.25786 333
34.27797 242
34.29809 291
34.3182 306
34.33831 321
34.35843 256
34.37854 305
34.39866 281
34.41877 281
34.43888 280
34.459 259
34.47911 270
34.49922 281
34.51934 245
34.53945 325
34.55957 288
34.57968 280
34.59979 302
34.61991 298
34.64002 296
34.66013 255
34.68025 323
34.70036 329
34.72047 288
34.74059 362
34.7607 330
34.78082 301
34.80093 289
34.82104 312
34.84116 323
34.86127 325
34.88138 366
34.9015 326
34.92161 369
34.94173 322
34.96184 375
34.98195 367
35.00207 351
35.02218 343
35.04229 370
35.06241 331
35.08252 336
35.10264 307
35.12275 311
35.14286 340
35.16298 298
35.18309 312
35.2032 295
35.22332 325
35.24343 315
35.26354 331
35.28366 296
35.30377 265
35.32389 283
35.344 329
35.36411 325
35.38423 320
35.40434 316
35.42445 294
35.44457 337
35.46468 319
35.4848 315
35.50491 315
35.52502 323
35.54514 314
35.56525 335
35.58536 303
35.60548 301
35.62559 293
35.64571 286
35.66582 262
35.68593 290
35.70605 277
35.72616 244
35.74627 281
35.76639 276
35.7865 210
35.80661 244
35.82673 257
35.84684 265
35.86696 233
35.88707 265
35.90718 258
35.9273 233
35.94741 261
35.96752 244
35.98764 253
36.00775 275
36.02787 267
36.04798 250
36.06809 260
36.08821 264
36.10832 261
36.12843 263
36.14855 250
36.16866 269
36.18878 275
36.20889 312
36.229 307
36.24912 318
36.26923 366
36.28934 316
36.30946 398
36.32957 458
36.34968 492
36.3698 622
36.38991 718
36.41003 901
36.43014 1005
36.45025 1251
36.47037 1350
36.49048 1524
36.51059 1568
36.53071 1564
36.55082 1327
36.57094 1069
36.59105 943
36.61116 780
36.63128 735
36.65139 605
36.6715 462
36.69162 368
36.71173 332
36.73184 309
36.75196 306
36.77207 286
36.79219 321
36.8123 295
36.83241 297
36.85253 281
36.87264 299
36.89275 299
36.91287 316
36.93298 334
36.9531 280
36.97321 273
36.99332 317
37.01344 279
37.03355 281
37.05366 310
37.07378 256
37.09389 261
37.11401 289
37.13412 263
37.15423 289
37.17435 296
37.19446 239
37.21457 247
37.23469 239
37.2548 250
37.27491 228
37.29503 221
37.31514 248
37.33526 234
37.35537 244
37.37548 234
37.3956 228
37.41571 210
37.43582 229
37.45594 227
37.47605 235
37.49617 230
37.51628 252
37.53639 266
37.55651 257
37.57662 261
37.59673 251
37.61685 237
37.63696 250
37.65708 227
37.67719 234
37.6973 237
37.71742 210
37.73753 229
37.75764 261
37.77776 204
37.79787 212
37.81798 230
37.8381 219
37.85821 206
37.87833 212
37.89844 180
37.91855 211
37.93867 207
37.95878 204
37.97889 185
37.99901 220
38.01912 229
38.03924 217
38.05935 207
38.07946 227
38.09958 196
38.11969 229
38.1398 187
38.15992 201
38.18003 224
38.20015 202
38.22026 195
38.24037 198
38.26049 228
38.2806 235
38.30071 223
38.32083 200
38.34094 218
38.36105 227
38.38117 245
38.40128 238
38.4214 225
38.44151 248
38.46162 249
38.48174 243
38.50185 279
38.52196 282
38.54208 272
38.56219 295
38.58231 276
38.60242 240
38.62253 292
38.64265 245
38.66276 234
38.68287 232
38.70299 231
38.7231 187
38.74321 232
38.76333 219
38.78344 210
38.80356 234
38.82367 230
38.84378 228
38.8639 214
38.88401 211
38.90412 207
38.92424 195
38.94435 210
38.96447 236
38.98458 229
39.00469 211
39.02481 217
39.04492 241
39.06503 265
39.08515 253
39.10526 256
39.12538 280
39.14549 275
39.1656 296
39.18572 306
39.20583 348
39.22594 375
39.24606 398
39.26617 446
39.28628 604
39.3064 689
39.32651 764
39.34663 887
39.36674 1006
39.38685 1211
39.40697 1367
39.42708 1406
39.44719 1365
39.46731 1257
39.48742 1060
39.50754 919
39.52765 816
39.54776 685
39.56788 629
39.58799 445
39.6081 361
39.62822 279
39.64833 264
39.66845 269
39.68856 251
39.70867 254
39.72879 214
39.7489 211
39.76901 237
39.78913 241
39.80924 219
39.82935 229
39.84947 235
39.86958 210
39.8897 225
39.90981 215
39.92992 215
39.95004 245
39.97015 251
39.99026 247
40.01038 247
40.03049 265
40.05061 322
40.07072 320
40.09083 375
40.11095 402
40.13106 430
40.15117 488
40.17129 591
40.1914 629
40.21152 698
40.23163 805
40.25174 736
40.27186 734
40.29197 666
40.31208 606
40.3322 509
40.35231 457
40.37242 470
40.39254 406
40.41265 344
40.43277 277
40.45288 237
40.47299 246
40.49311 197
40.51322 230
40.53333 208
40.55345 195
40.57356 198
40.59368 196
40.61379 233
40.6339 200
40.65402 225
40.67413 207
40.69424 198
40.71436 201
40.73447 203
40.75458 205
40.7747 193
40.79481 220
40.81493 184
40.83504 221
40.85515 218
40.87527 251
40.89538 187
40.91549 233
40.93561 212
40.95572 200
40.97584 206
40.99595 194
41.01606 160
41.03618 201
41.05629 215
41.0764 216
41.09652 200
41.11663 187
41.13675 240
41.15686 213
41.17697 217
41.19709 210
41.2172 227
41.23731 226
41.25743 187
41.27754 196
41.29765 223
41.31777 229
41.33788 190
41.358 224
41.37811 199
41.39822 215
41.41834 220
41.43845 202
41.45856 254
41.47868 236
41.49879 259
41.51891 247
41.53902 241
41.55913 282
41.57925 267
41.59936 300
41.61947 296
41.63959 332
41.6597 312
41.67982 363
41.69993 357
41.72004 404
41.74016 397
41.76027 391
41.78038 384
41.8005 382
41.82061 376
41.84072 353
41.86084 329
41.88095 353
41.90107 273
41.92118 263
41.94129 244
41.96141 270
41.98152 250
42.00163 225
42.02175 232
42.04186 230
42.06198 259
42.08209 245
42.1022 283
42.12232 246
42.14243 297
42.16254 275
42.18266 324
42.20277 317
42.22289 370
42.243 401
42.26311 453
42.28323 536
42.30334 593
42.32345 733
42.34357 784
42.36368 922
42.38379 1053
42.40391 1071
42.42402 1069
42.44414 936
42.46425 846
42.48436 704
42.50448 686
42.52459 638
42.5447 527
42.56482 517
42.58493 391
42.60505 307
42.62516 288
42.64527 313
42.66539 273
42.6855 265
42.70561 268
42.72573 263
42.74584 271
42.76595 244
42.78607 219
42.80618 247
42.8263 233
42.84641 205
42.86652 222
42.88664 227
42.90675 198
42.92686 220
42.94698 222
42.96709 202
42.98721 202
43.00732 204
43.02743 209
43.04755 198
43.06766 210
43.08777 203
43.10789 162
43.128 208
43.14812 182
43.16823 179
43.18834 194
43.20846 173
43.22857 185
43.24868 170
43.2688 174
43.28891 177
43.30902 196
43.32914 170
43.34925 175
43.36937 188
43.38948 225
43.40959 205
43.42971 186
43.44982 181
43.46993 202
43.49005 167
43.51016 204
43.53028 220
43.55039 210
43.5705 215
43.59062 197
43.61073 209
43.63084 208
43.65096 197
43.67107 201
43.69119 187
43.7113 180
43.73141 187
43.75153 172
43.77164 213
43.79175 184
43.81187 170
43.83198 179
43.85209 178
43.87221 178
43.89232 181
43.91244 168
43.93255 166
43.95266 191
43.97278 190
43.99289 207
44.013 190
44.03312 207
44.05323 175
44.07335 194
44.09346 171
44.11357 205
44.13369 195
44.1538 162
44.17391 187
44.19403 181
44.21414 196
44.23426 188
44.25437 198
44.27448 188
44.2946 174
44.31471 193
44.33482 191
44.35494 188
44.37505 167
44.39516 190
44.41528 186
44.43539 197
44.45551 189
44.47562 196
44.49573 190
44.51585 213
44.53596 187
44.55607 180
44.57619 200
44.5963 193
44.61642 200
44.63653 183
44.65664 193
44.67676 180
44.69687 187
44.71698 195
44.7371 186
44.75721 187
44.77732 207
44.79744 159
44.81755 210
44.83767 215
44.85778 200
44.87789 187
44.89801 197
44.91812 197
44.93823 181
44.95835 209
44.97846 182
44.99858 196
45.01869 196
45.0388 193
45.05892 191
45.07903 191
45.09914 205
45.11926 209
45.13937 222
45.15949 183
45.1796 209
45.19971 189
45.21983 218
45.23994 226
45.26005 220
45.28017 177
45.30028 231
45.32039 233
45.34051 221
45.36062 219
45.38074 237
45.40085 246
45.42096 248
45.44108 249
45.46119 252
45.4813 269
45.50142 279
45.52153 293
45.54165 323
45.56176 347
45.58187 363
45.60199 424
45.6221 442
45.64221 477
45.66233 573
45.68244 611
45.70256 682
45.72267 749
45.74278 777
45.7629 756
45.78301 706
45.80312 634
45.82324 573
45.84335 538
45.86346 508
45.88358 464
45.90369 395
45.92381 336
45.94392 278
45.96403 247
45.98415 213
46.00426 224
46.02437 229
46.04449 201
46.0646 198
46.08472 229
46.10483 218
46.12494 192
46.14506 202
46.16517 194
46.18528 210
46.2054 186
46.22551 175
46.24563 174
46.26574 180
46.28585 186
46.30597 184
46.32608 173
46.34619 184
46.36631 176
46.38642 190
46.40653 189
46.42665 189
46.44676 193
46.46688 182
46.48699 184
46.5071 177
46.52722 173
46.54733 152
46.56744 171
46.58756 160
46.60767 182
46.62779 163
46.6479 180
46.66801 178
46.68813 152
46.70824 169
46.72835 163
46.74847 176
46.76858 182
46.78869 167
46.80881 172
46.82892 180
46.84904 176
46.86915 161
46.88926 160
46.90938 187
46.92949 203
46.9496 186
46.96972 185
46.98983 225
47.00995 226
47.03006 216
47.05017 242
47.07029 219
47.0904 206
47.11051 234
47.13063 217
47.15074 209
47.17086 226
47.19097 204
47.21108 202
47.2312 223
47.25131 207
47.27142 198
47.29154 233
47.31165 214
47.33176 237
47.35188 217
47.37199 208
47.39211 196
47.41222 212
47.43233 219
47.45245 208
47.47256 224
47.49267 219
47.51279 207
47.5329 216
47.55302 177
47.57313 214
47.59324 177
47.61336 201
47.63347 171
47.65358 172
47.6737 192
47.69381 215
47.71393 161
47.73404 161
47.75415 180
47.77427 204
47.79438 157
47.81449 175
47.83461 161
47.85472 203
47.87483 183
47.89495 183
47.91506 184
47.93518 181
47.95529 173
47.9754 179
47.99552 190
48.01563 165
48.03574 195
48.05586 186
48.07597 168
48.09609 179
48.1162 199
48.13631 162
48.15643 178
48.17654 179
48.19665 186
48.21677 162
48.23688 186
48.257 174
48.27711 190
48.29722 177
48.31734 184
48.33745 153
48.35756 183
48.37768 188
48.39779 175
48.4179 159
48.43802 173
48.45813 170
48.47825 177
48.49836 184
48.51847 176
48.53859 191
48.5587 168
48.57881 174
48.59893 170
48.61904 182
48.63916 191
48.65927 225
48.67938 195
48.6995 184
48.71961 210
48.73972 215
48.75984 210
48.77995 203
48.80006 218
48.82018 227
48.84029 223
48.86041 215
48.88052 203
48.90063 244
48.92075 220
48.94086 221
48.96097 252
48.98109 208
49.0012 210
49.02132 232
49.04143 244
49.06154 237
49.08166 233
49.10177 218
49.12188 212
49.142 205
49.16211 205
49.18223 214
49.20234 223
49.22245 202
49.24257 219
49.26268 198
49.28279 219
49.30291 189
49.32302 211
49.34313 224
49.36325 184
49.38336 190
49.40348 209
49.42359 219
49.4437 167
49.46382 217
49.48393 206
49.50404 229
49.52416 211
49.54427 201
49.56439 239
49.5845 231
49.60461 234
49.62473 228
49.64484 273
49.66495 278
49.68507 291
49.70518 301
49.7253 285
49.74541 321
49.76552 345
49.78564 350
49.80575 381
49.82586 408
49.84598 484
49.86609 501
49.8862 584
49.90632 608
49.92643 720
49.94655 888
49.96666 1078
49.98677 1234
50.00689 1410
50.027 1611
50.04711 1807
50.06723 2014
50.08734 2168
50.10746 2084
50.12757 1969
50.14768 1673
50.1678 1388
50.18791 1257
50.20802 1162
50.22814 1140
50.24825 1089
50.26837 868
50.28848 711
50.30859 499
50.32871 398
50.34882 388
50.36893 366
50.38905 383
50.40916 388
50.42927 389
50.44939 425
50.4695 451
50.48962 414
50.50973 481
50.52984 457
50.54996 476
50.57007 435
50.59018 429
50.6103 413
50.63041 401
50.65053 384
50.67064 376
50.69075 370
50.71087 309
50.73098 296
50.75109 317
50.77121 326
50.79132 276
50.81143 261
50.83155 249
50.85166 284
50.87178 260
50.89189 243
50.912 235
50.93212 227
50.95223 212
50.97234 230
50.99246 238
51.01257 243
51.03269 211
51.0528 219
51.07291 220
51.09303 212
51.11314 227
51.13325 220
51.15337 191
51.17348 222
51.1936 177
51.21371 188
51.23382 233
51.25394 214
51.27405 217
51.29416 179
51.31428 219
51.33439 180
51.3545 199
51.37462 183
51.39473 190
51.41485 180
51.43496 169
51.45507 168
51.47519 149
51.4953 181
51.51541 168
51.53553 163
51.55564 148
51.57576 183
51.59587 199
51.61598 166
51.6361 205
51.65621 176
51.67632 166
51.69644 168
51.71655 169
51.73667 186
51.75678 177
51.77689 166
51.79701 167
51.81712 165
51.83723 157
51.85735 177
51.87746 172
51.89757 193
51.91769 176
51.9378 186
51.95792 190
51.97803 172
51.99814 153
52.01826 184
52.03837 155
52.05848 169
52.0786 174
52.09871 163
52.11883 179
52.13894 167
52.15905 180
52.17917 174
52.19928 182
52.21939 187
52.23951 179
52.25962 141
52.27974 207
52.29985 180
52.31996 157
52.34008 162
52.36019 159
52.3803 175
52.40042 175
52.42053 178
52.44064 180
52.46076 183
52.48087 183
52.50099 180
52.5211 193
52.54121 199
52.56133 166
52.58144 192
52.60155 212
52.62167 170
52.64178 169
52.6619 156
52.68201 176
52.70212 186
52.72224 182
52.74235 176
52.76246 187
52.78258 199
52.80269 209
52.8228 186
52.84292 171
52.86303 184
52.88315 185
52.90326 181
52.92337 160
52.94349 170
52.9636 163
52.98371 166
53.00383 173
53.02394 181
53.04406 187
53.06417 152
53.08428 186
53.1044 172
53.12451 201
53.14462 162
53.16474 191
53.18485 185
53.20497 182
53.22508 174
53.24519 196
53.26531 169
53.28542 200
53.30553 174
53.32565 164
53.34576 176
53.36587 188
53.38599 173
53.4061 173
53.42622 186
53.44633 146
53.46644 137
53.48656 183
53.50667 196
53.52678 174
53.5469 168
53.56701 189
53.58713 158
53.60724 163
53.62735 192
53.64747 175
53.66758 190
53.68769 180
53.70781 199
53.72792 176
53.74804 198
53.76815 180
53.78826 195
53.80838 171
53.82849 178
53.8486 193
53.86872 195
53.88883 183
53.90894 172
53.92906 179
53.94917 192
53.96929 180
53.9894 182
54.00951 201
54.02963 190
54.04974 181
54.06985 194
54.08997 202
54.11008 193
54.1302 194
54.15031 212
54.17042 196
54.19054 197
54.21065 202
54.23076 179
54.25088 195
54.27099 219
54.29111 203
54.31122 203
54.33133 194
54.35145 198
54.37156 207
54.39167 222
54.41179 208
54.4319 216
54.45201 231
54.47213 223
54.49224 215
54.51236 209
54.53247 238
54.55258 248
54.5727 271
54.59281 274
54.61292 302
54.63304 328
54.65315 366
54.67327 344
54.69338 350
54.71349 459
54.73361 561
54.75372 615
54.77383 668
54.79395 651
54.81406 732
54.83417 720
54.85429 720
54.8744 630
54.89452 554
54.91463 498
54.93474 469
54.95486 485
54.97497 431
54.99508 444
55.0152 398
55.03531 332
55.05543 313
55.07554 317
55.09565 268
55.11577 295
55.13588 310
55.15599 333
55.17611 347
55.19622 360
55.21634 354
55.23645 451
55.25656 419
55.27668 427
55.29679 393
55.3169 408
55.33702 354
55.35713 327
55.37724 302
55.39736 312
55.41747 328
55.43759 309
55.4577 293
55.47781 259
55.49793 257
55.51804 226
55.53815 203
55.55827 227
55.57838 189
55.5985 202
55.61861 188
55.63872 191
55.65884 204
55.67895 165
55.69906 196
55.71918 171
55.73929 204
55.75941 184
55.77952 190
55.79963 152
55.81975 182
55.83986 179
55.85997 163
55.88009 189
55.9002 199
55.92031 184
55.94043 176
55.96054 195
55.98066 183
56.00077 186
56.02088 169
56.041 156
56.06111 163
56.08122 170
56.10134 148
56.12145 144
56.14157 164
56.16168 191
56.18179 170
56.20191 175
56.22202 163
56.24213 186
56.26225 170
56.28236 157
56.30248 158
56.32259 165
56.3427 169
56.36282 166
56.38293 169
56.40304 162
56.42316 163
56.44327 173
56.46338 158
56.4835 173
56.50361 184
56.52373 182
56.54384 194
56.56395 176
56.58407 195
56.60418 154
56.62429 179
56.64441 174
56.66452 181
56.68464 185
56.70475 202
56.72486 180
56.74498 193
56.76509 183
56.7852 179
56.80532 174
56.82543 183
56.84554 192
56.86566 183
56.88577 181
56.90589 180
56.926 161
56.94611 179
56.96623 171
56.98634 208
57.00645 173
57.02657 179
57.04668 182
57.0668 186
57.08691 192
57.10702 193
57.12714 190
57.14725 194
57.16736 192
57.18748 224
57.20759 182
57.22771 192
57.24782 195
57.26793 201
57.28805 194
57.30816 190
57.32827 188
57.34839 204
57.3685 180
57.38861 182
57.40873 186
57.42884 163
57.44896 185
57.46907 198
57.48918 179
57.5093 184
57.52941 181
57.54952 174
57.56964 186
57.58975 179
57.60987 180
57.62998 174
57.65009 176
57.67021 180
57.69032 179
57.71043 172
57.73055 159
57.75066 164
57.77078 173
57.79089 185
57.811 185
57.83112 184
57.85123 170
57.87134 181
57.89146 163
57.91157 146
57.93168 156
57.9518 168
57.97191 182
57.99203 176
58.01214 193
58.03225 170
58.05237 166
58.07248 163
58.09259 168
58.11271 183
58.13282 182
58.15294 177
58.17305 182
58.19316 146
58.21328 169
58.23339 152
58.2535 165
58.27362 166
58.29373 187
58.31385 177
58.33396 187
58.35407 174
58.37419 162
58.3943 165
58.41441 182
58.43453 172
58.45464 193
58.47475 197
58.49487 223
58.51498 213
58.5351 197
58.55521 208
58.57532 208
58.59544 204
58.61555 203
58.63566 206
58.65578 199
58.67589 201
58.69601 209
58.71612 203
58.73623 180
58.75635 177
58.77646 179
58.79657 176
58.81669 195
58.8368 177
58.85691 190
58.87703 167
58.89714 187
58.91726 152
58.93737 176
58.95748 163
58.9776 170
58.99771 163
59.01782 192
59.03794 175
59.05805 173
59.07817 190
59.09828 168
59.11839 177
59.13851 177
59.15862 165
59.17873 189
59.19885 186
59.21896 178
59.23908 186
59.25919 184
59.2793 189
59.29942 190
59.31953 165
59.33964 196
59.35976 200
59.37987 172
59.39998 223
59.4201 216
59.44021 215
59.46033 233
59.48044 230
59.50055 204
59.52067 227
59.54078 267
59.56089 212
59.58101 261
59.60112 284
59.62124 311
59.64135 360
59.66146 366
59.68158 419
59.70169 457
59.7218 501
59.74192 607
59.76203 673
59.78215 777
59.80226 909
59.82237 1072
59.84249 1152
59.8626 1275
59.88271 1431
59.90283 1425
59.92294 1320
59.94305 1211
59.96317 1118
59.98328 923
60.0034 800
60.02351 813
60.04362 724
60.06374 807
60.08385 703
60.10396 605
60.12408 550
60.14419 432
60.16431 343
60.18442 276
60.20453 268
60.22465 270
60.24476 242
60.26487 231
60.28499 223
60.3051 206
60.32522 203
60.34533 214
60.36544 193
60.38556 205
60.40567 216
60.42578 185
60.4459 199
60.46601 188
60.48612 194
60.50624 196
60.52635 215
60.54647 196
60.56658 186
60.58669 186
60.60681 181
60.62692 191
60.64703 180
60.66715 213
60.68726 204
60.70738 178
60.72749 166
60.7476 193
60.76772 183
60.78783 176
60.80794 180
60.82806 169
60.84817 186
60.86828 180
60.8884 196
60.90851 182
60.92863 183
60.94874 176
60.96885 173
60.98897 175
61.00908 178
61.02919 195
61.04931 199
61.06942 203
61.08954 206
61.10965 192
61.12976 180
61.14988 191
61.16999 194
61.1901 183
61.21022 195
61.23033 200
61.25045 188
61.27056 183
61.29067 188
61.31079 198
61.3309 180
61.35101 185
61.37113 178
61.39124 178
61.41135 176
61.43147 187
61.45158 184
61.4717 180
61.49181 167
61.51192 201
61.53204 178
61.55215 166
61.57226 182
61.59238 196
61.61249 187
61.63261 193
61.65272 188
61.67283 184
61.69295 152
61.71306 194
61.73317 190
61.75329 167
61.7734 197
61.79352 176
61.81363 209
61.83374 181
61.85386 198
61.87397 194
61.89408 185
61.9142 206
61.93431 183
61.95442 178
61.97454 185
61.99465 196
62.01477 201
62.03488 203
62.05499 175
62.07511 198
62.09522 187
62.11533 187
62.13545 205
62.15556 183
62.17568 231
62.19579 194
62.2159 208
62.23602 207
62.25613 183
62.27624 182
62.29636 175
62.31647 213
62.33659 191
62.3567 187
62.37681 197
62.39693 179
62.41704 202
62.43715 193
62.45727 195
62.47738 186
62.49749 213
62.51761 196
62.53772 186
62.55784 188
62.57795 193
62.59806 190
62.61818 194
62.63829 171
62.6584 190
62.67852 171
62.69863 169
62.71875 181
62.73886 194
62.75897 186
62.77909 188
62.7992 194
62.81931 198
62.83943 207
62.85954 162
62.87965 168
62.89977 186
62.91988 187
62.94 218
62.96011 175
62.98022 190
63.00034 193
63.02045 203
63.04056 199
63.06068 193
63.08079 209
63.10091 205
63.12102 193
63.14113 178
63.16125 175
63.18136 188
63.20147 201
63.22159 164
63.2417 192
63.26182 211
63.28193 197
63.30204 226
63.32216 195
63.34227 194
63.36238 181
63.3825 184
63.40261 190
63.42272 188
63.44284 175
63.46295 199
63.48307 195
63.50318 168
63.52329 195
63.54341 193
63.56352 196
63.58363 195
63.60375 206
63.62386 221
63.64398 216
63.66409 227
63.6842 212
63.70432 239
63.72443 216
63.74454 265
63.76466 237
63.78477 285
63.80489 279
63.825 289
63.84511 295
63.86523 308
63.88534 352
63.90545 372
63.92557 334
63.94568 395
63.96579 440
63.98591 412
64.00602 412
64.02614 368
64.04625 331
64.06636 308
64.08648 323
64.10659 288
64.1267 276
64.14682 310
64.16693 285
64.18705 273
64.20716 242
64.22727 223
64.24739 238
64.2675 199
64.28761 182
64.30773 172
64.32784 191
64.34796 193
64.36807 169
64.38818 215
64.4083 192
64.42841 162
64.44852 171
64.46864 165
64.48875 185
64.50886 178
64.52898 168
64.54909 183
64.56921 151
64.58932 150
64.60943 184
64.62955 181
64.64966 170
64.66977 166
64.68989 175
64.71 177
64.73012 163
64.75023 190
64.77034 164
64.79046 196
64.81057 188
64.83068 188
64.8508 181
64.87091 178
64.89102 167
64.91114 202
64.93125 192
64.95137 184
64.97148 174
64.99159 176
65.01171 181
65.03182 184
65.05193 179
65.07205 182
65.09216 181
65.11228 189
65.13239 191
65.1525 201
65.17262 185
65.19273 200
65.21284 212
65.23296 178
65.25307 213
65.27319 190
65.2933 197
65.31341 193
65.33353 222
65.35364 172
65.37375 185
65.39387 193
65.41398 185
65.43409 182
65.45421 191
65.47432 192
65.49444 178
65.51455 182
65.53466 174
65.55478 196
65.57489 175
65.595 193
65.61512 195
65.63523 198
65.65535 211
65.67546 223
65.69557 211
65.71569 199
65.7358 227
65.75591 208
65.77603 214
65.79614 199
65.81626 196
65.83637 195
65.85648 194
65.8766 196
65.89671 193
65.91682 189
65.93694 184
65.95705 178
65.97716 175
65.99728 169
66.01739 174
66.03751 151
66.05762 170
66.07773 172
66.09785 167
66.11796 184
66.13807 178
66.15819 173
66.1783 177
66.19842 176
66.21853 188
66.23864 186
66.25876 197
66.27887 178
66.29898 188
66.3191 161
66.33921 171
66.35933 157
66.37944 213
66.39955 194
66.41967 155
66.43978 162
66.45989 182
66.48001 187
66.50012 167
66.52023 163
66.54035 184
66.56046 168
66.58058 163
66.60069 163
66.6208 140
66.64092 160
66.66103 171
66.68114 148
66.70126 173
66.72137 167
66.74149 169
66.7616 170
66.78171 155
66.80183 150
66.82194 169
66.84205 182
66.86217 171
66.88228 181
66.90239 197
66.92251 185
66.94262 166
66.96274 177
66.98285 175
67.00296 177
67.02308 186
67.04319 185
67.0633 201
67.08342 201
67.10353 175
67.12365 188
67.14376 188
67.16387 197
67.18399 195
67.2041 204
67.22421 202
67.24433 198
67.26444 225
67.28456 207
67.30467 202
67.32478 214
67.3449 207
67.36501 263
67.38512 239
67.40524 255
67.42535 279
67.44546 306
67.46558 319
67.48569 357
67.50581 380
67.52592 454
67.54603 498
67.56615 563
67.58626 617
67.60637 653
67.62649 778
67.6466 758
67.66672 818
67.68683 849
67.70694 843
67.72706 848
67.74717 737
67.76728 600
67.7874 624
67.80751 602
67.82763 661
67.84774 619
67.86785 673
67.88797 712
67.90808 721
67.92819 754
67.94831 776
67.96842 778
67.98853 809
68.00865 865
68.02876 986
68.04888 1055
68.06899 1172
68.0891 1138
68.10922 1173
68.12933 1135
68.14944 1066
68.16956 1017
68.18967 956
68.20979 1012
68.2299 1001
68.25001 1034
68.27013 1016
68.29024 994
68.31035 904
68.33047 760
68.35058 584
68.3707 538
68.39081 478
68.41092 439
68.43104 415
68.45115 431
68.47126 425
68.49138 378
68.51149 294
68.5316 290
68.55172 249
68.57183 236
68.59195 218
68.61206 205
68.63217 200
68.65229 209
68.6724 189
68.69251 199
68.71263 208
68.73274 190
68.75286 211
68.77297 183
68.79308 178
68.8132 189
68.83331 179
68.85342 182
68.87354 206
68.89365 167
68.91376 167
68.93388 172
68.95399 167
68.97411 186
68.99422 142
69.01433 172
69.03445 174
69.05456 180
69.07467 127
69.09479 149
69.1149 161
69.13502 183
69.15513 179
69.17524 169
69.19536 178
69.21547 175
69.23558 160
69.2557 181
69.27581 161
69.29593 199
69.31604 180
69.33615 166
69.35627 182
69.37638 172
69.39649 156
69.41661 164
69.43672 170
69.45683 174
69.47695 148
69.49706 159
69.51718 148
69.53729 155
69.5574 185
69.57752 182
69.59763 161
69.61774 165
69.63786 173
69.65797 171
69.67809 158
69.6982 133
69.71831 148
69.73843 169
69.75854 181
69.77865 179
69.79877 153
69.81888 174
69.839 145
69.85911 158
69.87922 171
69.89934 174
69.91945 143
69.93956 168
69.95968 171
69.97979 178
69.9999 175
70.02002 152
70.04013 166
70.06025 154
70.08036 163
70.10047 154
70.12059 149
70.1407 146
70.16081 164
70.18093 153
70.20104 146
70.22116 156
70.24127 156
70.26138 156
70.2815 147
70.30161 166
70.32172 142
70.34184 145
70.36195 150
70.38207 178
70.40218 146
70.42229 155
70.44241 149
70.46252 146
70.48263 172
70.50275 138
70.52286 162
70.54297 138
70.56309 162
70.5832 161
70.60332 163
70.62343 159
70.64354 154
70.66366 157
70.68377 151
70.70388 152
70.724 164
70.74411 157
70.76423 147
70.78434 171
70.80445 147
70.82457 145
70.84468 156
70.86479 145
70.88491 171
70.90502 145
70.92513 159
70.94525 148
70.96536 164
70.98548 136
71.00559 152
71.0257 155
71.04582 147
71.06593 162
71.08604 144
71.10616 153
71.12627 154
71.14639 143
71.1665 171
71.18661 140
71.20673 154
71.22684 147
71.24695 152
71.26707 135
71.28718 154
71.3073 173
71.32741 141
71.34752 160
71.36764 164
71.38775 169
71.40786 170
71.42798 150
71.44809 166
71.4682 182
71.48832 183
71.50843 180
71.52855 161
71.54866 174
71.56877 195
71.58889 165
71.609 182
71.62911 179
71.64923 163
71.66934 153
71.68946 187
71.70957 150
71.72968 168
71.7498 167
71.76991 192
71.79002 185
71.81014 168
71.83025 181
71.85037 163
71.87048 159
71.89059 157
71.91071 151
71.93082 146
71.95093 165
71.97105 149
71.99116 174
72.01127 170
72.03139 183
72.0515 178
72.07162 165
72.09173 171
72.11184 167
72.13196 169
72.15207 156
72.17218 189
72.1923 164
72.21241 169
72.23253 155
72.25264 154
72.27275 177
72.29287 162
72.31298 161
72.33309 179
72.35321 179
72.37332 158
72.39344 147
72.41355 155
72.43366 179
72.45378 157
72.47389 173
72.494 145
72.51412 167
72.53423 164
72.55434 185
72.57446 184
72.59457 144
72.61469 140
72.6348 165
72.65491 145
72.67503 160
72.69514 163
72.71525 150
72.73537 152
72.75548 159
72.7756 163
72.79571 160
72.81582 163
72.83594 163
72.85605 174
72.87616 171
72.89628 171
72.91639 192
72.9365 184
72.95662 191
72.97673 175
72.99685 170
73.01696 185
73.03707 192
73.05719 169
73.0773 158
73.09741 198
73.11753 211
73.13764 202
73.15776 204
73.17787 236
73.19798 215
73.2181 225
73.23821 256
73.25832 265
73.27844 282
73.29855 312
73.31867 329
73.33878 345
73.35889 334
73.37901 387
73.39912 371
73.41923 385
73.43935 393
73.45946 364
73.47957 341
73.49969 303
73.5198 279
73.53992 277
73.56003 259
73.58014 320
73.60026 274
73.62037 285
73.64048 260
73.6606 247
73.68071 257
73.70083 238
73.72094 192
73.74105 210
73.76117 182
73.78128 179
73.80139 171
73.82151 200
73.84162 159
73.86174 195
73.88185 187
73.90196 180
73.92208 172
73.94219 165
73.9623 173
73.98242 166
74.00253 174
74.02264 167
74.04276 201
74.06287 172
74.08299 181
74.1031 147
74.12321 149
74.14333 162
74.16344 180
74.18355 177
74.20367 154
74.22378 168
74.2439 172
74.26401 170
74.28412 138
74.30424 155
74.32435 173
74.34446 167
74.36458 151
74.38469 163
74.40481 162
74.42492 197
74.44503 151
74.46515 174
74.48526 167
74.50537 169
74.52549 154
74.5456 155
74.56571 183
74.58583 167
74.60594 169
74.62606 180
74.64617 168
74.66628 167
74.6864 178
74.70651 163
74.72662 169
74.74674 181
74.76685 171
74.78697 175
74.80708 175
74.82719 194
74.84731 155
74.86742 173
74.88753 170
74.90765 173
74.92776 170
74.94787 161
74.96799 174
74.9881 168
75.00822 172
