3.00117 25778.1181994281
3.02128 25164.3393225668
3.0414 24810
3.06151 23702.5599069158
3.08162 23183.4535283904
3.10174 22484.865455866
3.12185 22193.3440300058
3.14197 21755.5914159036
3.16208 20606.3519687393
3.18219 20908.0305346406
3.20231 19979.3643764299
3.22242 19071.6672425408
3.24253 18982.4421559557
3.26265 18191.9907983455
3.28276 17712.4001612562
3.30288 17521.3971511003
3.32299 16997.1723215357
3.3431 16671
3.36322 15670.4357558566
3.38333 15561.5676671769
3.40344 14894.8018512079
3.42356 14627.2045220401
3.44367 14288.2056503781
3.46379 13394.1798336653
3.4839 13503
3.50401 12938.698731083
3.52413 12546.484136272
3.54424 12072.7905551483
3.56435 11528.6817306472
3.58447 11421.3714701248
3.60458 10940.4906463942
3.62469 10594.1292946939
3.64481 10286.7876997307
3.66492 9776.51792550503
3.68504 9458.76430102707
3.70515 9304.87017090114
3.72526 8739.43841712976
3.74538 8766.27770607899
3.76549 8142.22528682684
3.7856 8033
3.80572 7706.58603655498
3.82583 7380.72788666565
3.84595 7222.23809121129
3.86606 6790.7182538956
3.88617 6600.17036651636
3.90629 6434.12480195545
3.9264 6143
3.94651 5907.84356186002
3.96663 5625.9406973332
3.98674 5731.89463273714
4.00686 5357.10154711506
4.02697 4977.98666031548
4.04708 5140.13232892748
4.0672 4686
4.08731 4628.00064350891
4.10742 4468.69578116401
4.12754 4136.49934748174
4.14765 3976.40768238557
4.16776 3818.09362569976
4.18788 3874.95251655242
4.20799 3757.16251497918
4.22811 3396.91329537771
4.24822 3400.95663510216
4.26833 3203.65499236757
4.28845 3087.06683339346
4.30856 3067.56731176591
4.32867 2662.23927657822
4.34879 2781.96574760223
4.3689 2667
4.38902 2689.05291376865
4.40913 2643.72837505104
4.42924 2432.81332192429
4.44936 2445.0776775677
4.46947 2308.18549849272
4.48958 2297.90571971785
4.5097 2352
4.52981 2134.95496213741
4.54992 2173.9520185766
4.57004 2017.86455443213
4.59015 2084.86713046059
4.61027 2035.14066550042
4.63038 1968.02703197366
4.65049 1958.01407439951
4.67061 1897.96536624804
4.69072 1878.06658673811
4.71083 1942.90605449456
4.73095 1780.73379133247
4.75106 1777.01206674679
4.77118 1710.08046382699
4.79129 1678.98230398009
4.8114 1718
4.83152 1607.90240753484
4.85163 1586.05129376298
4.87174 1617.98162620728
4.89186 1554.18440167857
4.91197 1472.08563494516
4.93209 1433.02042262866
4.9522 1406
4.97231 1449.99888731815
4.99243 1414.0139498313
5.01254 1455.96664156581
5.03265 1354.30138145331
5.05277 1299.94893798036
5.07288 1384.92377294368
5.09299 1398.02314019489
5.11311 1340.988883722
5.13322 1325.92033469358
5.15334 1209.89934840209
5.17345 1237.04058098273
5.19356 1214.99935142662
5.21368 1252.96987987797
5.23379 1238.02604358095
5.2539 1173
5.27402 1131.97756682302
5.29413 1124.00601848297
5.31425 1117.91136195884
5.33436 1064.08162396124
5.35447 1049.01005780333
5.37459 1054.97964575133
5.3947 1107
5.41481 1084.99060608733
5.43493 1093.02479332804
5.45504 1066.79738215092
5.47516 957.032712539327
5.49527 1019.95875667011
5.51538 968.060343385346
5.5355 946
5.55561 931.990490542846
5.57572 928.029430069248
5.59584 966.005679712527
5.61595 926.116053632162
5.63606 887.105224219047
5.65618 831.026564539198
5.67629 843.984830017724
5.69641 871.012277577118
5.71652 879.978857838813
5.73663 830.910662857428
5.75675 792.999493026558
5.77686 833.862078962216
5.79697 868.078112788195
5.81709 777.015050948246
5.8372 817
5.85732 789.988379646853
5.87743 824.071289192069
5.89754 847.989099635669
5.91766 832.00363095875
5.93777 833.047863158612
5.95788 772.049371410895
5.978 756
5.99811 771.02429722176
6.01823 835.063026389229
6.03834 823.882274729529
6.05845 743.200658966546
6.07857 696.001877810822
6.09868 724.96883249832
6.11879 732.007964840795
6.13891 713.999901167159
6.15902 733.019773248735
6.17913 739.997990794856
6.19925 740.016172585933
6.21936 741.042873381698
6.23948 710.010193884519
6.25959 734.977911775445
6.2797 765
6.29982 723.932532795277
6.31993 676.009991416428
6.34004 718.046570580794
6.36016 712.978959734016
6.38027 730.044462494322
6.40039 670.009944647961
6.4205 702
6.44061 685.982704408217
6.46073 679.066420344313
6.48084 745.067736487336
6.50095 714.187249729285
6.52107 653.012933301464
6.54118 688.965669927693
6.56129 692.006113335672
6.58141 674.986411541247
6.60152 658.019471948899
6.62164 681.94040720694
6.64175 632.05420367223
6.66186 710.941278903917
6.68198 676.008202045461
6.70209 722.980428139801
6.7222 707
6.74232 654.981218041299
6.76243 675.053479320113
6.78255 699.018699942392
6.80266 688.053385639866
6.82277 664.007632597026
6.84289 681.985522657027
6.863 681
6.88311 603.98920513793
6.90323 648.072079327017
6.92334 660.998534853694
6.94346 645.107564391487
6.96357 600.944555052091
6.98368 684.975289469322
7.0038 633
7.02391 635.994284997288
7.04402 610.016875385529
7.06414 649.971642749236
7.08425 585.085975615349
7.10436 605.958677871487
7.12448 626.922824233747
7.14459 708.012558135228
7.16471 606.98200257839
7.18482 672.062040614925
7.20493 660.923043276713
7.22505 625.007203475125
7.24516 649.986035464975
7.26527 639.979263934006
7.28539 676.990961077161
7.3055 655
7.32562 610.950269347241
7.34573 592.078490272551
7.36584 681.099614839518
7.38596 651.150287259054
7.40607 598.990843386728
7.42618 641.976594547665
7.4463 621
7.46641 603.999407021747
7.48653 627.084960127524
7.50664 661.895446759066
7.52675 581.954047701799
7.54687 680.946669427027
7.56698 630.016788863027
7.58709 667.005210844194
7.60721 594.977097656104
7.62732 609.020758227083
7.64743 628.091921459736
7.66755 690.947364056131
7.68766 620.996018693269
7.70778 683.010537468886
7.72789 597.01557081847
7.748 643
7.76812 601.983927443314
7.78823 635.037793542697
7.80834 621.94948136697
7.82846 605.027022377858
7.84857 612.921069505845
7.86869 667.006115890679
7.8888 618
7.90891 683.007200557224
7.92903 618.900682281691
7.94914 603.024019021545
7.96925 633.843736833958
7.98937 686.022135694939
8.00948 628.020884112068
8.0296 642
8.04971 587.015900351538
8.06982 675.004802388801
8.08994 584.885103610416
8.11005 616.124459001123
8.13016 627.032762240996
8.15028 602.026297332477
8.17039 576.015327426871
8.1905 560
8.21062 602.013966802819
8.23073 590.01490627874
8.25085 630.075211136064
8.27096 627.039844413841
8.29107 617.979514800801
8.31119 636.004007460726
8.3313 602
8.35141 598.005902413534
8.37153 600.968571913825
8.39164 586.072287696252
8.41176 642.003141907828
8.43187 600.978321521293
8.45198 657.011915469941
8.4721 573
8.49221 603.025225623502
8.51232 617.982310604541
8.53244 586.944894640775
8.55255 576.985860700032
8.57266 600.906428381372
8.59278 644.990003653877
8.61289 630.99852283262
8.63301 637.978594438462
8.65312 576.004025841382
8.67323 638.040596425879
8.69335 598.889760895171
8.71346 591.975616798741
8.73357 600.997668620573
8.75369 610.980824513272
8.7738 656
8.79392 634.996764027593
8.81403 649.979056955987
8.83414 600.914595116941
8.85426 600.923076028527
8.87437 646.960657167321
8.89448 640.026742573796
8.9146 621
8.93471 633.997958830606
8.95483 610.974819531871
8.97494 617.041319536635
8.99505 619.104411759724
9.01517 557.04874570905
9.03528 565.986719590011
9.05539 563.999862744436
9.07551 556.979359286914
9.09562 523.042475416903
9.11573 615.067271859224
9.13585 588.936554048061
9.15596 604.94647915683
9.17608 609.021933586266
9.19619 580.006758448944
9.2163 592
9.23642 608.999202080865
9.25653 587.948887974669
9.27664 570.041471743213
9.29676 598.03812038511
9.31687 549.011014628905
9.33699 605.964071080664
9.3571 624
9.37721 541.981202718805
9.39733 577.09990050801
9.41744 615.983922499241
9.43755 574.107662029755
9.45767 562.966436850188
9.47778 590.995921210477
9.4979 581
9.51801 626.019815508538
9.53812 627.966461844505
9.55824 584.944116639195
9.57835 570.938358299569
9.59846 546.973506181533
9.61858 589.971507618875
9.63869 575.021770891073
9.6588 544
9.67892 584.03658993393
9.69903 578.924171181363
9.71915 531.018362547331
9.73926 589.892571793045
9.75937 603.011551483079
9.77949 586.017356459369
9.7996 554
9.81971 577.003241407631
9.83983 554.96496630968
9.85994 569.126610971006
9.88006 632.000957466853
9.90017 568.097356080999
9.92028 556.963939390434
9.9404 596
9.96051 563.984420404176
9.98062 549.983381693198
10.00074 545.082007624822
10.02085 619.847961607097
10.04097 623.078002347244
10.06108 562.02555918214
10.08119 585.978220326227
10.10131 619.010703147228
10.12142 613.954323797491
10.14153 554.955201857014
10.16165 562.025512682922
10.18176 555.02182991785
10.20187 541.0437848541
10.22199 524.980889402512
10.2421 589
10.26222 561.994504944387
10.28233 582.977253997316
10.30244 538.994431490631
10.32256 587.918366203561
10.34267 594.990510746676
10.36278 609.003453997675
10.3829 591
10.40301 607.007417991598
10.42313 620.047350702176
10.44324 637.902836120946
10.46335 554.084102372409
10.48347 580.979798687052
10.50358 560.002202508437
10.52369 582.000896136272
10.54381 544.982342582111
10.56392 535.002864430425
10.58403 562.112094841471
10.60415 629.954543827716
10.62426 557.033762063455
10.64438 612.964746390131
10.66449 586.018731810661
10.6846 586
10.70472 631.035601185454
10.72483 620.891706903679
10.74494 547.00447940443
10.76506 607.951747412966
10.78517 568.05455877663
10.80529 584.973731787423
10.8254 634
10.84551 626.990214408988
10.86563 591.894607399311
10.88574 527.004071669095
10.90585 589.860756357986
10.92597 593.042161493517
10.94608 569.005743738481
10.9662 598
10.98631 645.985958494249
11.00642 557.926856579977
11.02654 570.188465635751
11.04665 663.970089763111
11.06676 588.177821240219
11.08688 563.9549844313
11.10699 635.974123248085
11.1271 628
11.14722 570.99805574857
11.16733 619.063246199292
11.18745 600.806088752541
11.20756 545.899511398931
11.22767 668.880121640741
11.24779 651.027965381942
11.2679 630
11.28801 664.993674749175
11.30813 628.025570764318
11.32824 679.979313507754
11.34836 608.069706448452
11.36847 657.873313927277
11.38858 688.064214560036
11.4087 605
11.42881 692.008598538344
11.44892 611.937071444507
11.46904 626.075714182016
11.48915 653.908915142766
11.50927 687.003019348152
11.52938 658.01616743633
11.54949 672.987605847323
11.56961 677.988334009187
11.58972 663.038719503355
11.60983 713.964076179151
11.62995 641.984928382266
11.65006 712.910146131521
11.67017 708.961103556784
11.69029 768.990912142555
11.7104 753
11.73052 823.011806719206
11.75063 766.941995441821
11.77074 785.059656177263
11.79086 780.083265383845
11.81097 750.947257978343
11.83108 822.971145721374
11.8512 791
11.87131 789.998095088966
11.89143 782.028878321143
11.91154 822.045089860713
11.93165 813.042192142081
11.95177 800.031100097674
11.97188 788.971821624109
11.99199 849.971475105569
12.01211 864.985237914654
12.03222 822.980432996764
12.05234 847.108594332268
12.07245 894.035925844348
12.09256 881.020813296483
12.11268 884.002615472094
12.13279 888.977626527595
12.1529 937
12.17302 875.989682056533
12.19313 946.13038033986
12.21324 976.927692390705
12.23336 915.068764505161
12.25347 926.962522174691
12.27359 945.986535012049
12.2937 967
12.31381 928.987801457722
12.33393 939.041137895292
12.35404 955.990513857925
12.37415 937.035740705374
12.39427 919.072499507205
12.41438 856.033949621047
12.4345 881
12.45461 928.984864682234
12.47472 849.95790249753
12.49484 841.878194843204
12.51495 725.215690771735
12.53506 725.87888089201
12.55518 767.031006650319
12.57529 702.003909482256
12.5954 744
12.61552 674.953430585878
12.63563 684.021107670531
12.65575 674.975426306176
12.67586 673.014969506796
12.69597 668.967113502369
12.71609 688.017817480437
12.7362 618
12.75631 647.019608823771
12.77643 658.995378600373
12.79654 660.023822372921
12.81666 663.064992638573
12.83677 611.042177753387
12.85688 605.028371209347
12.877 567
12.89711 618.012744869936
12.91722 592.965075299698
12.93734 573.965832858782
12.95745 551.054499917573
12.97757 546.964139519269
12.99768 582.978511521488
13.01779 582.002642756531
13.03791 582.999830956046
13.05802 585.015593106031
13.07813 593.95618818332
13.09825 541.931667476102
13.11836 551.973342239925
13.13847 549.0074787485
13.15859 539.016092243174
13.1787 512
13.19882 570.031309537585
13.21893 553.96475046941
13.23904 542.964289262147
13.25916 523.988958615732
13.27927 550.970319649024
13.29938 545.021862564926
13.3195 524
13.33961 517.996346298793
13.35973 523.058748024483
13.37984 565.988116010798
13.39995 510.134310698987
13.42007 491.999540229577
13.44018 508.950671454492
13.46029 545.019768424007
13.48041 465.990382063893
13.50052 531.075008241478
13.52064 554.969294843693
13.54075 526.93556068056
13.56086 515.995586996403
13.58098 519.006740415742
13.60109 502.008491368548
13.6212 521
13.64132 609.013660370788
13.66143 549.926208755602
13.68154 545.990710229278
13.70166 527.001409223324
13.72177 546.984181884032
13.74189 540.999783109597
13.762 544
13.78211 505.990020794602
13.80223 512.008416361641
13.82234 509.012783138367
13.84245 519.025697286267
13.86257 496.006048911086
13.88268 511.994636562663
13.9028 490
13.92291 484.026055876899
13.94302 550.005941378864
13.96314 487.871403696556
13.98325 475.923733653123
14.00336 516.941905837288
14.02348 519.018134638737
14.04359 493.014015921616
14.06371 486.015894524874
14.08382 529.008369540544
14.10393 493.937552739115
14.12405 478.015149812577
14.14416 488.000967095314
14.16427 480.992867037982
14.18439 502.986943512083
14.2045 517
14.22461 506.996463262056
14.24473 485.90617957298
14.26484 443.132406183436
14.28496 553.005754752551
14.30507 435.118948269784
14.32518 467.934221036694
14.3453 492
14.36541 478.009613682463
14.38552 512.999592969999
14.40564 476.95847374695
14.42575 496.91116289177
14.44587 517.003076814693
14.46598 495.033105360005
14.48609 471.00140215259
14.50621 486.008693805201
14.52632 492.998877990665
14.54643 494.016467614962
14.56655 505.990084228694
14.58666 487.031809006144
14.60677 489.970091952617
14.62689 508.999146701013
14.647 490
14.66712 480.018667929694
14.68723 504.995340644508
14.70734 486.022978942137
14.72746 512.043975251678
14.74757 452.037645345056
14.76768 486.952637245308
14.7878 501
14.80791 472.991662124528
14.82803 477.01984308735
14.84814 492.040997951742
14.86825 500.066304048969
14.88837 459.019266893633
14.90848 473.999933798731
14.92859 462.987698417323
14.94871 511.005907728825
14.96882 479.978712943977
14.98894 477.949787439987
15.00905 443.027644640735
15.02916 511.836438904428
15.04928 537.058152062105
15.06939 461.000498997269
15.0895 532
15.10962 503.941303453491
15.12973 472.013229041846
15.14984 501.029409908223
15.16996 500.962476770893
15.19007 530.004986583556
15.21019 494.013022246495
15.2303 502
15.25041 516.999475856856
15.27053 497.952401425863
15.29064 469.975351171969
15.31075 478.939433492057
15.33087 486.055261934081
15.35098 454.948264134251
15.3711 542
15.39121 459.988497648833
15.41132 522.036037197306
15.43144 482.894324527904
15.45155 472.927224681624
15.47166 508.971649303085
15.49178 489.03773722103
15.51189 459.006193604611
15.53201 471.016755960314
15.55212 491.976795914371
15.57223 445.976765888168
15.59235 480.124292408997
15.61246 500.044672142591
15.63257 459.034974830942
15.65269 461.000505522958
15.6728 455
15.69291 490.012981860301
15.71303 492.991163532969
15.73314 489.995218997106
15.75326 482.034471962901
15.77337 473.96453045842
15.79348 516.97311777105
15.8136 494
15.83371 428.997972846075
15.85382 473.025025325702
15.87394 457.980676287149
15.89405 469.988389187974
15.91417 455.026684194824
15.93428 450.990209134965
15.95439 459.004746317433
15.97451 451.014133516146
15.99462 488.986021820419
16.01473 444.009802136346
16.03485 502.067620719235
16.05496 468.086051280374
16.07508 456.989187020124
16.09519 469.997188801885
16.1153 464
16.13542 464.026055732879
16.15553 493.996656635318
16.17564 467.989126386643
16.19576 485.999926076337
16.21587 471.974271044352
16.23598 506.009181532422
16.2561 452
16.27621 451.002210974918
16.29633 445.001846062297
16.31644 456.011348110277
16.33655 459.948301281686
16.35667 485.998547290992
16.37678 469.994520927187
16.39689 488.008514545986
16.41701 446.99706574371
16.43712 482.022755249336
16.45724 483.044452702212
16.47735 512.952651944983
16.49746 455.059547558587
16.51758 478.963113503142
16.53769 493.00220495297
16.5578 487
16.57792 499.003549521951
16.59803 486.971530277684
16.61814 481.037390053313
16.63826 500.034045602835
16.65837 451.060336019585
16.67849 452.981271133632
16.6986 487
16.71871 475.018675361421
16.73883 534.994221799942
16.75894 471.937015354455
16.77905 494.973967591749
16.79917 470.023873793215
16.81928 463.042312996089
16.8394 417
16.85951 502.02498009335
16.87962 475.94885539858
16.89974 463.076730999477
16.91985 512.980394525587
16.93996 468.110029330865
16.96008 441.0027483407
16.98019 462.974538975895
17.00031 511.003945306959
17.02042 466.929284843956
17.04053 431.05442012204
17.06065 510.135940150691
17.08076 505.066216384504
17.10087 480.017524361676
17.12099 484.989991685847
17.1411 494
17.16121 463.01047235424
17.18133 507.976988010546
17.20144 439.94243667192
17.22156 462.013568719407
17.24167 428.965303872318
17.26178 500.969799960322
17.2819 470
17.30201 490.010990403512
17.32212 483.975010427865
17.34224 458.970844792945
17.36235 449.052281842283
17.38247 438.941921619661
17.40258 510.949264051749
17.42269 527.987923440798
17.44281 550.985991464634
17.46292 472.923563914908
17.48303 451.053249979399
17.50315 488.955816501225
17.52326 442.977516710747
17.54338 513.952582752233
17.56349 496.021285135458
17.5836 463
17.60372 452.028484824355
17.62383 509.079293298189
17.64394 527.973435314466
17.66406 487.129800304778
17.68417 439.984008742135
17.70428 480.996086588431
17.7244 452
17.74451 514.027782194154
17.76463 511.920316506378
17.78474 453.955344675374
17.80485 472.935103614043
17.82497 468.059483750711
17.84508 435.977585855457
17.86519 491.989325869425
17.88531 462.986459624056
17.90542 465.006515326585
17.92554 455.960116422363
17.94565 446.041426961827
17.96576 476.967654568736
17.98588 481.974074889794
18.00599 519.995802570841
18.0261 490
18.04622 491.047272900945
18.06633 534.971219473791
18.08645 470.923436612121
18.10656 491.972967481033
18.12667 486.963450339703
18.14679 529.998914537608
18.1669 483
18.18701 474.005172777803
18.20713 487.02321171042
18.22724 496.992772988042
18.24735 473.106186232627
18.26747 451.940851159075
18.28758 524.960482733134
18.3077 499
18.32781 477.022584764013
18.34792 525.956885350979
18.36804 426.955505716513
18.38815 512.768280913623
18.40826 534.058884133659
18.42838 504.998396966717
18.44849 526.999008848022
18.46861 497.984822778721
18.48872 495.024024692498
18.50883 527.031347256878
18.52895 526.969364461534
18.54906 517.99741918352
18.56917 513.051818979123
18.58929 462.01500850112
18.6094 470
18.62951 494.010313976252
18.64963 503.989075343946
18.66974 485.969022105239
18.68986 484.974953753716
18.70997 498.993637444791
18.73008 496.993592592248
18.7502 499
18.77031 456.996967908952
18.79042 494.039391382562
18.81054 508.00125328207
18.83065 499.067038016571
18.85077 477.974142914305
18.87088 514.994648991986
18.89099 482.013251890926
18.91111 486.007036434509
18.93122 503.032882051945
18.95133 532.99206157496
18.97145 489.872907500098
18.99156 470.952504760715
19.01168 505.996143602218
19.03179 479.007567175122
19.0519 503
19.07202 533.988456375588
19.09213 496.970588854927
19.11224 517.079028825655
19.13236 548.967133046893
19.15247 545.033073174005
19.17258 522.008724913824
19.1927 521
19.21281 510.016029648387
19.23293 561.00893087735
19.25304 518.941062076361
19.27315 533.922033407551
19.29327 552.990678067586
19.31338 548.014139158692
19.33349 556.968855544443
19.35361 621.992820017747
19.37372 557.997946949332
19.39384 621.039789616375
19.41395 570.901206926749
19.43406 587.920827884267
19.45418 623.960624032145
19.47429 654.998543878985
19.4944 640
19.51452 644.979923965396
19.53463 609.990712190484
19.55475 636.045578705346
19.57486 641.943082531979
19.59497 706.880739760884
19.61509 765.98819393011
19.6352 759
19.65531 758.013522518441
19.67543 792.013414746094
19.69554 796.10098411285
19.71565 880.865137985374
19.73577 913.872222103377
19.75588 1035.93237339384
19.776 1038
19.79611 1091.01864691588
19.81622 1090.99408037342
19.83634 1133.22401673442
19.85645 1250.91381109585
19.87656 1214.01817941539
19.89668 1253.98964073445
19.91679 1217.01162628615
19.93691 1227.00099450072
19.95702 1202.97339131291
19.97713 1195.01350426651
19.99725 1218.08878116533
20.01736 1240.0336898834
20.03747 1197.0465017345
20.05759 1167.0385911733
20.0777 1095
20.09782 1208.05795437707
20.11793 1143.81752735978
20.13804 1088.14130193078
20.15816 1195.01841547352
20.17827 1067.14579017331
20.19838 1082.93686473039
20.2185 1113
20.23861 1056.96609303914
20.25872 1032.04781986598
20.27884 1089.95021649925
20.29895 994.152571683019
20.31907 1026.87801019491
20.33918 1079.01081604812
20.35929 1029.01587695412
20.37941 1030.99723503438
20.39952 1012.00305011204
20.41963 1038.02154007344
20.43975 1028.97523218827
20.45986 1020.05642711068
20.47998 989.993426735737
20.50009 1013.0095714598
20.5202 951
20.54032 955.03123837241
20.56043 989.052183535848
20.58054 993.891696679127
20.60066 926.011542110285
20.62077 975.963867980355
20.64088 946.030565179499
20.661 953
20.68111 993.026476156554
20.70123 1022.95134005449
20.72134 965.991743404637
20.74145 1031.81199720328
20.76157 1074.95766850373
20.78168 1106.96410369827
20.80179 1140.98740316452
20.82191 1154.00182509086
20.84202 1158.01096040469
20.86214 1163.96465228671
20.88225 1134.97720527035
20.90236 1122.14129436796
20.92248 1004.09877137061
20.94259 958.011963365356
20.9627 946
20.98282 973.986488639905
21.00293 925.959234232674
21.02305 939.045071582259
21.04316 934.042002206545
21.06327 921.977217116964
21.08339 927.030420354841
21.1035 835
21.12361 897.048375056878
21.14373 948.976708748188
21.16384 890.894016354832
21.18395 881.93105805045
21.20407 909.005103661055
21.22418 881.016712709325
21.2443 879
21.26441 847.997886520456
21.28452 872.015491826721
21.30464 856.937951556214
21.32475 853.863369881222
21.34486 932.921810580038
21.36498 902.067140872054
21.38509 861.991149291855
21.40521 912.012987350541
21.42532 884.946855045478
21.44543 855.024781412316
21.46555 896.050369985535
21.48566 886.009458643687
21.50577 900.979610556986
21.52589 920.972572035411
21.546 973
21.56612 899.955273971481
21.58623 914.032012805384
21.60634 918.026016315537
21.62646 917.128283781494
21.64657 825.050769771448
21.66668 858.974153001787
21.6868 841
21.70691 835.996106335373
21.72702 811.966195203879
21.74714 801.07730817028
21.76725 843.070794402441
21.78737 760.071574851915
21.80748 786.948340133069
21.82759 805.012327557477
21.84771 768.996695447634
21.86782 797.027339505968
21.88793 795.966580566731
21.90805 766.930320535812
21.92816 750.006611759215
21.94828 763.967654695793
21.96839 795.994425801307
21.9885 786
22.00862 782.994875346807
22.02873 782.029654649124
22.04884 803.977613507616
22.06896 745.169418926886
22.08907 688.988968142222
22.10919 739.980086384924
22.1293 745
22.14941 742.983595659175
22.16953 698.990168757046
22.18964 718.975364389723
22.20975 696.875852215031
22.22987 781.002326517678
22.24998 696.045759459273
22.27009 723.992922188818
22.29021 698.999087782457
22.31032 736.029128671493
22.33044 731.967323077239
22.35055 711.911320702972
22.37066 664.088414377621
22.39078 648.975223806597
22.41089 691.985764760502
22.431 700
22.45112 730.030476773219
22.47123 748.011522701794
22.49135 740.928749575871
22.51146 704.049386466617
22.53157 698.001037698598
22.55169 695.998220820043
22.5718 711
22.59191 726.993971274258
22.61203 704.003120313373
22.63214 721.978007075127
22.65225 689.999377332691
22.67237 725.967087400369
22.69248 706.040088991899
22.7126 682
22.73271 712.014673258237
22.75282 720.991811002186
22.77294 707.982858078185
22.79305 718.909278204533
22.81316 742.070355730934
22.83328 690.978576689273
22.85339 774.976186447149
22.87351 768.009039250086
22.89362 792.933877379721
22.91373 669.930229909595
22.93385 720.087512608537
22.95396 700.008286660834
22.97407 727.992063092583
22.99419 701.00688840335
23.0143 713
23.03442 696.981667517691
23.05453 704.062331822882
23.07464 742.979029159648
23.09476 694.058222945084
23.11487 707.965804906854
23.13498 717.990448189848
23.1551 717
23.17521 668.990398497797
23.19532 691.03347138673
23.21544 702.973433135841
23.23555 684.002893482628
23.25567 697.995405131717
23.27578 689.993107601007
23.29589 705.004907948584
23.31601 683.005794427106
23.33612 721.011328679406
23.35623 704.008425255219
23.37635 728.975558083213
23.39646 699.95717364192
23.41658 754.998270945849
23.43669 703.009558022523
23.4568 735
23.47692 718.004162307594
23.49703 753.033535556222
23.51714 738.937684354938
23.53726 721.980332494334
23.55737 757.92698233205
23.57749 787.005282367908
23.5976 762
23.61771 785.992503467689
23.63783 751.032256140299
23.65794 808.996131171093
23.67805 754.011603363451
23.69817 813.946986625017
23.71828 793.020071888702
23.73839 793.008887530426
23.75851 755.990402244814
23.77862 758.993158524978
23.79874 749.051347938761
23.81885 793.01488373831
23.83896 761.027314380042
23.85908 776.999005651611
23.87919 760.995132316805
23.8993 787
23.91942 738.965269263841
23.93953 738.004545787984
23.95965 735.026652014682
23.97976 751.013754828051
23.99987 739.952543635585
24.01999 793.995845573225
24.0401 761
24.06021 800.008998590212
24.08033 788.015976693118
24.10044 821.00465160712
24.12056 780.086877206937
24.14067 778.930539052814
24.16078 829.992832588486
24.1809 801
24.20101 827.010010103252
24.22112 816.976609564635
24.24124 811.051722284861
24.26135 851.939808627341
24.28146 841.065748347151
24.30158 810.017786345773
24.32169 813.988331962355
24.34181 842.009948237149
24.36192 835.962664004144
24.38203 797.997082858547
24.40215 833.091174701313
24.42226 846.001788426924
24.44237 842.00943291046
24.46249 843.989959243885
24.4826 870
24.50272 852.968802623145
24.52283 843.052191112861
24.54294 895.035257930127
24.56306 863.090662121746
24.58317 866.87970418434
24.60328 977.932719677743
24.6234 960
24.64351 895.98684023306
24.66362 905.012601310372
24.68374 902.993511733139
24.70385 906.984248263743
24.72397 921.947966531677
24.74408 960.983991688814
24.76419 953.0030234924
24.78431 967.013043240354
24.80442 984.997185242883
24.82453 964.968642382441
24.84465 958.014810130442
24.86476 951.088550928078
24.88488 904.986833344668
24.90499 957.993894039584
24.9251 914
24.94522 902.963704916041
24.96533 849.983522495859
24.98544 885.053804078638
25.00556 884.984528789736
25.02567 904.997478434368
25.04579 886.005643293084
25.0659 904
25.08601 917.97240464125
25.10613 852.037681531426
25.12624 927.970371157056
25.14635 819.159033501466
25.16647 856.913497414602
25.18658 872.008932386252
25.20669 859.007927993393
25.22681 856.012312458405
25.24692 877.974065565077
25.26704 812.901087864183
25.28715 811.060568207283
25.30726 828.999479838985
25.32738 802.052278196878
25.34749 772.979109159779
25.3676 832
25.38772 731.937948471292
25.40783 752.05313402282
25.42795 762.024548935696
25.44806 768.05371438283
25.46817 721.03707533136
25.48829 741.976075422164
25.5084 781
25.52851 762.982790985854
25.54863 735.986601807082
25.56874 750.063063867188
25.58886 760.090892899777
25.60897 701.989649223082
25.62908 773.940943732754
25.6492 771
25.66931 755.016195870988
25.68942 794.979106456178
25.70954 730.958644001596
25.72965 764.964904617152
25.74976 749.957484080553
25.76988 797.003995171825
25.78999 733.027878657525
25.81011 713.989609653723
25.83022 676.971630470922
25.85033 686.076284698105
25.87045 734.995353939245
25.89056 694.039035901939
25.91067 717.955972108021
25.93079 717.014594034645
25.9509 680
25.97102 674.004572988821
25.99113 672.980081544449
26.01124 680.133074804684
26.03136 747.064617974934
26.05147 644.067870986624
26.07158 679.987285621882
26.0917 631
26.11181 631.008940916653
26.13193 647.030628633441
26.15204 687.135478527937
26.17215 745.990880941217
26.19227 697.079270016475
26.21238 671.01614778665
26.23249 652.008464945375
26.25261 654.016568356784
26.27272 703.036665176486
26.29283 707.971854904594
26.31295 685.968909081171
26.33306 703.887408223461
26.35318 755.007017818198
26.37329 708.007994677336
26.3934 742
26.41352 749.010049035978
26.43363 780.061925581033
26.45374 827.115431466301
26.47386 876.966342433064
26.49397 905.834956499063
26.51409 1089.91093397797
26.5342 1242
26.55431 1457.09796262735
26.57443 1666.45258792401
26.59454 1972.26963562216
26.61465 1915.24473880223
26.63477 1848.17035899467
26.65488 1643.25925763048
26.67499 1382.1200966937
26.69511 1185.92791096706
26.71522 1065.87367646279
26.73534 922.728660470214
26.75545 816.814983188567
26.77556 754.143141964154
26.79568 695.002885652963
26.81579 741.976508305024
26.8359 742
26.85602 706.024689523333
26.87613 754.977525982512
26.89625 696.012558576231
26.91636 748.051510173015
26.93647 647.072428173511
26.95659 686.981907421499
26.9767 683
26.99681 719.007817197744
27.01693 698.961299739296
27.03704 695.03213919498
27.05716 703.052893052172
27.07727 671.968505250423
27.09738 722.99823645352
27.1175 672
27.13761 692.008307268461
27.15772 689.011933329756
27.17784 705.954892687347
27.19795 653.071975668243
27.21806 670.93299887474
27.23818 680.024642762282
27.25829 648.001708707221
27.27841 678.016121609319
27.29852 696.017653440961
27.31863 724.051752695979
27.33875 760.088526815952
27.35886 784.988752073862
27.37897 791.94414796407
27.39909 851.977418088528
27.4192 859
27.43932 859.047337499722
27.45943 925.03854924634
27.47954 900.949644333547
27.49966 899.005057304735
27.51977 872.07656518414
27.53988 819.031954058294
27.56 807
27.58011 776.983884182562
27.60023 756.992537059903
27.62034 756.985001476797
27.64045 745.001926471384
27.66057 763.952788357092
27.68068 787.996834547152
27.70079 784.990673849391
27.72091 825.016295396392
27.74102 837.006122114558
27.76113 829.93666829469
27.78125 766.884014735929
27.80136 733.121883376044
27.82148 666.010614827166
27.84159 707.985760918322
27.8617 689
27.88182 665.984596249344
27.90193 666.041447565617
27.92204 691.965121650538
27.94216 637.087874959608
27.96227 629.98710784002
27.98239 617.025099054722
28.0025 562
28.02261 592.009129590051
28.04273 583.000396698785
28.06284 608.057300527965
28.08295 612.070604795085
28.10307 586.967598336203
28.12318 640.971949115868
28.1433 621
28.16341 604.996512709964
28.18352 595.985379333118
28.20364 590.041466865676
28.22375 604.896583695626
28.24386 541.002638602451
28.26398 593.985815069135
28.28409 563.993298864257
28.3042 624
28.32432 575.935874469904
28.34443 550.021278229612
28.36455 575.011391298157
28.38466 552.052667035784
28.40477 549.960617383972
28.42489 582.993180071617
28.445 574
28.46511 572.996523747712
28.48523 566.019620951498
28.50534 592.022985182078
28.52546 587.986912911068
28.54557 597.034162189448
28.56568 547.037562342175
28.5858 542
28.60591 541.993810518789
28.62602 533.013921130992
28.64614 553.985098647706
28.66625 532.960425282765
28.68636 574.986474106794
28.70648 547.000629905304
28.72659 583.988753946564
28.74671 575.998645919594
28.76682 580.979441166715
28.78693 534.943606551393
28.80705 532.062285763296
28.82716 569.915942797496
28.84727 595.008102560474
28.86739 567.014559623833
28.8875 562
28.90762 586.995163935984
28.92773 550.944368660691
28.94784 538.014116225637
28.96796 545.018013087358
28.98807 534.970083403484
29.00818 578.969528234514
29.0283 571
29.04841 545.002573902171
29.06853 567.002623647437
29.08864 544.975255662487
29.10875 553.977760791109
29.12887 555.985525441193
29.14898 557.038548663191
29.16909 501.009715666383
29.18921 528.014789051891
29.20932 538.011463381164
29.22943 554.003303820353
29.24955 532.911548590168
29.26966 522.906639194507
29.28978 579.014007293935
29.30989 513.010077977646
29.33 562
29.35012 551.961504422052
29.37023 541.071500306493
29.39034 593.946813145632
29.41046 515.036860834843
29.43057 573.938328468752
29.45069 545.028076593114
29.4708 515
29.49091 540.005566663849
29.51103 528.984530787635
29.53114 532.012681808515
29.55125 534.00035052462
29.57137 528.026605725977
29.59148 527.946804322516
29.6116 599
29.63171 565.996964147594
29.65182 585.968990626613
29.67194 518.979296517598
29.69205 581.145860469115
29.71216 590.022664828364
29.73228 584.0044123324
29.75239 579.001932324392
29.7725 596
29.79262 638.960062348373
29.81273 546.936115700497
29.83285 586.131731239973
29.85296 600.020407472288
29.87307 580.045126758744
29.89319 565.985451644147
29.9133 620
29.93341 612.989631658751
29.95353 596.971982749331
29.97364 576.975929870467
29.99376 564.062780301186
30.01387 542.945578026621
30.03398 617.952997082263
30.0541 596
30.07421 548.003824354895
30.09432 582.996547384107
30.11444 548.012039779467
30.13455 591.98474826983
30.15467 555.014309765193
30.17478 586.983097318697
30.19489 562.018522982242
30.21501 555.017911320479
30.23512 602.013182485286
30.25523 572.94741042597
30.27535 557.989538787101
30.29546 555.997752690103
30.31557 566.960183386635
30.33569 591.999975338993
30.3558 558
30.37592 527.020198968994
30.39603 574.031060850765
30.41614 563.008335730756
30.43626 585.009322441091
30.45637 548.045538136949
30.47648 550.975534411515
30.4966 573
30.51671 573.006571606383
30.53683 574.919445555658
30.55694 502.984846984491
30.57705 565.858251521302
30.59717 567.04261297961
30.61728 550.987662241359
30.63739 574.000094574864
30.65751 549.992761907597
30.67762 552.995487720357
30.69773 548.039812729728
30.71785 595.059750934344
30.73796 583.035536222774
30.75808 590.964854413775
30.77819 616.012212576187
30.7983 561
30.81842 584.03632385622
30.83853 604.014724580677
30.85864 592.902244562982
30.87876 546.968361659476
30.89887 590.034353565007
30.91899 517.006568611226
30.9391 575
30.95921 542.984196096489
30.97933 547.018555042645
30.99944 548.999939873336
31.01955 552.986014358461
31.03967 556.002227293933
31.05978 548.01453380091
31.0799 528
31.10001 513.002891283858
31.12012 534.018751230395
31.14024 539.999498421563
31.16035 533.051491734432
31.18046 523.93013761135
31.20058 570.009116470588
31.22069 523.99910129644
31.2408 577
31.26092 546.976137016802
31.28103 555.010960230855
31.30115 534.896606718623
31.32126 501.005605757888
31.34137 533.925166787342
31.36149 553.020791344059
31.3816 492
31.40171 547.029344429651
31.42183 556.951791819124
31.44194 522.996232694354
31.46206 544.992424062225
31.48217 526.006611484136
31.50228 549.971403054847
31.5224 565
31.54251 558.986265186619
31.56262 531.001949286744
31.58274 556.021678519382
31.60285 546.001430656356
31.62297 549.044238713555
31.64308 504.006610878595
31.66319 523.010942540356
31.68331 483.015833217663
31.70342 565.020794997591
31.72353 504.925560684759
31.74365 522.124446596012
31.76376 555.995030611066
31.78387 528.063264940215
31.80399 513.979554775897
31.8241 576
31.84422 537.943797805083
31.86433 506.995861454975
31.88444 531.093171319263
31.90456 566.01547127221
31.92467 536.997179000217
31.94478 566.997069029601
31.9649 543
31.98501 572.998491523695
32.00513 526.939546077918
32.02524 525.042468538757
32.04535 554.903537228538
32.06547 579.022140895746
32.08558 551.988235614021
32.10569 583.010279116936
32.12581 520.989072420841
32.14592 566.057492262221
32.16604 580.941592646816
32.18615 535.923692465651
32.20626 532.98361019355
32.22638 544.975243528132
32.24649 574.990955046915
32.2666 565
32.28672 527.99119872915
32.30683 552.050970212128
32.32694 569.996376074852
32.34706 569.946383296527
32.36717 607.988124961299
32.38729 577.018636254635
32.4074 569
32.42751 588.986899008748
32.44763 555.057389040186
32.46774 641.057859158044
32.48785 596.07856015735
32.50797 613.975851023692
32.52808 601.017999794186
32.5482 579
32.56831 533.004672575148
32.58842 592.050146790454
32.60854 598.97375578923
32.62865 590.008921236868
32.64876 602.921258649583
32.66888 649.975065618373
32.68899 641.012772561729
32.7091 627
32.72922 649.014842628342
32.74933 645.982899903345
32.76945 636.987322221197
32.78956 639.972538181984
32.80967 655.989765373945
32.82979 647.010014748221
32.8499 634
32.87001 661.015576293032
32.89013 666.949192848549
32.91024 644.107077472484
32.93036 732.967778378491
32.95047 674.043698071175
32.97058 707.974574157788
32.9907 717
33.01081 783.988904397346
33.03092 674.907229798323
33.05104 663.064934762208
33.07115 686.010881556542
33.09127 677.955751668913
33.11138 737.958710805383
33.13149 730.019637866482
33.15161 709.01469043224
33.17172 759.008387060018
33.19183 715.93651308036
33.21195 706.007234725079
33.23206 707.986276089991
33.25217 714.009754830939
33.27229 705.993359253731
33.2924 721
33.31252 674.997379658256
33.33263 701.969672383871
33.35274 637.945291991331
33.37286 655.021115395269
33.39297 615.993974778061
33.41308 662.982012459916
33.4332 634
33.45331 637.997745232183
33.47343 613.97044872372
33.49354 615.029627203489
33.51365 617.076092825597
33.53377 588.955902912106
33.55388 642.012914090957
33.57399 574.011070945236
33.59411 605.99690915502
33.61422 546.966042193344
33.63434 581.135453136403
33.65445 625.997005212864
33.67456 595.042247051945
33.69468 601.985793687213
33.71479 596.016371552812
33.7349 569
33.75502 612.007071398501
33.77513 564.911648500559
33.79524 543.045494550058
33.81536 579.975072326682
33.83547 567.001937378117
33.85559 574.012669201303
33.8757 531
33.89581 563.005740494523
33.91593 539.978414482523
33.93604 559.068805341191
33.95615 575.046960163394
33.97627 543.010665553247
33.99638 555.012655331821
34.0165 518
34.03661 534.008444466683
34.05672 547.035716450674
34.07684 593.032819432098
34.09695 575.044369563966
34.11706 569.034067779293
34.13718 543.009496097652
34.15729 560.984479882913
34.17741 575.991890252561
34.19752 564.042806188178
34.21763 628.00059097588
34.23775 564.895222712695
34.25786 584.92211704543
34.27797 596.03184424621
34.29809 571.996298519408
34.3182 615
34.33831 640.001251971049
34.35843 621.94382624592
34.37854 600.055869828146
34.39866 651.970185700995
34.41877 619.046855428007
34.43888 638.928927531047
34.459 695
34.47911 618.987560136538
34.49922 669.048597544863
34.51934 662.923163175378
34.53945 627.049857378626
34.55957 639.92523752935
34.57968 689.99159836108
34.59979 676.986391670664
34.61991 727.997989241531
34.64002 667.961786812836
34.66013 695.088035627295
34.68025 737.023480265037
34.70036 734.954372229199
34.72047 783.940829562959
34.74059 787.012611679561
34.7607 768
34.78082 786.969964645357
34.80093 742.042853856638
34.82104 831.095357980091
34.84116 817.985218653394
34.86127 865.95954770746
34.88138 850.019488724142
34.9015 849
34.92161 828.977934804444
34.94173 806.072098544462
34.96184 888.056826238477
34.98195 852.060811260223
35.00207 872.964014074811
35.02218 869.020869672239
35.04229 839.020957734362
35.06241 818.018187623763
35.08252 882.024861872951
35.10264 856.960688391294
35.12275 874.07557287116
35.14286 884.041322417833
35.16298 829.081943600039
35.18309 793.960074618035
35.2032 918
35.22332 832.925128613713
35.24343 824.991652402038
35.26354 814.080780170843
35.28366 877.002356416339
35.30377 805.094420326278
35.32389 819.95871962494
35.344 903
35.36411 870.984848206566
35.38423 875.019095927047
35.40434 864.92266320274
35.42445 825.017529639586
35.44457 850.962245437695
35.46468 887.905670678654
35.4848 968
35.50491 837.985413903793
35.52502 929.054222747804
35.54514 894.964081911452
35.56525 926.971103114342
35.58536 903.008664558326
35.60548 930.982605824437
35.62559 922.004239359198
35.64571 934.012738877487
35.66582 952.999071841959
35.68593 934.971671413408
35.70605 933.042194650553
35.72616 959.948498155792
35.74627 959.063746539083
35.76639 908.005333779494
35.7865 939
35.80661 921.975452300648
35.82673 879.992412920384
35.84684 894.977941187023
35.86696 858.032392820539
35.88707 872.98438567869
35.90718 856.031303345874
35.9273 851
35.94741 906.993339705214
35.96752 836.962124876794
35.98764 864.073556207096
36.00775 874.990029247109
36.02787 871.048113270025
36.04798 819.042629863153
36.06809 801.003218998425
36.08821 792.995367570963
36.10832 784.995741000125
36.12843 795.048510141582
36.14855 807.858618423632
36.16866 723.0413020391
36.18878 767.979632730137
36.20889 746.994541011715
36.229 788
36.24912 730.959083230053
36.26923 750.082527615214
36.28934 774.904228553761
36.30946 704.994842679281
36.32957 766.978648149792
36.34968 727.990418350184
36.3698 786
36.38991 727.987588379753
36.41003 774.089809398876
36.43014 796.982119163
36.45025 777.037632930311
36.47037 784.949851926526
36.49048 811.017322182289
36.51059 765.011804419594
36.53071 777.005089678248
36.55082 768.994741331077
36.57094 782.051739972343
36.59105 803.008200448686
36.61116 773.130942737705
36.63128 727.964930660279
36.65139 791.010727238096
36.6715 690
36.69162 720.059309973135
36.71173 754.024135580395
36.73184 748.925433958131
36.75196 716.954563730282
36.77207 750.075392228203
36.79219 652.007479544208
36.8123 727
36.83241 683.972638544784
36.85253 685.078638971426
36.87264 727.952856673784
36.89275 659.088255569903
36.91287 688.927056618876
36.93298 703.027933751491
36.9531 675
36.97321 730.011162493681
36.99332 703.975571718984
37.01344 700.977801283788
37.03355 689.932628224776
37.05366 728.032297528658
37.07378 675.006499049968
37.09389 713.999930914158
37.11401 652.970210822059
37.13412 650.047360464956
37.15423 717.092014335784
37.17435 747.998978525255
37.19446 728.053581242087
37.21457 699.057707409186
37.23469 670.994706706087
37.2548 713
37.27491 714.984734586004
37.29503 689.019081937595
37.31514 726.025510222462
37.33526 706.025797593387
37.35537 713.995381336136
37.37548 709.987427042337
37.3956 733
37.41571 699.972303480649
37.43582 668.024381371755
37.45594 742.167060972196
37.47605 767.157650205313
37.49617 662.105162331257
37.51628 653.994153114044
37.53639 660.978163900443
37.55651 728.020106224255
37.57662 727.995321892479
37.59673 731.985708198618
37.61685 710.979883459591
37.63696 716.011843009822
37.65708 699.004003533744
37.67719 707.002494252595
37.6973 698
37.71742 729.989524557377
37.73753 679.950332486225
37.75764 696.083544210616
37.77776 722.017534312011
37.79787 705.965800863463
37.81798 754.984231824357
37.8381 720
37.85821 705.005223333291
37.87833 714.980658563106
37.89844 692.004371537497
37.91855 710.026869978445
37.93867 675.014753747943
37.95878 692.003833019919
37.97889 681.976917196518
37.99901 751.999012290606
38.01912 689.985379278023
38.03924 728.984077374907
38.05935 684.069987650708
38.07946 788.851173361529
38.09958 762.093478119703
38.11969 681.011271341647
38.1398 711
38.15992 701.960209865863
38.18003 669.003840728914
38.20015 705.096985329731
38.22026 719.017381715851
38.24037 701.024306824063
38.26049 703.985659215981
38.2806 730
38.30071 703.008259024881
38.32083 756.035458105957
38.34094 724.908271987756
38.36105 720.862144737366
38.38117 774.04270157483
38.40128 699.006357997917
38.4214 776
38.44151 752.964918611475
38.46162 712.030312206306
38.48174 771.005618660754
38.50185 704.162308406458
38.52196 697.921470283297
38.54208 741.979086044792
38.56219 718.03153289114
38.58231 671.00979185057
38.60242 734.032637725658
38.62253 704.92655634407
38.64265 668.922998157678
38.66276 657.936168526735
38.68287 703.988436301445
38.70299 676.004325342694
38.7231 693
38.74321 660.993844816383
38.76333 662.948465784139
38.78344 617.036365428875
38.80356 700.851468440269
38.82367 711.0529918396
38.84378 671.022222760284
38.8639 676
38.88401 681.988252127775
38.90412 644.981782745259
38.92424 650.001917232772
38.94435 640.99387027195
38.96447 652.007240693346
38.98458 643.974100752873
39.00469 687.995742801511
39.02481 646.974559119296
39.04492 625.007083507332
39.06503 654.065375948907
39.08515 669.881847835725
39.10526 604.007152062346
39.12538 656.976816604048
39.14549 628.008687971352
39.1656 652
39.18572 652.966484771178
39.20583 608.961386524747
39.22594 625.106410027379
39.24606 669.016541192423
39.26617 628.017412637253
39.28628 645.017196979522
39.3064 606
39.32651 667.011504180674
39.34663 636.978119766035
39.36674 663.047492027873
39.38685 663.999690606812
39.40697 671.000803855275
39.42708 666.988980236043
39.44719 685.99942301538
39.46731 667.993708618215
39.48742 665.989528846523
39.50754 652.013400159149
39.52765 667.974539455397
39.54776 628.074593880383
39.56788 597.05218185667
39.58799 543.003812973444
39.6081 589
39.62822 601.948947880922
39.64833 526.940418653897
39.66845 543.085608401552
39.68856 559.003776956118
39.70867 543.040365828911
39.72879 530.987000038482
39.7489 591
39.76901 615.981659982852
39.78913 558.977656118479
39.80924 586.014253013555
39.82935 570.944732489982
39.84947 606.054057359397
39.86958 529.002830348423
39.8897 601
39.90981 555.977807426007
39.92992 572.059237562156
39.95004 618.990917612889
39.97015 564.161141546776
39.99026 545.910429836225
40.01038 605.989902082713
40.03049 562.018576145904
40.05061 566.009541480741
40.07072 582.020479112637
40.09083 601.005216984548
40.11095 597.025780569812
40.13106 617.988152907043
40.15117 604.019865803442
40.17129 599.004851047541
40.1914 594
40.21152 634.025321822554
40.23163 632.989141922882
40.25174 628.977417057977
40.27186 612.020201906278
40.29197 623.944668944215
40.31208 657.003257095659
40.3322 617
40.35231 606.014604336388
40.37242 639.996360722203
40.39254 600.940471919852
40.41265 605.946965286104
40.43277 609.046640232453
40.45288 563.024949729948
40.47299 559.009242961224
40.49311 539.013671320046
40.51322 598.025651872064
40.53333 569.943447194147
40.55345 575.141885874486
40.57356 636.979338341224
40.59368 597.032917561251
40.61379 604.98711093384
40.6339 616
40.65402 594.998546380577
40.67413 612.01130127621
40.69424 598.966213824684
40.71436 591.005103018307
40.73447 608.914497824318
40.75458 666.00180638689
40.7747 625
40.79481 670.010179832085
40.81493 637.938296151653
40.83504 632.061961301355
40.85515 662.028058436608
40.87527 624.01508513697
40.89538 643.005478216977
40.91549 612.00185203666
40.93561 639.004119695512
40.95572 609.964625948052
40.97584 604.057842155739
40.99595 633.978706761613
41.01606 603.989785846484
41.03618 637.002876422103
41.05629 598.005671625771
41.0764 635
41.09652 633.949917534224
41.11663 570.950465148154
41.13675 591.135573656848
41.15686 632.998240450749
41.17697 606.02014698288
41.19709 609.009477736098
41.2172 577
41.23731 612.008504510476
41.25743 603.010203360169
41.27754 631.025409764779
41.29765 612.076406419362
41.31777 585.041431987062
41.33788 559.017165729178
41.358 561
41.37811 577.987738961632
41.39822 545.025714339863
41.41834 600.980927931713
41.43845 527.102198770974
41.45856 558.904203699932
41.47868 570.022324099723
41.49879 540.00756898046
41.51891 547.007085734488
41.53902 567.039047780844
41.55913 597.972802220295
41.57925 553.986061772505
41.59936 594.93725653441
41.61947 601.965310101815
41.63959 649.979944504851
41.6597 652
41.67982 605.96588855065
41.69993 592.992166955381
41.72004 586.99660341589
41.74016 592.976126125408
41.76027 593.042233731566
41.78038 559.997638965091
41.8005 591
41.82061 559.973764261723
41.84072 523.997426656624
41.86084 540.006348248178
41.88095 531.965850652721
41.90107 553.02867292698
41.92118 526.951891724311
41.94129 594.025644492703
41.96141 454.971299152541
41.98152 531.093360049644
42.00163 555.977760553166
42.02175 550.056549323189
42.04186 576.031882387575
42.06198 532.012683102737
42.08209 550.005540210825
42.1022 505
42.12232 531.048426023039
42.14243 558.986348742503
42.16254 528.963545835704
42.18266 532.991136351023
42.20277 527.008094188562
42.22289 537.983980657136
42.243 568
42.26311 544.995312819994
42.28323 573.079469480531
42.30334 601.935022782262
42.32345 546.008458825235
42.34357 594.962086013289
42.36368 566.037780219211
42.38379 558.99081196563
42.40391 587.013440595751
42.42402 596.987471545515
42.44414 576.986663913834
42.46425 567.881723911599
42.48436 504.04310712657
42.50448 545.931672102108
42.52459 581.011012813977
42.5447 534
42.56482 548.989969139832
42.58493 508.971739114683
42.60505 530.072412469221
42.62516 541.003312283006
42.64527 547.953303220861
42.66539 580.003317879313
42.6855 529
42.70561 508.01831189738
42.72573 563.024320662027
42.74584 536.969369634037
42.76595 550.977096193691
42.78607 538.027378867307
42.80618 525.013728140035
42.8263 512
42.84641 502.982892939886
42.86652 474.027875896584
42.88664 540.066723265469
42.90675 516.089683779037
42.92686 503.000664099594
42.94698 509.980826823293
42.96709 530.996418525374
42.98721 533.010447056455
43.00732 553.977931918701
43.02743 500.957481384139
43.04755 518.070800893346
43.06766 529.002989937547
43.08777 534.957768969518
43.10789 566.998931569347
43.128 528
43.14812 493.007166354486
43.16823 523.021147697949
43.18834 516.009847261639
43.20846 537.978424418783
43.22857 512.090131856114
43.24868 472.964325165222
43.2688 542
43.28891 494.000520581807
43.30902 546.001447498768
43.32914 486.943977789126
43.34925 528.851187668555
43.36937 554.015370805428
43.38948 532.009319697387
43.40959 537.001648959393
43.42971 508.976936724633
43.44982 477.008757586363
43.46993 507.007921838814
43.49005 489.014403423735
43.51016 521.967350863548
43.53028 505.023453883814
43.55039 492.006009054159
43.5705 500
43.59062 570.01835050232
43.61073 528.934280336581
43.63084 515.99176679563
43.65096 513.96898505306
43.67107 534.0062969003
43.69119 514.99775612726
43.7113 542
43.73141 522.989519698521
43.75153 525.034635567637
43.77164 549.01253269537
43.79175 534.052919958525
43.81187 514.038916021086
43.83198 498.979534529999
43.85209 535.9952146012
43.87221 512.991572952546
43.89232 526.028119035069
43.91244 539.969824890831
43.93255 514.997980450152
43.95266 540.957619254777
43.97278 529.04226966259
43.99289 481.015527216321
44.013 487
44.03312 531.015973481503
44.05323 507.936244348381
44.07335 488.064484392769
44.09346 536.948705935947
44.11357 523.036423670093
44.13369 526.979183556797
44.1538 559
44.17391 482.983347645482
44.19403 507.019552307623
44.21414 484.973664309199
44.23426 510.897585348216
44.25437 549.001255636266
44.27448 520.020678876263
44.2946 523
44.31471 513.989640421088
44.33482 500.008380365718
44.35494 516.99239956342
44.37505 495.020009291263
44.39516 504.999861886256
44.41528 496.986166967358
44.43539 523.999391587598
44.45551 500.996672353315
44.47562 521.016560453601
44.49573 505.932789300104
44.51585 469.018606149915
44.53596 502.987805750142
44.55607 484.976400588371
44.57619 532.989908292002
44.5963 520
44.61642 553.007293901737
44.63653 527.979655971488
44.65664 536.998727890076
44.67676 518.027124846116
44.69687 523.975713544999
44.71698 537.991554233731
44.7371 532
44.75721 502.995673771254
44.77732 520.024925491543
44.79744 529.978959136671
44.81755 513.00913925728
44.83767 523.989045553061
44.85778 521.001639311787
44.87789 516.012313699269
44.89801 492.00683869842
44.91812 535.026739117536
44.93823 529.988949351314
44.95835 532.992006598164
44.97846 524.989568730588
44.99858 543.98483863997
45.01869 531.023953648958
45.0388 485
45.05892 523.022167988903
45.07903 526.049663383823
45.09914 570.977679173827
45.11926 514.047827265191
45.13937 544.955663876803
45.15949 542.00531023885
45.1796 550
45.19971 563.982318691237
45.21983 510.995706318547
45.23994 546.992976409382
45.26005 506.987314179446
45.28017 564.944767410719
45.30028 542.047642904035
45.32039 515.996220230688
45.34051 541.007150380622
45.36062 541.009799075352
45.38074 555.982581501414
45.40085 520.91254715863
45.42096 500.03635599267
45.44108 496.963610870482
45.46119 552.98468519366
45.4813 538
45.50142 513.998797763969
45.52153 545.093487666372
45.54165 593.976674827579
45.56176 528.150618075408
45.58187 504.931926320292
45.60199 568.99217593495
45.6221 548
45.64221 604.003440656476
45.66233 554.959152257969
45.68244 567.989907213483
45.70256 546.952879208723
45.72267 602.97705074026
45.74278 564.033609166542
45.7629 564
45.78301 555.999575154814
45.80312 576.036649980415
45.82324 602.989004639867
45.84335 578.021495499199
45.86346 585.027446098296
45.88358 542.043674211038
45.90369 523.996837935876
45.92381 551.022589506473
45.94392 581.986040071946
45.96403 529.921607002693
45.98415 513.043158930016
46.00426 535.003743399671
46.02437 511.023839377652
46.04449 520.988235918561
46.0646 547
46.08472 550.949205423618
46.10483 498.041449998591
46.12494 580.054781291445
46.14506 532.070862979216
46.16517 544.984954046442
46.18528 518.04635447293
46.2054 493
46.22551 541.016987479221
46.24563 549.01642452874
46.26574 557.945994016938
46.28585 512.032682673475
46.30597 541.95242173565
46.32608 539.033154321026
46.34619 501.010673786969
46.36631 507.01148819428
46.38642 529.013002175894
46.40653 529.990406853064
46.42665 523.994094983456
46.44676 521.021836243698
46.46688 504.013572973393
46.48699 495.006208104254
46.5071 503
46.52722 568.992113771755
46.54733 505.969759645672
46.56744 554.088567300139
46.58756 541.10455319977
46.60767 500.990097831074
46.62779 537.991743418426
46.6479 517
46.66801 502.989260208134
46.68813 503.103682025903
46.70824 589.004056321017
46.72835 517.087781198158
46.74847 552.953417074554
46.76858 536.032292847484
46.78869 529.985255565759
46.80881 559.992914687916
46.82892 504.952423385713
46.84904 496.027238412162
46.86915 511.027734334924
46.88926 511.026438554257
46.90938 496.002994778057
46.92949 510.987437097191
46.9496 525
46.96972 511.018827803315
46.98983 549.011183295532
47.00995 530.01964455753
47.03006 560.012065135365
47.05017 518.029453389714
47.07029 531.999634750656
47.0904 517
47.11051 558.010983063586
47.13063 545.97733019359
47.15074 543.993593403241
47.17086 527.057049502322
47.19097 516.944736326235
47.21108 561.01765272272
47.2312 492
47.25131 520.028601896256
47.27142 549.984691185587
47.29154 511.960022810256
47.31165 519.985542475642
47.33176 506.041816378587
47.35188 503.969921539085
47.37199 550.9826243343
47.39211 549.984126375231
47.41222 516.990762083496
47.43233 524.991276560832
47.45245 505.998924981447
47.47256 523.990891136556
47.49267 505.031216141289
47.51279 504.989033538364
47.5329 522
47.55302 495.013294597665
47.57313 533.998645821798
47.59324 494.979943274736
47.61336 542.865327965481
47.63347 581.004481726687
47.65358 547.043108800422
47.6737 519
47.69381 517.997505077746
47.71393 510.004078641327
47.73404 520.000333831855
47.75415 501.075016843513
47.77427 488.95878551148
47.79438 534.978694366697
47.81449 521.008507123308
47.83461 515.995016576653
47.85472 502.000138917356
47.87483 517.01872529899
47.89495 529.076330010205
47.91506 566.971311505249
47.93518 554.013616324725
47.95529 543.015747531307
47.9754 506
47.99552 525.995200591582
48.01563 502.016087256628
48.03574 545.037822657653
48.05586 533.981858962161
48.07597 563.997846666724
48.09609 513.038587090812
48.1162 462
48.13631 505.020834477389
48.15643 502.928986467174
48.17654 473.104335949653
48.19665 557.993890259832
48.21677 491.01272588409
48.23688 555.974947242829
48.257 507
48.27711 513.010638179181
48.29722 519.997294099576
48.31734 519.014916857438
48.33745 533.02941681918
48.35756 529.049176871824
48.37768 493.032725028487
48.39779 477.998389012062
48.4179 501
48.43802 527.971274718484
48.45813 466.954261892796
48.47825 499.161475744888
48.49836 548.967156580548
48.51847 536.030645164899
48.53859 516.016589495647
48.5587 491
48.57881 543.019179296536
48.59893 537.951818509314
48.61904 507.971219955925
48.63916 512.969904872367
48.65927 523.997056881615
48.67938 527.97807215546
48.6995 539
48.71961 471.995494257091
48.73972 532.06036723775
48.75984 537.928601132065
48.77995 512.935730970501
48.80006 559.008678834276
48.82018 500.046499453309
48.84029 499.992923259665
48.86041 516.018812610419
48.88052 563.023441679769
48.90063 543.927948466765
48.92075 498.944010109737
48.94086 502.969280241214
48.96097 513.991306542227
48.98109 525.98492914364
49.0012 548
49.02132 496.983054308839
49.04143 526.040995979374
49.06154 534.035901034644
49.08166 559.99574207228
49.10177 528.066797777798
49.12188 496.015008417491
49.142 499
49.16211 529.020946422094
49.18223 554.972410622378
49.20234 517.997189601269
49.22245 552.955358061034
49.24257 546.975327069888
49.26268 583.991274111557
49.28279 567.994251446805
49.30291 600.99795135659
49.32302 562.989826355982
49.34313 578.968917734659
49.36325 525.955904865096
49.38336 572.853901650895
49.40348 612.018170778044
49.42359 572.001529028289
49.4437 595
49.46382 531.96551786162
49.48393 539.991736247265
49.50404 518.029179324508
49.52416 569.927539357904
49.54427 568.016018173812
49.56439 567.999735078692
49.5845 557
49.60461 547.016988954136
49.62473 608.060993147065
49.64484 580.808733393569
49.66495 484.068732191117
49.68507 531.909964733466
49.70518 550.015602116107
49.7253 523
49.74541 522.014643215431
49.76552 560.017633282641
49.78564 557.009106316459
49.80575 564.947907290679
49.82586 527.021134261576
49.84598 545.9933576949
49.86609 518.021398247397
49.8862 493
49.90632 534.065052283439
49.92643 583.003014071651
49.94655 552.958313873062
49.96666 560.007617699836
49.98677 540.010176338784
50.00689 562.980131961827
50.027 603
50.04711 621.996525413589
50.06723 601.983439764648
50.08734 616.066784414211
50.10746 649.95921485532
50.12757 638.074432204501
50.14768 577.039558997144
50.1678 577
50.18791 587.984914055435
50.20802 541.99054327562
50.22814 577.070788324344
50.24825 579.054269812581
50.26837 548.05276431898
50.28848 523.004749284018
50.30859 528.00281641013
50.32871 499.979326596001
50.34882 486.045744100467
50.36893 552.020659091869
50.38905 509.925898742379
50.40916 519.981177779703
50.42927 512.998389311185
50.44939 521.005405975167
50.4695 498
50.48962 517.009101518928
50.50973 511.007280404353
50.52984 520.966974339627
50.54996 486.026301973205
50.57007 500.985460623088
50.59018 498.986748543698
50.6103 527
50.63041 506.975682312197
50.65053 475.036918727992
50.67064 532.050367744612
50.69075 514.022387440584
50.71087 532.979818594324
50.73098 530.994067282751
50.75109 546.99772227823
50.77121 525.980474356095
50.79132 504.023358961997
50.81143 553.039590697167
50.83155 532.893225583035
50.85166 510.961647948795
50.87178 546.991985805055
50.89189 533.991225247198
50.912 581
50.93212 552.946368877749
50.95223 523.027460368183
50.97234 555.979178532658
50.99246 506.054061012035
51.01257 516.996272365425
51.03269 497.004818390418
51.0528 517
51.07291 532.986405515788
51.09303 490.992628191175
51.11314 525.046681673336
51.13325 515.041885251086
51.15337 507.015156281136
51.17348 492.011468320914
51.1936 490
51.21371 498.004275158985
51.23382 501.996401979539
51.25394 489.963821159069
51.27405 481.9593612652
51.29416 502.022120383589
51.31428 467.016423283641
51.33439 479.99450599449
51.3545 481
51.37462 503.000562699702
51.39473 482.98396420138
51.41485 481.948935903631
51.43496 452.994109693421
51.45507 479.995683909959
51.47519 447.016048412909
51.4953 464
51.51541 532.9887900284
51.53553 454.977434401954
51.55564 511.035237300216
51.57576 461.074265475651
51.59587 476.955552690492
51.61598 493.98292976669
51.6361 500
51.65621 454.991806405614
51.67632 482.041216087607
51.69644 499.971495913458
51.71655 470.049522994445
51.73667 469.993788885458
51.75678 471.990819420169
51.77689 490.989111627469
51.79701 497.990648836386
51.81712 479.017212956988
51.83723 507.969711150107
51.85735 451.956642841681
51.87746 479.987728668406
51.89757 457.983952112566
51.91769 496.999256741135
51.9378 452
51.95792 463.035034359755
51.97803 477.957815665297
51.99814 426.939461859713
52.01826 438.934607972925
52.03837 464.980654712664
52.05848 474.976734546252
52.0786 504
52.09871 497.000456440678
52.11883 502.974474794543
52.13894 468.96677350692
52.15905 475.000096933081
52.17917 461.010453887854
52.19928 468.990063670841
52.21939 480.986543186985
52.23951 512.005350335711
52.25962 502.995882683494
52.27974 503.96379351004
52.29985 473.974438657449
52.31996 493.941910367867
52.34008 505.013521421406
52.36019 493.987423815886
52.3803 526
52.40042 464.986412506826
52.42053 508.038265366572
52.44064 484.94181477615
52.46076 486.943851744616
52.48087 517.977000144778
52.50099 507.014770007943
52.5211 486
52.54121 501.992539059511
52.56133 452.930582240387
52.58144 451.096207719434
52.60155 508.948500929713
52.62167 489.02620712074
52.64178 494.992548285606
52.6619 489
52.68201 482.001528226811
52.70212 490.003095554815
52.72224 495.04677139536
52.74235 528.951344025974
52.76246 526.017919463556
52.78258 513.031338591792
52.80269 478.004443479305
52.8228 504
52.84292 520.977388991158
52.86303 480.972566956869
52.88315 498.06844121873
52.90326 519.950258380801
52.92337 530.047446461031
52.94349 480.008703129836
52.9636 506
52.98371 510.99584755044
53.00383 510.023464477703
53.02394 534.028978946826
53.04406 523.069260691779
53.06417 501.95716471289
53.08428 552.990406440094
53.1044 518
53.12451 534.004647645308
53.14462 521.993576967855
53.16474 525.985109273625
53.18485 500.072945299609
53.20497 500.925462244363
53.22508 561.98484399459
53.24519 525.01919622574
53.26531 535.028922496683
53.28542 584.986068632904
53.30553 523.947110031051
53.32565 538.037548283902
53.34576 538.960491635097
53.36587 567.011453400674
53.38599 525.015330404649
53.4061 532
53.42622 562.037863269537
53.44633 574.926497361457
53.46644 520.06510294764
53.48656 619.895296028174
53.50667 576.113232637826
53.52678 538.992115485468
53.5469 558
53.56701 534.008657279098
53.58713 588.045590206875
53.60724 582.008120798432
53.62735 598.041963292757
53.64747 552.039471647491
53.66758 564.976659534414
53.68769 578.993241455241
53.70781 598.010549670428
53.72792 600.967698876996
53.74804 558.983259628362
53.76815 594.113461100549
53.78826 628.92942396671
53.80838 646.031841716274
53.82849 586.018012641129
53.8486 612
53.86872 667.983120247338
53.88883 607.971322055249
53.90894 639.014413605656
53.92906 619.947882363354
53.94917 677.992613992902
53.96929 626.013653738584
53.9894 645
54.00951 630.008031010108
54.02963 671.011398620801
54.04974 654.049793537566
54.06985 710.97035000808
54.08997 666.054979118234
54.11008 664.005639595693
54.1302 654
54.15031 706.018616007576
54.17042 701.970783951566
54.19054 664.914340626559
54.21065 641.946055850883
54.23076 693.913658981836
54.25088 695.035813831764
54.27099 663.994643252937
54.29111 695.997887241675
54.31122 672.029971442863
54.33133 733.996992805449
54.35145 661.869111156076
54.37156 663.99430829854
54.39167 650.98733356178
54.41179 676.999014649271
54.4319 659
54.45201 673.97933183645
54.47213 609.012764950091
54.49224 676.027783965512
54.51236 613.103269943875
54.53247 620.956784319908
54.55258 634.000997284979
54.5727 628
54.59281 632.005223727505
54.61292 642.003851190932
54.63304 631.948135834941
54.65315 607.010986598724
54.67327 622.974785503041
54.69338 628.000147086667
54.71349 632.993177650953
54.73361 638.989177302566
54.75372 613.013216602533
54.77383 645.984731310377
54.79395 608.030860744387
54.81406 676.894065029914
54.83417 657.117486282783
54.85429 582.011432661898
54.8744 612
54.89452 628.018855856611
54.91463 646.990632550396
54.93474 631.029892566534
54.95486 661.023722025631
54.97497 615.023122595905
54.99508 631.01630587368
55.0152 579
55.03531 603.019572890412
55.05543 610.948105475594
55.07554 572.013119995285
55.09565 610.979468717585
55.11577 577.036752918355
55.13588 587.978976887777
55.15599 605.986531877958
55.17611 634.004249329537
55.19622 613.962854386975
55.21634 592.029563806725
55.23645 618.983001921137
55.25656 590.981245708991
55.27668 626.009765857516
55.29679 579.00296339301
55.3169 616
55.33702 576.985988095089
55.35713 596.994111639869
55.37724 565.993292883702
55.39736 603.924247492052
55.41747 603.056894648358
55.43759 561.007127012222
55.4577 570
55.47781 541.986012807156
55.49793 548.074970486984
55.51804 601.008616766617
55.53815 559.085310107396
55.55827 562.971667803747
55.57838 574.993765741724
55.5985 574
55.61861 559.996419859675
55.63872 561.000818879604
55.65884 563.025710140718
55.67895 571.055790568051
55.69906 528.055938247532
55.71918 527.994409532448
55.73929 549.964397656846
55.75941 627.002445954876
55.77952 560.941811694287
55.79963 551.001834480854
55.81975 553.073700868796
55.83986 590.005746041217
55.85997 553.027375658711
55.88009 567.995014090596
55.9002 548
55.92031 525.004022968576
55.94043 552.024563572914
55.96054 545.977898131723
55.98066 543.992102789374
56.00077 554.966783021812
56.02088 587.961282754398
56.041 603
56.06111 546.986981993226
56.08122 565.024599987532
56.10134 567.980467717356
56.12145 555.038079741931
56.14157 546.987756566939
56.16168 566.981726896383
56.18179 567.010759319943
56.20191 541.996629264151
56.22202 553.0067586727
56.24213 552.01427473073
56.26225 561.955118241647
56.28236 528.018416906589
56.30248 548.983809333822
56.32259 535.017312355902
56.3427 515
56.36282 549.995805546469
56.38293 525.038350322984
56.40304 587.025482115545
56.42316 535.092555324512
56.44327 539.951481013438
56.46338 564.993695136612
56.4835 552
56.50361 534.995352415141
56.52373 535.012146039493
56.54384 543.001608909054
56.56395 538.998455484453
56.58407 539.0228143807
56.60418 521.990436682353
56.62429 557.983242553951
56.64441 565.993859950892
56.66452 543.97380109354
56.68464 521.971501562706
56.70475 525.066604337533
56.72486 560.952393406767
56.74498 563.008782645033
56.76509 552.007735341889
56.7852 531
56.80532 517.010407895335
56.82543 535.997319443621
56.84554 524.035026542431
56.86566 554.029293886363
56.88577 499.050521608987
56.90589 514.983664196869
56.926 540
56.94611 557.997253624065
56.96623 533.968088103533
56.98634 528.002315360413
57.00645 527.010485976424
57.02657 518.021282782694
57.04668 510.986800888745
57.0668 538
57.08691 534.987259249622
57.10702 512.003351597479
57.12714 545.084183198836
57.14725 564.041599982233
57.16736 529.046880889051
57.18748 522.015146302965
57.20759 505.992306773283
57.22771 548.015547576548
57.24782 545.979505568016
57.26793 532.004684741963
57.28805 551.05767141307
57.30816 560.023780288174
57.32827 526.07528281803
57.34839 489.998111887636
57.3685 528
57.38861 540.992326182234
57.40873 531.044185873491
57.42884 587.070241376393
57.44896 572.094783819878
57.46907 528.032400971824
57.48918 533.979853016335
57.5093 541
57.52941 507.991622532506
57.54952 516.012712353328
57.56964 517.99142888617
57.58975 517.974152860866
57.60987 545.930403146111
57.62998 569.043740384187
57.65009 489.020616796756
57.67021 511.017703927536
57.69032 525.006944696238
57.71043 528.98578157858
57.73055 525.077488612905
57.75066 560.043936154982
57.77078 493.038755269194
57.79089 508.987699156603
57.811 517
57.83112 543.029043929614
57.85123 550.959875609557
57.87134 505.934590869762
57.89146 500.983112883684
57.91157 513.96557776784
57.93168 538.986868963322
57.9518 527
57.97191 499.006940921645
57.99203 532.998479996094
58.01214 491.937794495043
58.03225 498.940296350927
58.05237 512.006976027941
58.07248 497.011111159253
58.09259 503.987414672577
58.11271 515.983526287532
58.13282 466.996114847999
58.15294 516.097529433451
58.17305 515.88669665776
58.19316 482.932097799196
58.21328 546.997768412728
58.23339 483.021281793515
58.2535 505
58.27362 513.964646885932
58.29373 466.97793100524
58.31385 491.064640268121
58.33396 501.969008103579
58.35407 515.024651957629
58.37419 486.997142436457
58.3943 520
58.41441 504.005661307007
58.43453 545.03144454695
58.45464 515.88050056664
58.47475 466.043296466129
58.49487 483.949070926094
58.51498 502.011104452919
58.5351 474
58.55521 478.008180192992
58.57532 491.004508273247
58.59544 483.966898495461
58.61555 477.942937769897
58.63566 515.958576152301
58.65578 505.0248043906
58.67589 492.995041889599
58.69601 515.007456055382
58.71612 505.969154691871
58.73623 486.032877351796
58.75635 526.007650968543
58.77646 494.020607958458
58.79657 513.996328490843
58.81669 493.001133840633
58.8368 526
58.85691 540.987906767637
58.87703 498.960549563241
58.89714 496.99652205189
58.91726 491.975278142269
58.93737 513.995460867064
58.95748 500.000421377707
58.9776 514
58.99771 499.001598586478
59.01782 514.991679423477
59.03794 493.024235970595
59.05805 531.973984932515
59.07817 504.031479728938
59.09828 508.995194200757
59.11839 496.011044996751
59.13851 484.004485178531
59.15862 508.022074300809
59.17873 514.992799018781
59.19885 495.902938728101
59.21896 466.96611347079
59.23908 513.975020914035
59.25919 494.018069141732
59.2793 472
59.29942 494.059181336085
59.31953 545.984901440526
59.33964 493.961296037653
59.35976 516.998238451148
59.37987 470.083595055699
59.39998 458.951175150289
59.4201 522
59.44021 488.989720221593
59.46033 506.028890897886
59.48044 508.000202545998
59.50055 509.026684391129
59.52067 492.007619658735
59.54078 509.966149362509
59.56089 535.001011282743
59.58101 513.993138375153
59.60112 507.976364063964
59.62124 475.989602858563
59.64135 502.067230801879
59.66146 511.990183954202
59.68158 511.019867786409
59.70169 490.994021154887
59.7218 525
59.74192 504.974893107908
59.76203 502.027240184133
59.78215 519.993209951687
59.80226 514.93747384858
59.82237 563.986646440133
59.84249 535.003389811734
59.8626 566
59.88271 552.981895567832
59.90283 539.060268225444
59.92294 589.972341391791
59.94305 516.13240166459
59.96317 528.934138951891
59.98328 563.979592732725
60.0034 555
60.02351 514.010889172515
60.04362 576.023532717561
60.06374 530.868974947855
60.08385 505.925682281792
60.10396 558.939189642393
60.12408 550.019652942177
60.14419 530.01913935562
60.16431 494.002849281001
60.18442 531.018580691245
60.20453 508.94681942362
60.22465 499.069620813568
60.24476 540.961310056253
60.26487 528.028521710551
60.28499 522.998511545955
60.3051 523
60.32522 506.980671013825
60.34533 496.006914877327
60.36544 510.01989324307
60.38556 507.023051217959
60.40567 492.026325385599
60.42578 479.998871413162
60.4459 496
60.46601 503.985437823585
60.48612 467.005010024764
60.50624 503.012510434832
60.52635 476.007854668228
60.54647 512.945929283023
60.56658 517.018598132146
60.58669 499.001672800604
60.60681 509.004023978429
60.62692 522.039810873124
60.64703 561.986436459786
60.66715 503.855537010294
60.68726 478.020164186578
60.70738 479.973059092749
60.72749 516.990694899492
60.7476 525
60.76772 560.980639593802
60.78783 494.931852387407
60.80794 499.032736759562
60.82806 515.915301930384
60.84817 556.023855005785
60.86828 489.058848437281
60.8884 488
60.90851 537.004591654404
60.92863 515.997873540666
60.94874 530.957544469011
60.96885 487.000051613972
60.98897 533.95452715806
61.00908 518.028521016336
61.02919 502.005858004416
61.04931 500.010829926712
61.06942 520.981792893241
61.08954 495.072431139483
61.10965 572.065503487101
61.12976 520.132320374924
61.14988 494.991163157631
61.16999 505.007069988651
61.1901 482
61.21022 529.049818645806
61.23033 541.955966250936
61.25045 502.974607679752
61.27056 524.961509928611
61.29067 531.970542715572
61.31079 551.010149036011
61.3309 501
61.35101 518.022686481296
61.37113 562.047199442631
61.39124 559.907787911497
61.41135 508.019735572967
61.43147 538.977048865946
61.45158 530.984535764236
61.4717 561
61.49181 519.999163748527
61.51192 560.015489878017
61.53204 544.022440255747
61.55215 594.890874227034
61.57226 598.049834741049
61.59238 577.994518515677
61.61249 577.029895754144
61.63261 502.003541532304
61.65272 580.040680540693
61.67283 550.964145092741
61.69295 578.123193325177
61.71306 602.04221292385
61.73317 565.00593650637
61.75329 596.989159581034
61.7734 582
61.79352 560.999030888941
61.81363 584.063017253828
61.83374 624.042053331032
61.85386 624.013627073037
61.87397 621.004221953517
61.89408 617.002820940359
61.9142 619
61.93431 638.016517211155
61.95442 675.026918212995
61.97454 675.945158886588
61.99465 647.001617822236
62.01477 676.950332085005
62.03488 692.99448391026
62.05499 704.985778617483
62.07511 733.000019598787
62.09522 701.962339752242
62.11533 698.069397228906
62.13545 757.04239246594
62.15556 736.995828754993
62.17568 764.004498674985
62.19579 724.011371813881
62.2159 749
62.23602 789.014114560129
62.25613 773.951028328375
62.27624 756.036008344237
62.29636 785.013280220957
62.31647 753.000904482793
62.33659 780.003094210227
62.3567 741
62.37681 777.019447941324
62.39693 773.929777910488
62.41704 724.986033323505
62.43715 762.895930842574
62.45727 769.042517095327
62.47738 732.020537678194
62.49749 727.007486917126
62.51761 689.977546294093
62.53772 669.021558484707
62.55784 695.953237585216
62.57795 626.865000805511
62.59806 637.867693796538
62.61818 704.97780101198
62.63829 662.041516847049
62.6584 605
62.67852 662.03676314099
62.69863 652.976589635039
62.71875 650.982195889155
62.73886 631.042743015879
62.75897 621.990667637275
62.77909 628.006289112759
62.7992 598
62.81931 589.003100272101
62.83943 601.017506631051
62.85954 605.995629461926
62.87965 600.014670177405
62.89977 598.992790783075
62.91988 606.992506983649
62.94 607
62.96011 598.004614137784
62.98022 609.982941724363
63.00034 570.956589556683
63.02045 580.956720043956
63.04056 586.999469333275
63.06068 576.033222612093
63.08079 542.000801222886
63.10091 579.024241927853
63.12102 596.971722493142
63.14113 552.980313677474
63.16125 578.060892802337
63.18136 584.978030335183
63.20147 594.031088825286
63.22159 559.002718796703
63.2417 598
63.26182 621.975967054114
63.28193 572.950457795788
63.30204 578.050152214076
63.32216 589.038990794241
63.34227 558.010356307327
63.36238 577.985946598797
63.3825 573
63.40261 578.001926893036
63.42272 568.97707500203
63.44284 546.990618258348
63.46295 549.044608802924
63.48307 526.97523601884
63.50318 566.994738325098
63.52329 541.996290055396
63.54341 584.007832739616
63.56352 562.992448396167
63.58363 584.022032535669
63.60375 588.058417149989
63.62386 612.049104396549
63.64398 561.005813928901
63.66409 596.998591763488
63.6842 554
63.70432 563.000688419039
63.72443 554.035100575798
63.74454 595.002865909345
63.76466 555.051734103156
63.78477 565.976442153658
63.80489 552.022933033612
63.825 518
63.84511 586.024499231317
63.86523 593.004790920483
63.88534 603.984064162617
63.90545 571.091580307469
63.92557 552.996192714988
63.94568 569.976679070247
63.96579 593.986731694191
63.98591 623.014366179591
64.00602 630.968917359126
64.02614 582.952188120671
64.04625 591.019191298825
64.06636 585.00164390179
64.08648 590.007406283779
64.10659 574.999674398042
64.1267 581
64.14682 540.986349524424
64.16693 583.124501033732
64.18705 638.935195072298
64.20716 570.036030022965
64.22727 616.950940482328
64.24739 583.036864214045
64.2675 532
64.28761 573.004636112741
64.30773 538.962600243092
64.32784 548.032219728721
64.34796 552.001465399613
64.36807 554.988597172041
64.38818 569.975992907715
64.4083 579
64.42841 524.984923941772
64.44852 550.066245582532
64.46864 590.924134521095
64.48875 501.150222519742
64.50886 502.967610705643
64.52898 511.971904726375
64.54909 553.988213312145
64.56921 549.995553651523
64.58932 537.964252114469
64.60943 511.053205649077
64.62955 568.966603042857
64.64966 491.082987239496
64.66977 516.963165504981
64.68989 517.988010913891
64.71 560
64.73012 524.96550515156
64.75023 518.007376345903
64.77034 533.0776006004
64.79046 559.075565091656
64.81057 486.042185682578
64.83068 512.987465743312
64.8508 488
64.87091 506.015115258615
64.89102 519.990447091223
64.91114 504.00393636862
64.93125 516.025521059472
64.95137 494.981909476182
64.97148 523.017354624967
64.99159 471.00701483566
65.01171 509.015768785832
65.03182 495.962318822315
65.05193 472.01314634211
65.07205 499.029402943647
65.09216 490.998420946938
65.11228 510.979193159471
65.13239 506.019612378803
65.1525 466
65.17262 515.058620302555
65.19273 538.972070780009
65.21284 498.935686087907
65.23296 482.045127551087
65.25307 461.981586840307
65.27319 490.999975454871
65.2933 468
65.31341 497.999432191401
65.33353 465.989539640763
65.35364 507.112595776305
65.37375 520.142270244878
65.39387 445.020545159286
65.41398 501.942562447348
65.43409 518.997550276144
65.45421 521.991341365903
65.47432 485.965798719658
65.49444 474.021905155993
65.51455 498.065999832278
65.53466 503.059912094245
65.55478 468.993177355274
65.57489 509.988323930649
65.595 491
65.61512 469.995327375627
65.63523 478.021700852142
65.65535 488.001301038236
65.67546 486.97957236517
65.69557 498.01732274894
65.71569 468.010264447123
65.7358 488
65.75591 544.997535342827
65.77603 481.906782904893
65.79614 471.065955726468
65.81626 515.937335210021
65.83637 512.054531921949
65.85648 484.978286196458
65.8766 532
65.89671 492.983262676823
65.91682 498.023625103459
65.93694 512.997305586509
65.95705 498.045259971927
65.97716 482.037238840785
65.99728 472.982046274565
66.01739 508.986370966104
66.03751 497.973822149537
66.05762 444.991136155579
66.07773 480.051511482923
66.09785 492.02918461747
66.11796 496.066321428338
66.13807 442.04229784899
66.15819 461.97791666725
66.1783 500
66.19842 505.988928197646
66.21853 497.016151685555
66.23864 503.924133461896
66.25876 443.039466217769
66.27887 480.926973607086
66.29898 484.052544395682
66.3191 435
66.33921 513.0205692754
66.35933 484.940032605018
66.37944 474.005112921737
66.39955 469.044572940747
66.41967 449.008627435631
66.43978 465.968262640328
66.45989 483.009874771618
66.48001 444.992357550133
66.50012 472.048208336586
66.52023 512.033668558993
66.54035 499.863271729476
66.56046 449.977077984716
66.58058 496.999715222141
66.60069 445.013648753226
66.6208 478
66.64092 500.985904289297
66.66103 474.992821921164
66.68114 486.983218217102
66.70126 462.00061466583
66.72137 483.003237297387
66.74149 450.013315037934
66.7616 469
66.78171 527.995886367083
66.80183 457.899530837504
66.82194 446.063536045323
66.84205 477.008680514193
66.86217 456.977847337645
66.88228 495.002112681288
66.90239 453.009009922588
66.92251 478.011675947604
66.94262 465.963269487825
66.96274 446.056250529607
66.98285 501.072818914706
67.00296 483.068357294122
67.02308 463.005828983186
67.04319 467.993683882456
67.0633 478
67.08342 477.014048892864
67.10353 492.982849969606
67.12365 456.929438450274
67.14376 461.936415876295
67.16387 491.991649559235
67.18399 469.016465176241
67.2041 454
67.22421 484.01329570963
67.24433 490.986864214423
67.26444 469.933077301104
67.28456 443.994929179416
67.30467 467.973580110861
67.32478 478.968453501462
67.3449 519
67.36501 478.967603532218
67.38512 439.012140890647
67.40524 486.074662065614
67.42535 484.067901408029
67.44546 461.006813229148
67.46558 483.959471438557
67.48569 505.013715680588
67.50581 453.989915467107
67.52592 474.015728382515
67.54603 476.034288965655
67.56615 505.971041406649
67.58626 475.953380383557
67.60637 543.95229754745
67.62649 526.000429188888
67.6466 544
67.66672 482.986029240682
67.68683 529.059791739207
67.70694 525.965221501134
67.72706 519.994315767069
67.74717 520.017640381375
67.76728 494.033300700019
67.7874 476
67.80751 519.026654505808
67.82763 529.9011840405
67.84774 461.073647696408
67.86785 558.98805512638
67.88797 469.048263716559
67.90808 520.989979276235
67.92819 476.991879506007
67.94831 554.011630183274
67.96842 502.968021901348
67.98853 534.06789004104
68.00865 553.000179376602
68.02876 549.995748252764
68.04888 553.008574292017
68.06899 544.99135488406
68.0891 563
68.10922 497.965725717244
68.12933 526.086749782605
68.14944 569.029762749193
68.16956 560.031754389165
68.18967 555.985268807604
68.20979 564.005780511029
68.2299 540
68.25001 540.994026789936
68.27013 535.06631833524
68.29024 595.9990876572
68.31035 527.164255475918
68.33047 507.00301612204
68.35058 500.006980111152
68.3707 501
68.39081 528.021251027614
68.41092 553.976135272942
68.43104 492.896534272291
68.45115 481.033160028192
68.47126 490.020367681725
68.49138 470.005409293491
68.51149 483.993083218036
68.5316 483
68.55172 474.000817331941
68.57183 492.052213271527
68.59195 526.037994214053
68.61206 502.130922138676
68.63217 442.005791545431
68.65229 491.974732428748
68.6724 497
68.69251 461.998295898903
68.71263 487.027001713058
68.73274 465.886119308441
68.75286 424.950193377234
68.77297 488.960471679322
68.79308 452.049303656376
68.8132 456
68.83331 524.988798169626
68.85342 441.975270889255
68.87354 499.08821316641
68.89365 474.139910231541
68.91376 443.968865830104
68.93388 482.979911638309
68.95399 482.989710532066
68.97411 521.005465974859
68.99422 497.980337874069
69.01433 484.940433382332
69.03445 442.028247205836
69.05456 496.939667598902
69.07467 482.019347264586
69.09479 492.995305265084
69.1149 486
69.13502 472.981868612122
69.15513 470.056341554939
69.17524 508.950956949189
69.19536 442.045210638082
69.21547 494.889669736248
69.23558 524.026823462083
69.2557 476
69.27581 485.000544512979
69.29593 463.973647452347
69.31604 457.977380444073
69.33615 452.925337701513
69.35627 501.965479208816
69.37638 485.026156474902
69.39649 470.006942889161
69.41661 460.003542311251
69.43672 475.000500655909
69.45683 460.990717461805
69.47695 478.083434572071
69.49706 497.039815534653
69.51718 456.01954697802
69.53729 463.001750218115
69.5574 451
69.57752 487.000459927695
69.59763 454.986820632378
69.61774 485.058028920202
69.63786 478.076922147895
69.65797 445.987391727063
69.67809 483.988804281861
69.6982 482
69.71831 515.016080292388
69.73843 510.922430278301
69.75854 452.978902629603
69.77865 480.989092894382
69.79877 455.001267435247
69.81888 482.995205875736
69.839 457
69.85911 486.02648627781
69.87922 513.970367469129
69.89934 453.939717507741
69.91945 467.02599379842
69.93956 460.981239685682
69.95968 492.970450083948
69.97979 502.002587032852
69.9999 485
70.02002 447.974779308616
70.04013 447.030416506297
70.06025 464.987210221193
70.08036 446.999666748641
70.10047 473.95296841946
70.12059 475.020982970951
70.1407 433
70.16081 489.013350857291
70.18093 476.010821169308
70.20104 505.990865763061
70.22116 453.114098262065
70.24127 437.954710762373
70.26138 486.962554453438
70.2815 492
70.30161 472.99778798256
70.32172 473.982670304303
70.34184 452.022086505974
70.36195 491.933500319528
70.38207 485.028693929913
70.40218 473.006720873093
70.42229 470.99790433348
70.44241 469.990483253882
70.46252 442.988333325396
70.48263 453.022610213503
70.50275 467.057581381144
70.52286 494.964234568588
70.54297 491.034785152672
70.56309 472.995335244475
70.5832 494
70.60332 466.993781159657
70.62343 485.005139257228
70.64354 455.918884619242
70.66366 431.998332702164
70.68377 452.957173691334
70.70388 479.971794285106
70.724 489
70.74411 444.000031454257
70.76423 472.978906849539
70.78434 415.944341265075
70.80445 450.851621140473
70.82457 480.028032183815
70.84468 440.017081451479
70.86479 465.977471510777
70.88491 488.991518183187
70.90502 459.001865721497
70.92513 493.032447433118
70.94525 479.935139352664
70.96536 462.020362614814
70.98548 452.016632994809
71.00559 436.000436663565
71.0257 450
71.04582 461.01906000762
71.06593 479.998829460514
71.08604 464.991716899779
71.10616 472.013028654585
71.12627 462.96369046277
71.14639 506.993064745908
71.1665 481
71.18661 467.98666926852
71.20673 440.015291509693
71.22684 483.061977039514
71.24695 477.059169849126
71.26707 465.980718243195
71.28718 480.018940915093
71.3073 447
71.32741 490.011596968652
71.34752 473.981297735481
71.36764 470.989910345741
71.38775 460.007067784906
71.40786 472.955337416814
71.42798 485.011913424305
71.44809 462.003695866317
71.4682 468
71.48832 461.041728942723
71.50843 517.987717983579
71.52855 463.998969186529
71.54866 516.986215208044
71.56877 464.040949266795
71.58889 483.998267251925
71.609 445
71.62911 437.01471686047
71.64923 491.094399089103
71.66934 526.974676038855
71.68946 484.06571798961
71.70957 481.984805668835
71.72968 488.992796735983
71.7498 494
71.76991 481.992202063099
71.79002 477.014795364114
71.81014 498.008425958838
71.83025 492.960068380644
71.85037 521.994936275093
71.87048 489.041181260087
71.89059 474.989476310135
71.91071 499.994843133003
71.93082 476.023130733818
71.95093 532.020294143446
71.97105 477.820524014496
71.99116 446.959560944805
72.01127 482.990543885434
72.03139 463.99720060244
72.0515 494
72.07162 464.980999909086
72.09173 473.014079840918
72.11184 481.058421405938
72.13196 515.996305771465
72.15207 498.974822722891
72.17218 537.006564045133
72.1923 494
72.21241 528.000168856503
72.23253 486.974230257561
72.25264 506.006097322242
72.27275 482.024479197781
72.29287 492.008473352086
72.31298 475.985426475032
72.33309 507.004015024249
72.35321 465.993928412773
72.37332 488.000034818731
72.39344 453.952050356902
72.41355 462.04643417261
72.43366 476.96370485713
72.45378 499.978003764117
72.47389 508.006787693423
72.494 486
72.51412 484.982577833402
72.53423 450.961776903421
72.55434 465.119818322008
72.57446 522.005248291452
72.59457 463.083807797905
72.61469 452.990002758453
72.6348 476
72.65491 480.001139731396
72.67503 482.995790679237
72.69514 472.975972764615
72.71525 473.940275917451
72.73537 501.000074372094
72.75548 480.005574174153
72.7756 499
72.79571 494.992636982151
72.81582 481.991907087129
72.83594 470.950876708975
72.85605 448.980120219603
72.87616 475.984423548025
72.89628 460.005998876936
72.91639 479.985953608
72.9365 487
72.95662 453.997565992735
72.97673 479.017767417923
72.99685 460.93935419821
73.01696 462.925370043825
73.03707 506.981555600521
73.05719 483.013243603553
73.0773 480
73.09741 487.994494791504
73.11753 479.042000594921
73.13764 518.983486487699
73.15776 462.09046252675
73.17787 466.948455376913
73.19798 493.996851752023
73.2181 492
73.23821 537.006971617541
73.25832 514.984959845216
73.27844 520.997085591002
73.29855 498.074034589804
73.31867 483.985527329177
73.33878 506.982298395021
73.35889 509.002890661333
73.37901 499.99227323643
73.39912 491.0138834021
73.41923 529.069942495001
73.43935 551.953870662523
73.45946 512.046766958733
73.47957 512.010613323351
73.49969 504.984565140271
73.5198 546
73.53992 488.981469481801
73.56003 522.026749645
73.58014 500.965485822214
73.60026 512.951645758544
73.62037 519.038587246267
73.64048 483.010610625426
73.6606 515
73.68071 546.988669071067
73.70083 491.948816246501
73.72094 499.032434615498
73.74105 498.031910412919
73.76117 483.019394614969
73.78128 476.998232941755
73.80139 493.980679966903
73.82151 519.985959371956
73.84162 473.010928364852
73.86174 529.022908682932
73.88185 474.871183038971
73.90196 471.950767941631
73.92208 497.978073941745
73.94219 498.01733060804
73.9623 463
73.98242 507.012077500387
74.00253 468.935406870577
74.02264 461.046102830046
74.04276 493.949634157547
74.06287 502.002629317129
74.08299 500.000100178035
74.1031 490
74.12321 449.992027439161
74.14333 482.109996107422
74.16344 539.982564981507
74.18355 480.110105906319
74.20367 484.968525826834
74.22378 489.013108338986
74.2439 482
74.26401 528.019584623711
74.28412 530.966894607423
74.30424 484.929600555652
74.32435 479.945633003731
74.34446 493.055472289102
74.36458 449.002915542365
74.38469 480.998310721698
74.40481 454.002228958802
74.42492 514.077507805479
74.44503 540.917518278743
74.46515 463.982238924936
74.48526 523.934724948831
74.50537 488.077983398609
74.52549 462.004867418773
74.5456 464
74.56571 487.003729696557
74.58583 477.989040510966
74.60594 473.966003816203
74.62606 449.022053558558
74.64617 462.957295697827
74.66628 491.974581134818
74.6864 503
74.70651 485.999787480781
74.72662 496.994543104569
74.74674 479.002603883155
74.76685 496.999452868135
74.78697 473.030064960471
74.80708 477.976833959902
74.82719 490.010969643053
74.84731 450.992063217947
74.86742 473.034828209836
74.88753 491.998345142163
74.90765 475.945983765445
74.92776 462.997804873086
74.94787 476.969482724767
74.96799 485.008412603573
74.9881 454
75.00822 454.010813370053
