3.00117 18877
3.02128 18688
3.0414 18257
3.06151 17738
3.08162 17247
3.10174 16668
3.12185 16144
3.14197 15957
3.16208 15196
3.18219 15078
3.20231 14403
3.22242 14007
3.24253 13689
3.26265 13242
3.28276 12863
3.30288 12405
3.32299 12034
3.3431 11868
3.36322 11244
3.38333 10872
3.40344 10407
3.42356 10188
3.44367 10012
3.46379 9373
3.4839 9283
3.50401 8619
3.52413 8495
3.54424 8291
3.56435 7991
3.58447 7776
3.60458 7369
3.62469 7090
3.64481 6866
3.66492 6536
3.68504 6219
3.70515 5860
3.72526 5891
3.74538 5468
3.76549 5297
3.7856 5171
3.80572 4914
3.82583 4728
3.84595 4546
3.86606 4252
3.88617 4085
3.90629 3905
3.9264 3878
3.94651 3639
3.96663 3386
3.98674 3309
4.00686 2931
4.02697 3056
4.04708 2946
4.0672 2639
4.08731 2681
4.10742 2365
4.12754 2482
4.14765 2266
4.16776 2133
4.18788 2061
4.20799 1918
4.22811 1931
4.24822 1912
4.26833 1705
4.28845 1698
4.30856 1622
4.32867 1607
4.34879 1621
4.3689 1425
4.38902 1380
4.40913 1424
4.42924 1416
4.44936 1399
4.46947 1181
4.48958 1309
4.5097 1206
4.52981 1165
4.54992 1162
4.57004 1020
4.59015 1004
4.61027 1015
4.63038 997
4.65049 1064
4.67061 946
4.69072 954
4.71083 937
4.73095 924
4.75106 834
4.77118 879
4.79129 847
4.8114 777
4.83152 800
4.85163 878
4.87174 719
4.89186 784
4.91197 719
4.93209 702
4.9522 747
4.97231 633
4.99243 646
5.01254 562
5.03265 592
5.05277 653
5.07288 554
5.09299 553
5.11311 555
5.13322 505
5.15334 502
5.17345 523
5.19356 472
5.21368 491
5.23379 460
5.2539 475
5.27402 431
5.29413 450
5.31425 382
5.33436 442
5.35447 415
5.37459 407
5.3947 362
5.41481 386
5.43493 371
5.45504 340
5.47516 319
5.49527 338
5.51538 353
5.5355 347
5.55561 330
5.57572 318
5.59584 303
5.61595 318
5.63606 262
5.65618 282
5.67629 310
5.69641 274
5.71652 269
5.73663 234
5.75675 244
5.77686 261
5.79697 242
5.81709 237
5.8372 237
5.85732 220
5.87743 221
5.89754 229
5.91766 213
5.93777 234
5.95788 216
5.978 198
5.99811 216
6.01823 239
6.03834 192
6.05845 183
6.07857 191
6.09868 183
6.11879 181
6.13891 178
6.15902 188
6.17913 204
6.19925 186
6.21936 204
6.23948 176
6.25959 181
6.2797 185
6.29982 160
6.31993 183
6.34004 169
6.36016 199
6.38027 196
6.40039 202
6.4205 188
6.44061 184
6.46073 179
6.48084 200
6.50095 162
6.52107 204
6.54118 181
6.56129 206
6.58141 175
6.60152 150
6.62164 174
6.64175 183
6.66186 156
6.68198 193
6.70209 181
6.7222 167
6.74232 154
6.76243 158
6.78255 152
6.80266 165
6.82277 196
6.84289 180
6.863 163
6.88311 165
6.90323 161
6.92334 144
6.94346 160
6.96357 190
6.98368 187
7.0038 181
7.02391 198
7.04402 172
7.06414 142
7.08425 181
7.10436 179
7.12448 183
7.14459 177
7.16471 176
7.18482 208
7.20493 216
7.22505 170
7.24516 177
7.26527 169
7.28539 194
7.3055 200
7.32562 182
7.34573 178
7.36584 171
7.38596 180
7.40607 172
7.42618 181
7.4463 172
7.46641 185
7.48653 200
7.50664 190
7.52675 176
7.54687 207
7.56698 190
7.58709 199
7.60721 206
7.62732 220
7.64743 188
7.66755 180
7.68766 212
7.70778 184
7.72789 203
7.748 203
7.76812 196
7.78823 218
7.80834 200
7.82846 175
7.84857 198
7.86869 195
7.8888 192
7.90891 174
7.92903 203
7.94914 194
7.96925 174
7.98937 211
8.00948 214
8.0296 213
8.04971 190
8.06982 187
8.08994 215
8.11005 190
8.13016 192
8.15028 177
8.17039 169
8.1905 220
8.21062 204
8.23073 211
8.25085 199
8.27096 189
8.29107 223
8.31119 220
8.3313 201
8.35141 218
8.37153 188
8.39164 214
8.41176 232
8.43187 213
8.45198 192
8.4721 198
8.49221 236
8.51232 229
8.53244 236
8.55255 227
8.57266 226
8.59278 212
8.61289 205
8.63301 204
8.65312 178
8.67323 209
8.69335 218
8.71346 226
8.73357 204
8.75369 208
8.7738 196
8.79392 196
8.81403 190
8.83414 234
8.85426 211
8.87437 203
8.89448 191
8.9146 204
8.93471 228
8.95483 207
8.97494 201
8.99505 185
9.01517 230
9.03528 237
9.05539 188
9.07551 200
9.09562 207
9.11573 191
9.13585 230
9.15596 210
9.17608 195
9.19619 209
9.2163 214
9.23642 202
9.25653 183
9.27664 196
9.29676 205
9.31687 230
9.33699 243
9.3571 188
9.37721 220
9.39733 199
9.41744 220
9.43755 236
9.45767 231
9.47778 187
9.4979 204
9.51801 187
9.53812 237
9.55824 223
9.57835 238
9.59846 223
9.61858 208
9.63869 229
9.6588 214
9.67892 212
9.69903 208
9.71915 212
9.73926 212
9.75937 224
9.77949 208
9.7996 211
9.81971 230
9.83983 190
9.85994 209
9.88006 224
9.90017 248
9.92028 219
9.9404 230
9.96051 211
9.98062 209
10.00074 191
10.02085 235
10.04097 241
10.06108 209
10.08119 215
10.10131 223
10.12142 246
10.14153 224
10.16165 236
10.18176 207
10.20187 219
10.22199 220
10.2421 228
10.26222 206
10.28233 230
10.30244 211
10.32256 209
10.34267 227
10.36278 228
10.3829 243
10.40301 213
10.42313 251
10.44324 206
10.46335 222
10.48347 224
10.50358 213
10.52369 244
10.54381 232
10.56392 216
10.58403 252
10.60415 214
10.62426 229
10.64438 185
10.66449 218
10.6846 239
10.70472 226
10.72483 226
10.74494 211
10.76506 243
10.78517 225
10.80529 229
10.8254 250
10.84551 246
10.86563 216
10.88574 233
10.90585 218
10.92597 229
10.94608 202
10.9662 209
10.98631 255
11.00642 209
11.02654 205
11.04665 208
11.06676 233
11.08688 219
11.10699 224
11.1271 234
11.14722 191
11.16733 240
11.18745 219
11.20756 227
11.22767 189
11.24779 216
11.2679 211
11.28801 234
11.30813 227
11.32824 240
11.34836 205
11.36847 238
11.38858 213
11.4087 214
11.42881 237
11.44892 198
11.46904 225
11.48915 214
11.50927 207
11.52938 228
11.54949 233
11.56961 210
11.58972 249
11.60983 209
11.62995 233
11.65006 216
11.67017 255
11.69029 256
11.7104 223
11.73052 241
11.75063 246
11.77074 235
11.79086 229
11.81097 237
11.83108 200
11.8512 215
11.87131 213
11.89143 237
11.91154 239
11.93165 219
11.95177 202
11.97188 234
11.99199 244
12.01211 229
12.03222 229
12.05234 219
12.07245 240
12.09256 266
12.11268 252
12.13279 275
12.1529 283
12.17302 276
12.19313 302
12.21324 305
12.23336 291
12.25347 332
12.27359 316
12.2937 370
12.31381 396
12.33393 366
12.35404 383
12.37415 429
12.39427 381
12.41438 379
12.4345 301
12.45461 325
12.47472 256
12.49484 279
12.51495 258
12.53506 261
12.55518 255
12.57529 253
12.5954 233
12.61552 227
12.63563 228
12.65575 206
12.67586 208
12.69597 215
12.71609 187
12.7362 209
12.75631 224
12.77643 234
12.79654 190
12.81666 199
12.83677 181
12.85688 219
12.877 181
12.89711 242
12.91722 187
12.93734 205
12.95745 214
12.97757 181
12.99768 198
13.01779 195
13.03791 168
13.05802 201
13.07813 190
13.09825 172
13.11836 196
13.13847 201
13.15859 196
13.1787 209
13.19882 181
13.21893 192
13.23904 229
13.25916 194
13.27927 195
13.29938 195
13.3195 178
13.33961 195
13.35973 204
13.37984 204
13.39995 190
13.42007 194
13.44018 214
13.46029 169
13.48041 185
13.50052 203
13.52064 184
13.54075 216
13.56086 173
13.58098 179
13.60109 191
13.6212 220
13.64132 201
13.66143 195
13.68154 169
13.70166 167
13.72177 180
13.74189 199
13.762 166
13.78211 199
13.80223 192
13.82234 193
13.84245 202
13.86257 166
13.88268 188
13.9028 205
13.92291 174
13.94302 180
13.96314 166
13.98325 181
14.00336 185
14.02348 199
14.04359 172
14.06371 182
14.08382 194
14.10393 163
14.12405 182
14.14416 172
14.16427 197
14.18439 186
14.2045 183
14.22461 186
14.24473 198
14.26484 212
14.28496 198
14.30507 181
14.32518 197
14.3453 188
14.36541 176
14.38552 187
14.40564 186
14.42575 180
14.44587 201
14.46598 195
14.48609 160
14.50621 159
14.52632 176
14.54643 175
14.56655 179
14.58666 182
14.60677 171
14.62689 182
14.647 181
14.66712 187
14.68723 157
14.70734 189
14.72746 184
14.74757 186
14.76768 191
14.7878 180
14.80791 179
14.82803 174
14.84814 184
14.86825 171
14.88837 187
14.90848 171
14.92859 154
14.94871 155
14.96882 185
14.98894 171
15.00905 185
15.02916 176
15.04928 145
15.06939 158
15.0895 201
15.10962 155
15.12973 164
15.14984 186
15.16996 172
15.19007 159
15.21019 198
15.2303 173
15.25041 164
15.27053 150
15.29064 178
15.31075 172
15.33087 189
15.35098 194
15.3711 172
15.39121 183
15.41132 164
15.43144 165
15.45155 162
15.47166 181
15.49178 175
15.51189 208
15.53201 178
15.55212 160
15.57223 168
15.59235 184
15.61246 165
15.63257 182
15.65269 162
15.6728 174
15.69291 169
15.71303 154
15.73314 197
15.75326 156
15.77337 164
15.79348 161
15.8136 168
15.83371 159
15.85382 161
15.87394 156
15.89405 164
15.91417 166
15.93428 197
15.95439 172
15.97451 176
15.99462 146
16.01473 163
16.03485 164
16.05496 194
16.07508 158
16.09519 161
16.1153 151
16.13542 187
16.15553 169
16.17564 177
16.19576 164
16.21587 154
16.23598 197
16.2561 156
16.27621 155
16.29633 177
16.31644 176
16.33655 149
16.35667 168
16.37678 178
16.39689 174
16.41701 173
16.43712 157
16.45724 178
16.47735 171
16.49746 154
16.51758 188
16.53769 150
16.5578 158
16.57792 170
16.59803 155
16.61814 197
16.63826 158
16.65837 157
16.67849 163
16.6986 185
16.71871 187
16.73883 181
16.75894 157
16.77905 142
16.79917 157
16.81928 180
16.8394 176
16.85951 193
16.87962 176
16.89974 166
16.91985 151
16.93996 195
16.96008 186
16.98019 175
17.00031 151
17.02042 146
17.04053 165
17.06065 180
17.08076 180
17.10087 130
17.12099 193
17.1411 160
17.16121 176
17.18133 171
17.20144 155
17.22156 175
17.24167 158
17.26178 156
17.2819 175
17.30201 164
17.32212 183
17.34224 165
17.36235 160
17.38247 181
17.40258 159
17.42269 171
17.44281 174
17.46292 176
17.48303 156
17.50315 147
17.52326 145
17.54338 163
17.56349 158
17.5836 165
17.60372 168
17.62383 145
17.64394 163
17.66406 187
17.68417 177
17.70428 186
17.7244 181
17.74451 163
17.76463 186
17.78474 188
17.80485 177
17.82497 192
17.84508 173
17.86519 156
17.88531 172
17.90542 173
17.92554 150
17.94565 167
17.96576 189
17.98588 176
18.00599 162
18.0261 150
18.04622 150
18.06633 161
18.08645 164
18.10656 167
18.12667 166
18.14679 145
18.1669 189
18.18701 174
18.20713 161
18.22724 148
18.24735 144
18.26747 160
18.28758 179
18.3077 147
18.32781 163
18.34792 171
18.36804 167
18.38815 138
18.40826 153
18.42838 180
18.44849 164
18.46861 148
18.48872 168
18.50883 168
18.52895 161
18.54906 159
18.56917 150
18.58929 187
18.6094 188
18.62951 179
18.64963 150
18.66974 178
18.68986 155
18.70997 167
18.73008 168
18.7502 195
18.77031 176
18.79042 190
18.81054 196
18.83065 187
18.85077 180
18.87088 164
18.89099 163
18.91111 153
18.93122 172
18.95133 153
18.97145 183
18.99156 177
19.01168 140
19.03179 144
19.0519 177
19.07202 186
19.09213 177
19.11224 136
19.13236 193
19.15247 160
19.17258 144
19.1927 171
19.21281 183
19.23293 149
19.25304 157
19.27315 187
19.29327 163
19.31338 170
19.33349 182
19.35361 184
19.37372 168
19.39384 161
19.41395 189
19.43406 163
19.45418 182
19.47429 186
19.4944 166
19.51452 171
19.53463 194
19.55475 190
19.57486 180
19.59497 192
19.61509 168
19.6352 192
19.65531 167
19.67543 172
19.69554 189
19.71565 207
19.73577 203
19.75588 200
19.776 244
19.79611 239
19.81622 241
19.83634 265
19.85645 269
19.87656 267
19.89668 273
19.91679 255
19.93691 291
19.95702 272
19.97713 267
19.99725 230
20.01736 275
20.03747 259
20.05759 253
20.0777 252
20.09782 262
20.11793 316
20.13804 261
20.15816 301
20.17827 291
20.19838 321
20.2185 294
20.23861 261
20.25872 312
20.27884 336
20.29895 313
20.31907 304
20.33918 340
20.35929 311
20.37941 363
20.39952 381
20.41963 341
20.43975 352
20.45986 362
20.47998 364
20.50009 382
20.5202 386
20.54032 415
20.56043 415
20.58054 455
20.60066 458
20.62077 497
20.64088 491
20.661 602
20.68111 736
20.70123 993
20.72134 1319
20.74145 2040
20.76157 2838
20.78168 4178
20.80179 5903
20.82191 7827
20.84202 9415
20.86214 9733
20.88225 8283
20.90236 6126
20.92248 4294
20.94259 2622
20.9627 1365
20.98282 856
21.00293 652
21.02305 545
21.04316 535
21.06327 486
21.08339 429
21.1035 416
21.12361 418
21.14373 390
21.16384 419
21.18395 351
21.20407 339
21.22418 320
21.2443 312
21.26441 311
21.28452 294
21.30464 301
21.32475 276
21.34486 268
21.36498 270
21.38509 256
21.40521 248
21.42532 244
21.44543 260
21.46555 257
21.48566 264
21.50577 284
21.52589 269
21.546 252
21.56612 225
21.58623 268
21.60634 261
21.62646 223
21.64657 264
21.66668 240
21.6868 241
21.70691 213
21.72702 209
21.74714 238
21.76725 220
21.78737 212
21.80748 235
21.82759 215
21.84771 255
21.86782 213
21.88793 233
21.90805 238
21.92816 226
21.94828 207
21.96839 231
21.9885 233
22.00862 238
22.02873 226
22.04884 218
22.06896 221
22.08907 201
22.10919 210
22.1293 241
22.14941 240
22.16953 195
22.18964 230
22.20975 224
22.22987 257
22.24998 217
22.27009 205
22.29021 198
22.31032 242
22.33044 178
22.35055 207
22.37066 217
22.39078 203
22.41089 226
22.431 221
22.45112 212
22.47123 200
22.49135 205
22.51146 218
22.53157 219
22.55169 192
22.5718 216
22.59191 241
22.61203 214
22.63214 222
22.65225 189
22.67237 183
22.69248 196
22.7126 228
22.73271 184
22.75282 191
22.77294 215
22.79305 232
22.81316 214
22.83328 198
22.85339 175
22.87351 208
22.89362 192
22.91373 188
22.93385 214
22.95396 205
22.97407 202
22.99419 222
23.0143 236
23.03442 233
23.05453 209
23.07464 227
23.09476 190
23.11487 186
23.13498 200
23.1551 204
23.17521 225
23.19532 211
23.21544 196
23.23555 205
23.25567 203
23.27578 200
23.29589 197
23.31601 222
23.33612 208
23.35623 181
23.37635 197
23.39646 189
23.41658 196
23.43669 186
23.4568 186
23.47692 191
23.49703 192
23.51714 222
23.53726 198
23.55737 193
23.57749 197
23.5976 193
23.61771 209
23.63783 200
23.65794 181
23.67805 204
23.69817 194
23.71828 222
23.73839 205
23.75851 208
23.77862 220
23.79874 205
23.81885 212
23.83896 201
23.85908 209
23.87919 229
23.8993 233
23.91942 236
23.93953 269
23.95965 295
23.97976 276
23.99987 307
24.01999 297
24.0401 271
24.06021 239
24.08033 228
24.10044 192
24.12056 221
24.14067 208
24.16078 232
24.1809 212
24.20101 201
24.22112 221
24.24124 218
24.26135 203
24.28146 209
24.30158 194
24.32169 216
24.34181 223
24.36192 185
24.38203 211
24.40215 201
24.42226 201
24.44237 205
24.46249 200
24.4826 214
24.50272 207
24.52283 207
24.54294 210
24.56306 190
24.58317 204
24.60328 201
24.6234 195
24.64351 190
24.66362 219
24.68374 253
24.70385 217
24.72397 254
24.74408 231
24.76419 248
24.78431 266
24.80442 298
24.82453 294
24.84465 333
24.86476 365
24.88488 322
24.90499 300
24.9251 302
24.94522 294
24.96533 259
24.98544 277
25.00556 258
25.02567 275
25.04579 224
25.0659 234
25.08601 229
25.10613 271
25.12624 226
25.14635 214
25.16647 241
25.18658 244
25.20669 215
25.22681 250
25.24692 242
25.26704 278
25.28715 229
25.30726 236
25.32738 245
25.34749 233
25.3676 255
25.38772 239
25.40783 239
25.42795 230
25.44806 199
25.46817 219
25.48829 233
25.5084 221
25.52851 254
25.54863 235
25.56874 260
25.58886 262
25.60897 257
25.62908 270
25.6492 288
25.66931 303
25.68942 329
25.70954 368
25.72965 445
25.74976 392
25.76988 375
25.78999 435
25.81011 479
25.83022 424
25.85033 476
25.87045 460
25.89056 412
25.91067 456
25.93079 483
25.9509 457
25.97102 454
25.99113 496
26.01124 493
26.03136 490
26.05147 553
26.07158 520
26.0917 574
26.11181 587
26.13193 666
26.15204 634
26.17215 726
26.19227 724
26.21238 775
26.23249 876
26.25261 883
26.27272 968
26.29283 1030
26.31295 1088
26.33306 1230
26.35318 1380
26.37329 1518
26.3934 1661
26.41352 2006
26.43363 2556
26.45374 3261
26.47386 4516
26.49397 6078
26.51409 9085
26.5342 12961
26.55431 18896
26.57443 26366
26.59454 34750
26.61465 41633
26.63477 43737
26.65488 38841
26.67499 30196
26.69511 23496
26.71522 17349
26.73534 10601
26.75545 5518
26.77556 3185
26.79568 2295
26.81579 1865
26.8359 1652
26.85602 1490
26.87613 1367
26.89625 1264
26.91636 1153
26.93647 1017
26.95659 945
26.9767 893
26.99681 751
27.01693 703
27.03704 676
27.05716 570
27.07727 583
27.09738 506
27.1175 485
27.13761 477
27.15772 466
27.17784 432
27.19795 434
27.21806 425
27.23818 438
27.25829 440
27.27841 428
27.29852 396
27.31863 421
27.33875 365
27.35886 412
27.37897 411
27.39909 411
27.4192 405
27.43932 389
27.45943 383
27.47954 352
27.49966 393
27.51977 372
27.53988 340
27.56 374
27.58011 353
27.60023 343
27.62034 317
27.64045 311
27.66057 320
27.68068 346
27.70079 334
27.72091 318
27.74102 318
27.76113 334
27.78125 316
27.80136 304
27.82148 272
27.84159 311
27.8617 272
27.88182 287
27.90193 285
27.92204 298
27.94216 284
27.96227 284
27.98239 280
28.0025 267
28.02261 255
28.04273 253
28.06284 255
28.08295 281
28.10307 274
28.12318 234
28.1433 269
28.16341 281
28.18352 262
28.20364 262
28.22375 273
28.24386 238
28.26398 258
28.28409 273
28.3042 244
28.32432 220
28.34443 254
28.36455 271
28.38466 267
28.40477 233
28.42489 253
28.445 236
28.46511 254
28.48523 240
28.50534 251
28.52546 233
28.54557 261
28.56568 252
28.5858 262
28.60591 230
28.62602 260
28.64614 223
28.66625 259
28.68636 238
28.70648 220
28.72659 229
28.74671 234
28.76682 233
28.78693 246
28.80705 235
28.82716 234
28.84727 261
28.86739 220
28.8875 231
28.90762 229
28.92773 255
28.94784 219
28.96796 227
28.98807 249
29.00818 212
29.0283 244
29.04841 233
29.06853 220
29.08864 247
29.10875 234
29.12887 218
29.14898 239
29.16909 217
29.18921 246
29.20932 241
29.22943 239
29.24955 235
29.26966 222
29.28978 197
29.30989 208
29.33 229
29.35012 217
29.37023 222
29.39034 231
29.41046 227
29.43057 222
29.45069 225
29.4708 235
29.49091 206
29.51103 233
29.53114 200
29.55125 202
29.57137 213
29.59148 201
29.6116 187
29.63171 221
29.65182 223
29.67194 189
29.69205 188
29.71216 199
29.73228 215
29.75239 220
29.7725 209
29.79262 194
29.81273 184
29.83285 206
29.85296 205
29.87307 190
29.89319 240
29.9133 222
29.93341 232
29.95353 199
29.97364 212
29.99376 184
30.01387 231
30.03398 195
30.0541 194
30.07421 201
30.09432 208
30.11444 215
30.13455 195
30.15467 188
30.17478 195
30.19489 203
30.21501 201
30.23512 207
30.25523 183
30.27535 163
30.29546 206
30.31557 197
30.33569 209
30.3558 197
30.37592 221
30.39603 173
30.41614 208
30.43626 188
30.45637 205
30.47648 187
30.4966 190
30.51671 175
30.53683 197
30.55694 205
30.57705 204
30.59717 193
30.61728 195
30.63739 204
30.65751 204
30.67762 215
30.69773 220
30.71785 195
30.73796 203
30.75808 206
30.77819 198
30.7983 192
30.81842 186
30.83853 194
30.85864 199
30.87876 187
30.89887 184
30.91899 198
30.9391 184
30.95921 189
30.97933 190
30.99944 176
31.01955 186
31.03967 200
31.05978 204
31.0799 178
31.10001 191
31.12012 202
31.14024 195
31.16035 178
31.18046 191
31.20058 173
31.22069 170
31.2408 181
31.26092 164
31.28103 158
31.30115 188
31.32126 182
31.34137 196
31.36149 169
31.3816 197
31.40171 169
31.42183 185
31.44194 175
31.46206 175
31.48217 181
31.50228 179
31.5224 156
31.54251 164
31.56262 159
31.58274 175
31.60285 167
31.62297 165
31.64308 183
31.66319 162
31.68331 160
31.70342 175
31.72353 175
31.74365 187
31.76376 174
31.78387 178
31.80399 159
31.8241 143
31.84422 198
31.86433 169
31.88444 140
31.90456 139
31.92467 169
31.94478 169
31.9649 167
31.98501 151
32.00513 169
32.02524 162
32.04535 151
32.06547 153
32.08558 153
32.10569 158
32.12581 158
32.14592 196
32.16604 190
32.18615 186
32.20626 166
32.22638 185
32.24649 178
32.2666 154
32.28672 163
32.30683 145
32.32694 161
32.34706 181
32.36717 158
32.38729 163
32.4074 159
32.42751 176
32.44763 146
32.46774 145
32.48785 165
32.50797 183
32.52808 189
32.5482 170
32.56831 171
32.58842 177
32.60854 154
32.62865 170
32.64876 178
32.66888 167
32.68899 170
32.7091 172
32.72922 180
32.74933 160
32.76945 203
32.78956 168
32.80967 148
32.82979 197
32.8499 173
32.87001 189
32.89013 187
32.91024 177
32.93036 153
32.95047 165
32.97058 182
32.9907 185
33.01081 181
33.03092 176
33.05104 178
33.07115 170
33.09127 189
33.11138 182
33.13149 186
33.15161 200
33.17172 183
33.19183 208
33.21195 192
33.23206 178
33.25217 198
33.27229 155
33.2924 159
33.31252 175
33.33263 173
33.35274 178
33.37286 150
33.39297 165
33.41308 155
33.4332 184
33.45331 170
33.47343 160
33.49354 166
33.51365 161
33.53377 175
33.55388 170
33.57399 142
33.59411 135
33.61422 138
33.63434 142
33.65445 176
33.67456 177
33.69468 152
33.71479 171
33.7349 156
33.75502 149
33.77513 174
33.79524 143
33.81536 140
33.83547 160
33.85559 145
33.8757 161
33.89581 140
33.91593 153
33.93604 141
33.95615 165
33.97627 173
33.99638 149
34.0165 152
34.03661 138
34.05672 161
34.07684 144
34.09695 139
34.11706 138
34.13718 153
34.15729 156
34.17741 138
34.19752 158
34.21763 141
34.23775 147
34.25786 149
34.27797 176
34.29809 147
34.3182 153
34.33831 153
34.35843 142
34.37854 157
34.39866 159
34.41877 145
34.43888 132
34.459 158
34.47911 156
34.49922 168
34.51934 140
34.53945 167
34.55957 150
34.57968 152
34.59979 164
34.61991 160
34.64002 162
34.66013 168
34.68025 159
34.70036 180
34.72047 176
34.74059 169
34.7607 161
34.78082 185
34.80093 203
34.82104 170
34.84116 170
34.86127 188
34.88138 174
34.9015 174
34.92161 187
34.94173 193
34.96184 203
34.98195 188
35.00207 189
35.02218 189
35.04229 184
35.06241 168
35.08252 175
35.10264 208
35.12275 165
35.14286 176
35.16298 180
35.18309 190
35.2032 180
35.22332 197
35.24343 193
35.26354 187
35.28366 178
35.30377 187
35.32389 216
35.344 198
35.36411 214
35.38423 203
35.40434 238
35.42445 226
35.44457 232
35.46468 222
35.4848 220
35.50491 254
35.52502 227
35.54514 229
35.56525 247
35.58536 232
35.60548 243
35.62559 219
35.64571 243
35.66582 236
35.68593 221
35.70605 242
35.72616 233
35.74627 215
35.76639 240
35.7865 264
35.80661 237
35.82673 228
35.84684 241
35.86696 230
35.88707 224
35.90718 239
35.9273 222
35.94741 211
35.96752 207
35.98764 227
36.00775 215
36.02787 224
36.04798 219
36.06809 250
36.08821 216
36.10832 250
36.12843 236
36.14855 225
36.16866 240
36.18878 249
36.20889 270
36.229 265
36.24912 238
36.26923 310
36.28934 280
36.30946 328
36.32957 373
36.34968 414
36.3698 551
36.38991 687
36.41003 829
36.43014 1118
36.45025 1534
36.47037 1917
36.49048 2433
36.51059 2963
36.53071 3184
36.55082 2780
36.57094 2156
36.59105 1850
36.61116 1737
36.63128 1475
36.65139 1156
36.6715 717
36.69162 443
36.71173 376
36.73184 294
36.75196 265
36.77207 253
36.79219 256
36.8123 252
36.83241 201
36.85253 223
36.87264 226
36.89275 192
36.91287 184
36.93298 188
36.9531 198
36.97321 172
36.99332 174
37.01344 181
37.03355 178
37.05366 172
37.07378 177
37.09389 185
37.11401 167
37.13412 165
37.15423 165
37.17435 185
37.19446 150
37.21457 162
37.23469 169
37.2548 172
37.27491 162
37.29503 166
37.31514 167
37.33526 149
37.35537 156
37.37548 184
37.3956 168
37.41571 149
37.43582 173
37.45594 191
37.47605 167
37.49617 172
37.51628 172
37.53639 144
37.55651 148
37.57662 148
37.59673 168
37.61685 163
37.63696 181
37.65708 167
37.67719 171
37.6973 171
37.71742 177
37.73753 168
37.75764 188
37.77776 191
37.79787 179
37.81798 199
37.8381 175
37.85821 177
37.87833 180
37.89844 194
37.91855 170
37.93867 182
37.95878 150
37.97889 175
37.99901 177
38.01912 178
38.03924 181
38.05935 169
38.07946 163
38.09958 178
38.11969 179
38.1398 200
38.15992 183
38.18003 196
38.20015 200
38.22026 180
38.24037 221
38.26049 204
38.2806 191
38.30071 190
38.32083 214
38.34094 175
38.36105 208
38.38117 219
38.40128 210
38.4214 199
38.44151 216
38.46162 192
38.48174 242
38.50185 209
38.52196 231
38.54208 206
38.56219 191
38.58231 197
38.60242 191
38.62253 209
38.64265 185
38.66276 182
38.68287 183
38.70299 166
38.7231 185
38.74321 166
38.76333 194
38.78344 173
38.80356 164
38.82367 171
38.84378 194
38.8639 193
38.88401 189
38.90412 188
38.92424 220
38.94435 201
38.96447 196
38.98458 199
39.00469 216
39.02481 198
39.04492 228
39.06503 216
39.08515 204
39.10526 240
39.12538 234
39.14549 282
39.1656 279
39.18572 308
39.20583 311
39.22594 351
39.24606 428
39.26617 441
39.28628 508
39.3064 655
39.32651 803
39.34663 1039
39.36674 1282
39.38685 1609
39.40697 2044
39.42708 2439
39.44719 2785
39.46731 2530
39.48742 1935
39.50754 1546
39.52765 1450
39.54776 1403
39.56788 1242
39.58799 870
39.6081 550
39.62822 362
39.64833 317
39.66845 290
39.68856 272
39.70867 244
39.72879 230
39.7489 243
39.76901 233
39.78913 239
39.80924 212
39.82935 209
39.84947 222
39.86958 215
39.8897 185
39.90981 197
39.92992 192
39.95004 216
39.97015 222
39.99026 217
40.01038 236
40.03049 250
40.05061 227
40.07072 280
40.09083 276
40.11095 340
40.13106 393
40.15117 493
40.17129 626
40.1914 743
40.21152 904
40.23163 1176
40.25174 1329
40.27186 1425
40.29197 1240
40.31208 1018
40.3322 826
40.35231 757
40.37242 763
40.39254 678
40.41265 525
40.43277 337
40.45288 268
40.47299 239
40.49311 209
40.51322 201
40.53333 193
40.55345 190
40.57356 185
40.59368 190
40.61379 176
40.6339 182
40.65402 174
40.67413 185
40.69424 176
40.71436 168
40.73447 183
40.75458 176
40.7747 171
40.79481 159
40.81493 174
40.83504 179
40.85515 180
40.87527 199
40.89538 192
40.91549 182
40.93561 191
40.95572 166
40.97584 175
40.99595 178
41.01606 195
41.03618 174
41.05629 201
41.0764 181
41.09652 166
41.11663 185
41.13675 168
41.15686 178
41.17697 203
41.19709 185
41.2172 196
41.23731 175
41.25743 158
41.27754 156
41.29765 194
41.31777 176
41.33788 177
41.358 185
41.37811 182
41.39822 154
41.41834 140
41.43845 181
41.45856 151
41.47868 162
41.49879 174
41.51891 165
41.53902 200
41.55913 165
41.57925 171
41.59936 168
41.61947 165
41.63959 168
41.6597 164
41.67982 180
41.69993 165
41.72004 176
41.74016 165
41.76027 174
41.78038 188
41.8005 167
41.82061 170
41.84072 182
41.86084 152
41.88095 169
41.90107 153
41.92118 170
41.94129 177
41.96141 173
41.98152 177
42.00163 172
42.02175 198
42.04186 157
42.06198 187
42.08209 176
42.1022 198
42.12232 226
42.14243 218
42.16254 225
42.18266 229
42.20277 257
42.22289 320
42.243 317
42.26311 413
42.28323 476
42.30334 586
42.32345 750
42.34357 972
42.36368 1126
42.38379 1515
42.40391 1787
42.42402 1924
42.44414 1917
42.46425 1524
42.48436 1252
42.50448 1106
42.52459 1054
42.5447 1020
42.56482 823
42.58493 573
42.60505 361
42.62516 313
42.64527 228
42.66539 221
42.6855 220
42.70561 190
42.72573 222
42.74584 203
42.76595 193
42.78607 180
42.80618 166
42.8263 162
42.84641 158
42.86652 171
42.88664 156
42.90675 181
42.92686 147
42.94698 141
42.96709 144
42.98721 147
43.00732 154
43.02743 157
43.04755 150
43.06766 163
43.08777 140
43.10789 159
43.128 146
43.14812 158
43.16823 157
43.18834 169
43.20846 140
43.22857 147
43.24868 155
43.2688 151
43.28891 176
43.30902 148
43.32914 170
43.34925 163
43.36937 159
43.38948 139
43.40959 152
43.42971 145
43.44982 130
43.46993 158
43.49005 173
43.51016 132
43.53028 149
43.55039 161
43.5705 163
43.59062 166
43.61073 136
43.63084 133
43.65096 158
43.67107 175
43.69119 160
43.7113 165
43.73141 149
43.75153 153
43.77164 148
43.79175 158
43.81187 168
43.83198 121
43.85209 182
43.87221 144
43.89232 166
43.91244 132
43.93255 144
43.95266 153
43.97278 145
43.99289 135
44.013 151
44.03312 145
44.05323 141
44.07335 159
44.09346 124
44.11357 148
44.13369 137
44.1538 149
44.17391 147
44.19403 148
44.21414 165
44.23426 134
44.25437 150
44.27448 143
44.2946 140
44.31471 147
44.33482 150
44.35494 136
44.37505 150
44.39516 157
44.41528 130
44.43539 146
44.45551 142
44.47562 147
44.49573 146
44.51585 138
44.53596 140
44.55607 164
44.57619 140
44.5963 147
44.61642 145
44.63653 142
44.65664 127
44.67676 148
44.69687 163
44.71698 159
44.7371 149
44.75721 149
44.77732 149
44.79744 154
44.81755 143
44.83767 140
44.85778 148
44.87789 148
44.89801 169
44.91812 141
44.93823 164
44.95835 152
44.97846 161
44.99858 152
45.01869 160
45.0388 155
45.05892 171
45.07903 150
45.09914 125
45.11926 145
45.13937 160
45.15949 156
45.1796 164
45.19971 146
45.21983 162
45.23994 155
45.26005 158
45.28017 163
45.30028 176
45.32039 154
45.34051 174
45.36062 178
45.38074 174
45.40085 171
45.42096 185
45.44108 199
45.46119 175
45.4813 202
45.50142 239
45.52153 201
45.54165 243
45.56176 283
45.58187 292
45.60199 283
45.6221 377
45.64221 404
45.66233 549
45.68244 685
45.70256 809
45.72267 950
45.74278 1091
45.7629 1214
45.78301 1243
45.80312 1098
45.82324 906
45.84335 742
45.86346 746
45.88358 739
45.90369 691
45.92381 548
45.94392 378
45.96403 270
45.98415 236
46.00426 229
46.02437 184
46.04449 190
46.0646 184
46.08472 155
46.10483 158
46.12494 169
46.14506 145
46.16517 161
46.18528 147
46.2054 177
46.22551 147
46.24563 149
46.26574 133
46.28585 148
46.30597 152
46.32608 133
46.34619 159
46.36631 140
46.38642 141
46.40653 128
46.42665 136
46.44676 155
46.46688 158
46.48699 135
46.5071 149
46.52722 130
46.54733 132
46.56744 137
46.58756 148
46.60767 146
46.62779 128
46.6479 134
46.66801 143
46.68813 138
46.70824 125
46.72835 131
46.74847 139
46.76858 120
46.78869 143
46.80881 143
46.82892 139
46.84904 115
46.86915 139
46.88926 143
46.90938 131
46.92949 141
46.9496 100
46.96972 152
46.98983 134
47.00995 125
47.03006 111
47.05017 149
47.07029 151
47.0904 132
47.11051 145
47.13063 141
47.15074 151
47.17086 157
47.19097 122
47.21108 136
47.2312 140
47.25131 161
47.27142 133
47.29154 105
47.31165 139
47.33176 141
47.35188 119
47.37199 174
47.39211 134
47.41222 158
47.43233 154
47.45245 139
47.47256 150
47.49267 134
47.51279 152
47.5329 140
47.55302 143
47.57313 142
47.59324 122
47.61336 143
47.63347 128
47.65358 149
47.6737 127
47.69381 146
47.71393 140
47.73404 142
47.75415 143
47.77427 130
47.79438 133
47.81449 138
47.83461 137
47.85472 135
47.87483 119
47.89495 141
47.91506 147
47.93518 130
47.95529 135
47.9754 145
47.99552 138
48.01563 126
48.03574 138
48.05586 138
48.07597 132
48.09609 124
48.1162 119
48.13631 141
48.15643 139
48.17654 153
48.19665 139
48.21677 138
48.23688 122
48.257 146
48.27711 143
48.29722 139
48.31734 130
48.33745 137
48.35756 126
48.37768 116
48.39779 121
48.4179 155
48.43802 136
48.45813 136
48.47825 127
48.49836 138
48.51847 146
48.53859 143
48.5587 146
48.57881 148
48.59893 144
48.61904 152
48.63916 156
48.65927 163
48.67938 143
48.6995 167
48.71961 140
48.73972 149
48.75984 134
48.77995 134
48.80006 151
48.82018 146
48.84029 142
48.86041 145
48.88052 150
48.90063 144
48.92075 156
48.94086 150
48.96097 159
48.98109 150
49.0012 146
49.02132 138
49.04143 138
49.06154 157
49.08166 150
49.10177 165
49.12188 164
49.142 170
49.16211 163
49.18223 173
49.20234 154
49.22245 166
49.24257 166
49.26268 157
49.28279 164
49.30291 177
49.32302 151
49.34313 146
49.36325 179
49.38336 189
49.40348 174
49.42359 169
49.4437 184
49.46382 168
49.48393 163
49.50404 190
49.52416 181
49.54427 166
49.56439 198
49.5845 210
49.60461 174
49.62473 189
49.64484 201
49.66495 233
49.68507 213
49.70518 251
49.7253 225
49.74541 253
49.76552 284
49.78564 312
49.80575 272
49.82586 348
49.84598 374
49.86609 416
49.8862 492
49.90632 551
49.92643 699
49.94655 841
49.96666 1006
49.98677 1234
50.00689 1550
50.027 2073
50.04711 2578
50.06723 3137
50.08734 3666
50.10746 4126
50.12757 4006
50.14768 3482
50.1678 2607
50.18791 2049
50.20802 2011
50.22814 2076
50.24825 2088
50.26837 1877
50.28848 1415
50.30859 877
50.32871 577
50.34882 430
50.36893 346
50.38905 303
50.40916 308
50.42927 293
50.44939 279
50.4695 266
50.48962 256
50.50973 290
50.52984 266
50.54996 254
50.57007 258
50.59018 245
50.6103 256
50.63041 238
50.65053 217
50.67064 205
50.69075 201
50.71087 201
50.73098 197
50.75109 208
50.77121 187
50.79132 191
50.81143 151
50.83155 166
50.85166 148
50.87178 152
50.89189 161
50.912 170
50.93212 189
50.95223 156
50.97234 128
50.99246 144
51.01257 139
51.03269 172
51.0528 153
51.07291 141
51.09303 156
51.11314 159
51.13325 130
51.15337 151
51.17348 160
51.1936 135
51.21371 141
51.23382 123
51.25394 129
51.27405 127
51.29416 117
51.31428 149
51.33439 146
51.3545 143
51.37462 139
51.39473 143
51.41485 132
51.43496 137
51.45507 152
51.47519 138
51.4953 128
51.51541 131
51.53553 155
51.55564 121
51.57576 112
51.59587 140
51.61598 134
51.6361 130
51.65621 131
51.67632 134
51.69644 124
51.71655 136
51.73667 142
51.75678 138
51.77689 141
51.79701 126
51.81712 117
51.83723 135
51.85735 116
51.87746 157
51.89757 132
51.91769 139
51.9378 142
51.95792 122
51.97803 139
51.99814 137
52.01826 137
52.03837 122
52.05848 155
52.0786 130
52.09871 151
52.11883 146
52.13894 125
52.15905 139
52.17917 129
52.19928 149
52.21939 121
52.23951 123
52.25962 122
52.27974 138
52.29985 150
52.31996 121
52.34008 116
52.36019 136
52.3803 141
52.40042 138
52.42053 135
52.44064 158
52.46076 123
52.48087 129
52.50099 130
52.5211 116
52.54121 145
52.56133 114
52.58144 133
52.60155 132
52.62167 116
52.64178 136
52.6619 109
52.68201 120
52.70212 124
52.72224 128
52.74235 128
52.76246 133
52.78258 161
52.80269 122
52.8228 128
52.84292 136
52.86303 106
52.88315 106
52.90326 120
52.92337 139
52.94349 128
52.9636 149
52.98371 122
53.00383 139
53.02394 136
53.04406 140
53.06417 143
53.08428 143
53.1044 137
53.12451 129
53.14462 122
53.16474 135
53.18485 129
53.20497 138
53.22508 145
53.24519 149
53.26531 144
53.28542 133
53.30553 133
53.32565 143
53.34576 154
53.36587 158
53.38599 167
53.4061 154
53.42622 139
53.44633 151
53.46644 157
53.48656 153
53.50667 165
53.52678 156
53.5469 159
53.56701 141
53.58713 151
53.60724 145
53.62735 161
53.64747 135
53.66758 148
53.68769 161
53.70781 153
53.72792 169
53.74804 142
53.76815 153
53.78826 161
53.80838 157
53.82849 129
53.8486 167
53.86872 159
53.88883 160
53.90894 161
53.92906 138
53.94917 150
53.96929 146
53.9894 150
54.00951 190
54.02963 150
54.04974 156
54.06985 176
54.08997 159
54.11008 184
54.1302 149
54.15031 156
54.17042 188
54.19054 187
54.21065 178
54.23076 168
54.25088 196
54.27099 170
54.29111 174
54.31122 178
54.33133 151
54.35145 173
54.37156 195
54.39167 202
54.41179 176
54.4319 193
54.45201 201
54.47213 192
54.49224 196
54.51236 206
54.53247 193
54.55258 228
54.5727 231
54.59281 241
54.61292 261
54.63304 267
54.65315 315
54.67327 387
54.69338 408
54.71349 427
54.73361 530
54.75372 688
54.77383 857
54.79395 1034
54.81406 1150
54.83417 1215
54.85429 1268
54.8744 1115
54.89452 920
54.91463 723
54.93474 698
54.95486 651
54.97497 715
54.99508 732
55.0152 618
55.03531 537
55.05543 395
55.07554 332
55.09565 286
55.11577 294
55.13588 282
55.15599 307
55.17611 350
55.19622 339
55.21634 395
55.23645 445
55.25656 552
55.27668 566
55.29679 622
55.3169 567
55.33702 504
55.35713 422
55.37724 417
55.39736 355
55.41747 382
55.43759 367
55.4577 380
55.47781 341
55.49793 275
55.51804 203
55.53815 194
55.55827 181
55.57838 168
55.5985 185
55.61861 159
55.63872 156
55.65884 164
55.67895 155
55.69906 168
55.71918 154
55.73929 156
55.75941 139
55.77952 154
55.79963 142
55.81975 168
55.83986 127
55.85997 140
55.88009 147
55.9002 143
55.92031 135
55.94043 143
55.96054 130
55.98066 132
56.00077 146
56.02088 143
56.041 142
56.06111 126
56.08122 147
56.10134 131
56.12145 144
56.14157 149
56.16168 145
56.18179 128
56.20191 142
56.22202 142
56.24213 140
56.26225 136
56.28236 121
56.30248 139
56.32259 131
56.3427 138
56.36282 147
56.38293 125
56.40304 156
56.42316 117
56.44327 121
56.46338 134
56.4835 141
56.50361 128
56.52373 133
56.54384 144
56.56395 138
56.58407 117
56.60418 138
56.62429 155
56.64441 138
56.66452 129
56.68464 141
56.70475 120
56.72486 127
56.74498 142
56.76509 141
56.7852 128
56.80532 122
56.82543 125
56.84554 131
56.86566 148
56.88577 156
56.90589 123
56.926 138
56.94611 143
56.96623 140
56.98634 121
57.00645 161
57.02657 163
57.04668 129
57.0668 147
57.08691 163
57.10702 179
57.12714 160
57.14725 182
57.16736 201
57.18748 169
57.20759 197
57.22771 167
57.24782 161
57.26793 149
57.28805 157
57.30816 160
57.32827 148
57.34839 191
57.3685 166
57.38861 134
57.40873 144
57.42884 135
57.44896 161
57.46907 124
57.48918 134
57.5093 127
57.52941 145
57.54952 133
57.56964 132
57.58975 160
57.60987 137
57.62998 133
57.65009 144
57.67021 131
57.69032 125
57.71043 132
57.73055 135
57.75066 143
57.77078 128
57.79089 136
57.811 137
57.83112 133
57.85123 140
57.87134 130
57.89146 122
57.91157 146
57.93168 135
57.9518 135
57.97191 126
57.99203 128
58.01214 117
58.03225 121
58.05237 136
58.07248 129
58.09259 120
58.11271 131
58.13282 124
58.15294 133
58.17305 142
58.19316 128
58.21328 124
58.23339 126
58.2535 132
58.27362 134
58.29373 137
58.31385 144
58.33396 118
58.35407 147
58.37419 124
58.3943 128
58.41441 104
58.43453 130
58.45464 125
58.47475 137
58.49487 148
58.51498 126
58.5351 107
58.55521 127
58.57532 114
58.59544 120
58.61555 123
58.63566 127
58.65578 118
58.67589 126
58.69601 137
58.71612 140
58.73623 151
58.75635 133
58.77646 142
58.79657 130
58.81669 131
58.8368 129
58.85691 132
58.87703 146
58.89714 112
58.91726 128
58.93737 125
58.95748 131
58.9776 146
58.99771 128
59.01782 140
59.03794 140
59.05805 141
59.07817 157
59.09828 130
59.11839 131
59.13851 131
59.15862 111
59.17873 130
59.19885 138
59.21896 139
59.23908 159
59.25919 150
59.2793 163
59.29942 149
59.31953 140
59.33964 151
59.35976 175
59.37987 165
59.39998 168
59.4201 156
59.44021 154
59.46033 146
59.48044 188
59.50055 202
59.52067 175
59.54078 216
59.56089 220
59.58101 228
59.60112 255
59.62124 258
59.64135 291
59.66146 311
59.68158 355
59.70169 426
59.7218 489
59.74192 576
59.76203 690
59.78215 803
59.80226 990
59.82237 1206
59.84249 1424
59.8626 1860
59.88271 2127
59.90283 2340
59.92294 2505
59.94305 2482
59.96317 2080
59.98328 1578
60.0034 1295
60.02351 1214
60.04362 1252
60.06374 1272
60.08385 1348
60.10396 1255
60.12408 1031
60.14419 781
60.16431 522
60.18442 390
60.20453 291
60.22465 274
60.24476 231
60.26487 228
60.28499 194
60.3051 198
60.32522 186
60.34533 183
60.36544 173
60.38556 175
60.40567 175
60.42578 164
60.4459 170
60.46601 145
60.48612 144
60.50624 169
60.52635 159
60.54647 148
60.56658 158
60.58669 144
60.60681 133
60.62692 133
60.64703 166
60.66715 127
60.68726 135
60.70738 150
60.72749 163
60.7476 130
60.76772 149
60.78783 122
60.80794 135
60.82806 124
60.84817 128
60.86828 136
60.8884 119
60.90851 143
60.92863 121
60.94874 137
60.96885 136
60.98897 122
61.00908 115
61.02919 137
61.04931 114
61.06942 130
61.08954 115
61.10965 99
61.12976 108
61.14988 136
61.16999 130
61.1901 127
61.21022 124
61.23033 127
61.25045 116
61.27056 112
61.29067 131
61.31079 116
61.3309 107
61.35101 139
61.37113 127
61.39124 122
61.41135 119
61.43147 135
61.45158 127
61.4717 112
61.49181 120
61.51192 133
61.53204 128
61.55215 121
61.57226 146
61.59238 122
61.61249 127
61.63261 143
61.65272 140
61.67283 137
61.69295 133
61.71306 122
61.73317 123
61.75329 134
61.7734 132
61.79352 139
61.81363 129
61.83374 140
61.85386 144
61.87397 124
61.89408 134
61.9142 138
61.93431 145
61.95442 111
61.97454 116
61.99465 154
62.01477 128
62.03488 136
62.05499 119
62.07511 148
62.09522 139
62.11533 159
62.13545 149
62.15556 144
62.17568 136
62.19579 170
62.2159 147
62.23602 155
62.25613 147
62.27624 169
62.29636 161
62.31647 137
62.33659 135
62.3567 156
62.37681 157
62.39693 163
62.41704 165
62.43715 169
62.45727 156
62.47738 146
62.49749 137
62.51761 140
62.53772 133
62.55784 153
62.57795 160
62.59806 134
62.61818 148
62.63829 126
62.6584 130
62.67852 141
62.69863 146
62.71875 134
62.73886 136
62.75897 131
62.77909 133
62.7992 129
62.81931 102
62.83943 143
62.85954 116
62.87965 113
62.89977 126
62.91988 120
62.94 132
62.96011 129
62.98022 136
63.00034 123
63.02045 101
63.04056 132
63.06068 140
63.08079 128
63.10091 121
63.12102 110
63.14113 137
63.16125 131
63.18136 127
63.20147 135
63.22159 146
63.2417 141
63.26182 137
63.28193 138
63.30204 93
63.32216 107
63.34227 136
63.36238 134
63.3825 131
63.40261 114
63.42272 121
63.44284 128
63.46295 140
63.48307 123
63.50318 129
63.52329 132
63.54341 139
63.56352 143
63.58363 158
63.60375 141
63.62386 133
63.64398 156
63.66409 146
63.6842 153
63.70432 153
63.72443 167
63.74454 178
63.76466 170
63.78477 158
63.80489 191
63.825 215
63.84511 234
63.86523 240
63.88534 295
63.90545 338
63.92557 401
63.94568 465
63.96579 538
63.98591 539
64.00602 532
64.02614 513
64.04625 476
64.06636 371
64.08648 346
64.10659 309
64.1267 320
64.14682 328
64.16693 367
64.18705 333
64.20716 313
64.22727 270
64.24739 218
64.2675 162
64.28761 150
64.30773 147
64.32784 124
64.34796 140
64.36807 143
64.38818 148
64.4083 148
64.42841 131
64.44852 115
64.46864 133
64.48875 148
64.50886 128
64.52898 150
64.54909 117
64.56921 114
64.58932 134
64.60943 121
64.62955 131
64.64966 118
64.66977 104
64.68989 137
64.71 123
64.73012 124
64.75023 135
64.77034 118
64.79046 137
64.81057 128
64.83068 130
64.8508 125
64.87091 124
64.89102 117
64.91114 112
64.93125 133
64.95137 108
64.97148 119
64.99159 119
65.01171 123
65.03182 140
65.05193 121
65.07205 125
65.09216 126
65.11228 112
65.13239 124
65.1525 139
65.17262 137
65.19273 131
65.21284 119
65.23296 118
65.25307 121
65.27319 112
65.2933 116
65.31341 124
65.33353 132
65.35364 141
65.37375 106
65.39387 115
65.41398 150
65.43409 124
65.45421 131
65.47432 115
65.49444 131
65.51455 154
65.53466 115
65.55478 124
65.57489 119
65.595 157
65.61512 169
65.63523 182
65.65535 185
65.67546 209
65.69557 214
65.71569 220
65.7358 241
65.75591 244
65.77603 213
65.79614 207
65.81626 184
65.83637 149
65.85648 158
65.8766 162
65.89671 192
65.91682 173
65.93694 164
65.95705 152
65.97716 142
65.99728 134
66.01739 134
66.03751 153
66.05762 144
66.07773 128
66.09785 142
66.11796 126
66.13807 156
66.15819 97
66.1783 115
66.19842 115
66.21853 130
66.23864 109
66.25876 122
66.27887 146
66.29898 124
66.3191 125
66.33921 148
66.35933 114
66.37944 112
66.39955 100
66.41967 120
66.43978 134
66.45989 133
66.48001 131
66.50012 125
66.52023 136
66.54035 138
66.56046 155
66.58058 137
66.60069 134
66.6208 130
66.64092 133
66.66103 121
66.68114 137
66.70126 115
66.72137 147
66.74149 135
66.7616 139
66.78171 124
66.80183 115
66.82194 135
66.84205 113
66.86217 152
66.88228 124
66.90239 127
66.92251 152
66.94262 145
66.96274 145
66.98285 157
67.00296 149
67.02308 124
67.04319 157
67.0633 161
67.08342 155
67.10353 154
67.12365 156
67.14376 156
67.16387 124
67.18399 167
67.2041 153
67.22421 162
67.24433 180
67.26444 145
67.28456 155
67.30467 189
67.32478 195
67.3449 224
67.36501 222
67.38512 235
67.40524 239
67.42535 260
67.44546 285
67.46558 310
67.48569 349
67.50581 335
67.52592 415
67.54603 498
67.56615 569
67.58626 609
67.60637 779
67.62649 921
67.6466 1166
67.66672 1231
67.68683 1324
67.70694 1436
67.72706 1451
67.74717 1313
67.76728 1022
67.7874 867
67.80751 804
67.82763 760
67.84774 874
67.86785 940
67.88797 985
67.90808 1024
67.92819 1068
67.94831 952
67.96842 954
67.98853 981
68.00865 1098
68.02876 1227
68.04888 1451
68.06899 1611
68.0891 1882
68.10922 1937
68.12933 1930
68.14944 1694
68.16956 1567
68.18967 1413
68.20979 1469
68.2299 1510
68.25001 1614
68.27013 1853
68.29024 1821
68.31035 1753
68.33047 1457
68.35058 1137
68.3707 828
68.39081 745
68.41092 712
68.43104 696
68.45115 661
68.47126 685
68.49138 636
68.51149 509
68.5316 396
68.55172 337
68.57183 277
68.59195 260
68.61206 245
68.63217 181
68.65229 196
68.6724 194
68.69251 195
68.71263 164
68.73274 156
68.75286 183
68.77297 165
68.79308 152
68.8132 148
68.83331 169
68.85342 152
68.87354 144
68.89365 140
68.91376 139
68.93388 134
68.95399 138
68.97411 140
68.99422 151
69.01433 136
69.03445 141
69.05456 133
69.07467 150
69.09479 129
69.1149 136
69.13502 125
69.15513 134
69.17524 117
69.19536 135
69.21547 130
69.23558 127
69.2557 143
69.27581 136
69.29593 128
69.31604 119
69.33615 130
69.35627 126
69.37638 133
69.39649 126
69.41661 99
69.43672 103
69.45683 119
69.47695 108
69.49706 122
69.51718 118
69.53729 122
69.5574 105
69.57752 126
69.59763 113
69.61774 104
69.63786 122
69.65797 113
69.67809 136
69.6982 128
69.71831 117
69.73843 119
69.75854 110
69.77865 114
69.79877 127
69.81888 126
69.839 122
69.85911 124
69.87922 114
69.89934 123
69.91945 122
69.93956 121
69.95968 137
69.97979 142
69.9999 134
70.02002 145
70.04013 128
70.06025 108
70.08036 123
70.10047 129
70.12059 129
70.1407 135
70.16081 132
70.18093 100
70.20104 106
70.22116 120
70.24127 97
70.26138 113
70.2815 109
70.30161 115
70.32172 129
70.34184 118
70.36195 125
70.38207 105
70.40218 95
70.42229 120
70.44241 112
70.46252 111
70.48263 123
70.50275 104
70.52286 117
70.54297 119
70.56309 116
70.5832 122
70.60332 114
70.62343 89
70.64354 120
70.66366 112
70.68377 116
70.70388 114
70.724 98
70.74411 108
70.76423 110
70.78434 126
70.80445 120
70.82457 98
70.84468 117
70.86479 132
70.88491 107
70.90502 111
70.92513 112
70.94525 102
70.96536 129
70.98548 120
71.00559 110
71.0257 113
71.04582 101
71.06593 119
71.08604 127
71.10616 108
71.12627 108
71.14639 125
71.1665 118
71.18661 99
71.20673 123
71.22684 113
71.24695 93
71.26707 106
71.28718 98
71.3073 111
71.32741 101
71.34752 95
71.36764 112
71.38775 116
71.40786 113
71.42798 106
71.44809 108
71.4682 105
71.48832 123
71.50843 107
71.52855 97
71.54866 103
71.56877 127
71.58889 125
71.609 127
71.62911 102
71.64923 115
71.66934 103
71.68946 128
71.70957 112
71.72968 103
71.7498 103
71.76991 117
71.79002 120
71.81014 116
71.83025 108
71.85037 132
71.87048 132
71.89059 110
71.91071 107
71.93082 102
71.95093 121
71.97105 110
71.99116 106
72.01127 114
72.03139 105
72.0515 126
72.07162 109
72.09173 121
72.11184 124
72.13196 131
72.15207 110
72.17218 112
72.1923 123
72.21241 129
72.23253 123
72.25264 111
72.27275 105
72.29287 118
72.31298 113
72.33309 109
72.35321 106
72.37332 139
72.39344 118
72.41355 107
72.43366 126
72.45378 101
72.47389 114
72.494 118
72.51412 104
72.53423 112
72.55434 122
72.57446 114
72.59457 112
72.61469 95
72.6348 109
72.65491 117
72.67503 113
72.69514 122
72.71525 102
72.73537 92
72.75548 103
72.7756 107
72.79571 125
72.81582 114
72.83594 112
72.85605 117
72.87616 135
72.89628 114
72.91639 95
72.9365 114
72.95662 123
72.97673 142
72.99685 132
73.01696 126
73.03707 127
73.05719 141
73.0773 136
73.09741 133
73.11753 150
73.13764 142
73.15776 155
73.17787 174
73.19798 175
73.2181 203
73.23821 199
73.25832 228
73.27844 236
73.29855 288
73.31867 292
73.33878 337
73.35889 385
73.37901 439
73.39912 513
73.41923 527
73.43935 592
73.45946 564
73.47957 489
73.49969 362
73.5198 295
73.53992 273
73.56003 262
73.58014 269
73.60026 319
73.62037 334
73.64048 320
73.6606 298
73.68071 284
73.70083 304
73.72094 206
73.74105 161
73.76117 149
73.78128 148
73.80139 141
73.82151 134
73.84162 119
73.86174 135
73.88185 119
73.90196 133
73.92208 116
73.94219 125
73.9623 112
73.98242 127
74.00253 120
74.02264 121
74.04276 110
74.06287 112
74.08299 128
74.1031 134
74.12321 120
74.14333 129
74.16344 123
74.18355 113
74.20367 94
74.22378 124
74.2439 131
74.26401 118
74.28412 113
74.30424 112
74.32435 105
74.34446 107
74.36458 107
74.38469 111
74.40481 113
74.42492 103
74.44503 113
74.46515 127
74.48526 127
74.50537 113
74.52549 114
74.5456 105
74.56571 105
74.58583 95
74.60594 100
74.62606 107
74.64617 105
74.66628 106
74.6864 121
74.70651 105
74.72662 121
74.74674 129
74.76685 103
74.78697 101
74.80708 125
74.82719 118
74.84731 112
74.86742 123
74.88753 108
74.90765 126
74.92776 141
74.94787 132
74.96799 137
74.9881 103
75.00822 131
