3.00117 18707
3.02128 17840
3.0414 17749
3.06151 17041
3.08162 16529
3.10174 16070
3.12185 15479
3.14197 15631
3.16208 14857
3.18219 14375
3.20231 14053
3.22242 13618
3.24253 13608
3.26265 12688
3.28276 12232
3.30288 12166
3.32299 11415
3.3431 11469
3.36322 10853
3.38333 10487
3.40344 10217
3.42356 9583
3.44367 9576
3.46379 9143
3.4839 8698
3.50401 8674
3.52413 8143
3.54424 7991
3.56435 7560
3.58447 7320
3.60458 6999
3.62469 6682
3.64481 6743
3.66492 6179
3.68504 6005
3.70515 5849
3.72526 5429
3.74538 5540
3.76549 5109
3.7856 4868
3.80572 4724
3.82583 4435
3.84595 4411
3.86606 4074
3.88617 4024
3.90629 3862
3.9264 3670
3.94651 3631
3.96663 3108
3.98674 3111
4.00686 3066
4.02697 2857
4.04708 2858
4.0672 2627
4.08731 2506
4.10742 2393
4.12754 2332
4.14765 2237
4.16776 2056
4.18788 1984
4.20799 1917
4.22811 1827
4.24822 1865
4.26833 1636
4.28845 1652
4.30856 1684
4.32867 1683
4.34879 1629
4.3689 1449
4.38902 1530
4.40913 1418
4.42924 1376
4.44936 1355
4.46947 1254
4.48958 1286
4.5097 1249
4.52981 1220
4.54992 1198
4.57004 1120
4.59015 1082
4.61027 1174
4.63038 1108
4.65049 1044
4.67061 1003
4.69072 1056
4.71083 987
4.73095 964
4.75106 924
4.77118 934
4.79129 896
4.8114 930
4.83152 826
4.85163 779
4.87174 789
4.89186 812
4.91197 773
4.93209 753
4.9522 700
4.97231 716
4.99243 660
5.01254 699
5.03265 662
5.05277 617
5.07288 648
5.09299 580
5.11311 595
5.13322 616
5.15334 549
5.17345 547
5.19356 520
5.21368 545
5.23379 530
5.2539 487
5.27402 494
5.29413 497
5.31425 494
5.33436 504
5.35447 444
5.37459 428
5.3947 409
5.41481 387
5.43493 441
5.45504 379
5.47516 405
5.49527 388
5.51538 427
5.5355 351
5.55561 360
5.57572 351
5.59584 385
5.61595 348
5.63606 310
5.65618 313
5.67629 356
5.69641 301
5.71652 317
5.73663 330
5.75675 295
5.77686 314
5.79697 279
5.81709 268
5.8372 289
5.85732 286
5.87743 265
5.89754 265
5.91766 253
5.93777 279
5.95788 282
5.978 282
5.99811 256
6.01823 234
6.03834 279
6.05845 238
6.07857 268
6.09868 258
6.11879 240
6.13891 264
6.15902 249
6.17913 214
6.19925 267
6.21936 250
6.23948 259
6.25959 241
6.2797 232
6.29982 244
6.31993 250
6.34004 204
6.36016 241
6.38027 231
6.40039 247
6.4205 241
6.44061 228
6.46073 242
6.48084 223
6.50095 225
6.52107 212
6.54118 215
6.56129 251
6.58141 214
6.60152 262
6.62164 208
6.64175 213
6.66186 211
6.68198 215
6.70209 221
6.7222 221
6.74232 238
6.76243 194
6.78255 219
6.80266 239
6.82277 218
6.84289 209
6.863 229
6.88311 232
6.90323 227
6.92334 205
6.94346 187
6.96357 193
6.98368 205
7.0038 227
7.02391 233
7.04402 210
7.06414 222
7.08425 232
7.10436 214
7.12448 218
7.14459 197
7.16471 192
7.18482 198
7.20493 195
7.22505 223
7.24516 222
7.26527 231
7.28539 212
7.3055 174
7.32562 225
7.34573 222
7.36584 220
7.38596 243
7.40607 239
7.42618 224
7.4463 230
7.46641 206
7.48653 233
7.50664 204
7.52675 237
7.54687 244
7.56698 204
7.58709 272
7.60721 215
7.62732 218
7.64743 205
7.66755 227
7.68766 208
7.70778 245
7.72789 217
7.748 224
7.76812 226
7.78823 233
7.80834 208
7.82846 233
7.84857 221
7.86869 245
7.8888 220
7.90891 234
7.92903 223
7.94914 235
7.96925 247
7.98937 255
8.00948 236
8.0296 268
8.04971 207
8.06982 238
8.08994 222
8.11005 234
8.13016 254
8.15028 212
8.17039 220
8.1905 248
8.21062 236
8.23073 230
8.25085 214
8.27096 202
8.29107 213
8.31119 244
8.3313 214
8.35141 254
8.37153 250
8.39164 236
8.41176 254
8.43187 223
8.45198 221
8.4721 231
8.49221 235
8.51232 265
8.53244 265
8.55255 249
8.57266 269
8.59278 245
8.61289 231
8.63301 266
8.65312 238
8.67323 249
8.69335 252
8.71346 250
8.73357 226
8.75369 236
8.7738 217
8.79392 276
8.81403 241
8.83414 242
8.85426 210
8.87437 257
8.89448 249
8.9146 232
8.93471 230
8.95483 248
8.97494 231
8.99505 271
9.01517 272
9.03528 246
9.05539 220
9.07551 236
9.09562 268
9.11573 266
9.13585 219
9.15596 242
9.17608 238
9.19619 251
9.2163 242
9.23642 268
9.25653 207
9.27664 256
9.29676 230
9.31687 217
9.33699 253
9.3571 232
9.37721 246
9.39733 236
9.41744 236
9.43755 245
9.45767 257
9.47778 213
9.4979 242
9.51801 239
9.53812 230
9.55824 255
9.57835 256
9.59846 226
9.61858 248
9.63869 218
9.6588 273
9.67892 260
9.69903 236
9.71915 244
9.73926 242
9.75937 245
9.77949 239
9.7996 237
9.81971 218
9.83983 244
9.85994 249
9.88006 229
9.90017 259
9.92028 243
9.9404 260
9.96051 244
9.98062 258
10.00074 249
10.02085 258
10.04097 251
10.06108 202
10.08119 222
10.10131 271
10.12142 258
10.14153 250
10.16165 234
10.18176 276
10.20187 227
10.22199 249
10.2421 265
10.26222 267
10.28233 250
10.30244 244
10.32256 274
10.34267 229
10.36278 259
10.3829 263
10.40301 234
10.42313 238
10.44324 223
10.46335 273
10.48347 245
10.50358 253
10.52369 239
10.54381 212
10.56392 252
10.58403 259
10.60415 291
10.62426 250
10.64438 248
10.66449 254
10.6846 242
10.70472 249
10.72483 242
10.74494 285
10.76506 267
10.78517 220
10.80529 289
10.8254 245
10.84551 225
10.86563 212
10.88574 270
10.90585 249
10.92597 259
10.94608 228
10.9662 204
10.98631 230
11.00642 212
11.02654 237
11.04665 247
11.06676 259
11.08688 262
11.10699 257
11.1271 260
11.14722 256
11.16733 269
11.18745 239
11.20756 244
11.22767 235
11.24779 249
11.2679 266
11.28801 246
11.30813 213
11.32824 222
11.34836 256
11.36847 241
11.38858 229
11.4087 255
11.42881 242
11.44892 280
11.46904 253
11.48915 269
11.50927 248
11.52938 250
11.54949 235
11.56961 241
11.58972 215
11.60983 240
11.62995 256
11.65006 257
11.67017 240
11.69029 242
11.7104 254
11.73052 288
11.75063 271
11.77074 268
11.79086 265
11.81097 259
11.83108 249
11.8512 280
11.87131 289
11.89143 253
11.91154 274
11.93165 292
11.95177 314
11.97188 297
11.99199 298
12.01211 317
12.03222 308
12.05234 314
12.07245 322
12.09256 358
12.11268 322
12.13279 322
12.1529 370
12.17302 394
12.19313 408
12.21324 398
12.23336 476
12.25347 487
12.27359 459
12.2937 509
12.31381 525
12.33393 581
12.35404 603
12.37415 564
12.39427 493
12.41438 476
12.4345 454
12.45461 427
12.47472 348
12.49484 306
12.51495 371
12.53506 335
12.55518 335
12.57529 305
12.5954 281
12.61552 271
12.63563 282
12.65575 286
12.67586 243
12.69597 252
12.71609 250
12.7362 266
12.75631 233
12.77643 273
12.79654 235
12.81666 250
12.83677 239
12.85688 268
12.877 237
12.89711 254
12.91722 256
12.93734 226
12.95745 250
12.97757 202
12.99768 221
13.01779 212
13.03791 225
13.05802 220
13.07813 203
13.09825 211
13.11836 216
13.13847 237
13.15859 249
13.1787 230
13.19882 212
13.21893 226
13.23904 206
13.25916 237
13.27927 203
13.29938 214
13.3195 218
13.33961 240
13.35973 227
13.37984 203
13.39995 203
13.42007 231
13.44018 215
13.46029 223
13.48041 234
13.50052 239
13.52064 238
13.54075 230
13.56086 217
13.58098 230
13.60109 229
13.6212 224
13.64132 227
13.66143 219
13.68154 225
13.70166 250
13.72177 227
13.74189 199
13.762 208
13.78211 219
13.80223 223
13.82234 223
13.84245 232
13.86257 236
13.88268 218
13.9028 211
13.92291 241
13.94302 184
13.96314 237
13.98325 209
14.00336 199
14.02348 242
14.04359 198
14.06371 220
14.08382 211
14.10393 192
14.12405 209
14.14416 233
14.16427 224
14.18439 260
14.2045 214
14.22461 226
14.24473 194
14.26484 225
14.28496 204
14.30507 182
14.32518 261
14.3453 224
14.36541 212
14.38552 197
14.40564 205
14.42575 194
14.44587 213
14.46598 211
14.48609 202
14.50621 206
14.52632 196
14.54643 215
14.56655 205
14.58666 201
14.60677 227
14.62689 209
14.647 200
14.66712 202
14.68723 189
14.70734 216
14.72746 171
14.74757 204
14.76768 206
14.7878 189
14.80791 225
14.82803 196
14.84814 211
14.86825 202
14.88837 204
14.90848 187
14.92859 201
14.94871 200
14.96882 155
14.98894 232
15.00905 206
15.02916 190
15.04928 219
15.06939 243
15.0895 220
15.10962 191
15.12973 215
15.14984 210
15.16996 202
15.19007 223
15.21019 180
15.2303 190
15.25041 206
15.27053 209
15.29064 212
15.31075 214
15.33087 214
15.35098 217
15.3711 197
15.39121 197
15.41132 208
15.43144 192
15.45155 202
15.47166 185
15.49178 192
15.51189 206
15.53201 188
15.55212 204
15.57223 194
15.59235 189
15.61246 206
15.63257 183
15.65269 201
15.6728 207
15.69291 213
15.71303 178
15.73314 188
15.75326 209
15.77337 192
15.79348 210
15.8136 202
15.83371 223
15.85382 194
15.87394 185
15.89405 189
15.91417 199
15.93428 201
15.95439 192
15.97451 211
15.99462 190
16.01473 183
16.03485 220
16.05496 213
16.07508 178
16.09519 204
16.1153 186
16.13542 178
16.15553 193
16.17564 186
16.19576 176
16.21587 166
16.23598 198
16.2561 159
16.27621 177
16.29633 212
16.31644 193
16.33655 186
16.35667 188
16.37678 216
16.39689 188
16.41701 161
16.43712 181
16.45724 215
16.47735 185
16.49746 188
16.51758 176
16.53769 201
16.5578 173
16.57792 178
16.59803 171
16.61814 166
16.63826 182
16.65837 181
16.67849 211
16.6986 236
16.71871 200
16.73883 191
16.75894 182
16.77905 170
16.79917 202
16.81928 200
16.8394 159
16.85951 165
16.87962 188
16.89974 181
16.91985 196
16.93996 190
16.96008 174
16.98019 205
17.00031 158
17.02042 196
17.04053 192
17.06065 185
17.08076 219
17.10087 191
17.12099 179
17.1411 193
17.16121 214
17.18133 190
17.20144 164
17.22156 199
17.24167 180
17.26178 208
17.2819 215
17.30201 174
17.32212 225
17.34224 207
17.36235 204
17.38247 188
17.40258 187
17.42269 182
17.44281 202
17.46292 181
17.48303 221
17.50315 225
17.52326 200
17.54338 233
17.56349 182
17.5836 182
17.60372 187
17.62383 185
17.64394 215
17.66406 194
17.68417 191
17.70428 206
17.7244 188
17.74451 180
17.76463 209
17.78474 223
17.80485 181
17.82497 184
17.84508 234
17.86519 187
17.88531 212
17.90542 207
17.92554 177
17.94565 204
17.96576 193
17.98588 236
18.00599 195
18.0261 203
18.04622 170
18.06633 209
18.08645 183
18.10656 214
18.12667 175
18.14679 186
18.1669 185
18.18701 191
18.20713 197
18.22724 205
18.24735 194
18.26747 174
18.28758 209
18.3077 182
18.32781 197
18.34792 190
18.36804 194
18.38815 187
18.40826 191
18.42838 199
18.44849 211
18.46861 167
18.48872 159
18.50883 166
18.52895 208
18.54906 184
18.56917 197
18.58929 208
18.6094 198
18.62951 178
18.64963 218
18.66974 211
18.68986 194
18.70997 199
18.73008 190
18.7502 218
18.77031 199
18.79042 207
18.81054 214
18.83065 217
18.85077 204
18.87088 152
18.89099 233
18.91111 195
18.93122 200
18.95133 198
18.97145 219
18.99156 201
19.01168 220
19.03179 192
19.0519 190
19.07202 162
19.09213 195
19.11224 178
19.13236 189
19.15247 186
19.17258 184
19.1927 221
19.21281 204
19.23293 173
19.25304 167
19.27315 169
19.29327 191
19.31338 224
19.33349 224
19.35361 197
19.37372 206
19.39384 182
19.41395 196
19.43406 186
19.45418 255
19.47429 203
19.4944 199
19.51452 200
19.53463 193
19.55475 202
19.57486 237
19.59497 208
19.61509 225
19.6352 234
19.65531 249
19.67543 248
19.69554 287
19.71565 276
19.73577 295
19.75588 351
19.776 355
19.79611 344
19.81622 370
19.83634 420
19.85645 429
19.87656 452
19.89668 417
19.91679 453
19.93691 468
19.95702 465
19.97713 382
19.99725 405
20.01736 400
20.03747 410
20.05759 347
20.0777 355
20.09782 354
20.11793 396
20.13804 390
20.15816 348
20.17827 435
20.19838 344
20.2185 372
20.23861 388
20.25872 394
20.27884 434
20.29895 371
20.31907 413
20.33918 408
20.35929 423
20.37941 433
20.39952 432
20.41963 432
20.43975 425
20.45986 422
20.47998 438
20.50009 463
20.5202 457
20.54032 515
20.56043 510
20.58054 518
20.60066 555
20.62077 602
20.64088 649
20.661 743
20.68111 973
20.70123 1386
20.72134 1838
20.74145 2559
20.76157 3788
20.78168 4889
20.80179 6572
20.82191 7516
20.84202 7917
20.86214 7272
20.88225 5618
20.90236 4015
20.92248 2609
20.94259 1487
20.9627 941
20.98282 702
21.00293 615
21.02305 591
21.04316 530
21.06327 547
21.08339 524
21.1035 479
21.12361 448
21.14373 457
21.16384 434
21.18395 422
21.20407 396
21.22418 404
21.2443 369
21.26441 405
21.28452 410
21.30464 338
21.32475 384
21.34486 388
21.36498 368
21.38509 357
21.40521 406
21.42532 362
21.44543 339
21.46555 360
21.48566 365
21.50577 346
21.52589 312
21.546 326
21.56612 320
21.58623 327
21.60634 327
21.62646 322
21.64657 343
21.66668 318
21.6868 340
21.70691 306
21.72702 336
21.74714 300
21.76725 297
21.78737 282
21.80748 309
21.82759 318
21.84771 316
21.86782 303
21.88793 284
21.90805 321
21.92816 294
21.94828 329
21.96839 276
21.9885 291
22.00862 269
22.02873 337
22.04884 261
22.06896 289
22.08907 290
22.10919 292
22.1293 290
22.14941 255
22.16953 250
22.18964 274
22.20975 263
22.22987 291
22.24998 273
22.27009 309
22.29021 274
22.31032 286
22.33044 322
22.35055 297
22.37066 264
22.39078 279
22.41089 295
22.431 276
22.45112 278
22.47123 249
22.49135 272
22.51146 238
22.53157 272
22.55169 287
22.5718 247
22.59191 278
22.61203 273
22.63214 265
22.65225 247
22.67237 255
22.69248 220
22.7126 259
22.73271 286
22.75282 249
22.77294 267
22.79305 250
22.81316 262
22.83328 258
22.85339 261
22.87351 255
22.89362 261
22.91373 260
22.93385 271
22.95396 246
22.97407 263
22.99419 302
23.0143 227
23.03442 270
23.05453 302
23.07464 242
23.09476 270
23.11487 268
23.13498 255
23.1551 279
23.17521 279
23.19532 265
23.21544 291
23.23555 278
23.25567 268
23.27578 314
23.29589 271
23.31601 249
23.33612 237
23.35623 250
23.37635 215
23.39646 264
23.41658 230
23.43669 269
23.4568 237
23.47692 231
23.49703 233
23.51714 245
23.53726 255
23.55737 254
23.57749 296
23.5976 250
23.61771 250
23.63783 243
23.65794 300
23.67805 235
23.69817 263
23.71828 253
23.73839 266
23.75851 278
23.77862 247
23.79874 267
23.81885 266
23.83896 267
23.85908 289
23.87919 274
23.8993 319
23.91942 292
23.93953 294
23.95965 303
23.97976 332
23.99987 321
24.01999 331
24.0401 329
24.06021 297
24.08033 257
24.10044 266
24.12056 245
24.14067 269
24.16078 275
24.1809 285
24.20101 265
24.22112 248
24.24124 285
24.26135 278
24.28146 275
24.30158 268
24.32169 264
24.34181 261
24.36192 293
24.38203 247
24.40215 257
24.42226 283
24.44237 289
24.46249 253
24.4826 259
24.50272 268
24.52283 275
24.54294 282
24.56306 300
24.58317 295
24.60328 303
24.6234 334
24.64351 355
24.66362 335
24.68374 338
24.70385 345
24.72397 343
24.74408 401
24.76419 420
24.78431 437
24.80442 452
24.82453 493
24.84465 462
24.86476 454
24.88488 502
24.90499 464
24.9251 440
24.94522 445
24.96533 430
24.98544 365
25.00556 397
25.02567 360
25.04579 330
25.0659 335
25.08601 335
25.10613 332
25.12624 338
25.14635 304
25.16647 334
25.18658 361
25.20669 343
25.22681 362
25.24692 363
25.26704 383
25.28715 344
25.30726 343
25.32738 343
25.34749 320
25.3676 359
25.38772 310
25.40783 311
25.42795 319
25.44806 272
25.46817 318
25.48829 303
25.5084 304
25.52851 294
25.54863 323
25.56874 324
25.58886 338
25.60897 322
25.62908 327
25.6492 370
25.66931 373
25.68942 400
25.70954 398
25.72965 434
25.74976 445
25.76988 402
25.78999 438
25.81011 429
25.83022 415
25.85033 443
25.87045 423
25.89056 441
25.91067 422
25.93079 489
25.9509 471
25.97102 444
25.99113 470
26.01124 447
26.03136 492
26.05147 444
26.07158 504
26.0917 575
26.11181 519
26.13193 591
26.15204 643
26.17215 697
26.19227 701
26.21238 811
26.23249 872
26.25261 844
26.27272 965
26.29283 959
26.31295 1043
26.33306 1189
26.35318 1327
26.37329 1613
26.3934 1831
26.41352 2316
26.43363 2943
26.45374 4098
26.47386 5982
26.49397 8253
26.51409 11903
26.5342 16601
26.55431 22110
26.57443 28739
26.59454 33649
26.61465 34887
26.63477 32155
26.65488 25706
26.67499 19551
26.69511 14633
26.71522 9646
26.73534 5474
26.75545 3017
26.77556 2022
26.79568 1604
26.81579 1389
26.8359 1231
26.85602 1181
26.87613 1093
26.89625 1002
26.91636 933
26.93647 910
26.95659 810
26.9767 783
26.99681 710
27.01693 611
27.03704 595
27.05716 568
27.07727 562
27.09738 467
27.1175 475
27.13761 468
27.15772 481
27.17784 444
27.19795 399
27.21806 438
27.23818 423
27.25829 407
27.27841 427
27.29852 443
27.31863 442
27.33875 420
27.35886 443
27.37897 450
27.39909 434
27.4192 485
27.43932 474
27.45943 436
27.47954 451
27.49966 379
27.51977 396
27.53988 375
27.56 385
27.58011 343
27.60023 341
27.62034 356
27.64045 304
27.66057 322
27.68068 357
27.70079 358
27.72091 354
27.74102 330
27.76113 331
27.78125 317
27.80136 322
27.82148 304
27.84159 307
27.8617 351
27.88182 305
27.90193 316
27.92204 306
27.94216 325
27.96227 325
27.98239 323
28.0025 304
28.02261 291
28.04273 315
28.06284 278
28.08295 295
28.10307 308
28.12318 275
28.1433 298
28.16341 273
28.18352 281
28.20364 285
28.22375 262
28.24386 286
28.26398 290
28.28409 278
28.3042 281
28.32432 283
28.34443 272
28.36455 266
28.38466 291
28.40477 247
28.42489 259
28.445 238
28.46511 271
28.48523 298
28.50534 301
28.52546 258
28.54557 262
28.56568 251
28.5858 246
28.60591 238
28.62602 286
28.64614 251
28.66625 257
28.68636 256
28.70648 250
28.72659 279
28.74671 302
28.76682 260
28.78693 283
28.80705 267
28.82716 281
28.84727 248
28.86739 255
28.8875 242
28.90762 295
28.92773 259
28.94784 248
28.96796 251
28.98807 253
29.00818 257
29.0283 223
29.04841 218
29.06853 234
29.08864 231
29.10875 249
29.12887 254
29.14898 213
29.16909 246
29.18921 245
29.20932 226
29.22943 229
29.24955 221
29.26966 230
29.28978 256
29.30989 233
29.33 224
29.35012 255
29.37023 259
29.39034 250
29.41046 277
29.43057 241
29.45069 239
29.4708 273
29.49091 244
29.51103 220
29.53114 260
29.55125 265
29.57137 217
29.59148 233
29.6116 232
29.63171 225
29.65182 225
29.67194 260
29.69205 250
29.71216 219
29.73228 217
29.75239 224
29.7725 209
29.79262 233
29.81273 239
29.83285 253
29.85296 247
29.87307 239
29.89319 230
29.9133 247
29.93341 250
29.95353 259
29.97364 228
29.99376 237
30.01387 238
30.03398 224
30.0541 223
30.07421 258
30.09432 249
30.11444 231
30.13455 244
30.15467 245
30.17478 253
30.19489 246
30.21501 272
30.23512 208
30.25523 219
30.27535 253
30.29546 235
30.31557 215
30.33569 238
30.3558 211
30.37592 206
30.39603 223
30.41614 209
30.43626 211
30.45637 224
30.47648 237
30.4966 210
30.51671 263
30.53683 252
30.55694 242
30.57705 215
30.59717 248
30.61728 217
30.63739 227
30.65751 237
30.67762 256
30.69773 221
30.71785 245
30.73796 249
30.75808 237
30.77819 236
30.7983 257
30.81842 216
30.83853 217
30.85864 225
30.87876 237
30.89887 256
30.91899 213
30.9391 213
30.95921 197
30.97933 207
30.99944 215
31.01955 204
31.03967 202
31.05978 238
31.0799 198
31.10001 206
31.12012 218
31.14024 215
31.16035 229
31.18046 192
31.20058 206
31.22069 213
31.2408 228
31.26092 183
31.28103 204
31.30115 197
31.32126 205
31.34137 246
31.36149 207
31.3816 197
31.40171 210
31.42183 207
31.44194 219
31.46206 204
31.48217 208
31.50228 205
31.5224 206
31.54251 188
31.56262 236
31.58274 191
31.60285 187
31.62297 216
31.64308 201
31.66319 184
31.68331 235
31.70342 167
31.72353 192
31.74365 214
31.76376 211
31.78387 214
31.80399 193
31.8241 186
31.84422 196
31.86433 205
31.88444 194
31.90456 189
31.92467 223
31.94478 205
31.9649 193
31.98501 200
32.00513 190
32.02524 205
32.04535 207
32.06547 212
32.08558 209
32.10569 210
32.12581 215
32.14592 205
32.16604 204
32.18615 219
32.20626 205
32.22638 208
32.24649 192
32.2666 202
32.28672 187
32.30683 201
32.32694 199
32.34706 200
32.36717 218
32.38729 176
32.4074 193
32.42751 203
32.44763 205
32.46774 201
32.48785 224
32.50797 206
32.52808 209
32.5482 203
32.56831 213
32.58842 191
32.60854 200
32.62865 218
32.64876 188
32.66888 230
32.68899 184
32.7091 221
32.72922 224
32.74933 225
32.76945 199
32.78956 224
32.80967 239
32.82979 219
32.8499 216
32.87001 215
32.89013 195
32.91024 247
32.93036 215
32.95047 231
32.97058 228
32.9907 228
33.01081 226
33.03092 259
33.05104 227
33.07115 216
33.09127 258
33.11138 244
33.13149 225
33.15161 251
33.17172 250
33.19183 257
33.21195 216
33.23206 229
33.25217 230
33.27229 214
33.2924 220
33.31252 221
33.33263 236
33.35274 235
33.37286 202
33.39297 221
33.41308 205
33.4332 194
33.45331 229
33.47343 244
33.49354 208
33.51365 214
33.53377 194
33.55388 223
33.57399 229
33.59411 205
33.61422 214
33.63434 175
33.65445 189
33.67456 177
33.69468 200
33.71479 190
33.7349 188
33.75502 181
33.77513 185
33.79524 170
33.81536 206
33.83547 189
33.85559 201
33.8757 208
33.89581 214
33.91593 186
33.93604 168
33.95615 214
33.97627 204
33.99638 201
34.0165 195
34.03661 184
34.05672 220
34.07684 202
34.09695 186
34.11706 177
34.13718 171
34.15729 203
34.17741 185
34.19752 203
34.21763 182
34.23775 165
34.25786 195
34.27797 178
34.29809 194
34.3182 210
34.33831 203
34.35843 190
34.37854 192
34.39866 185
34.41877 191
34.43888 201
34.459 190
34.47911 190
34.49922 214
34.51934 214
34.53945 196
34.55957 212
34.57968 213
34.59979 231
34.61991 194
34.64002 205
34.66013 223
34.68025 216
34.70036 222
34.72047 243
34.74059 249
34.7607 240
34.78082 269
34.80093 245
34.82104 265
34.84116 271
34.86127 289
34.88138 288
34.9015 303
34.92161 321
34.94173 280
34.96184 276
34.98195 295
35.00207 274
35.02218 266
35.04229 299
35.06241 288
35.08252 268
35.10264 283
35.12275 265
35.14286 241
35.16298 247
35.18309 243
35.2032 256
35.22332 275
35.24343 251
35.26354 265
35.28366 259
35.30377 296
35.32389 278
35.344 303
35.36411 296
35.38423 286
35.40434 265
35.42445 291
35.44457 306
35.46468 290
35.4848 285
35.50491 355
35.52502 307
35.54514 254
35.56525 323
35.58536 325
35.60548 314
35.62559 303
35.64571 319
35.66582 340
35.68593 309
35.70605 358
35.72616 323
35.74627 292
35.76639 334
35.7865 319
35.80661 334
35.82673 320
35.84684 313
35.86696 328
35.88707 315
35.90718 360
35.9273 331
35.94741 331
35.96752 344
35.98764 331
36.00775 304
36.02787 329
36.04798 273
36.06809 318
36.08821 310
36.10832 287
36.12843 308
36.14855 307
36.16866 268
36.18878 300
36.20889 344
36.229 288
36.24912 309
36.26923 366
36.28934 383
36.30946 424
36.32957 454
36.34968 616
36.3698 704
36.38991 858
36.41003 1057
36.43014 1460
36.45025 1696
36.47037 2167
36.49048 2446
36.51059 2463
36.53071 2278
36.55082 1824
36.57094 1646
36.59105 1391
36.61116 1225
36.63128 944
36.65139 668
36.6715 494
36.69162 392
36.71173 336
36.73184 329
36.75196 303
36.77207 247
36.79219 293
36.8123 275
36.83241 286
36.85253 278
36.87264 280
36.89275 235
36.91287 244
36.93298 255
36.9531 258
36.97321 209
36.99332 220
37.01344 259
37.03355 234
37.05366 246
37.07378 225
37.09389 216
37.11401 221
37.13412 236
37.15423 219
37.17435 249
37.19446 230
37.21457 228
37.23469 225
37.2548 237
37.27491 219
37.29503 200
37.31514 208
37.33526 232
37.35537 247
37.37548 209
37.3956 207
37.41571 249
37.43582 203
37.45594 221
37.47605 219
37.49617 234
37.51628 223
37.53639 228
37.55651 205
37.57662 236
37.59673 244
37.61685 234
37.63696 258
37.65708 268
37.67719 251
37.6973 292
37.71742 252
37.73753 266
37.75764 261
37.77776 248
37.79787 253
37.81798 255
37.8381 265
37.85821 227
37.87833 239
37.89844 226
37.91855 276
37.93867 259
37.95878 235
37.97889 216
37.99901 224
38.01912 220
38.03924 241
38.05935 232
38.07946 232
38.09958 244
38.11969 247
38.1398 264
38.15992 258
38.18003 263
38.20015 271
38.22026 293
38.24037 274
38.26049 288
38.2806 311
38.30071 299
38.32083 311
38.34094 321
38.36105 311
38.38117 318
38.40128 315
38.4214 326
38.44151 302
38.46162 315
38.48174 319
38.50185 318
38.52196 295
38.54208 315
38.56219 249
38.58231 259
38.60242 282
38.62253 275
38.64265 268
38.66276 269
38.68287 231
38.70299 261
38.7231 250
38.74321 262
38.76333 266
38.78344 236
38.80356 255
38.82367 246
38.84378 226
38.8639 248
38.88401 252
38.90412 271
38.92424 255
38.94435 233
38.96447 254
38.98458 294
39.00469 281
39.02481 273
39.04492 315
39.06503 288
39.08515 332
39.10526 289
39.12538 316
39.14549 305
39.1656 358
39.18572 352
39.20583 360
39.22594 448
39.24606 516
39.26617 577
39.28628 659
39.3064 851
39.32651 1030
39.34663 1284
39.36674 1601
39.38685 1857
39.40697 2136
39.42708 2197
39.44719 2188
39.46731 1837
39.48742 1536
39.50754 1211
39.52765 1251
39.54776 1119
39.56788 840
39.58799 597
39.6081 415
39.62822 346
39.64833 273
39.66845 294
39.68856 273
39.70867 255
39.72879 268
39.7489 243
39.76901 236
39.78913 249
39.80924 259
39.82935 250
39.84947 232
39.86958 234
39.8897 252
39.90981 212
39.92992 231
39.95004 282
39.97015 264
39.99026 279
40.01038 271
40.03049 300
40.05061 295
40.07072 372
40.09083 395
40.11095 433
40.13106 532
40.15117 603
40.17129 751
40.1914 887
40.21152 1044
40.23163 1163
40.25174 1220
40.27186 1090
40.29197 1000
40.31208 808
40.3322 803
40.35231 631
40.37242 619
40.39254 523
40.41265 371
40.43277 337
40.45288 273
40.47299 239
40.49311 243
40.51322 242
40.53333 250
40.55345 253
40.57356 233
40.59368 221
40.61379 204
40.6339 263
40.65402 224
40.67413 212
40.69424 185
40.71436 236
40.73447 205
40.75458 234
40.7747 220
40.79481 225
40.81493 223
40.83504 226
40.85515 242
40.87527 223
40.89538 194
40.91549 232
40.93561 225
40.95572 204
40.97584 259
40.99595 216
41.01606 224
41.03618 222
41.05629 239
41.0764 226
41.09652 229
41.11663 235
41.13675 234
41.15686 238
41.17697 232
41.19709 213
41.2172 227
41.23731 223
41.25743 221
41.27754 210
41.29765 237
41.31777 221
41.33788 258
41.358 235
41.37811 224
41.39822 229
41.41834 231
41.43845 215
41.45856 190
41.47868 223
41.49879 199
41.51891 212
41.53902 204
41.55913 208
41.57925 186
41.59936 193
41.61947 209
41.63959 199
41.6597 217
41.67982 219
41.69993 226
41.72004 213
41.74016 215
41.76027 222
41.78038 195
41.8005 183
41.82061 214
41.84072 235
41.86084 216
41.88095 202
41.90107 188
41.92118 191
41.94129 196
41.96141 205
41.98152 197
42.00163 215
42.02175 231
42.04186 199
42.06198 226
42.08209 220
42.1022 252
42.12232 268
42.14243 269
42.16254 315
42.18266 306
42.20277 337
42.22289 378
42.243 439
42.26311 537
42.28323 646
42.30334 716
42.32345 956
42.34357 1219
42.36368 1351
42.38379 1492
42.40391 1649
42.42402 1606
42.44414 1431
42.46425 1236
42.48436 1000
42.50448 960
42.52459 864
42.5447 730
42.56482 634
42.58493 384
42.60505 311
42.62516 255
42.64527 253
42.66539 263
42.6855 243
42.70561 220
42.72573 226
42.74584 219
42.76595 212
42.78607 201
42.80618 212
42.8263 187
42.84641 192
42.86652 198
42.88664 201
42.90675 173
42.92686 209
42.94698 186
42.96709 165
42.98721 179
43.00732 196
43.02743 186
43.04755 183
43.06766 188
43.08777 188
43.10789 167
43.128 197
43.14812 198
43.16823 155
43.18834 183
43.20846 209
43.22857 207
43.24868 175
43.2688 205
43.28891 178
43.30902 158
43.32914 174
43.34925 188
43.36937 163
43.38948 176
43.40959 200
43.42971 202
43.44982 209
43.46993 164
43.49005 172
43.51016 171
43.53028 181
43.55039 201
43.5705 212
43.59062 175
43.61073 197
43.63084 187
43.65096 175
43.67107 179
43.69119 180
43.7113 208
43.73141 190
43.75153 173
43.77164 183
43.79175 170
43.81187 194
43.83198 179
43.85209 181
43.87221 189
43.89232 191
43.91244 178
43.93255 199
43.95266 169
43.97278 188
43.99289 164
44.013 187
44.03312 188
44.05323 212
44.07335 192
44.09346 177
44.11357 174
44.13369 180
44.1538 189
44.17391 182
44.19403 178
44.21414 183
44.23426 179
44.25437 172
44.27448 165
44.2946 168
44.31471 183
44.33482 167
44.35494 191
44.37505 179
44.39516 189
44.41528 162
44.43539 170
44.45551 189
44.47562 188
44.49573 194
44.51585 179
44.53596 158
44.55607 193
44.57619 184
44.5963 185
44.61642 194
44.63653 179
44.65664 176
44.67676 164
44.69687 209
44.71698 187
44.7371 186
44.75721 163
44.77732 184
44.79744 176
44.81755 198
44.83767 176
44.85778 169
44.87789 185
44.89801 171
44.91812 197
44.93823 189
44.95835 183
44.97846 191
44.99858 192
45.01869 191
45.0388 194
45.05892 172
45.07903 189
45.09914 186
45.11926 159
45.13937 189
45.15949 199
45.1796 170
45.19971 186
45.21983 195
45.23994 198
45.26005 189
45.28017 191
45.30028 187
45.32039 214
45.34051 190
45.36062 236
45.38074 233
45.40085 210
45.42096 219
45.44108 211
45.46119 251
45.4813 238
45.50142 257
45.52153 310
45.54165 291
45.56176 308
45.58187 366
45.60199 417
45.6221 440
45.64221 562
45.66233 682
45.68244 866
45.70256 870
45.72267 1078
45.74278 1092
45.7629 1089
45.78301 962
45.80312 809
45.82324 678
45.84335 670
45.86346 635
45.88358 558
45.90369 525
45.92381 400
45.94392 291
45.96403 256
45.98415 263
46.00426 224
46.02437 218
46.04449 224
46.0646 203
46.08472 203
46.10483 198
46.12494 190
46.14506 192
46.16517 191
46.18528 207
46.2054 190
46.22551 194
46.24563 184
46.26574 185
46.28585 196
46.30597 181
46.32608 189
46.34619 186
46.36631 183
46.38642 171
46.40653 158
46.42665 189
46.44676 192
46.46688 203
46.48699 175
46.5071 173
46.52722 189
46.54733 191
46.56744 165
46.58756 181
46.60767 191
46.62779 213
46.6479 156
46.66801 198
46.68813 183
46.70824 175
46.72835 176
46.74847 186
46.76858 154
46.78869 175
46.80881 182
46.82892 201
46.84904 175
46.86915 175
46.88926 180
46.90938 198
46.92949 171
46.9496 161
46.96972 177
46.98983 174
47.00995 174
47.03006 162
47.05017 164
47.07029 170
47.0904 176
47.11051 164
47.13063 169
47.15074 177
47.17086 179
47.19097 189
47.21108 179
47.2312 189
47.25131 161
47.27142 166
47.29154 171
47.31165 185
47.33176 162
47.35188 166
47.37199 167
47.39211 197
47.41222 192
47.43233 187
47.45245 169
47.47256 174
47.49267 163
47.51279 171
47.5329 166
47.55302 195
47.57313 183
47.59324 190
47.61336 201
47.63347 193
47.65358 193
47.6737 143
47.69381 195
47.71393 175
47.73404 175
47.75415 175
47.77427 187
47.79438 179
47.81449 177
47.83461 173
47.85472 191
47.87483 164
47.89495 176
47.91506 194
47.93518 191
47.95529 193
47.9754 190
47.99552 192
48.01563 223
48.03574 174
48.05586 189
48.07597 188
48.09609 201
48.1162 199
48.13631 174
48.15643 184
48.17654 170
48.19665 170
48.21677 188
48.23688 210
48.257 186
48.27711 181
48.29722 186
48.31734 182
48.33745 188
48.35756 191
48.37768 195
48.39779 181
48.4179 188
48.43802 193
48.45813 191
48.47825 187
48.49836 185
48.51847 172
48.53859 188
48.5587 187
48.57881 190
48.59893 184
48.61904 174
48.63916 176
48.65927 180
48.67938 184
48.6995 193
48.71961 203
48.73972 192
48.75984 172
48.77995 227
48.80006 185
48.82018 164
48.84029 191
48.86041 178
48.88052 184
48.90063 168
48.92075 195
48.94086 191
48.96097 192
48.98109 182
49.0012 178
49.02132 206
49.04143 195
49.06154 204
49.08166 200
49.10177 182
49.12188 184
49.142 184
49.16211 194
49.18223 195
49.20234 199
49.22245 193
49.24257 199
49.26268 185
49.28279 202
49.30291 179
49.32302 213
49.34313 187
49.36325 199
49.38336 208
49.40348 185
49.42359 212
49.4437 223
49.46382 176
49.48393 215
49.50404 222
49.52416 191
49.54427 219
49.56439 232
49.5845 224
49.60461 223
49.62473 226
49.64484 229
49.66495 270
49.68507 256
49.70518 253
49.7253 295
49.74541 285
49.76552 317
49.78564 324
49.80575 390
49.82586 398
49.84598 426
49.86609 483
49.8862 524
49.90632 685
49.92643 749
49.94655 1055
49.96666 1150
49.98677 1582
50.00689 1957
50.027 2380
50.04711 2932
50.06723 3382
50.08734 3547
50.10746 3446
50.12757 3058
50.14768 2471
50.1678 1976
50.18791 1791
50.20802 1892
50.22814 1758
50.24825 1608
50.26837 1190
50.28848 788
50.30859 564
50.32871 427
50.34882 392
50.36893 340
50.38905 271
50.40916 316
50.42927 274
50.44939 288
50.4695 235
50.48962 297
50.50973 298
50.52984 273
50.54996 310
50.57007 288
50.59018 282
50.6103 245
50.63041 248
50.65053 259
50.67064 255
50.69075 231
50.71087 239
50.73098 222
50.75109 207
50.77121 181
50.79132 222
50.81143 189
50.83155 215
50.85166 203
50.87178 190
50.89189 213
50.912 199
50.93212 199
50.95223 192
50.97234 200
50.99246 156
51.01257 165
51.03269 203
51.0528 200
51.07291 165
51.09303 184
51.11314 157
51.13325 177
51.15337 181
51.17348 167
51.1936 157
51.21371 180
51.23382 177
51.25394 166
51.27405 183
51.29416 177
51.31428 175
51.33439 187
51.3545 175
51.37462 157
51.39473 162
51.41485 156
51.43496 151
51.45507 171
51.47519 175
51.4953 142
51.51541 175
51.53553 156
51.55564 168
51.57576 180
51.59587 172
51.61598 169
51.6361 159
51.65621 188
51.67632 163
51.69644 178
51.71655 168
51.73667 171
51.75678 173
51.77689 174
51.79701 164
51.81712 178
51.83723 177
51.85735 171
51.87746 149
51.89757 167
51.91769 154
51.9378 183
51.95792 159
51.97803 150
51.99814 162
52.01826 164
52.03837 189
52.05848 155
52.0786 187
52.09871 146
52.11883 148
52.13894 150
52.15905 182
52.17917 176
52.19928 168
52.21939 211
52.23951 140
52.25962 178
52.27974 156
52.29985 170
52.31996 175
52.34008 151
52.36019 163
52.3803 163
52.40042 168
52.42053 186
52.44064 172
52.46076 173
52.48087 157
52.50099 161
52.5211 181
52.54121 167
52.56133 129
52.58144 179
52.60155 181
52.62167 162
52.64178 160
52.6619 167
52.68201 149
52.70212 176
52.72224 166
52.74235 157
52.76246 171
52.78258 174
52.80269 181
52.8228 174
52.84292 171
52.86303 159
52.88315 171
52.90326 178
52.92337 169
52.94349 171
52.9636 194
52.98371 184
53.00383 159
53.02394 180
53.04406 176
53.06417 176
53.08428 167
53.1044 177
53.12451 174
53.14462 169
53.16474 189
53.18485 203
53.20497 185
53.22508 215
53.24519 196
53.26531 193
53.28542 219
53.30553 205
53.32565 205
53.34576 218
53.36587 207
53.38599 217
53.4061 212
53.42622 208
53.44633 221
53.46644 204
53.48656 217
53.50667 216
53.52678 220
53.5469 228
53.56701 198
53.58713 177
53.60724 228
53.62735 208
53.64747 189
53.66758 185
53.68769 192
53.70781 211
53.72792 182
53.74804 204
53.76815 224
53.78826 215
53.80838 250
53.82849 224
53.8486 229
53.86872 181
53.88883 211
53.90894 240
53.92906 234
53.94917 217
53.96929 250
53.9894 223
54.00951 217
54.02963 231
54.04974 237
54.06985 258
54.08997 228
54.11008 230
54.1302 242
54.15031 215
54.17042 220
54.19054 237
54.21065 206
54.23076 233
54.25088 237
54.27099 226
54.29111 249
54.31122 268
54.33133 203
54.35145 253
54.37156 257
54.39167 255
54.41179 230
54.4319 237
54.45201 260
54.47213 226
54.49224 241
54.51236 235
54.53247 248
54.55258 308
54.5727 305
54.59281 258
54.61292 314
54.63304 360
54.65315 383
54.67327 429
54.69338 507
54.71349 592
54.73361 699
54.75372 838
54.77383 949
54.79395 1060
54.81406 1112
54.83417 1112
54.85429 1038
54.8744 843
54.89452 719
54.91463 652
54.93474 699
54.95486 671
54.97497 696
54.99508 602
55.0152 549
55.03531 459
55.05543 368
55.07554 335
55.09565 345
55.11577 356
55.13588 363
55.15599 387
55.17611 434
55.19622 507
55.21634 490
55.23645 581
55.25656 618
55.27668 629
55.29679 636
55.3169 511
55.33702 463
55.35713 459
55.37724 386
55.39736 422
55.41747 383
55.43759 379
55.4577 363
55.47781 332
55.49793 282
55.51804 255
55.53815 221
55.55827 233
55.57838 231
55.5985 209
55.61861 222
55.63872 223
55.65884 220
55.67895 216
55.69906 204
55.71918 208
55.73929 206
55.75941 206
55.77952 195
55.79963 178
55.81975 211
55.83986 186
55.85997 188
55.88009 217
55.9002 187
55.92031 182
55.94043 172
55.96054 216
55.98066 186
56.00077 174
56.02088 185
56.041 197
56.06111 195
56.08122 184
56.10134 195
56.12145 199
56.14157 180
56.16168 190
56.18179 186
56.20191 177
56.22202 180
56.24213 173
56.26225 163
56.28236 192
56.30248 185
56.32259 176
56.3427 178
56.36282 203
56.38293 166
56.40304 204
56.42316 190
56.44327 201
56.46338 172
56.4835 169
56.50361 174
56.52373 187
56.54384 178
56.56395 206
56.58407 169
56.60418 211
56.62429 177
56.64441 190
56.66452 170
56.68464 187
56.70475 186
56.72486 201
56.74498 176
56.76509 173
56.7852 183
56.80532 179
56.82543 190
56.84554 190
56.86566 164
56.88577 209
56.90589 177
56.926 183
56.94611 158
56.96623 205
56.98634 180
57.00645 202
57.02657 196
57.04668 176
57.0668 214
57.08691 196
57.10702 199
57.12714 212
57.14725 214
57.16736 255
57.18748 234
57.20759 239
57.22771 225
57.24782 206
57.26793 186
57.28805 196
57.30816 195
57.32827 186
57.34839 205
57.3685 189
57.38861 174
57.40873 172
57.42884 156
57.44896 175
57.46907 168
57.48918 187
57.5093 162
57.52941 169
57.54952 179
57.56964 165
57.58975 165
57.60987 172
57.62998 187
57.65009 183
57.67021 186
57.69032 161
57.71043 167
57.73055 188
57.75066 158
57.77078 175
57.79089 162
57.811 173
57.83112 181
57.85123 163
57.87134 177
57.89146 167
57.91157 164
57.93168 163
57.9518 160
57.97191 181
57.99203 185
58.01214 189
58.03225 143
58.05237 178
58.07248 173
58.09259 171
58.11271 170
58.13282 164
58.15294 181
58.17305 178
58.19316 192
58.21328 175
58.23339 171
58.2535 159
58.27362 167
58.29373 156
58.31385 161
58.33396 163
58.35407 180
58.37419 190
58.3943 191
58.41441 194
58.43453 192
58.45464 183
58.47475 154
58.49487 190
58.51498 169
58.5351 174
58.55521 164
58.57532 156
58.59544 154
58.61555 157
58.63566 174
58.65578 159
58.67589 174
58.69601 192
58.71612 193
58.73623 178
58.75635 187
58.77646 173
58.79657 162
58.81669 191
58.8368 171
58.85691 173
58.87703 156
58.89714 171
58.91726 169
58.93737 167
58.95748 154
58.9776 174
58.99771 180
59.01782 187
59.03794 170
59.05805 182
59.07817 176
59.09828 179
59.11839 174
59.13851 185
59.15862 198
59.17873 206
59.19885 190
59.21896 179
59.23908 189
59.25919 188
59.2793 179
59.29942 183
59.31953 182
59.33964 194
59.35976 175
59.37987 197
59.39998 206
59.4201 202
59.44021 200
59.46033 210
59.48044 218
59.50055 269
59.52067 269
59.54078 245
59.56089 239
59.58101 273
59.60112 301
59.62124 327
59.64135 346
59.66146 359
59.68158 413
59.70169 489
59.7218 505
59.74192 610
59.76203 784
59.78215 946
59.80226 1136
59.82237 1461
59.84249 1689
59.8626 1970
59.88271 2237
59.90283 2252
59.92294 2170
59.94305 1914
59.96317 1476
59.98328 1287
60.0034 1163
60.02351 1123
60.04362 1203
60.06374 1189
60.08385 1062
60.10396 976
60.12408 727
60.14419 510
60.16431 399
60.18442 300
60.20453 264
60.22465 250
60.24476 234
60.26487 245
60.28499 230
60.3051 238
60.32522 216
60.34533 222
60.36544 182
60.38556 214
60.40567 186
60.42578 166
60.4459 201
60.46601 192
60.48612 184
60.50624 169
60.52635 188
60.54647 173
60.56658 186
60.58669 199
60.60681 186
60.62692 153
60.64703 195
60.66715 210
60.68726 179
60.70738 175
60.72749 171
60.7476 176
60.76772 177
60.78783 167
60.80794 178
60.82806 182
60.84817 167
60.86828 178
60.8884 147
60.90851 159
60.92863 174
60.94874 170
60.96885 167
60.98897 174
61.00908 160
61.02919 176
61.04931 176
61.06942 173
61.08954 156
61.10965 165
61.12976 183
61.14988 175
61.16999 191
61.1901 168
61.21022 165
61.23033 147
61.25045 177
61.27056 153
61.29067 187
61.31079 178
61.3309 158
61.35101 173
61.37113 154
61.39124 161
61.41135 166
61.43147 183
61.45158 178
61.4717 174
61.49181 148
61.51192 153
61.53204 179
61.55215 166
61.57226 180
61.59238 160
61.61249 193
61.63261 191
61.65272 168
61.67283 183
61.69295 196
61.71306 168
61.73317 204
61.75329 186
61.7734 180
61.79352 181
61.81363 168
61.83374 195
61.85386 200
61.87397 173
61.89408 202
61.9142 183
61.93431 199
61.95442 208
61.97454 182
61.99465 187
62.01477 202
62.03488 197
62.05499 203
62.07511 202
62.09522 230
62.11533 230
62.13545 198
62.15556 239
62.17568 228
62.19579 252
62.2159 252
62.23602 229
62.25613 259
62.27624 241
62.29636 224
62.31647 232
62.33659 229
62.3567 244
62.37681 224
62.39693 224
62.41704 216
62.43715 226
62.45727 202
62.47738 194
62.49749 197
62.51761 193
62.53772 225
62.55784 184
62.57795 178
62.59806 191
62.61818 186
62.63829 203
62.6584 197
62.67852 212
62.69863 190
62.71875 211
62.73886 193
62.75897 185
62.77909 185
62.7992 174
62.81931 183
62.83943 167
62.85954 178
62.87965 181
62.89977 160
62.91988 173
62.94 186
62.96011 177
62.98022 191
63.00034 170
63.02045 167
63.04056 172
63.06068 181
63.08079 190
63.10091 167
63.12102 178
63.14113 160
63.16125 174
63.18136 184
63.20147 163
63.22159 169
63.2417 159
63.26182 164
63.28193 173
63.30204 166
63.32216 195
63.34227 138
63.36238 183
63.3825 170
63.40261 172
63.42272 178
63.44284 178
63.46295 178
63.48307 182
63.50318 178
63.52329 170
63.54341 169
63.56352 169
63.58363 170
63.60375 186
63.62386 179
63.64398 178
63.66409 204
63.6842 168
63.70432 190
63.72443 222
63.74454 230
63.76466 201
63.78477 225
63.80489 259
63.825 274
63.84511 290
63.86523 342
63.88534 374
63.90545 435
63.92557 481
63.94568 520
63.96579 520
63.98591 550
64.00602 535
64.02614 460
64.04625 391
64.06636 301
64.08648 352
64.10659 346
64.1267 332
64.14682 361
64.16693 353
64.18705 331
64.20716 300
64.22727 276
64.24739 214
64.2675 197
64.28761 176
64.30773 178
64.32784 159
64.34796 191
64.36807 188
64.38818 159
64.4083 163
64.42841 193
64.44852 141
64.46864 145
64.48875 152
64.50886 170
64.52898 175
64.54909 141
64.56921 143
64.58932 156
64.60943 186
64.62955 158
64.64966 149
64.66977 153
64.68989 141
64.71 170
64.73012 171
64.75023 154
64.77034 173
64.79046 162
64.81057 166
64.83068 179
64.8508 150
64.87091 152
64.89102 153
64.91114 141
64.93125 173
64.95137 146
64.97148 163
64.99159 171
65.01171 158
65.03182 138
65.05193 170
65.07205 157
65.09216 176
65.11228 195
65.13239 160
65.1525 137
65.17262 153
65.19273 174
65.21284 141
65.23296 167
65.25307 155
65.27319 143
65.2933 137
65.31341 149
65.33353 180
65.35364 171
65.37375 167
65.39387 180
65.41398 171
65.43409 169
65.45421 168
65.47432 170
65.49444 181
65.51455 190
65.53466 183
65.55478 181
65.57489 192
65.595 194
65.61512 187
65.63523 211
65.65535 238
65.67546 221
65.69557 242
65.71569 246
65.7358 249
65.75591 255
65.77603 221
65.79614 196
65.81626 227
65.83637 189
65.85648 201
65.8766 194
65.89671 201
65.91682 220
65.93694 212
65.95705 173
65.97716 170
65.99728 161
66.01739 170
66.03751 201
66.05762 148
66.07773 165
66.09785 179
66.11796 177
66.13807 156
66.15819 166
66.1783 140
66.19842 151
66.21853 167
66.23864 166
66.25876 182
66.27887 155
66.29898 184
66.3191 157
66.33921 176
66.35933 172
66.37944 154
66.39955 172
66.41967 151
66.43978 189
66.45989 166
66.48001 166
66.50012 161
66.52023 183
66.54035 158
66.56046 171
66.58058 162
66.60069 184
66.6208 166
66.64092 154
66.66103 175
66.68114 165
66.70126 175
66.72137 170
66.74149 160
66.7616 177
66.78171 166
66.80183 143
66.82194 180
66.84205 167
66.86217 175
66.88228 182
66.90239 155
66.92251 189
66.94262 162
66.96274 180
66.98285 159
67.00296 172
67.02308 180
67.04319 178
67.0633 172
67.08342 181
67.10353 197
67.12365 175
67.14376 185
67.16387 182
67.18399 185
67.2041 191
67.22421 231
67.24433 198
67.26444 224
67.28456 212
67.30467 197
67.32478 249
67.3449 226
67.36501 228
67.38512 231
67.40524 306
67.42535 277
67.44546 280
67.46558 300
67.48569 353
67.50581 428
67.52592 472
67.54603 559
67.56615 647
67.58626 756
67.60637 942
67.62649 1091
67.6466 1217
67.66672 1237
67.68683 1273
67.70694 1239
67.72706 1133
67.74717 968
67.76728 854
67.7874 788
67.80751 731
67.82763 843
67.84774 898
67.86785 948
67.88797 911
67.90808 935
67.92819 929
67.94831 868
67.96842 951
67.98853 1020
68.00865 1182
68.02876 1332
68.04888 1507
68.06899 1706
68.0891 1787
68.10922 1694
68.12933 1572
68.14944 1487
68.16956 1331
68.18967 1396
68.20979 1425
68.2299 1596
68.25001 1618
68.27013 1579
68.29024 1544
68.31035 1315
68.33047 1077
68.35058 845
68.3707 740
68.39081 643
68.41092 601
68.43104 630
68.45115 634
68.47126 575
68.49138 463
68.51149 427
68.5316 295
68.55172 274
68.57183 265
68.59195 231
68.61206 242
68.63217 242
68.65229 239
68.6724 221
68.69251 210
68.71263 185
68.73274 191
68.75286 199
68.77297 183
68.79308 172
68.8132 177
68.83331 166
68.85342 185
68.87354 202
68.89365 184
68.91376 166
68.93388 173
68.95399 156
68.97411 160
68.99422 171
69.01433 185
69.03445 179
69.05456 156
69.07467 172
69.09479 185
69.1149 171
69.13502 176
69.15513 172
69.17524 170
69.19536 173
69.21547 170
69.23558 175
69.2557 167
69.27581 181
69.29593 153
69.31604 173
69.33615 159
69.35627 163
69.37638 168
69.39649 168
69.41661 143
69.43672 158
69.45683 172
69.47695 169
69.49706 179
69.51718 167
69.53729 154
69.5574 173
69.57752 144
69.59763 138
69.61774 177
69.63786 155
69.65797 168
69.67809 159
69.6982 154
69.71831 154
69.73843 153
69.75854 152
69.77865 147
69.79877 156
69.81888 188
69.839 153
69.85911 143
69.87922 138
69.89934 148
69.91945 148
69.93956 163
69.95968 164
69.97979 162
69.9999 162
70.02002 148
70.04013 172
70.06025 139
70.08036 145
70.10047 170
70.12059 170
70.1407 156
70.16081 175
70.18093 133
70.20104 164
70.22116 171
70.24127 168
70.26138 147
70.2815 161
70.30161 151
70.32172 144
70.34184 139
70.36195 159
70.38207 160
70.40218 157
70.42229 141
70.44241 153
70.46252 160
70.48263 163
70.50275 163
70.52286 154
70.54297 156
70.56309 153
70.5832 162
70.60332 175
70.62343 162
70.64354 170
70.66366 140
70.68377 140
70.70388 134
70.724 147
70.74411 169
70.76423 152
70.78434 161
70.80445 151
70.82457 154
70.84468 148
70.86479 154
70.88491 147
70.90502 142
70.92513 145
70.94525 138
70.96536 136
70.98548 147
71.00559 135
71.0257 166
71.04582 150
71.06593 179
71.08604 152
71.10616 150
71.12627 144
71.14639 138
71.1665 142
71.18661 156
71.20673 140
71.22684 123
71.24695 149
71.26707 164
71.28718 153
71.3073 148
71.32741 155
71.34752 139
71.36764 154
71.38775 155
71.40786 144
71.42798 165
71.44809 164
71.4682 177
71.48832 159
71.50843 144
71.52855 140
71.54866 136
71.56877 153
71.58889 150
71.609 157
71.62911 162
71.64923 158
71.66934 163
71.68946 144
71.70957 161
71.72968 154
71.7498 165
71.76991 148
71.79002 149
71.81014 155
71.83025 153
71.85037 142
71.87048 158
71.89059 152
71.91071 160
71.93082 159
71.95093 151
71.97105 128
71.99116 144
72.01127 152
72.03139 160
72.0515 167
72.07162 161
72.09173 148
72.11184 142
72.13196 153
72.15207 151
72.17218 157
72.1923 162
72.21241 151
72.23253 154
72.25264 145
72.27275 154
72.29287 162
72.31298 152
72.33309 173
72.35321 157
72.37332 157
72.39344 150
72.41355 145
72.43366 135
72.45378 161
72.47389 124
72.494 156
72.51412 149
72.53423 161
72.55434 125
72.57446 169
72.59457 114
72.61469 155
72.6348 149
72.65491 138
72.67503 138
72.69514 148
72.71525 151
72.73537 129
72.75548 125
72.7756 146
72.79571 149
72.81582 136
72.83594 144
72.85605 158
72.87616 182
72.89628 149
72.91639 139
72.9365 153
72.95662 169
72.97673 147
72.99685 157
73.01696 155
73.03707 145
73.05719 161
73.0773 193
73.09741 173
73.11753 183
73.13764 197
73.15776 209
73.17787 213
73.19798 228
73.2181 224
73.23821 245
73.25832 299
73.27844 304
73.29855 385
73.31867 355
73.33878 441
73.35889 436
73.37901 479
73.39912 541
73.41923 487
73.43935 472
73.45946 464
73.47957 382
73.49969 334
73.5198 287
73.53992 301
73.56003 322
73.58014 335
73.60026 336
73.62037 366
73.64048 355
73.6606 323
73.68071 276
73.70083 224
73.72094 183
73.74105 181
73.76117 188
73.78128 174
73.80139 157
73.82151 158
73.84162 165
73.86174 160
73.88185 159
73.90196 143
73.92208 148
73.94219 156
73.9623 142
73.98242 174
74.00253 149
74.02264 142
74.04276 154
74.06287 163
74.08299 146
74.1031 159
74.12321 170
74.14333 149
74.16344 139
74.18355 172
74.20367 152
74.22378 147
74.2439 152
74.26401 142
74.28412 166
74.30424 146
74.32435 140
74.34446 136
74.36458 146
74.38469 138
74.40481 151
74.42492 171
74.44503 137
74.46515 134
74.48526 144
74.50537 134
74.52549 156
74.5456 148
74.56571 152
74.58583 152
74.60594 138
74.62606 126
74.64617 147
74.66628 148
74.6864 149
74.70651 179
74.72662 142
74.74674 128
74.76685 160
74.78697 168
74.80708 159
74.82719 148
74.84731 164
74.86742 152
74.88753 134
74.90765 163
74.92776 172
74.94787 163
74.96799 148
74.9881 162
75.00822 170
