3.00117 21633
3.02128 21014
3.0414 20341
3.06151 19844
3.08162 19560
3.10174 18688
3.12185 18208
3.14197 17895
3.16208 17370
3.18219 16909
3.20231 16401
3.22242 15841
3.24253 15461
3.26265 14835
3.28276 14591
3.30288 14298
3.32299 13719
3.3431 13356
3.36322 12490
3.38333 12540
3.40344 12000
3.42356 11607
3.44367 11491
3.46379 10916
3.4839 10439
3.50401 10008
3.52413 9888
3.54424 9539
3.56435 9015
3.58447 9121
3.60458 8506
3.62469 8101
3.64481 8001
3.66492 7708
3.68504 7591
3.70515 7177
3.72526 6715
3.74538 6686
3.76549 6049
3.7856 6153
3.80572 6021
3.82583 5558
3.84595 5346
3.86606 5235
3.88617 5101
3.90629 4795
3.9264 4481
3.94651 4505
3.96663 4130
3.98674 4126
4.00686 4058
4.02697 3738
4.04708 3695
4.0672 3331
4.08731 3358
4.10742 3333
4.12754 2928
4.14765 3003
4.16776 2748
4.18788 2729
4.20799 2743
4.22811 2352
4.24822 2602
4.26833 2280
4.28845 2328
4.30856 2355
4.32867 2005
4.34879 2148
4.3689 1943
4.38902 1985
4.40913 2028
4.42924 1870
4.44936 1880
4.46947 1867
4.48958 1787
4.5097 1874
4.52981 1647
4.54992 1700
4.57004 1587
4.59015 1609
4.61027 1582
4.63038 1543
4.65049 1553
4.67061 1480
4.69072 1485
4.71083 1488
4.73095 1393
4.75106 1361
4.77118 1321
4.79129 1356
4.8114 1321
4.83152 1278
4.85163 1322
4.87174 1272
4.89186 1282
4.91197 1267
4.93209 1209
4.9522 1152
4.97231 1205
4.99243 1174
5.01254 1124
5.03265 1117
5.05277 1130
5.07288 1166
5.09299 1056
5.11311 1059
5.13322 1004
5.15334 1026
5.17345 1085
5.19356 998
5.21368 1019
5.23379 968
5.2539 968
5.27402 934
5.29413 861
5.31425 1004
5.33436 859
5.35447 897
5.37459 882
5.3947 883
5.41481 858
5.43493 770
5.45504 819
5.47516 831
5.49527 809
5.51538 833
5.5355 746
5.55561 811
5.57572 862
5.59584 778
5.61595 756
5.63606 739
5.65618 754
5.67629 774
5.69641 797
5.71652 775
5.73663 698
5.75675 709
5.77686 693
5.79697 740
5.81709 734
5.8372 687
5.85732 757
5.87743 662
5.89754 708
5.91766 734
5.93777 721
5.95788 662
5.978 673
5.99811 694
6.01823 681
6.03834 715
6.05845 677
6.07857 647
6.09868 658
6.11879 740
6.13891 666
6.15902 711
6.17913 697
6.19925 637
6.21936 651
6.23948 693
6.25959 631
6.2797 689
6.29982 646
6.31993 681
6.34004 658
6.36016 662
6.38027 707
6.40039 664
6.4205 681
6.44061 650
6.46073 669
6.48084 649
6.50095 671
6.52107 638
6.54118 665
6.56129 648
6.58141 648
6.60152 644
6.62164 664
6.64175 650
6.66186 669
6.68198 655
6.70209 682
6.7222 608
6.74232 700
6.76243 657
6.78255 600
6.80266 666
6.82277 630
6.84289 660
6.863 631
6.88311 660
6.90323 640
6.92334 596
6.94346 600
6.96357 558
6.98368 619
7.0038 633
7.02391 625
7.04402 690
7.06414 611
7.08425 594
7.10436 626
7.12448 597
7.14459 598
7.16471 605
7.18482 663
7.20493 631
7.22505 683
7.24516 659
7.26527 604
7.28539 617
7.3055 625
7.32562 714
7.34573 631
7.36584 672
7.38596 639
7.40607 636
7.42618 633
7.4463 606
7.46641 640
7.48653 677
7.50664 623
7.52675 622
7.54687 628
7.56698 638
7.58709 593
7.60721 592
7.62732 617
7.64743 666
7.66755 639
7.68766 640
7.70778 622
7.72789 587
7.748 661
7.76812 662
7.78823 667
7.80834 669
7.82846 577
7.84857 559
7.86869 618
7.8888 676
7.90891 607
7.92903 618
7.94914 631
7.96925 664
7.98937 670
8.00948 638
8.0296 615
8.04971 603
8.06982 676
8.08994 594
8.11005 642
8.13016 625
8.15028 691
8.17039 652
8.1905 602
8.21062 637
8.23073 613
8.25085 618
8.27096 601
8.29107 673
8.31119 655
8.3313 679
8.35141 612
8.37153 632
8.39164 668
8.41176 651
8.43187 691
8.45198 629
8.4721 616
8.49221 661
8.51232 617
8.53244 639
8.55255 665
8.57266 635
8.59278 584
8.61289 677
8.63301 631
8.65312 643
8.67323 583
8.69335 630
8.71346 629
8.73357 630
8.75369 638
8.7738 647
8.79392 600
8.81403 673
8.83414 632
8.85426 638
8.87437 600
8.89448 690
8.9146 659
8.93471 621
8.95483 627
8.97494 605
8.99505 650
9.01517 641
9.03528 587
9.05539 619
9.07551 614
9.09562 599
9.11573 637
9.13585 655
9.15596 643
9.17608 656
9.19619 625
9.2163 579
9.23642 675
9.25653 636
9.27664 636
9.29676 653
9.31687 621
9.33699 628
9.3571 605
9.37721 617
9.39733 600
9.41744 645
9.43755 638
9.45767 648
9.47778 602
9.4979 611
9.51801 597
9.53812 636
9.55824 684
9.57835 644
9.59846 628
9.61858 649
9.63869 637
9.6588 656
9.67892 646
9.69903 591
9.71915 591
9.73926 627
9.75937 648
9.77949 635
9.7996 661
9.81971 653
9.83983 618
9.85994 620
9.88006 667
9.90017 612
9.92028 673
9.9404 643
9.96051 654
9.98062 640
10.00074 609
10.02085 647
10.04097 594
10.06108 623
10.08119 631
10.10131 623
10.12142 624
10.14153 654
10.16165 630
10.18176 633
10.20187 661
10.22199 621
10.2421 619
10.26222 653
10.28233 666
10.30244 593
10.32256 669
10.34267 655
10.36278 676
10.3829 628
10.40301 646
10.42313 607
10.44324 659
10.46335 646
10.48347 649
10.50358 676
10.52369 616
10.54381 609
10.56392 642
10.58403 624
10.60415 617
10.62426 653
10.64438 629
10.66449 660
10.6846 607
10.70472 596
10.72483 657
10.74494 660
10.76506 648
10.78517 558
10.80529 662
10.8254 616
10.84551 650
10.86563 642
10.88574 627
10.90585 636
10.92597 663
10.94608 677
10.9662 634
10.98631 665
11.00642 639
11.02654 620
11.04665 725
11.06676 654
11.08688 643
11.10699 664
11.1271 677
11.14722 624
11.16733 633
11.18745 664
11.20756 645
11.22767 724
11.24779 649
11.2679 577
11.28801 642
11.30813 693
11.32824 652
11.34836 650
11.36847 674
11.38858 661
11.4087 653
11.42881 657
11.44892 650
11.46904 656
11.48915 670
11.50927 643
11.52938 638
11.54949 710
11.56961 707
11.58972 688
11.60983 695
11.62995 674
11.65006 722
11.67017 669
11.69029 717
11.7104 703
11.73052 754
11.75063 766
11.77074 726
11.79086 727
11.81097 783
11.83108 725
11.8512 752
11.87131 737
11.89143 788
11.91154 747
11.93165 797
11.95177 786
11.97188 829
11.99199 828
12.01211 892
12.03222 885
12.05234 911
12.07245 1030
12.09256 990
12.11268 1156
12.13279 1105
12.1529 1094
12.17302 1196
12.19313 1115
12.21324 1171
12.23336 1234
12.25347 1222
12.27359 1332
12.2937 1298
12.31381 1283
12.33393 1311
12.35404 1326
12.37415 1263
12.39427 1230
12.41438 1144
12.4345 1198
12.45461 1125
12.47472 1094
12.49484 1040
12.51495 1071
12.53506 975
12.55518 915
12.57529 918
12.5954 834
12.61552 801
12.63563 856
12.65575 775
12.67586 773
12.69597 785
12.71609 698
12.7362 711
12.75631 827
12.77643 766
12.79654 749
12.81666 744
12.83677 727
12.85688 679
12.877 709
12.89711 646
12.91722 637
12.93734 619
12.95745 665
12.97757 646
12.99768 663
13.01779 622
13.03791 641
13.05802 638
13.07813 640
13.09825 645
13.11836 672
13.13847 631
13.15859 648
13.1787 640
13.19882 650
13.21893 673
13.23904 607
13.25916 646
13.27927 659
13.29938 605
13.3195 655
13.33961 624
13.35973 589
13.37984 679
13.39995 621
13.42007 638
13.44018 584
13.46029 655
13.48041 577
13.50052 630
13.52064 617
13.54075 591
13.56086 669
13.58098 623
13.60109 635
13.6212 656
13.64132 657
13.66143 644
13.68154 662
13.70166 679
13.72177 605
13.74189 585
13.762 622
13.78211 589
13.80223 632
13.82234 633
13.84245 647
13.86257 638
13.88268 589
13.9028 614
13.92291 615
13.94302 619
13.96314 625
13.98325 593
14.00336 680
14.02348 622
14.04359 593
14.06371 627
14.08382 652
14.10393 638
14.12405 611
14.14416 616
14.16427 613
14.18439 652
14.2045 632
14.22461 610
14.24473 628
14.26484 675
14.28496 613
14.30507 586
14.32518 633
14.3453 607
14.36541 597
14.38552 631
14.40564 582
14.42575 645
14.44587 581
14.46598 590
14.48609 662
14.50621 587
14.52632 644
14.54643 575
14.56655 594
14.58666 638
14.60677 612
14.62689 638
14.647 608
14.66712 607
14.68723 620
14.70734 615
14.72746 615
14.74757 646
14.76768 625
14.7878 658
14.80791 617
14.82803 599
14.84814 616
14.86825 635
14.88837 629
14.90848 595
14.92859 641
14.94871 600
14.96882 645
14.98894 637
15.00905 622
15.02916 640
15.04928 586
15.06939 630
15.0895 614
15.10962 591
15.12973 612
15.14984 632
15.16996 592
15.19007 624
15.21019 582
15.2303 579
15.25041 576
15.27053 645
15.29064 612
15.31075 600
15.33087 624
15.35098 582
15.3711 618
15.39121 568
15.41132 629
15.43144 624
15.45155 624
15.47166 640
15.49178 634
15.51189 660
15.53201 615
15.55212 613
15.57223 615
15.59235 632
15.61246 648
15.63257 611
15.65269 652
15.6728 604
15.69291 593
15.71303 658
15.73314 632
15.75326 631
15.77337 620
15.79348 650
15.8136 622
15.83371 613
15.85382 609
15.87394 629
15.89405 601
15.91417 610
15.93428 625
15.95439 654
15.97451 577
15.99462 594
16.01473 656
16.03485 616
16.05496 578
16.07508 584
16.09519 648
16.1153 641
16.13542 629
16.15553 658
16.17564 603
16.19576 670
16.21587 603
16.23598 579
16.2561 612
16.27621 616
16.29633 673
16.31644 575
16.33655 616
16.35667 619
16.37678 578
16.39689 583
16.41701 595
16.43712 631
16.45724 599
16.47735 642
16.49746 573
16.51758 557
16.53769 607
16.5578 612
16.57792 580
16.59803 605
16.61814 635
16.63826 630
16.65837 643
16.67849 613
16.6986 585
16.71871 622
16.73883 631
16.75894 580
16.77905 645
16.79917 622
16.81928 617
16.8394 619
16.85951 654
16.87962 573
16.89974 634
16.91985 579
16.93996 616
16.96008 603
16.98019 632
17.00031 614
17.02042 607
17.04053 659
17.06065 637
17.08076 617
17.10087 638
17.12099 648
17.1411 606
17.16121 618
17.18133 623
17.20144 618
17.22156 632
17.24167 580
17.26178 639
17.2819 627
17.30201 598
17.32212 629
17.34224 630
17.36235 642
17.38247 634
17.40258 650
17.42269 644
17.44281 604
17.46292 570
17.48303 628
17.50315 689
17.52326 646
17.54338 613
17.56349 612
17.5836 579
17.60372 616
17.62383 682
17.64394 684
17.66406 635
17.68417 637
17.70428 640
17.7244 624
17.74451 641
17.76463 637
17.78474 656
17.80485 660
17.82497 642
17.84508 701
17.86519 651
17.88531 676
17.90542 672
17.92554 702
17.94565 661
17.96576 654
17.98588 655
18.00599 656
18.0261 615
18.04622 652
18.06633 619
18.08645 656
18.10656 662
18.12667 649
18.14679 670
18.1669 621
18.18701 644
18.20713 636
18.22724 624
18.24735 650
18.26747 658
18.28758 600
18.3077 594
18.32781 579
18.34792 595
18.36804 626
18.38815 638
18.40826 625
18.42838 648
18.44849 658
18.46861 658
18.48872 610
18.50883 618
18.52895 668
18.54906 590
18.56917 621
18.58929 622
18.6094 643
18.62951 623
18.64963 619
18.66974 566
18.68986 625
18.70997 642
18.73008 629
18.7502 640
18.77031 614
18.79042 619
18.81054 657
18.83065 622
18.85077 614
18.87088 623
18.89099 603
18.91111 621
18.93122 639
18.95133 606
18.97145 584
18.99156 606
19.01168 619
19.03179 613
19.0519 611
19.07202 622
19.09213 644
19.11224 633
19.13236 602
19.15247 619
19.17258 636
19.1927 620
19.21281 624
19.23293 598
19.25304 647
19.27315 647
19.29327 654
19.31338 613
19.33349 607
19.35361 668
19.37372 620
19.39384 682
19.41395 690
19.43406 671
19.45418 696
19.47429 656
19.4944 637
19.51452 683
19.53463 692
19.55475 695
19.57486 715
19.59497 700
19.61509 681
19.6352 723
19.65531 701
19.67543 788
19.69554 772
19.71565 828
19.73577 874
19.75588 959
19.776 961
19.79611 1018
19.81622 1093
19.83634 1116
19.85645 1086
19.87656 1108
19.89668 1126
19.91679 1091
19.93691 1067
19.95702 1050
19.97713 1055
19.99725 975
20.01736 1018
20.03747 959
20.05759 989
20.0777 941
20.09782 957
20.11793 955
20.13804 920
20.15816 964
20.17827 958
20.19838 959
20.2185 939
20.23861 951
20.25872 977
20.27884 990
20.29895 1052
20.31907 960
20.33918 980
20.35929 980
20.37941 980
20.39952 1003
20.41963 998
20.43975 1032
20.45986 1017
20.47998 994
20.50009 1021
20.5202 978
20.54032 1022
20.56043 1075
20.58054 1039
20.60066 977
20.62077 1036
20.64088 1058
20.661 1023
20.68111 1053
20.70123 1088
20.72134 1198
20.74145 1257
20.76157 1378
20.78168 1401
20.80179 1664
20.82191 1753
20.84202 1704
20.86214 1626
20.88225 1577
20.90236 1459
20.92248 1326
20.94259 1216
20.9627 1122
20.98282 1172
21.00293 1083
21.02305 1057
21.04316 1064
21.06327 1091
21.08339 1166
21.1035 1105
21.12361 1170
21.14373 1184
21.16384 1147
21.18395 1249
21.20407 1215
21.22418 1270
21.2443 1296
21.26441 1269
21.28452 1285
21.30464 1302
21.32475 1340
21.34486 1337
21.36498 1239
21.38509 1172
21.40521 1155
21.42532 1172
21.44543 1159
21.46555 1138
21.48566 1115
21.50577 1079
21.52589 963
21.546 932
21.56612 1029
21.58623 1007
21.60634 908
21.62646 983
21.64657 972
21.66668 967
21.6868 919
21.70691 959
21.72702 830
21.74714 887
21.76725 869
21.78737 872
21.80748 891
21.82759 842
21.84771 860
21.86782 877
21.88793 894
21.90805 797
21.92816 936
21.94828 861
21.96839 827
21.9885 858
22.00862 891
22.02873 839
22.04884 838
22.06896 858
22.08907 864
22.10919 809
22.1293 849
22.14941 838
22.16953 758
22.18964 837
22.20975 829
22.22987 829
22.24998 831
22.27009 834
22.29021 769
22.31032 804
22.33044 832
22.35055 812
22.37066 857
22.39078 805
22.41089 808
22.431 807
22.45112 772
22.47123 757
22.49135 826
22.51146 822
22.53157 788
22.55169 837
22.5718 780
22.59191 779
22.61203 762
22.63214 786
22.65225 812
22.67237 780
22.69248 793
22.7126 808
22.73271 784
22.75282 786
22.77294 792
22.79305 782
22.81316 820
22.83328 759
22.85339 734
22.87351 749
22.89362 776
22.91373 732
22.93385 729
22.95396 726
22.97407 759
22.99419 759
23.0143 785
23.03442 745
23.05453 799
23.07464 776
23.09476 756
23.11487 752
23.13498 755
23.1551 745
23.17521 780
23.19532 732
23.21544 721
23.23555 729
23.25567 750
23.27578 813
23.29589 743
23.31601 730
23.33612 736
23.35623 774
23.37635 809
23.39646 737
23.41658 710
23.43669 669
23.4568 714
23.47692 745
23.49703 738
23.51714 779
23.53726 745
23.55737 740
23.57749 739
23.5976 766
23.61771 777
23.63783 733
23.65794 768
23.67805 796
23.69817 760
23.71828 783
23.73839 785
23.75851 747
23.77862 815
23.79874 786
23.81885 787
23.83896 748
23.85908 850
23.87919 809
23.8993 769
23.91942 785
23.93953 805
23.95965 790
23.97976 833
23.99987 839
24.01999 807
24.0401 833
24.06021 839
24.08033 872
24.10044 838
24.12056 859
24.14067 883
24.16078 835
24.1809 880
24.20101 882
24.22112 817
24.24124 830
24.26135 861
24.28146 821
24.30158 832
24.32169 848
24.34181 831
24.36192 853
24.38203 855
24.40215 917
24.42226 908
24.44237 860
24.46249 919
24.4826 901
24.50272 941
24.52283 897
24.54294 867
24.56306 961
24.58317 969
24.60328 968
24.6234 1008
24.64351 1010
24.66362 967
24.68374 1058
24.70385 1149
24.72397 1101
24.74408 1079
24.76419 1234
24.78431 1153
24.80442 1232
24.82453 1239
24.84465 1267
24.86476 1238
24.88488 1254
24.90499 1254
24.9251 1177
24.94522 1162
24.96533 1153
24.98544 1118
25.00556 1103
25.02567 1026
25.04579 1011
25.0659 1005
25.08601 1016
25.10613 974
25.12624 949
25.14635 957
25.16647 1018
25.18658 954
25.20669 968
25.22681 948
25.24692 945
25.26704 859
25.28715 902
25.30726 832
25.32738 816
25.34749 847
25.3676 811
25.38772 830
25.40783 819
25.42795 788
25.44806 774
25.46817 772
25.48829 737
25.5084 767
25.52851 760
25.54863 738
25.56874 726
25.58886 754
25.60897 776
25.62908 799
25.6492 742
25.66931 788
25.68942 751
25.70954 732
25.72965 728
25.74976 763
25.76988 716
25.78999 711
25.81011 718
25.83022 712
25.85033 693
25.87045 742
25.89056 779
25.91067 684
25.93079 743
25.9509 751
25.97102 807
25.99113 771
26.01124 759
26.03136 808
26.05147 782
26.07158 778
26.0917 754
26.11181 728
26.13193 757
26.15204 767
26.17215 766
26.19227 798
26.21238 799
26.23249 822
26.25261 779
26.27272 803
26.29283 778
26.31295 844
26.33306 837
26.35318 832
26.37329 893
26.3934 964
26.41352 1012
26.43363 1065
26.45374 1183
26.47386 1351
26.49397 1557
26.51409 1836
26.5342 2407
26.55431 2848
26.57443 3469
26.59454 3865
26.61465 4050
26.63477 3724
26.65488 3487
26.67499 2845
26.69511 2323
26.71522 1864
26.73534 1503
26.75545 1187
26.77556 1013
26.79568 973
26.81579 872
26.8359 830
26.85602 816
26.87613 805
26.89625 763
26.91636 751
26.93647 783
26.95659 759
26.9767 714
26.99681 748
27.01693 711
27.03704 771
27.05716 756
27.07727 694
27.09738 695
27.1175 737
27.13761 718
27.15772 714
27.17784 748
27.19795 723
27.21806 721
27.23818 740
27.25829 676
27.27841 666
27.29852 666
27.31863 699
27.33875 680
27.35886 701
27.37897 697
27.39909 693
27.4192 699
27.43932 680
27.45943 670
27.47954 709
27.49966 697
27.51977 686
27.53988 685
27.56 680
27.58011 704
27.60023 691
27.62034 676
27.64045 669
27.66057 712
27.68068 689
27.70079 721
27.72091 687
27.74102 643
27.76113 649
27.78125 714
27.80136 656
27.82148 702
27.84159 691
27.8617 679
27.88182 646
27.90193 686
27.92204 739
27.94216 713
27.96227 698
27.98239 673
28.0025 683
28.02261 650
28.04273 627
28.06284 719
28.08295 649
28.10307 656
28.12318 693
28.1433 662
28.16341 670
28.18352 674
28.20364 703
28.22375 667
28.24386 685
28.26398 682
28.28409 708
28.3042 690
28.32432 700
28.34443 674
28.36455 686
28.38466 702
28.40477 688
28.42489 676
28.445 657
28.46511 662
28.48523 676
28.50534 725
28.52546 713
28.54557 640
28.56568 676
28.5858 664
28.60591 699
28.62602 673
28.64614 696
28.66625 657
28.68636 639
28.70648 639
28.72659 646
28.74671 625
28.76682 693
28.78693 663
28.80705 662
28.82716 604
28.84727 652
28.86739 646
28.8875 680
28.90762 667
28.92773 658
28.94784 701
28.96796 626
28.98807 666
29.00818 669
29.0283 678
29.04841 661
29.06853 676
29.08864 618
29.10875 634
29.12887 686
29.14898 742
29.16909 629
29.18921 649
29.20932 687
29.22943 627
29.24955 670
29.26966 660
29.28978 676
29.30989 660
29.33 701
29.35012 698
29.37023 671
29.39034 693
29.41046 656
29.43057 634
29.45069 639
29.4708 648
29.49091 727
29.51103 638
29.53114 655
29.55125 685
29.57137 645
29.59148 658
29.6116 676
29.63171 655
29.65182 649
29.67194 646
29.69205 674
29.71216 663
29.73228 657
29.75239 655
29.7725 595
29.79262 674
29.81273 654
29.83285 636
29.85296 647
29.87307 670
29.89319 655
29.9133 627
29.93341 679
29.95353 692
29.97364 642
29.99376 670
30.01387 656
30.03398 691
30.0541 669
30.07421 661
30.09432 641
30.11444 645
30.13455 674
30.15467 648
30.17478 687
30.19489 695
30.21501 692
30.23512 686
30.25523 627
30.27535 724
30.29546 692
30.31557 676
30.33569 638
30.3558 676
30.37592 678
30.39603 687
30.41614 668
30.43626 699
30.45637 635
30.47648 666
30.4966 713
30.51671 678
30.53683 658
30.55694 636
30.57705 652
30.59717 646
30.61728 701
30.63739 699
30.65751 681
30.67762 672
30.69773 639
30.71785 653
30.73796 680
30.75808 646
30.77819 587
30.7983 673
30.81842 624
30.83853 612
30.85864 710
30.87876 697
30.89887 680
30.91899 682
30.9391 637
30.95921 613
30.97933 677
30.99944 675
31.01955 679
31.03967 637
31.05978 604
31.0799 633
31.10001 611
31.12012 636
31.14024 651
31.16035 702
31.18046 702
31.20058 653
31.22069 674
31.2408 651
31.26092 633
31.28103 652
31.30115 700
31.32126 645
31.34137 631
31.36149 646
31.3816 696
31.40171 664
31.42183 644
31.44194 636
31.46206 637
31.48217 663
31.50228 650
31.5224 657
31.54251 681
31.56262 642
31.58274 671
31.60285 630
31.62297 631
31.64308 688
31.66319 678
31.68331 674
31.70342 665
31.72353 695
31.74365 671
31.76376 696
31.78387 675
31.80399 658
31.8241 695
31.84422 665
31.86433 663
31.88444 644
31.90456 714
31.92467 637
31.94478 658
31.9649 689
31.98501 694
32.00513 678
32.02524 707
32.04535 660
32.06547 692
32.08558 689
32.10569 653
32.12581 706
32.14592 694
32.16604 702
32.18615 669
32.20626 674
32.22638 654
32.24649 683
32.2666 684
32.28672 664
32.30683 720
32.32694 699
32.34706 730
32.36717 726
32.38729 700
32.4074 668
32.42751 699
32.44763 699
32.46774 693
32.48785 733
32.50797 686
32.52808 714
32.5482 717
32.56831 673
32.58842 720
32.60854 699
32.62865 772
32.64876 705
32.66888 729
32.68899 782
32.7091 710
32.72922 781
32.74933 798
32.76945 771
32.78956 743
32.80967 809
32.82979 797
32.8499 848
32.87001 836
32.89013 835
32.91024 830
32.93036 857
32.95047 887
32.97058 864
32.9907 939
33.01081 894
33.03092 907
33.05104 948
33.07115 913
33.09127 979
33.11138 910
33.13149 1000
33.15161 996
33.17172 969
33.19183 964
33.21195 996
33.23206 991
33.25217 1018
33.27229 978
33.2924 949
33.31252 922
33.33263 972
33.35274 889
33.37286 964
33.39297 974
33.41308 946
33.4332 908
33.45331 917
33.47343 858
33.49354 894
33.51365 863
33.53377 831
33.55388 900
33.57399 824
33.59411 815
33.61422 833
33.63434 827
33.65445 790
33.67456 721
33.69468 805
33.71479 731
33.7349 716
33.75502 711
33.77513 740
33.79524 757
33.81536 724
33.83547 709
33.85559 716
33.8757 747
33.89581 709
33.91593 667
33.93604 679
33.95615 690
33.97627 689
33.99638 705
34.0165 735
34.03661 684
34.05672 704
34.07684 678
34.09695 711
34.11706 722
34.13718 696
34.15729 693
34.17741 694
34.19752 680
34.21763 699
34.23775 690
34.25786 709
34.27797 666
34.29809 732
34.3182 676
34.33831 744
34.35843 665
34.37854 739
34.39866 708
34.41877 689
34.43888 648
34.459 696
34.47911 747
34.49922 730
34.51934 687
34.53945 690
34.55957 762
34.57968 725
34.59979 747
34.61991 776
34.64002 717
34.66013 754
34.68025 815
34.70036 788
34.72047 854
34.74059 868
34.7607 919
34.78082 905
34.80093 897
34.82104 947
34.84116 992
34.86127 990
34.88138 1042
34.9015 974
34.92161 974
34.94173 1002
34.96184 1004
34.98195 921
35.00207 1005
35.02218 908
35.04229 946
35.06241 928
35.08252 889
35.10264 902
35.12275 931
35.14286 873
35.16298 924
35.18309 867
35.2032 891
35.22332 868
35.24343 803
35.26354 863
35.28366 870
35.30377 863
35.32389 911
35.344 888
35.36411 916
35.38423 972
35.40434 903
35.42445 937
35.44457 978
35.46468 971
35.4848 980
35.50491 981
35.52502 1028
35.54514 1036
35.56525 1057
35.58536 1121
35.60548 1133
35.62559 1069
35.64571 1204
35.66582 1155
35.68593 1170
35.70605 1227
35.72616 1208
35.74627 1135
35.76639 1153
35.7865 1163
35.80661 1099
35.82673 1116
35.84684 1121
35.86696 1071
35.88707 1054
35.90718 1049
35.9273 990
35.94741 973
35.96752 991
35.98764 1021
36.00775 905
36.02787 958
36.04798 916
36.06809 907
36.08821 916
36.10832 864
36.12843 821
36.14855 888
36.16866 850
36.18878 857
36.20889 851
36.229 875
36.24912 801
36.26923 794
36.28934 814
36.30946 845
36.32957 858
36.34968 863
36.3698 829
36.38991 838
36.41003 905
36.43014 923
36.45025 937
36.47037 1008
36.49048 1033
36.51059 1025
36.53071 998
36.55082 974
36.57094 1005
36.59105 952
36.61116 931
36.63128 1000
36.65139 891
36.6715 872
36.69162 922
36.71173 953
36.73184 925
36.75196 983
36.77207 921
36.79219 935
36.8123 972
36.83241 913
36.85253 971
36.87264 936
36.89275 995
36.91287 1015
36.93298 927
36.9531 917
36.97321 903
36.99332 911
37.01344 850
37.03355 843
37.05366 921
37.07378 919
37.09389 836
37.11401 816
37.13412 808
37.15423 810
37.17435 790
37.19446 770
37.21457 710
37.23469 751
37.2548 762
37.27491 729
37.29503 763
37.31514 739
37.33526 751
37.35537 737
37.37548 747
37.3956 741
37.41571 779
37.43582 740
37.45594 723
37.47605 730
37.49617 748
37.51628 789
37.53639 758
37.55651 761
37.57662 739
37.59673 779
37.61685 739
37.63696 767
37.65708 764
37.67719 756
37.6973 757
37.71742 767
37.73753 786
37.75764 800
37.77776 785
37.79787 764
37.81798 767
37.8381 820
37.85821 768
37.87833 825
37.89844 781
37.91855 746
37.93867 828
37.95878 782
37.97889 847
37.99901 778
38.01912 801
38.03924 866
38.05935 815
38.07946 883
38.09958 873
38.11969 877
38.1398 870
38.15992 854
38.18003 881
38.20015 900
38.22026 955
38.24037 1011
38.26049 1009
38.2806 911
38.30071 968
38.32083 1000
38.34094 975
38.36105 985
38.38117 957
38.40128 1064
38.4214 979
38.44151 963
38.46162 951
38.48174 965
38.50185 989
38.52196 926
38.54208 931
38.56219 910
38.58231 882
38.60242 893
38.62253 842
38.64265 832
38.66276 821
38.68287 792
38.70299 840
38.7231 837
38.74321 837
38.76333 844
38.78344 792
38.80356 830
38.82367 821
38.84378 739
38.8639 845
38.88401 771
38.90412 776
38.92424 823
38.94435 824
38.96447 836
38.98458 859
39.00469 849
39.02481 811
39.04492 843
39.06503 870
39.08515 854
39.10526 868
39.12538 854
39.14549 811
39.1656 828
39.18572 853
39.20583 860
39.22594 825
39.24606 864
39.26617 876
39.28628 861
39.3064 894
39.32651 894
39.34663 813
39.36674 939
39.38685 944
39.40697 907
39.42708 945
39.44719 959
39.46731 935
39.48742 890
39.50754 883
39.52765 851
39.54776 802
39.56788 787
39.58799 786
39.6081 781
39.62822 700
39.64833 797
39.66845 714
39.68856 699
39.70867 671
39.72879 712
39.7489 686
39.76901 690
39.78913 698
39.80924 678
39.82935 721
39.84947 757
39.86958 710
39.8897 673
39.90981 742
39.92992 714
39.95004 703
39.97015 725
39.99026 740
40.01038 713
40.03049 773
40.05061 750
40.07072 704
40.09083 783
40.11095 750
40.13106 764
40.15117 752
40.17129 768
40.1914 824
40.21152 849
40.23163 858
40.25174 858
40.27186 805
40.29197 806
40.31208 787
40.3322 795
40.35231 774
40.37242 803
40.39254 792
40.41265 781
40.43277 750
40.45288 700
40.47299 715
40.49311 730
40.51322 758
40.53333 736
40.55345 789
40.57356 748
40.59368 716
40.61379 749
40.6339 738
40.65402 757
40.67413 756
40.69424 772
40.71436 762
40.73447 753
40.75458 746
40.7747 778
40.79481 807
40.81493 795
40.83504 801
40.85515 824
40.87527 788
40.89538 810
40.91549 790
40.93561 818
40.95572 778
40.97584 829
40.99595 791
41.01606 789
41.03618 818
41.05629 766
41.0764 786
41.09652 799
41.11663 771
41.13675 794
41.15686 752
41.17697 703
41.19709 786
41.2172 836
41.23731 781
41.25743 796
41.27754 743
41.29765 695
41.31777 788
41.33788 779
41.358 729
41.37811 749
41.39822 761
41.41834 735
41.43845 709
41.45856 733
41.47868 724
41.49879 729
41.51891 769
41.53902 657
41.55913 734
41.57925 730
41.59936 702
41.61947 705
41.63959 694
41.6597 728
41.67982 711
41.69993 633
41.72004 700
41.74016 658
41.76027 665
41.78038 727
41.8005 696
41.82061 672
41.84072 704
41.86084 699
41.88095 745
41.90107 700
41.92118 632
41.94129 661
41.96141 686
41.98152 645
42.00163 683
42.02175 649
42.04186 627
42.06198 684
42.08209 661
42.1022 676
42.12232 642
42.14243 692
42.16254 651
42.18266 652
42.20277 655
42.22289 663
42.243 694
42.26311 690
42.28323 681
42.30334 725
42.32345 723
42.34357 794
42.36368 798
42.38379 785
42.40391 764
42.42402 810
42.44414 797
42.46425 793
42.48436 774
42.50448 704
42.52459 718
42.5447 727
42.56482 691
42.58493 632
42.60505 682
42.62516 623
42.64527 648
42.66539 662
42.6855 647
42.70561 676
42.72573 646
42.74584 698
42.76595 632
42.78607 657
42.80618 642
42.8263 595
42.84641 634
42.86652 634
42.88664 662
42.90675 675
42.92686 610
42.94698 651
42.96709 645
42.98721 650
43.00732 592
43.02743 643
43.04755 653
43.06766 672
43.08777 647
43.10789 589
43.128 640
43.14812 632
43.16823 669
43.18834 597
43.20846 673
43.22857 670
43.24868 635
43.2688 648
43.28891 657
43.30902 651
43.32914 615
43.34925 648
43.36937 615
43.38948 668
43.40959 670
43.42971 645
43.44982 667
43.46993 635
43.49005 695
43.51016 686
43.53028 633
43.55039 665
43.5705 628
43.59062 667
43.61073 642
43.63084 691
43.65096 644
43.67107 650
43.69119 689
43.7113 651
43.73141 641
43.75153 623
43.77164 660
43.79175 608
43.81187 645
43.83198 686
43.85209 610
43.87221 602
43.89232 639
43.91244 631
43.93255 664
43.95266 625
43.97278 660
43.99289 645
44.013 646
44.03312 637
44.05323 618
44.07335 639
44.09346 647
44.11357 625
44.13369 652
44.1538 618
44.17391 621
44.19403 597
44.21414 609
44.23426 647
44.25437 616
44.27448 604
44.2946 638
44.31471 640
44.33482 669
44.35494 656
44.37505 680
44.39516 667
44.41528 670
44.43539 637
44.45551 678
44.47562 611
44.49573 631
44.51585 677
44.53596 662
44.55607 693
44.57619 666
44.5963 654
44.61642 645
44.63653 678
44.65664 646
44.67676 612
44.69687 671
44.71698 612
44.7371 675
44.75721 704
44.77732 639
44.79744 649
44.81755 653
44.83767 640
44.85778 711
44.87789 684
44.89801 635
44.91812 657
44.93823 677
44.95835 645
44.97846 628
44.99858 615
45.01869 656
45.0388 702
45.05892 636
45.07903 670
45.09914 692
45.11926 721
45.13937 738
45.15949 677
45.1796 676
45.19971 702
45.21983 678
45.23994 666
45.26005 742
45.28017 676
45.30028 702
45.32039 707
45.34051 758
45.36062 699
45.38074 724
45.40085 702
45.42096 752
45.44108 715
45.46119 745
45.4813 737
45.50142 711
45.52153 769
45.54165 735
45.56176 724
45.58187 781
45.60199 784
45.6221 711
45.64221 721
45.66233 755
45.68244 724
45.70256 794
45.72267 805
45.74278 730
45.7629 738
45.78301 782
45.80312 733
45.82324 738
45.84335 729
45.86346 708
45.88358 724
45.90369 712
45.92381 688
45.94392 661
45.96403 657
45.98415 664
46.00426 685
46.02437 684
46.04449 691
46.0646 655
46.08472 655
46.10483 666
46.12494 678
46.14506 745
46.16517 683
46.18528 675
46.2054 615
46.22551 643
46.24563 672
46.26574 630
46.28585 668
46.30597 698
46.32608 689
46.34619 690
46.36631 643
46.38642 641
46.40653 644
46.42665 660
46.44676 665
46.46688 655
46.48699 629
46.5071 672
46.52722 699
46.54733 691
46.56744 710
46.58756 702
46.60767 647
46.62779 687
46.6479 748
46.66801 678
46.68813 650
46.70824 659
46.72835 659
46.74847 691
46.76858 633
46.78869 637
46.80881 662
46.82892 651
46.84904 679
46.86915 630
46.88926 654
46.90938 687
46.92949 598
46.9496 666
46.96972 625
46.98983 643
47.00995 694
47.03006 638
47.05017 638
47.07029 627
47.0904 649
47.11051 658
47.13063 686
47.15074 691
47.17086 651
47.19097 655
47.21108 705
47.2312 696
47.25131 678
47.27142 657
47.29154 660
47.31165 724
47.33176 658
47.35188 633
47.37199 658
47.39211 697
47.41222 657
47.43233 646
47.45245 663
47.47256 645
47.49267 687
47.51279 681
47.5329 670
47.55302 686
47.57313 656
47.59324 648
47.61336 699
47.63347 680
47.65358 647
47.6737 681
47.69381 635
47.71393 679
47.73404 699
47.75415 662
47.77427 726
47.79438 685
47.81449 693
47.83461 699
47.85472 721
47.87483 677
47.89495 698
47.91506 703
47.93518 658
47.95529 623
47.9754 676
47.99552 667
48.01563 648
48.03574 679
48.05586 708
48.07597 661
48.09609 686
48.1162 688
48.13631 653
48.15643 682
48.17654 637
48.19665 676
48.21677 663
48.23688 684
48.257 701
48.27711 665
48.29722 677
48.31734 633
48.33745 652
48.35756 657
48.37768 679
48.39779 670
48.4179 681
48.43802 647
48.45813 655
48.47825 628
48.49836 609
48.51847 656
48.53859 681
48.5587 633
48.57881 643
48.59893 686
48.61904 677
48.63916 664
48.65927 676
48.67938 655
48.6995 637
48.71961 647
48.73972 632
48.75984 712
48.77995 700
48.80006 652
48.82018 647
48.84029 719
48.86041 678
48.88052 689
48.90063 659
48.92075 607
48.94086 663
48.96097 697
48.98109 688
49.0012 661
49.02132 688
49.04143 694
49.06154 699
49.08166 676
49.10177 701
49.12188 690
49.142 724
49.16211 693
49.18223 695
49.20234 668
49.22245 788
49.24257 726
49.26268 724
49.28279 739
49.30291 795
49.32302 743
49.34313 734
49.36325 757
49.38336 762
49.40348 723
49.42359 752
49.4437 708
49.46382 711
49.48393 746
49.50404 758
49.52416 698
49.54427 706
49.56439 752
49.5845 735
49.60461 698
49.62473 730
49.64484 742
49.66495 694
49.68507 733
49.70518 700
49.7253 686
49.74541 732
49.76552 689
49.78564 709
49.80575 660
49.82586 708
49.84598 702
49.86609 668
49.8862 733
49.90632 747
49.92643 712
49.94655 768
49.96666 789
49.98677 797
50.00689 892
50.027 920
50.04711 949
50.06723 961
50.08734 1066
50.10746 949
50.12757 951
50.14768 910
50.1678 919
50.18791 887
50.20802 802
50.22814 882
50.24825 760
50.26837 753
50.28848 750
50.30859 761
50.32871 720
50.34882 671
50.36893 687
50.38905 679
50.40916 645
50.42927 659
50.44939 700
50.4695 668
50.48962 632
50.50973 666
50.52984 614
50.54996 693
50.57007 686
50.59018 679
50.6103 713
50.63041 655
50.65053 647
50.67064 691
50.69075 659
50.71087 617
50.73098 714
50.75109 685
50.77121 712
50.79132 671
50.81143 677
50.83155 711
50.85166 687
50.87178 630
50.89189 639
50.912 674
50.93212 706
50.95223 666
50.97234 672
50.99246 731
51.01257 668
51.03269 688
51.0528 628
51.07291 688
51.09303 643
51.11314 653
51.13325 647
51.15337 645
51.17348 669
51.1936 681
51.21371 667
51.23382 651
51.25394 639
51.27405 688
51.29416 655
51.31428 649
51.33439 623
51.3545 644
51.37462 672
51.39473 647
51.41485 638
51.43496 622
51.45507 635
51.47519 683
51.4953 625
51.51541 627
51.53553 639
51.55564 642
51.57576 642
51.59587 623
51.61598 586
51.6361 626
51.65621 598
51.67632 633
51.69644 619
51.71655 590
51.73667 626
51.75678 628
51.77689 629
51.79701 665
51.81712 599
51.83723 598
51.85735 661
51.87746 598
51.89757 660
51.91769 614
51.9378 674
51.95792 643
51.97803 632
51.99814 643
52.01826 677
52.03837 689
52.05848 569
52.0786 672
52.09871 623
52.11883 647
52.13894 623
52.15905 605
52.17917 625
52.19928 626
52.21939 636
52.23951 670
52.25962 689
52.27974 639
52.29985 661
52.31996 650
52.34008 578
52.36019 655
52.3803 618
52.40042 638
52.42053 642
52.44064 686
52.46076 665
52.48087 660
52.50099 648
52.5211 654
52.54121 614
52.56133 676
52.58144 675
52.60155 626
52.62167 650
52.64178 661
52.6619 644
52.68201 614
52.70212 594
52.72224 630
52.74235 669
52.76246 629
52.78258 613
52.80269 648
52.8228 626
52.84292 651
52.86303 675
52.88315 683
52.90326 662
52.92337 699
52.94349 611
52.9636 668
52.98371 661
53.00383 667
53.02394 671
53.04406 676
53.06417 628
53.08428 720
53.1044 663
53.12451 720
53.14462 703
53.16474 679
53.18485 675
53.20497 746
53.22508 680
53.24519 752
53.26531 707
53.28542 706
53.30553 740
53.32565 767
53.34576 714
53.36587 738
53.38599 736
53.4061 754
53.42622 762
53.44633 769
53.46644 791
53.48656 824
53.50667 769
53.52678 848
53.5469 776
53.56701 876
53.58713 797
53.60724 756
53.62735 798
53.64747 796
53.66758 815
53.68769 728
53.70781 770
53.72792 779
53.74804 756
53.76815 770
53.78826 746
53.80838 779
53.82849 770
53.8486 766
53.86872 810
53.88883 817
53.90894 819
53.92906 772
53.94917 870
53.96929 855
53.9894 842
54.00951 854
54.02963 782
54.04974 823
54.06985 820
54.08997 875
54.11008 840
54.1302 844
54.15031 808
54.17042 834
54.19054 835
54.21065 793
54.23076 846
54.25088 772
54.27099 866
54.29111 813
54.31122 790
54.33133 825
54.35145 823
54.37156 786
54.39167 809
54.41179 811
54.4319 801
54.45201 826
54.47213 773
54.49224 787
54.51236 782
54.53247 788
54.55258 752
54.5727 750
54.59281 813
54.61292 813
54.63304 789
54.65315 803
54.67327 809
54.69338 810
54.71349 841
54.73361 795
54.75372 848
54.77383 822
54.79395 863
54.81406 884
54.83417 892
54.85429 870
54.8744 801
54.89452 818
54.91463 829
54.93474 821
54.95486 823
54.97497 885
54.99508 826
55.0152 797
55.03531 798
55.05543 834
55.07554 780
55.09565 800
55.11577 791
55.13588 771
55.15599 805
55.17611 803
55.19622 817
55.21634 779
55.23645 758
55.25656 844
55.27668 778
55.29679 861
55.3169 766
55.33702 818
55.35713 750
55.37724 745
55.39736 743
55.41747 721
55.43759 752
55.4577 722
55.47781 753
55.49793 751
55.51804 720
55.53815 717
55.55827 699
55.57838 712
55.5985 733
55.61861 675
55.63872 701
55.65884 763
55.67895 748
55.69906 742
55.71918 683
55.73929 696
55.75941 666
55.77952 696
55.79963 675
55.81975 669
55.83986 646
55.85997 708
55.88009 685
55.9002 650
55.92031 734
55.94043 667
55.96054 652
55.98066 724
56.00077 704
56.02088 649
56.041 663
56.06111 716
56.08122 679
56.10134 679
56.12145 695
56.14157 679
56.16168 652
56.18179 695
56.20191 726
56.22202 702
56.24213 659
56.26225 630
56.28236 697
56.30248 656
56.32259 716
56.3427 677
56.36282 701
56.38293 686
56.40304 728
56.42316 731
56.44327 702
56.46338 687
56.4835 719
56.50361 622
56.52373 698
56.54384 698
56.56395 711
56.58407 640
56.60418 661
56.62429 690
56.64441 693
56.66452 686
56.68464 700
56.70475 651
56.72486 687
56.74498 672
56.76509 648
56.7852 683
56.80532 682
56.82543 659
56.84554 661
56.86566 665
56.88577 647
56.90589 653
56.926 689
56.94611 639
56.96623 685
56.98634 665
57.00645 713
57.02657 665
57.04668 688
57.0668 711
57.08691 668
57.10702 674
57.12714 646
57.14725 668
57.16736 666
57.18748 683
57.20759 691
57.22771 651
57.24782 687
57.26793 732
57.28805 670
57.30816 673
57.32827 680
57.34839 677
57.3685 647
57.38861 707
57.40873 622
57.42884 674
57.44896 703
57.46907 679
57.48918 704
57.5093 707
57.52941 693
57.54952 691
57.56964 683
57.58975 651
57.60987 636
57.62998 702
57.65009 656
57.67021 652
57.69032 716
57.71043 663
57.73055 640
57.75066 649
57.77078 679
57.79089 702
57.811 711
57.83112 667
57.85123 704
57.87134 713
57.89146 672
57.91157 649
57.93168 656
57.9518 665
57.97191 674
57.99203 654
58.01214 636
58.03225 681
58.05237 618
58.07248 648
58.09259 678
58.11271 695
58.13282 626
58.15294 662
58.17305 648
58.19316 679
58.21328 678
58.23339 685
58.2535 637
58.27362 678
58.29373 683
58.31385 632
58.33396 659
58.35407 675
58.37419 645
58.3943 676
58.41441 686
58.43453 662
58.45464 651
58.47475 652
58.49487 630
58.51498 657
58.5351 593
58.55521 668
58.57532 661
58.59544 643
58.61555 618
58.63566 672
58.65578 652
58.67589 624
58.69601 680
58.71612 666
58.73623 647
58.75635 651
58.77646 632
58.79657 679
58.81669 645
58.8368 648
58.85691 688
58.87703 594
58.89714 649
58.91726 617
58.93737 638
58.95748 668
58.9776 684
58.99771 663
59.01782 698
59.03794 694
59.05805 696
59.07817 660
59.09828 722
59.11839 679
59.13851 622
59.15862 667
59.17873 669
59.19885 656
59.21896 718
59.23908 677
59.25919 714
59.2793 679
59.29942 664
59.31953 692
59.33964 701
59.35976 685
59.37987 691
59.39998 694
59.4201 638
59.44021 690
59.46033 694
59.48044 681
59.50055 639
59.52067 679
59.54078 697
59.56089 681
59.58101 710
59.60112 713
59.62124 701
59.64135 680
59.66146 675
59.68158 721
59.70169 731
59.7218 704
59.74192 723
59.76203 719
59.78215 777
59.80226 760
59.82237 794
59.84249 758
59.8626 835
59.88271 838
59.90283 863
59.92294 801
59.94305 805
59.96317 848
59.98328 719
60.0034 741
60.02351 732
60.04362 721
60.06374 772
60.08385 712
60.10396 713
60.12408 729
60.14419 626
60.16431 697
60.18442 700
60.20453 673
60.22465 682
60.24476 642
60.26487 656
60.28499 645
60.3051 679
60.32522 644
60.34533 631
60.36544 635
60.38556 624
60.40567 615
60.42578 647
60.4459 647
60.46601 636
60.48612 643
60.50624 635
60.52635 677
60.54647 646
60.56658 659
60.58669 637
60.60681 663
60.62692 617
60.64703 648
60.66715 607
60.68726 609
60.70738 616
60.72749 645
60.7476 626
60.76772 636
60.78783 650
60.80794 604
60.82806 589
60.84817 641
60.86828 607
60.8884 620
60.90851 609
60.92863 646
60.94874 655
60.96885 628
60.98897 634
61.00908 639
61.02919 669
61.04931 619
61.06942 595
61.08954 675
61.10965 633
61.12976 636
61.14988 622
61.16999 682
61.1901 646
61.21022 654
61.23033 648
61.25045 623
61.27056 616
61.29067 698
61.31079 606
61.3309 648
61.35101 669
61.37113 675
61.39124 665
61.41135 651
61.43147 677
61.45158 669
61.4717 692
61.49181 636
61.51192 704
61.53204 636
61.55215 663
61.57226 716
61.59238 670
61.61249 657
61.63261 687
61.65272 673
61.67283 679
61.69295 716
61.71306 712
61.73317 681
61.75329 689
61.7734 713
61.79352 755
61.81363 710
61.83374 709
61.85386 713
61.87397 709
61.89408 772
61.9142 757
61.93431 693
61.95442 748
61.97454 799
61.99465 813
62.01477 815
62.03488 765
62.05499 806
62.07511 789
62.09522 871
62.11533 876
62.13545 809
62.15556 864
62.17568 928
62.19579 852
62.2159 857
62.23602 849
62.25613 923
62.27624 904
62.29636 909
62.31647 863
62.33659 888
62.3567 838
62.37681 872
62.39693 892
62.41704 838
62.43715 736
62.45727 834
62.47738 819
62.49749 800
62.51761 773
62.53772 743
62.55784 715
62.57795 765
62.59806 727
62.61818 693
62.63829 703
62.6584 753
62.67852 664
62.69863 668
62.71875 745
62.73886 697
62.75897 690
62.77909 709
62.7992 679
62.81931 681
62.83943 678
62.85954 700
62.87965 684
62.89977 656
62.91988 660
62.94 699
62.96011 686
62.98022 689
63.00034 688
63.02045 671
63.04056 613
63.06068 655
63.08079 702
63.10091 683
63.12102 674
63.14113 677
63.16125 686
63.18136 617
63.20147 662
63.22159 695
63.2417 697
63.26182 652
63.28193 695
63.30204 673
63.32216 678
63.34227 719
63.36238 668
63.3825 666
63.40261 625
63.42272 724
63.44284 670
63.46295 704
63.48307 710
63.50318 676
63.52329 712
63.54341 671
63.56352 682
63.58363 634
63.60375 679
63.62386 710
63.64398 731
63.66409 698
63.6842 696
63.70432 655
63.72443 677
63.74454 666
63.76466 716
63.78477 736
63.80489 703
63.825 736
63.84511 686
63.86523 731
63.88534 709
63.90545 759
63.92557 764
63.94568 759
63.96579 768
63.98591 803
64.00602 797
64.02614 825
64.04625 775
64.06636 774
64.08648 777
64.10659 808
64.1267 809
64.14682 774
64.16693 762
64.18705 775
64.20716 765
64.22727 743
64.24739 734
64.2675 699
64.28761 756
64.30773 731
64.32784 702
64.34796 760
64.36807 624
64.38818 736
64.4083 677
64.42841 677
64.44852 670
64.46864 689
64.48875 654
64.50886 623
64.52898 673
64.54909 705
64.56921 642
64.58932 651
64.60943 621
64.62955 683
64.64966 708
64.66977 658
64.68989 694
64.71 633
64.73012 659
64.75023 655
64.77034 638
64.79046 654
64.81057 653
64.83068 650
64.8508 669
64.87091 617
64.89102 606
64.91114 637
64.93125 682
64.95137 619
64.97148 636
64.99159 614
65.01171 634
65.03182 618
65.05193 647
65.07205 599
65.09216 598
65.11228 625
65.13239 621
65.1525 600
65.17262 620
65.19273 605
65.21284 587
65.23296 626
65.25307 651
65.27319 632
65.2933 600
65.31341 652
65.33353 573
65.35364 638
65.37375 640
65.39387 641
65.41398 603
65.43409 598
65.45421 624
65.47432 591
65.49444 618
65.51455 597
65.53466 636
65.55478 613
65.57489 613
65.595 621
65.61512 651
65.63523 632
65.65535 609
65.67546 622
65.69557 606
65.71569 648
65.7358 624
65.75591 642
65.77603 670
65.79614 600
65.81626 623
65.83637 607
65.85648 611
65.8766 635
65.89671 639
65.91682 610
65.93694 611
65.95705 656
65.97716 644
65.99728 598
66.01739 601
66.03751 647
66.05762 619
66.07773 605
66.09785 649
66.11796 607
66.13807 658
66.15819 666
66.1783 616
66.19842 576
66.21853 640
66.23864 606
66.25876 640
66.27887 672
66.29898 625
66.3191 627
66.33921 628
66.35933 636
66.37944 641
66.39955 607
66.41967 657
66.43978 619
66.45989 650
66.48001 642
66.50012 603
66.52023 606
66.54035 590
66.56046 612
66.58058 644
66.60069 606
66.6208 620
66.64092 585
66.66103 666
66.68114 630
66.70126 608
66.72137 605
66.74149 593
66.7616 573
66.78171 595
66.80183 633
66.82194 609
66.84205 634
66.86217 615
66.88228 605
66.90239 645
66.92251 610
66.94262 617
66.96274 663
66.98285 628
67.00296 604
67.02308 650
67.04319 608
67.0633 644
67.08342 605
67.10353 610
67.12365 645
67.14376 636
67.16387 613
67.18399 602
67.2041 638
67.22421 628
67.24433 634
67.26444 652
67.28456 666
67.30467 664
67.32478 613
67.3449 593
67.36501 661
67.38512 595
67.40524 622
67.42535 643
67.44546 602
67.46558 592
67.48569 633
67.50581 620
67.52592 644
67.54603 662
67.56615 685
67.58626 696
67.60637 663
67.62649 683
67.6466 787
67.66672 768
67.68683 687
67.70694 712
67.72706 729
67.74717 699
67.76728 700
67.7874 684
67.80751 641
67.82763 704
67.84774 693
67.86785 723
67.88797 710
67.90808 680
67.92819 714
67.94831 695
67.96842 684
67.98853 724
68.00865 733
68.02876 745
68.04888 762
68.06899 798
68.0891 777
68.10922 746
68.12933 787
68.14944 730
68.16956 736
68.18967 751
68.20979 761
68.2299 746
68.25001 810
68.27013 748
68.29024 767
68.31035 735
68.33047 690
68.35058 698
68.3707 703
68.39081 692
68.41092 679
68.43104 660
68.45115 680
68.47126 650
68.49138 665
68.51149 674
68.5316 669
68.55172 640
68.57183 599
68.59195 664
68.61206 613
68.63217 625
68.65229 610
68.6724 596
68.69251 592
68.71263 623
68.73274 593
68.75286 643
68.77297 607
68.79308 631
68.8132 609
68.83331 644
68.85342 613
68.87354 625
68.89365 617
68.91376 595
68.93388 644
68.95399 650
68.97411 605
68.99422 637
69.01433 613
69.03445 595
69.05456 612
69.07467 647
69.09479 641
69.1149 608
69.13502 587
69.15513 604
69.17524 572
69.19536 591
69.21547 605
69.23558 616
69.2557 617
69.27581 596
69.29593 614
69.31604 604
69.33615 606
69.35627 625
69.37638 618
69.39649 611
69.41661 663
69.43672 636
69.45683 629
69.47695 613
69.49706 616
69.51718 612
69.53729 582
69.5574 601
69.57752 631
69.59763 623
69.61774 607
69.63786 631
69.65797 631
69.67809 657
69.6982 638
69.71831 597
69.73843 592
69.75854 633
69.77865 632
69.79877 586
69.81888 626
69.839 632
69.85911 635
69.87922 591
69.89934 607
69.91945 595
69.93956 589
69.95968 607
69.97979 601
69.9999 633
70.02002 585
70.04013 636
70.06025 594
70.08036 678
70.10047 588
70.12059 632
70.1407 611
70.16081 646
70.18093 606
70.20104 602
70.22116 616
70.24127 601
70.26138 598
70.2815 616
70.30161 590
70.32172 578
70.34184 578
70.36195 592
70.38207 612
70.40218 606
70.42229 591
70.44241 553
70.46252 639
70.48263 592
70.50275 597
70.52286 614
70.54297 602
70.56309 611
70.5832 642
70.60332 606
70.62343 579
70.64354 589
70.66366 601
70.68377 641
70.70388 582
70.724 593
70.74411 611
70.76423 556
70.78434 554
70.80445 561
70.82457 640
70.84468 616
70.86479 588
70.88491 612
70.90502 604
70.92513 561
70.94525 570
70.96536 586
70.98548 597
71.00559 633
71.0257 596
71.04582 587
71.06593 620
71.08604 607
71.10616 571
71.12627 568
71.14639 589
71.1665 581
71.18661 610
71.20673 558
71.22684 597
71.24695 590
71.26707 575
71.28718 541
71.3073 603
71.32741 563
71.34752 652
71.36764 620
71.38775 591
71.40786 581
71.42798 624
71.44809 591
71.4682 584
71.48832 609
71.50843 620
71.52855 625
71.54866 600
71.56877 626
71.58889 626
71.609 619
71.62911 628
71.64923 641
71.66934 634
71.68946 652
71.70957 633
71.72968 584
71.7498 625
71.76991 647
71.79002 622
71.81014 607
71.83025 619
71.85037 635
71.87048 659
71.89059 593
71.91071 696
71.93082 651
71.95093 669
71.97105 658
71.99116 675
72.01127 644
72.03139 637
72.0515 667
72.07162 633
72.09173 634
72.11184 676
72.13196 667
72.15207 645
72.17218 633
72.1923 633
72.21241 662
72.23253 657
72.25264 622
72.27275 605
72.29287 626
72.31298 618
72.33309 630
72.35321 583
72.37332 615
72.39344 607
72.41355 607
72.43366 566
72.45378 622
72.47389 624
72.494 569
72.51412 655
72.53423 609
72.55434 607
72.57446 626
72.59457 587
72.61469 608
72.6348 620
72.65491 581
72.67503 597
72.69514 583
72.71525 604
72.73537 577
72.75548 612
72.7756 589
72.79571 576
72.81582 574
72.83594 620
72.85605 629
72.87616 627
72.89628 620
72.91639 629
72.9365 615
72.95662 577
72.97673 605
72.99685 598
73.01696 574
73.03707 576
73.05719 599
73.0773 634
73.09741 605
73.11753 607
73.13764 620
73.15776 637
73.17787 642
73.19798 612
73.2181 634
73.23821 645
73.25832 602
73.27844 662
73.29855 611
73.31867 658
73.33878 654
73.35889 642
73.37901 673
73.39912 681
73.41923 623
73.43935 640
73.45946 639
73.47957 645
73.49969 637
73.5198 586
73.53992 707
73.56003 655
73.58014 648
73.60026 645
73.62037 641
73.64048 583
73.6606 614
73.68071 604
73.70083 592
73.72094 622
73.74105 596
73.76117 642
73.78128 598
73.80139 660
73.82151 595
73.84162 633
73.86174 591
73.88185 535
73.90196 576
73.92208 624
73.94219 592
73.9623 580
73.98242 587
74.00253 572
74.02264 600
74.04276 600
74.06287 582
74.08299 611
74.1031 584
74.12321 618
74.14333 576
74.16344 561
74.18355 615
74.20367 601
74.22378 606
74.2439 547
74.26401 595
74.28412 590
74.30424 567
74.32435 579
74.34446 585
74.36458 571
74.38469 592
74.40481 563
74.42492 582
74.44503 594
74.46515 581
74.48526 545
74.50537 567
74.52549 607
74.5456 574
74.56571 583
74.58583 606
74.60594 563
74.62606 549
74.64617 574
74.66628 559
74.6864 576
74.70651 582
74.72662 591
74.74674 573
74.76685 588
74.78697 604
74.80708 595
74.82719 549
74.84731 597
74.86742 564
74.88753 611
74.90765 601
74.92776 599
74.94787 617
74.96799 585
74.9881 593
75.00822 603
