3.00117 20496
3.02128 19577
3.0414 18951
3.06151 18594
3.08162 17883
3.10174 17667
3.12185 17125
3.14197 16552
3.16208 16187
3.18219 15677
3.20231 15294
3.22242 14628
3.24253 14393
3.26265 13922
3.28276 13502
3.30288 13166
3.32299 12461
3.3431 12393
3.36322 11746
3.38333 11571
3.40344 11250
3.42356 10622
3.44367 10435
3.46379 10188
3.4839 9764
3.50401 9512
3.52413 9120
3.54424 8911
3.56435 8482
3.58447 8174
3.60458 8034
3.62469 7455
3.64481 7377
3.66492 6976
3.68504 6918
3.70515 6636
3.72526 6202
3.74538 5968
3.76549 5883
3.7856 5492
3.80572 5363
3.82583 5156
3.84595 4828
3.86606 4694
3.88617 4562
3.90629 4509
3.9264 4171
3.94651 3904
3.96663 3789
3.98674 3713
4.00686 3544
4.02697 3237
4.04708 3231
4.0672 3207
4.08731 2888
4.10742 2891
4.12754 2645
4.14765 2568
4.16776 2519
4.18788 2422
4.20799 2393
4.22811 2215
4.24822 2205
4.26833 2197
4.28845 2037
4.30856 2003
4.32867 1804
4.34879 1760
4.3689 1840
4.38902 1832
4.40913 1862
4.42924 1616
4.44936 1606
4.46947 1696
4.48958 1584
4.5097 1529
4.52981 1430
4.54992 1567
4.57004 1427
4.59015 1443
4.61027 1472
4.63038 1361
4.65049 1315
4.67061 1385
4.69072 1315
4.71083 1271
4.73095 1190
4.75106 1130
4.77118 1180
4.79129 1217
4.8114 1140
4.83152 1079
4.85163 1121
4.87174 1072
4.89186 1126
4.91197 1039
4.93209 1040
4.9522 1022
4.97231 1037
4.99243 1001
5.01254 956
5.03265 949
5.05277 963
5.07288 905
5.09299 916
5.11311 867
5.13322 830
5.15334 856
5.17345 868
5.19356 827
5.21368 799
5.23379 811
5.2539 738
5.27402 839
5.29413 814
5.31425 728
5.33436 783
5.35447 705
5.37459 728
5.3947 727
5.41481 645
5.43493 714
5.45504 700
5.47516 660
5.49527 692
5.51538 648
5.5355 599
5.55561 646
5.57572 643
5.59584 621
5.61595 585
5.63606 612
5.65618 635
5.67629 541
5.69641 589
5.71652 550
5.73663 573
5.75675 564
5.77686 500
5.79697 562
5.81709 585
5.8372 556
5.85732 547
5.87743 574
5.89754 537
5.91766 531
5.93777 495
5.95788 532
5.978 556
5.99811 569
6.01823 546
6.03834 544
6.05845 525
6.07857 572
6.09868 594
6.11879 573
6.13891 587
6.15902 589
6.17913 606
6.19925 614
6.21936 579
6.23948 523
6.25959 549
6.2797 554
6.29982 557
6.31993 552
6.34004 519
6.36016 566
6.38027 534
6.40039 501
6.4205 545
6.44061 517
6.46073 534
6.48084 503
6.50095 515
6.52107 540
6.54118 511
6.56129 490
6.58141 474
6.60152 535
6.62164 481
6.64175 562
6.66186 490
6.68198 483
6.70209 498
6.7222 542
6.74232 513
6.76243 452
6.78255 511
6.80266 520
6.82277 484
6.84289 486
6.863 451
6.88311 495
6.90323 506
6.92334 456
6.94346 483
6.96357 461
6.98368 484
7.0038 487
7.02391 473
7.04402 460
7.06414 464
7.08425 503
7.10436 471
7.12448 488
7.14459 475
7.16471 470
7.18482 440
7.20493 451
7.22505 470
7.24516 488
7.26527 454
7.28539 453
7.3055 474
7.32562 488
7.34573 484
7.36584 521
7.38596 500
7.40607 499
7.42618 474
7.4463 497
7.46641 492
7.48653 481
7.50664 481
7.52675 457
7.54687 463
7.56698 492
7.58709 511
7.60721 506
7.62732 498
7.64743 563
7.66755 539
7.68766 512
7.70778 500
7.72789 545
7.748 552
7.76812 502
7.78823 532
7.80834 517
7.82846 514
7.84857 550
7.86869 527
7.8888 594
7.90891 555
7.92903 545
7.94914 630
7.96925 621
7.98937 577
8.00948 555
8.0296 640
8.04971 555
8.06982 588
8.08994 620
8.11005 575
8.13016 664
8.15028 657
8.17039 691
8.1905 675
8.21062 675
8.23073 635
8.25085 651
8.27096 668
8.29107 708
8.31119 703
8.3313 703
8.35141 687
8.37153 734
8.39164 723
8.41176 708
8.43187 679
8.45198 825
8.4721 705
8.49221 801
8.51232 696
8.53244 765
8.55255 788
8.57266 776
8.59278 733
8.61289 862
8.63301 825
8.65312 807
8.67323 822
8.69335 808
8.71346 846
8.73357 942
8.75369 977
8.7738 1008
8.79392 1081
8.81403 1112
8.83414 1109
8.85426 1152
8.87437 1106
8.89448 1019
8.9146 916
8.93471 849
8.95483 724
8.97494 658
8.99505 609
9.01517 584
9.03528 532
9.05539 568
9.07551 563
9.09562 554
9.11573 532
9.13585 502
9.15596 526
9.17608 496
9.19619 512
9.2163 524
9.23642 505
9.25653 485
9.27664 480
9.29676 567
9.31687 464
9.33699 503
9.3571 466
9.37721 483
9.39733 446
9.41744 449
9.43755 467
9.45767 496
9.47778 480
9.4979 445
9.51801 477
9.53812 422
9.55824 454
9.57835 434
9.59846 446
9.61858 425
9.63869 438
9.6588 379
9.67892 441
9.69903 485
9.71915 426
9.73926 443
9.75937 419
9.77949 414
9.7996 474
9.81971 455
9.83983 411
9.85994 434
9.88006 421
9.90017 442
9.92028 440
9.9404 422
9.96051 402
9.98062 444
10.00074 415
10.02085 430
10.04097 442
10.06108 428
10.08119 422
10.10131 437
10.12142 411
10.14153 427
10.16165 421
10.18176 439
10.20187 412
10.22199 446
10.2421 400
10.26222 376
10.28233 394
10.30244 401
10.32256 419
10.34267 432
10.36278 417
10.3829 455
10.40301 438
10.42313 380
10.44324 437
10.46335 407
10.48347 434
10.50358 422
10.52369 406
10.54381 396
10.56392 405
10.58403 423
10.60415 423
10.62426 407
10.64438 385
10.66449 382
10.6846 423
10.70472 391
10.72483 446
10.74494 428
10.76506 429
10.78517 423
10.80529 431
10.8254 443
10.84551 388
10.86563 419
10.88574 381
10.90585 419
10.92597 434
10.94608 395
10.9662 439
10.98631 403
11.00642 455
11.02654 421
11.04665 396
11.06676 454
11.08688 439
11.10699 384
11.1271 431
11.14722 405
11.16733 401
11.18745 422
11.20756 419
11.22767 422
11.24779 425
11.2679 426
11.28801 420
11.30813 453
11.32824 397
11.34836 414
11.36847 407
11.38858 432
11.4087 395
11.42881 469
11.44892 416
11.46904 450
11.48915 383
11.50927 420
11.52938 449
11.54949 481
11.56961 407
11.58972 441
11.60983 431
11.62995 482
11.65006 467
11.67017 425
11.69029 441
11.7104 485
11.73052 464
11.75063 471
11.77074 462
11.79086 480
11.81097 472
11.83108 455
11.8512 483
11.87131 481
11.89143 492
11.91154 447
11.93165 463
11.95177 434
11.97188 501
11.99199 504
12.01211 452
12.03222 519
12.05234 503
12.07245 469
12.09256 565
12.11268 495
12.13279 545
12.1529 519
12.17302 484
12.19313 529
12.21324 571
12.23336 523
12.25347 532
12.27359 532
12.2937 533
12.31381 535
12.33393 519
12.35404 511
12.37415 541
12.39427 568
12.41438 541
12.4345 564
12.45461 494
12.47472 489
12.49484 510
12.51495 489
12.53506 508
12.55518 475
12.57529 448
12.5954 478
12.61552 446
12.63563 401
12.65575 410
12.67586 439
12.69597 479
12.71609 422
12.7362 449
12.75631 396
12.77643 403
12.79654 399
12.81666 365
12.83677 384
12.85688 413
12.877 416
12.89711 384
12.91722 407
12.93734 422
12.95745 385
12.97757 392
12.99768 422
13.01779 417
13.03791 368
13.05802 411
13.07813 395
13.09825 408
13.11836 396
13.13847 377
13.15859 404
13.1787 412
13.19882 377
13.21893 400
13.23904 359
13.25916 389
13.27927 338
13.29938 388
13.3195 376
13.33961 402
13.35973 419
13.37984 378
13.39995 381
13.42007 393
13.44018 382
13.46029 388
13.48041 387
13.50052 393
13.52064 352
13.54075 380
13.56086 383
13.58098 375
13.60109 360
13.6212 398
13.64132 369
13.66143 376
13.68154 368
13.70166 389
13.72177 404
13.74189 409
13.762 378
13.78211 400
13.80223 372
13.82234 410
13.84245 399
13.86257 380
13.88268 376
13.9028 393
13.92291 403
13.94302 374
13.96314 412
13.98325 376
14.00336 380
14.02348 368
14.04359 371
14.06371 359
14.08382 381
14.10393 378
14.12405 398
14.14416 362
14.16427 364
14.18439 381
14.2045 359
14.22461 355
14.24473 333
14.26484 376
14.28496 346
14.30507 383
14.32518 314
14.3453 380
14.36541 364
14.38552 356
14.40564 382
14.42575 409
14.44587 384
14.46598 401
14.48609 333
14.50621 384
14.52632 412
14.54643 400
14.56655 377
14.58666 387
14.60677 382
14.62689 364
14.647 400
14.66712 416
14.68723 370
14.70734 367
14.72746 373
14.74757 373
14.76768 363
14.7878 364
14.80791 374
14.82803 381
14.84814 351
14.86825 356
14.88837 354
14.90848 335
14.92859 363
14.94871 360
14.96882 393
14.98894 361
15.00905 360
15.02916 390
15.04928 362
15.06939 370
15.0895 387
15.10962 369
15.12973 380
15.14984 367
15.16996 386
15.19007 357
15.21019 360
15.2303 374
15.25041 353
15.27053 360
15.29064 371
15.31075 339
15.33087 349
15.35098 344
15.3711 361
15.39121 382
15.41132 370
15.43144 377
15.45155 344
15.47166 381
15.49178 372
15.51189 351
15.53201 346
15.55212 347
15.57223 367
15.59235 354
15.61246 361
15.63257 368
15.65269 385
15.6728 337
15.69291 364
15.71303 373
15.73314 338
15.75326 377
15.77337 367
15.79348 379
15.8136 353
15.83371 395
15.85382 347
15.87394 383
15.89405 388
15.91417 367
15.93428 333
15.95439 363
15.97451 355
15.99462 403
16.01473 357
16.03485 383
16.05496 353
16.07508 341
16.09519 318
16.1153 385
16.13542 353
16.15553 379
16.17564 346
16.19576 333
16.21587 360
16.23598 363
16.2561 391
16.27621 355
16.29633 374
16.31644 357
16.33655 350
16.35667 329
16.37678 376
16.39689 372
16.41701 333
16.43712 343
16.45724 382
16.47735 369
16.49746 352
16.51758 347
16.53769 369
16.5578 373
16.57792 351
16.59803 415
16.61814 375
16.63826 326
16.65837 352
16.67849 372
16.6986 358
16.71871 346
16.73883 356
16.75894 350
16.77905 323
16.79917 367
16.81928 396
16.8394 405
16.85951 365
16.87962 373
16.89974 341
16.91985 358
16.93996 385
16.96008 366
16.98019 353
17.00031 378
17.02042 344
17.04053 367
17.06065 384
17.08076 324
17.10087 361
17.12099 376
17.1411 365
17.16121 388
17.18133 369
17.20144 358
17.22156 390
17.24167 328
17.26178 361
17.2819 371
17.30201 347
17.32212 366
17.34224 385
17.36235 380
17.38247 324
17.40258 321
17.42269 393
17.44281 395
17.46292 354
17.48303 396
17.50315 374
17.52326 354
17.54338 393
17.56349 383
17.5836 395
17.60372 387
17.62383 443
17.64394 444
17.66406 459
17.68417 478
17.70428 525
17.7244 531
17.74451 577
17.76463 537
17.78474 523
17.80485 507
17.82497 490
17.84508 457
17.86519 404
17.88531 388
17.90542 401
17.92554 425
17.94565 426
17.96576 385
17.98588 441
18.00599 377
18.0261 353
18.04622 341
18.06633 409
18.08645 406
18.10656 369
18.12667 348
18.14679 420
18.1669 344
18.18701 411
18.20713 366
18.22724 413
18.24735 362
18.26747 387
18.28758 366
18.3077 386
18.32781 378
18.34792 394
18.36804 397
18.38815 368
18.40826 388
18.42838 408
18.44849 406
18.46861 380
18.48872 412
18.50883 359
18.52895 387
18.54906 406
18.56917 377
18.58929 428
18.6094 408
18.62951 412
18.64963 401
18.66974 400
18.68986 408
18.70997 407
18.73008 397
18.7502 443
18.77031 424
18.79042 382
18.81054 404
18.83065 388
18.85077 433
18.87088 392
18.89099 405
18.91111 365
18.93122 405
18.95133 377
18.97145 379
18.99156 370
19.01168 402
19.03179 372
19.0519 396
19.07202 374
19.09213 410
19.11224 425
19.13236 455
19.15247 469
19.17258 516
19.1927 492
19.21281 539
19.23293 528
19.25304 542
19.27315 542
19.29327 600
19.31338 595
19.33349 563
19.35361 577
19.37372 543
19.39384 554
19.41395 536
19.43406 564
19.45418 532
19.47429 526
19.4944 587
19.51452 542
19.53463 579
19.55475 546
19.57486 605
19.59497 526
19.61509 525
19.6352 554
19.65531 609
19.67543 678
19.69554 659
19.71565 661
19.73577 727
19.75588 766
19.776 773
19.79611 854
19.81622 891
19.83634 922
19.85645 949
19.87656 949
19.89668 954
19.91679 854
19.93691 851
19.95702 799
19.97713 735
19.99725 673
20.01736 676
20.03747 613
20.05759 589
20.0777 619
20.09782 585
20.11793 641
20.13804 624
20.15816 605
20.17827 607
20.19838 603
20.2185 592
20.23861 630
20.25872 621
20.27884 562
20.29895 553
20.31907 585
20.33918 544
20.35929 551
20.37941 582
20.39952 564
20.41963 599
20.43975 539
20.45986 588
20.47998 549
20.50009 599
20.5202 612
20.54032 617
20.56043 637
20.58054 657
20.60066 701
20.62077 757
20.64088 851
20.661 912
20.68111 1024
20.70123 1160
20.72134 1447
20.74145 1608
20.76157 1862
20.78168 2075
20.80179 2188
20.82191 2262
20.84202 2139
20.86214 1863
20.88225 1569
20.90236 1245
20.92248 1006
20.94259 789
20.9627 657
20.98282 617
21.00293 588
21.02305 617
21.04316 594
21.06327 575
21.08339 567
21.1035 572
21.12361 595
21.14373 568
21.16384 554
21.18395 565
21.20407 565
21.22418 579
21.2443 575
21.26441 579
21.28452 558
21.30464 576
21.32475 580
21.34486 530
21.36498 539
21.38509 511
21.40521 516
21.42532 558
21.44543 519
21.46555 494
21.48566 584
21.50577 552
21.52589 519
21.546 547
21.56612 569
21.58623 571
21.60634 523
21.62646 509
21.64657 519
21.66668 544
21.6868 517
21.70691 550
21.72702 527
21.74714 522
21.76725 475
21.78737 486
21.80748 516
21.82759 501
21.84771 495
21.86782 534
21.88793 474
21.90805 505
21.92816 506
21.94828 504
21.96839 476
21.9885 520
22.00862 521
22.02873 486
22.04884 496
22.06896 485
22.08907 505
22.10919 490
22.1293 533
22.14941 460
22.16953 500
22.18964 469
22.20975 456
22.22987 493
22.24998 464
22.27009 492
22.29021 478
22.31032 475
22.33044 478
22.35055 505
22.37066 500
22.39078 492
22.41089 444
22.431 507
22.45112 549
22.47123 478
22.49135 552
22.51146 487
22.53157 477
22.55169 511
22.5718 482
22.59191 533
22.61203 533
22.63214 466
22.65225 494
22.67237 459
22.69248 507
22.7126 487
22.73271 478
22.75282 505
22.77294 503
22.79305 529
22.81316 586
22.83328 597
22.85339 565
22.87351 629
22.89362 599
22.91373 614
22.93385 576
22.95396 535
22.97407 558
22.99419 554
23.0143 545
23.03442 498
23.05453 520
23.07464 510
23.09476 451
23.11487 476
23.13498 450
23.1551 438
23.17521 456
23.19532 434
23.21544 486
23.23555 443
23.25567 504
23.27578 471
23.29589 452
23.31601 447
23.33612 445
23.35623 481
23.37635 413
23.39646 457
23.41658 464
23.43669 452
23.4568 513
23.47692 470
23.49703 529
23.51714 509
23.53726 546
23.55737 505
23.57749 510
23.5976 502
23.61771 489
23.63783 513
23.65794 537
23.67805 539
23.69817 570
23.71828 598
23.73839 613
23.75851 631
23.77862 650
23.79874 656
23.81885 654
23.83896 639
23.85908 626
23.87919 594
23.8993 653
23.91942 645
23.93953 572
23.95965 546
23.97976 565
23.99987 562
24.01999 513
24.0401 547
24.06021 543
24.08033 571
24.10044 530
24.12056 528
24.14067 529
24.16078 527
24.1809 561
24.20101 520
24.22112 540
24.24124 523
24.26135 561
24.28146 561
24.30158 560
24.32169 539
24.34181 562
24.36192 540
24.38203 491
24.40215 560
24.42226 517
24.44237 526
24.46249 527
24.4826 556
24.50272 493
24.52283 485
24.54294 524
24.56306 505
24.58317 545
24.60328 545
24.6234 546
24.64351 558
24.66362 523
24.68374 551
24.70385 562
24.72397 554
24.74408 538
24.76419 592
24.78431 564
24.80442 575
24.82453 616
24.84465 539
24.86476 578
24.88488 537
24.90499 518
24.9251 552
24.94522 526
24.96533 559
24.98544 544
25.00556 578
25.02567 600
25.04579 587
25.0659 564
25.08601 592
25.10613 536
25.12624 585
25.14635 569
25.16647 604
25.18658 574
25.20669 620
25.22681 618
25.24692 546
25.26704 630
25.28715 609
25.30726 632
25.32738 606
25.34749 669
25.3676 659
25.38772 654
25.40783 660
25.42795 711
25.44806 705
25.46817 800
25.48829 770
25.5084 796
25.52851 740
25.54863 767
25.56874 731
25.58886 751
25.60897 668
25.62908 627
25.6492 656
25.66931 641
25.68942 649
25.70954 604
25.72965 611
25.74976 640
25.76988 580
25.78999 588
25.81011 582
25.83022 612
25.85033 609
25.87045 621
25.89056 650
25.91067 682
25.93079 639
25.9509 647
25.97102 670
25.99113 654
26.01124 654
26.03136 691
26.05147 751
26.07158 724
26.0917 777
26.11181 808
26.13193 854
26.15204 837
26.17215 824
26.19227 889
26.21238 963
26.23249 940
26.25261 1078
26.27272 1070
26.29283 1186
26.31295 1212
26.33306 1280
26.35318 1406
26.37329 1578
26.3934 1805
26.41352 2156
26.43363 2587
26.45374 3257
26.47386 4051
26.49397 4999
26.51409 5994
26.5342 7100
26.55431 8097
26.57443 9014
26.59454 9105
26.61465 8481
26.63477 7422
26.65488 6174
26.67499 4680
26.69511 3727
26.71522 2645
26.73534 1954
26.75545 1534
26.77556 1295
26.79568 1207
26.81579 1141
26.8359 1057
26.85602 991
26.87613 937
26.89625 782
26.91636 781
26.93647 746
26.95659 682
26.9767 617
26.99681 600
27.01693 583
27.03704 599
27.05716 583
27.07727 584
27.09738 552
27.1175 535
27.13761 537
27.15772 514
27.17784 525
27.19795 555
27.21806 520
27.23818 549
27.25829 505
27.27841 552
27.29852 519
27.31863 507
27.33875 491
27.35886 493
27.37897 520
27.39909 510
27.4192 530
27.43932 481
27.45943 484
27.47954 495
27.49966 524
27.51977 514
27.53988 549
27.56 512
27.58011 464
27.60023 445
27.62034 524
27.64045 577
27.66057 585
27.68068 575
27.70079 615
27.72091 644
27.74102 700
27.76113 697
27.78125 776
27.80136 746
27.82148 744
27.84159 713
27.8617 741
27.88182 742
27.90193 720
27.92204 715
27.94216 690
27.96227 662
27.98239 640
28.0025 585
28.02261 604
28.04273 559
28.06284 556
28.08295 548
28.10307 548
28.12318 524
28.1433 545
28.16341 534
28.18352 516
28.20364 521
28.22375 530
28.24386 573
28.26398 524
28.28409 533
28.3042 553
28.32432 519
28.34443 543
28.36455 546
28.38466 556
28.40477 499
28.42489 528
28.445 570
28.46511 533
28.48523 513
28.50534 486
28.52546 540
28.54557 512
28.56568 519
28.5858 502
28.60591 501
28.62602 484
28.64614 468
28.66625 491
28.68636 492
28.70648 499
28.72659 458
28.74671 425
28.76682 481
28.78693 464
28.80705 454
28.82716 405
28.84727 442
28.86739 448
28.8875 406
28.90762 436
28.92773 444
28.94784 398
28.96796 426
28.98807 426
29.00818 421
29.0283 456
29.04841 431
29.06853 415
29.08864 413
29.10875 398
29.12887 431
29.14898 417
29.16909 433
29.18921 461
29.20932 440
29.22943 436
29.24955 442
29.26966 450
29.28978 413
29.30989 415
29.33 409
29.35012 397
29.37023 457
29.39034 421
29.41046 461
29.43057 428
29.45069 450
29.4708 445
29.49091 414
29.51103 404
29.53114 455
29.55125 434
29.57137 466
29.59148 455
29.6116 409
29.63171 481
29.65182 493
29.67194 518
29.69205 478
29.71216 522
29.73228 567
29.75239 551
29.7725 570
29.79262 585
29.81273 582
29.83285 638
29.85296 636
29.87307 586
29.89319 631
29.9133 642
29.93341 604
29.95353 618
29.97364 565
29.99376 549
30.01387 487
30.03398 532
30.0541 498
30.07421 489
30.09432 468
30.11444 489
30.13455 441
30.15467 451
30.17478 438
30.19489 444
30.21501 444
30.23512 481
30.25523 463
30.27535 463
30.29546 476
30.31557 451
30.33569 475
30.3558 447
30.37592 463
30.39603 439
30.41614 456
30.43626 454
30.45637 455
30.47648 429
30.4966 477
30.51671 483
30.53683 444
30.55694 457
30.57705 472
30.59717 440
30.61728 481
30.63739 474
30.65751 453
30.67762 446
30.69773 456
30.71785 433
30.73796 480
30.75808 454
30.77819 503
30.7983 481
30.81842 456
30.83853 443
30.85864 487
30.87876 492
30.89887 429
30.91899 453
30.9391 474
30.95921 467
30.97933 423
30.99944 462
31.01955 479
31.03967 510
31.05978 468
31.0799 461
31.10001 520
31.12012 439
31.14024 519
31.16035 527
31.18046 517
31.20058 531
31.22069 568
31.2408 583
31.26092 559
31.28103 571
31.30115 557
31.32126 515
31.34137 517
31.36149 495
31.3816 500
31.40171 484
31.42183 454
31.44194 441
31.46206 461
31.48217 443
31.50228 442
31.5224 451
31.54251 429
31.56262 424
31.58274 396
31.60285 400
31.62297 426
31.64308 407
31.66319 448
31.68331 404
31.70342 427
31.72353 413
31.74365 417
31.76376 430
31.78387 400
31.80399 414
31.8241 441
31.84422 469
31.86433 465
31.88444 452
31.90456 443
31.92467 454
31.94478 466
31.9649 480
31.98501 503
32.00513 506
32.02524 498
32.04535 515
32.06547 519
32.08558 476
32.10569 495
32.12581 508
32.14592 471
32.16604 472
32.18615 455
32.20626 451
32.22638 486
32.24649 469
32.2666 448
32.28672 455
32.30683 403
32.32694 432
32.34706 425
32.36717 464
32.38729 473
32.4074 461
32.42751 455
32.44763 449
32.46774 466
32.48785 498
32.50797 492
32.52808 515
32.5482 465
32.56831 440
32.58842 424
32.60854 464
32.62865 478
32.64876 418
32.66888 432
32.68899 436
32.7091 458
32.72922 451
32.74933 429
32.76945 434
32.78956 382
32.80967 433
32.82979 423
32.8499 434
32.87001 429
32.89013 415
32.91024 415
32.93036 429
32.95047 411
32.97058 469
32.9907 425
33.01081 451
33.03092 423
33.05104 449
33.07115 429
33.09127 426
33.11138 440
33.13149 453
33.15161 452
33.17172 438
33.19183 421
33.21195 449
33.23206 432
33.25217 427
33.27229 411
33.2924 416
33.31252 433
33.33263 435
33.35274 459
33.37286 416
33.39297 424
33.41308 424
33.4332 434
33.45331 416
33.47343 397
33.49354 434
33.51365 440
33.53377 401
33.55388 392
33.57399 411
33.59411 442
33.61422 467
33.63434 425
33.65445 465
33.67456 458
33.69468 489
33.71479 485
33.7349 497
33.75502 501
33.77513 474
33.79524 468
33.81536 477
33.83547 520
33.85559 514
33.8757 502
33.89581 555
33.91593 545
33.93604 565
33.95615 584
33.97627 580
33.99638 575
34.0165 661
34.03661 674
34.05672 655
34.07684 694
34.09695 746
34.11706 793
34.13718 757
34.15729 877
34.17741 836
34.19752 880
34.21763 945
34.23775 881
34.25786 887
34.27797 842
34.29809 768
34.3182 775
34.33831 737
34.35843 755
34.37854 764
34.39866 709
34.41877 687
34.43888 727
34.459 709
34.47911 668
34.49922 702
34.51934 740
34.53945 708
34.55957 762
34.57968 763
34.59979 744
34.61991 722
34.64002 743
34.66013 693
34.68025 723
34.70036 685
34.72047 715
34.74059 698
34.7607 710
34.78082 691
34.80093 743
34.82104 733
34.84116 725
34.86127 752
34.88138 800
34.9015 832
34.92161 873
34.94173 863
34.96184 891
34.98195 948
35.00207 906
35.02218 936
35.04229 845
35.06241 888
35.08252 819
35.10264 814
35.12275 738
35.14286 736
35.16298 635
35.18309 682
35.2032 646
35.22332 631
35.24343 585
35.26354 619
35.28366 591
35.30377 612
35.32389 597
35.344 545
35.36411 516
35.38423 527
35.40434 519
35.42445 497
35.44457 507
35.46468 536
35.4848 500
35.50491 556
35.52502 554
35.54514 487
35.56525 544
35.58536 517
35.60548 515
35.62559 537
35.64571 561
35.66582 536
35.68593 578
35.70605 548
35.72616 551
35.74627 549
35.76639 542
35.7865 534
35.80661 530
35.82673 560
35.84684 539
35.86696 567
35.88707 497
35.90718 568
35.9273 535
35.94741 567
35.96752 508
35.98764 548
36.00775 492
36.02787 546
36.04798 523
36.06809 512
36.08821 522
36.10832 500
36.12843 523
36.14855 494
36.16866 514
36.18878 506
36.20889 585
36.229 550
36.24912 594
36.26923 551
36.28934 624
36.30946 560
36.32957 691
36.34968 732
36.3698 807
36.38991 860
36.41003 940
36.43014 959
36.45025 1029
36.47037 1071
36.49048 1103
36.51059 1043
36.53071 1050
36.55082 913
36.57094 892
36.59105 821
36.61116 744
36.63128 710
36.65139 673
36.6715 683
36.69162 637
36.71173 639
36.73184 658
36.75196 662
36.77207 669
36.79219 662
36.8123 631
36.83241 645
36.85253 695
36.87264 670
36.89275 721
36.91287 701
36.93298 684
36.9531 653
36.97321 716
36.99332 641
37.01344 645
37.03355 632
37.05366 662
37.07378 630
37.09389 587
37.11401 564
37.13412 576
37.15423 549
37.17435 582
37.19446 569
37.21457 536
37.23469 511
37.2548 546
37.27491 525
37.29503 498
37.31514 509
37.33526 511
37.35537 511
37.37548 506
37.3956 564
37.41571 548
37.43582 505
37.45594 511
37.47605 510
37.49617 470
37.51628 468
37.53639 533
37.55651 513
37.57662 514
37.59673 493
37.61685 496
37.63696 482
37.65708 521
37.67719 492
37.6973 580
37.71742 493
37.73753 506
37.75764 515
37.77776 530
37.79787 558
37.81798 484
37.8381 523
37.85821 517
37.87833 507
37.89844 492
37.91855 496
37.93867 502
37.95878 453
37.97889 440
37.99901 446
38.01912 470
38.03924 451
38.05935 464
38.07946 508
38.09958 470
38.11969 472
38.1398 425
38.15992 472
38.18003 441
38.20015 482
38.22026 496
38.24037 463
38.26049 462
38.2806 492
38.30071 478
38.32083 447
38.34094 484
38.36105 456
38.38117 480
38.40128 513
38.4214 468
38.44151 462
38.46162 449
38.48174 465
38.50185 450
38.52196 453
38.54208 439
38.56219 439
38.58231 434
38.60242 425
38.62253 458
38.64265 436
38.66276 447
38.68287 404
38.70299 427
38.7231 447
38.74321 436
38.76333 467
38.78344 395
38.80356 432
38.82367 425
38.84378 428
38.8639 432
38.88401 463
38.90412 438
38.92424 437
38.94435 418
38.96447 446
38.98458 433
39.00469 446
39.02481 456
39.04492 502
39.06503 514
39.08515 498
39.10526 505
39.12538 499
39.14549 525
39.1656 558
39.18572 534
39.20583 536
39.22594 550
39.24606 625
39.26617 612
39.28628 738
39.3064 714
39.32651 757
39.34663 797
39.36674 890
39.38685 887
39.40697 893
39.42708 933
39.44719 836
39.46731 872
39.48742 721
39.50754 682
39.52765 697
39.54776 590
39.56788 575
39.58799 538
39.6081 513
39.62822 444
39.64833 502
39.66845 495
39.68856 473
39.70867 437
39.72879 470
39.7489 471
39.76901 489
39.78913 460
39.80924 468
39.82935 513
39.84947 528
39.86958 475
39.8897 495
39.90981 459
39.92992 529
39.95004 464
39.97015 559
39.99026 492
40.01038 535
40.03049 559
40.05061 515
40.07072 543
40.09083 578
40.11095 622
40.13106 616
40.15117 594
40.17129 647
40.1914 719
40.21152 732
40.23163 732
40.25174 689
40.27186 673
40.29197 674
40.31208 618
40.3322 563
40.35231 561
40.37242 519
40.39254 521
40.41265 489
40.43277 465
40.45288 437
40.47299 442
40.49311 421
40.51322 430
40.53333 438
40.55345 462
40.57356 455
40.59368 464
40.61379 454
40.6339 457
40.65402 453
40.67413 458
40.69424 455
40.71436 477
40.73447 430
40.75458 452
40.7747 438
40.79481 441
40.81493 460
40.83504 432
40.85515 470
40.87527 458
40.89538 473
40.91549 498
40.93561 494
40.95572 479
40.97584 461
40.99595 502
41.01606 454
41.03618 456
41.05629 488
41.0764 483
41.09652 477
41.11663 467
41.13675 485
41.15686 503
41.17697 474
41.19709 472
41.2172 473
41.23731 562
41.25743 495
41.27754 526
41.29765 514
41.31777 523
41.33788 526
41.358 501
41.37811 485
41.39822 503
41.41834 528
41.43845 541
41.45856 520
41.47868 550
41.49879 531
41.51891 505
41.53902 551
41.55913 479
41.57925 479
41.59936 501
41.61947 476
41.63959 510
41.6597 505
41.67982 439
41.69993 440
41.72004 462
41.74016 440
41.76027 495
41.78038 466
41.8005 459
41.82061 446
41.84072 434
41.86084 442
41.88095 425
41.90107 434
41.92118 467
41.94129 464
41.96141 452
41.98152 455
42.00163 468
42.02175 473
42.04186 466
42.06198 469
42.08209 481
42.1022 510
42.12232 488
42.14243 511
42.16254 538
42.18266 490
42.20277 544
42.22289 518
42.243 568
42.26311 623
42.28323 621
42.30334 673
42.32345 728
42.34357 738
42.36368 755
42.38379 804
42.40391 867
42.42402 840
42.44414 744
42.46425 677
42.48436 656
42.50448 627
42.52459 561
42.5447 517
42.56482 545
42.58493 496
42.60505 440
42.62516 474
42.64527 440
42.66539 428
42.6855 387
42.70561 421
42.72573 398
42.74584 370
42.76595 427
42.78607 421
42.80618 413
42.8263 360
42.84641 400
42.86652 432
42.88664 399
42.90675 401
42.92686 348
42.94698 376
42.96709 364
42.98721 374
43.00732 409
43.02743 371
43.04755 380
43.06766 413
43.08777 355
43.10789 369
43.128 385
43.14812 355
43.16823 399
43.18834 357
43.20846 353
43.22857 375
43.24868 354
43.2688 386
43.28891 393
43.30902 397
43.32914 377
43.34925 370
43.36937 366
43.38948 398
43.40959 390
43.42971 386
43.44982 369
43.46993 352
43.49005 352
43.51016 374
43.53028 372
43.55039 364
43.5705 378
43.59062 349
43.61073 370
43.63084 371
43.65096 358
43.67107 389
43.69119 337
43.7113 408
43.73141 368
43.75153 398
43.77164 407
43.79175 398
43.81187 357
43.83198 366
43.85209 347
43.87221 366
43.89232 370
43.91244 383
43.93255 411
43.95266 367
43.97278 381
43.99289 412
44.013 408
44.03312 372
44.05323 425
44.07335 391
44.09346 392
44.11357 414
44.13369 385
44.1538 413
44.17391 379
44.19403 386
44.21414 379
44.23426 403
44.25437 391
44.27448 399
44.2946 411
44.31471 395
44.33482 385
44.35494 415
44.37505 374
44.39516 397
44.41528 364
44.43539 400
44.45551 386
44.47562 364
44.49573 442
44.51585 427
44.53596 415
44.55607 398
44.57619 437
44.5963 419
44.61642 423
44.63653 385
44.65664 434
44.67676 420
44.69687 437
44.71698 422
44.7371 435
44.75721 440
44.77732 428
44.79744 434
44.81755 446
44.83767 457
44.85778 475
44.87789 449
44.89801 462
44.91812 498
44.93823 486
44.95835 474
44.97846 472
44.99858 474
45.01869 502
45.0388 478
45.05892 505
45.07903 508
45.09914 474
45.11926 461
45.13937 474
45.15949 477
45.1796 478
45.19971 522
45.21983 506
45.23994 495
45.26005 469
45.28017 512
45.30028 489
45.32039 552
45.34051 572
45.36062 581
45.38074 548
45.40085 547
45.42096 549
45.44108 545
45.46119 606
45.4813 584
45.50142 594
45.52153 542
45.54165 541
45.56176 605
45.58187 572
45.60199 625
45.6221 616
45.64221 594
45.66233 604
45.68244 603
45.70256 589
45.72267 634
45.74278 662
45.7629 560
45.78301 613
45.80312 526
45.82324 516
45.84335 502
45.86346 499
45.88358 483
45.90369 512
45.92381 455
45.94392 448
45.96403 429
45.98415 468
46.00426 462
46.02437 449
46.04449 403
46.0646 438
46.08472 400
46.10483 416
46.12494 454
46.14506 412
46.16517 415
46.18528 394
46.2054 397
46.22551 431
46.24563 409
46.26574 400
46.28585 404
46.30597 368
46.32608 370
46.34619 343
46.36631 378
46.38642 379
46.40653 406
46.42665 371
46.44676 387
46.46688 394
46.48699 370
46.5071 376
46.52722 411
46.54733 419
46.56744 405
46.58756 409
46.60767 363
46.62779 391
46.6479 396
46.66801 391
46.68813 392
46.70824 378
46.72835 380
46.74847 365
46.76858 392
46.78869 374
46.80881 355
46.82892 388
46.84904 391
46.86915 355
46.88926 400
46.90938 397
46.92949 376
46.9496 351
46.96972 380
46.98983 359
47.00995 368
47.03006 421
47.05017 376
47.07029 369
47.0904 371
47.11051 367
47.13063 371
47.15074 365
47.17086 353
47.19097 395
47.21108 349
47.2312 369
47.25131 402
47.27142 395
47.29154 396
47.31165 367
47.33176 366
47.35188 387
47.37199 393
47.39211 414
47.41222 362
47.43233 354
47.45245 340
47.47256 384
47.49267 373
47.51279 402
47.5329 457
47.55302 358
47.57313 386
47.59324 379
47.61336 372
47.63347 382
47.65358 375
47.6737 382
47.69381 368
47.71393 369
47.73404 387
47.75415 398
47.77427 346
47.79438 417
47.81449 415
47.83461 385
47.85472 381
47.87483 349
47.89495 376
47.91506 374
47.93518 376
47.95529 385
47.9754 375
47.99552 386
48.01563 363
48.03574 421
48.05586 368
48.07597 388
48.09609 387
48.1162 353
48.13631 369
48.15643 349
48.17654 383
48.19665 372
48.21677 395
48.23688 400
48.257 388
48.27711 371
48.29722 414
48.31734 394
48.33745 398
48.35756 368
48.37768 397
48.39779 338
48.4179 371
48.43802 374
48.45813 384
48.47825 407
48.49836 381
48.51847 383
48.53859 413
48.5587 395
48.57881 380
48.59893 422
48.61904 364
48.63916 386
48.65927 387
48.67938 382
48.6995 359
48.71961 398
48.73972 375
48.75984 379
48.77995 365
48.80006 385
48.82018 408
48.84029 385
48.86041 409
48.88052 392
48.90063 386
48.92075 345
48.94086 373
48.96097 397
48.98109 351
49.0012 371
49.02132 347
49.04143 368
49.06154 353
49.08166 366
49.10177 379
49.12188 337
49.142 390
49.16211 348
49.18223 386
49.20234 381
49.22245 379
49.24257 383
49.26268 369
49.28279 373
49.30291 373
49.32302 386
49.34313 378
49.36325 360
49.38336 363
49.40348 379
49.42359 405
49.4437 370
49.46382 361
49.48393 403
49.50404 370
49.52416 385
49.54427 378
49.56439 362
49.5845 430
49.60461 414
49.62473 406
49.64484 417
49.66495 382
49.68507 402
49.70518 413
49.7253 404
49.74541 418
49.76552 432
49.78564 458
49.80575 487
49.82586 505
49.84598 498
49.86609 522
49.8862 594
49.90632 618
49.92643 675
49.94655 746
49.96666 816
49.98677 880
50.00689 944
50.027 1020
50.04711 1078
50.06723 1043
50.08734 1015
50.10746 1036
50.12757 949
50.14768 875
50.1678 772
50.18791 768
50.20802 667
50.22814 654
50.24825 608
50.26837 551
50.28848 502
50.30859 432
50.32871 406
50.34882 373
50.36893 386
50.38905 394
50.40916 380
50.42927 372
50.44939 383
50.4695 356
50.48962 365
50.50973 388
50.52984 426
50.54996 382
50.57007 348
50.59018 377
50.6103 394
50.63041 373
50.65053 370
50.67064 329
50.69075 361
50.71087 360
50.73098 404
50.75109 355
50.77121 379
50.79132 354
50.81143 325
50.83155 322
50.85166 352
50.87178 351
50.89189 362
50.912 376
50.93212 365
50.95223 346
50.97234 359
50.99246 371
51.01257 319
51.03269 356
51.0528 354
51.07291 344
51.09303 365
51.11314 331
51.13325 337
51.15337 353
51.17348 349
51.1936 367
51.21371 363
51.23382 359
51.25394 325
51.27405 326
51.29416 344
51.31428 357
51.33439 329
51.3545 363
51.37462 365
51.39473 372
51.41485 354
51.43496 324
51.45507 357
51.47519 353
51.4953 348
51.51541 338
51.53553 342
51.55564 357
51.57576 360
51.59587 347
51.61598 325
51.6361 310
51.65621 338
51.67632 389
51.69644 315
51.71655 361
51.73667 335
51.75678 353
51.77689 356
51.79701 364
51.81712 351
51.83723 367
51.85735 370
51.87746 367
51.89757 350
51.91769 351
51.9378 370
51.95792 355
51.97803 355
51.99814 324
52.01826 389
52.03837 355
52.05848 380
52.0786 360
52.09871 359
52.11883 334
52.13894 354
52.15905 336
52.17917 356
52.19928 381
52.21939 335
52.23951 331
52.25962 347
52.27974 358
52.29985 364
52.31996 393
52.34008 370
52.36019 361
52.3803 367
52.40042 364
52.42053 373
52.44064 371
52.46076 361
52.48087 351
52.50099 361
52.5211 360
52.54121 391
52.56133 380
52.58144 406
52.60155 390
52.62167 397
52.64178 383
52.6619 428
52.68201 375
52.70212 386
52.72224 413
52.74235 382
52.76246 385
52.78258 359
52.80269 438
52.8228 428
52.84292 389
52.86303 395
52.88315 429
52.90326 383
52.92337 410
52.94349 366
52.9636 433
52.98371 423
53.00383 448
53.02394 444
53.04406 380
53.06417 427
53.08428 413
53.1044 398
53.12451 396
53.14462 385
53.16474 376
53.18485 414
53.20497 343
53.22508 402
53.24519 400
53.26531 338
53.28542 368
53.30553 395
53.32565 381
53.34576 400
53.36587 382
53.38599 389
53.4061 381
53.42622 415
53.44633 445
53.46644 392
53.48656 401
53.50667 398
53.52678 366
53.5469 400
53.56701 403
53.58713 396
53.60724 394
53.62735 443
53.64747 385
53.66758 354
53.68769 418
53.70781 391
53.72792 360
53.74804 404
53.76815 385
53.78826 437
53.80838 421
53.82849 416
53.8486 401
53.86872 391
53.88883 408
53.90894 424
53.92906 446
53.94917 401
53.96929 420
53.9894 418
54.00951 449
54.02963 420
54.04974 434
54.06985 408
54.08997 434
54.11008 438
54.1302 446
54.15031 425
54.17042 431
54.19054 443
54.21065 429
54.23076 392
54.25088 439
54.27099 462
54.29111 462
54.31122 440
54.33133 434
54.35145 448
54.37156 430
54.39167 481
54.41179 478
54.4319 491
54.45201 460
54.47213 553
54.49224 448
54.51236 478
54.53247 501
54.55258 504
54.5727 521
54.59281 549
54.61292 522
54.63304 578
54.65315 552
54.67327 595
54.69338 611
54.71349 635
54.73361 651
54.75372 679
54.77383 751
54.79395 696
54.81406 725
54.83417 700
54.85429 624
54.8744 637
54.89452 638
54.91463 620
54.93474 609
54.95486 591
54.97497 573
54.99508 567
55.0152 549
55.03531 570
55.05543 511
55.07554 534
55.09565 515
55.11577 480
55.13588 540
55.15599 547
55.17611 556
55.19622 489
55.21634 578
55.23645 579
55.25656 530
55.27668 586
55.29679 567
55.3169 543
55.33702 504
55.35713 494
55.37724 525
55.39736 519
55.41747 497
55.43759 474
55.4577 494
55.47781 453
55.49793 454
55.51804 439
55.53815 447
55.55827 420
55.57838 479
55.5985 451
55.61861 462
55.63872 465
55.65884 436
55.67895 421
55.69906 462
55.71918 451
55.73929 453
55.75941 435
55.77952 485
55.79963 490
55.81975 453
55.83986 477
55.85997 486
55.88009 478
55.9002 478
55.92031 520
55.94043 444
55.96054 466
55.98066 444
56.00077 478
56.02088 412
56.041 432
56.06111 456
56.08122 420
56.10134 421
56.12145 429
56.14157 434
56.16168 444
56.18179 392
56.20191 389
56.22202 407
56.24213 407
56.26225 368
56.28236 378
56.30248 405
56.32259 394
56.3427 353
56.36282 374
56.38293 383
56.40304 424
56.42316 392
56.44327 371
56.46338 402
56.4835 393
56.50361 364
56.52373 425
56.54384 410
56.56395 376
56.58407 396
56.60418 415
56.62429 367
56.64441 383
56.66452 429
56.68464 374
56.70475 361
56.72486 405
56.74498 388
56.76509 365
56.7852 394
56.80532 406
56.82543 384
56.84554 420
56.86566 409
56.88577 386
56.90589 416
56.926 403
56.94611 394
56.96623 408
56.98634 393
57.00645 393
57.02657 367
57.04668 384
57.0668 406
57.08691 400
57.10702 383
57.12714 377
57.14725 409
57.16736 392
57.18748 387
57.20759 404
57.22771 426
57.24782 407
57.26793 377
57.28805 428
57.30816 369
57.32827 406
57.34839 400
57.3685 382
57.38861 404
57.40873 418
57.42884 406
57.44896 389
57.46907 444
57.48918 421
57.5093 402
57.52941 414
57.54952 370
57.56964 373
57.58975 357
57.60987 383
57.62998 356
57.65009 400
57.67021 388
57.69032 375
57.71043 363
57.73055 375
57.75066 391
57.77078 391
57.79089 334
57.811 419
57.83112 381
57.85123 378
57.87134 355
57.89146 364
57.91157 364
57.93168 346
57.9518 395
57.97191 404
57.99203 372
58.01214 344
58.03225 377
58.05237 376
58.07248 341
58.09259 391
58.11271 359
58.13282 346
58.15294 377
58.17305 348
58.19316 381
58.21328 344
58.23339 351
58.2535 356
58.27362 351
58.29373 369
58.31385 342
58.33396 340
58.35407 393
58.37419 328
58.3943 395
58.41441 369
58.43453 349
58.45464 350
58.47475 380
58.49487 366
58.51498 349
58.5351 350
58.55521 406
58.57532 361
58.59544 350
58.61555 379
58.63566 366
58.65578 325
58.67589 365
58.69601 408
58.71612 350
58.73623 371
58.75635 372
58.77646 365
58.79657 383
58.81669 365
58.8368 391
58.85691 380
58.87703 360
58.89714 368
58.91726 324
58.93737 375
58.95748 343
58.9776 363
58.99771 358
59.01782 374
59.03794 379
59.05805 408
59.07817 370
59.09828 366
59.11839 356
59.13851 396
59.15862 373
59.17873 392
59.19885 414
59.21896 396
59.23908 410
59.25919 400
59.2793 408
59.29942 396
59.31953 415
59.33964 400
59.35976 451
59.37987 410
59.39998 401
59.4201 455
59.44021 473
59.46033 423
59.48044 430
59.50055 465
59.52067 434
59.54078 428
59.56089 428
59.58101 464
59.60112 520
59.62124 534
59.64135 544
59.66146 532
59.68158 584
59.70169 614
59.7218 603
59.74192 634
59.76203 735
59.78215 753
59.80226 783
59.82237 858
59.84249 890
59.8626 842
59.88271 946
59.90283 855
59.92294 806
59.94305 821
59.96317 778
59.98328 766
60.0034 744
60.02351 787
60.04362 786
60.06374 690
60.08385 699
60.10396 658
60.12408 655
60.14419 647
60.16431 578
60.18442 620
60.20453 639
60.22465 627
60.24476 629
60.26487 613
60.28499 593
60.3051 578
60.32522 581
60.34533 603
60.36544 541
60.38556 577
60.40567 559
60.42578 580
60.4459 508
60.46601 535
60.48612 518
60.50624 528
60.52635 456
60.54647 509
60.56658 482
60.58669 430
60.60681 453
60.62692 433
60.64703 417
60.66715 467
60.68726 441
60.70738 453
60.72749 435
60.7476 433
60.76772 430
60.78783 431
60.80794 434
60.82806 460
60.84817 413
60.86828 449
60.8884 408
60.90851 441
60.92863 420
60.94874 418
60.96885 416
60.98897 406
61.00908 453
61.02919 414
61.04931 411
61.06942 435
61.08954 409
61.10965 419
61.12976 402
61.14988 376
61.16999 418
61.1901 402
61.21022 399
61.23033 381
61.25045 405
61.27056 436
61.29067 386
61.31079 416
61.3309 435
61.35101 444
61.37113 444
61.39124 405
61.41135 437
61.43147 430
61.45158 428
61.4717 442
61.49181 412
61.51192 429
61.53204 464
61.55215 471
61.57226 431
61.59238 458
61.61249 463
61.63261 458
61.65272 456
61.67283 491
61.69295 469
61.71306 523
61.73317 491
61.75329 504
61.7734 482
61.79352 494
61.81363 520
61.83374 503
61.85386 468
61.87397 513
61.89408 457
61.9142 484
61.93431 499
61.95442 475
61.97454 452
61.99465 483
62.01477 479
62.03488 413
62.05499 409
62.07511 445
62.09522 417
62.11533 421
62.13545 451
62.15556 439
62.17568 453
62.19579 397
62.2159 414
62.23602 407
62.25613 403
62.27624 405
62.29636 409
62.31647 448
62.33659 373
62.3567 421
62.37681 381
62.39693 411
62.41704 406
62.43715 386
62.45727 386
62.47738 375
62.49749 368
62.51761 391
62.53772 446
62.55784 373
62.57795 368
62.59806 359
62.61818 390
62.63829 357
62.6584 364
62.67852 371
62.69863 358
62.71875 351
62.73886 401
62.75897 371
62.77909 361
62.7992 370
62.81931 377
62.83943 379
62.85954 379
62.87965 375
62.89977 386
62.91988 361
62.94 383
62.96011 345
62.98022 348
63.00034 325
63.02045 385
63.04056 368
63.06068 372
63.08079 363
63.10091 375
63.12102 385
63.14113 352
63.16125 369
63.18136 378
63.20147 371
63.22159 379
63.2417 358
63.26182 372
63.28193 368
63.30204 360
63.32216 392
63.34227 350
63.36238 385
63.3825 360
63.40261 359
63.42272 371
63.44284 381
63.46295 358
63.48307 391
63.50318 360
63.52329 370
63.54341 358
63.56352 387
63.58363 418
63.60375 330
63.62386 340
63.64398 353
63.66409 398
63.6842 361
63.70432 386
63.72443 385
63.74454 365
63.76466 362
63.78477 370
63.80489 372
63.825 416
63.84511 446
63.86523 410
63.88534 422
63.90545 455
63.92557 441
63.94568 426
63.96579 438
63.98591 435
64.00602 440
64.02614 405
64.04625 414
64.06636 416
64.08648 402
64.10659 389
64.1267 420
64.14682 400
64.16693 347
64.18705 422
64.20716 393
64.22727 373
64.24739 321
64.2675 358
64.28761 352
64.30773 359
64.32784 363
64.34796 356
64.36807 308
64.38818 324
64.4083 351
64.42841 319
64.44852 324
64.46864 319
64.48875 335
64.50886 336
64.52898 347
64.54909 312
64.56921 348
64.58932 351
64.60943 333
64.62955 360
64.64966 330
64.66977 341
64.68989 363
64.71 310
64.73012 343
64.75023 314
64.77034 352
64.79046 304
64.81057 310
64.83068 368
64.8508 353
64.87091 349
64.89102 358
64.91114 343
64.93125 320
64.95137 362
64.97148 366
64.99159 324
65.01171 359
65.03182 361
65.05193 336
65.07205 361
65.09216 340
65.11228 339
65.13239 359
65.1525 343
65.17262 356
65.19273 352
65.21284 330
65.23296 363
65.25307 343
65.27319 330
65.2933 328
65.31341 340
65.33353 330
65.35364 347
65.37375 327
65.39387 303
65.41398 328
65.43409 327
65.45421 345
65.47432 330
65.49444 325
65.51455 324
65.53466 350
65.55478 313
65.57489 350
65.595 342
65.61512 373
65.63523 372
65.65535 344
65.67546 332
65.69557 345
65.71569 360
65.7358 353
65.75591 344
65.77603 344
65.79614 348
65.81626 362
65.83637 310
65.85648 332
65.8766 336
65.89671 351
65.91682 312
65.93694 317
65.95705 377
65.97716 360
65.99728 336
66.01739 342
66.03751 320
66.05762 363
66.07773 357
66.09785 365
66.11796 367
66.13807 334
66.15819 330
66.1783 355
66.19842 360
66.21853 318
66.23864 345
66.25876 311
66.27887 376
66.29898 316
66.3191 309
66.33921 354
66.35933 336
66.37944 334
66.39955 341
66.41967 332
66.43978 345
66.45989 346
66.48001 341
66.50012 335
66.52023 338
66.54035 361
66.56046 336
66.58058 307
66.60069 327
66.6208 352
66.64092 352
66.66103 308
66.68114 336
66.70126 303
66.72137 341
66.74149 331
66.7616 331
66.78171 368
66.80183 313
66.82194 340
66.84205 343
66.86217 322
66.88228 320
66.90239 336
66.92251 363
66.94262 354
66.96274 365
66.98285 352
67.00296 317
67.02308 357
67.04319 350
67.0633 329
67.08342 390
67.10353 340
67.12365 370
67.14376 387
67.16387 341
67.18399 378
67.2041 394
67.22421 361
67.24433 376
67.26444 331
67.28456 364
67.30467 385
67.32478 355
67.3449 401
67.36501 383
67.38512 404
67.40524 403
67.42535 421
67.44546 422
67.46558 432
67.48569 466
67.50581 440
67.52592 498
67.54603 499
67.56615 545
67.58626 560
67.60637 570
67.62649 621
67.6466 611
67.66672 596
67.68683 626
67.70694 566
67.72706 552
67.74717 546
67.76728 505
67.7874 536
67.80751 535
67.82763 593
67.84774 584
67.86785 564
67.88797 575
67.90808 584
67.92819 612
67.94831 627
67.96842 654
67.98853 628
68.00865 661
68.02876 686
68.04888 713
68.06899 747
68.0891 720
68.10922 780
68.12933 707
68.14944 686
68.16956 731
68.18967 712
68.20979 688
68.2299 651
68.25001 680
68.27013 666
68.29024 609
68.31035 609
68.33047 552
68.35058 516
68.3707 478
68.39081 448
68.41092 495
68.43104 436
68.45115 474
68.47126 422
68.49138 437
68.51149 416
68.5316 363
68.55172 406
68.57183 398
68.59195 366
68.61206 388
68.63217 399
68.65229 380
68.6724 361
68.69251 356
68.71263 336
68.73274 352
68.75286 385
68.77297 364
68.79308 327
68.8132 384
68.83331 365
68.85342 355
68.87354 347
68.89365 384
68.91376 380
68.93388 361
68.95399 362
68.97411 380
68.99422 349
69.01433 348
69.03445 351
69.05456 365
69.07467 386
69.09479 355
69.1149 355
69.13502 372
69.15513 380
69.17524 351
69.19536 372
69.21547 370
69.23558 378
69.2557 373
69.27581 374
69.29593 409
69.31604 359
69.33615 354
69.35627 369
69.37638 356
69.39649 351
69.41661 398
69.43672 373
69.45683 385
69.47695 353
69.49706 396
69.51718 387
69.53729 361
69.5574 363
69.57752 367
69.59763 368
69.61774 355
69.63786 375
69.65797 384
69.67809 386
69.6982 344
69.71831 371
69.73843 342
69.75854 366
69.77865 335
69.79877 315
69.81888 362
69.839 360
69.85911 353
69.87922 382
69.89934 344
69.91945 312
69.93956 347
69.95968 324
69.97979 378
69.9999 361
70.02002 356
70.04013 345
70.06025 321
70.08036 353
70.10047 351
70.12059 348
70.1407 341
70.16081 314
70.18093 321
70.20104 338
70.22116 343
70.24127 302
70.26138 342
70.2815 336
70.30161 315
70.32172 348
70.34184 355
70.36195 363
70.38207 348
70.40218 337
70.42229 346
70.44241 350
70.46252 318
70.48263 338
70.50275 331
70.52286 321
70.54297 346
70.56309 350
70.5832 339
70.60332 345
70.62343 311
70.64354 348
70.66366 346
70.68377 327
70.70388 337
70.724 314
70.74411 329
70.76423 336
70.78434 362
70.80445 344
70.82457 382
70.84468 345
70.86479 326
70.88491 347
70.90502 325
70.92513 357
70.94525 350
70.96536 363
70.98548 353
71.00559 331
71.0257 344
71.04582 361
71.06593 391
71.08604 352
71.10616 362
71.12627 345
71.14639 354
71.1665 370
71.18661 388
71.20673 346
71.22684 392
71.24695 334
71.26707 391
71.28718 373
71.3073 364
71.32741 364
71.34752 330
71.36764 381
71.38775 379
71.40786 326
71.42798 352
71.44809 371
71.4682 352
71.48832 403
71.50843 355
71.52855 325
71.54866 364
71.56877 345
71.58889 347
71.609 348
71.62911 315
71.64923 359
71.66934 377
71.68946 310
71.70957 346
71.72968 323
71.7498 344
71.76991 355
71.79002 336
71.81014 349
71.83025 334
71.85037 311
71.87048 342
71.89059 333
71.91071 330
71.93082 334
71.95093 334
71.97105 339
71.99116 353
72.01127 346
72.03139 322
72.0515 367
72.07162 341
72.09173 319
72.11184 369
72.13196 356
72.15207 311
72.17218 308
72.1923 348
72.21241 337
72.23253 338
72.25264 371
72.27275 361
72.29287 350
72.31298 347
72.33309 362
72.35321 326
72.37332 365
72.39344 332
72.41355 312
72.43366 349
72.45378 357
72.47389 341
72.494 333
72.51412 310
72.53423 343
72.55434 353
72.57446 369
72.59457 352
72.61469 345
72.6348 332
72.65491 326
72.67503 336
72.69514 374
72.71525 352
72.73537 353
72.75548 346
72.7756 354
72.79571 392
72.81582 369
72.83594 376
72.85605 364
72.87616 394
72.89628 385
72.91639 355
72.9365 392
72.95662 386
72.97673 356
72.99685 372
73.01696 399
73.03707 374
73.05719 347
73.0773 349
73.09741 393
73.11753 391
73.13764 413
73.15776 396
73.17787 410
73.19798 358
73.2181 416
73.23821 403
73.25832 440
73.27844 414
73.29855 441
73.31867 413
73.33878 449
73.35889 457
73.37901 392
73.39912 423
73.41923 453
73.43935 409
73.45946 386
73.47957 396
73.49969 360
73.5198 383
73.53992 389
73.56003 366
73.58014 381
73.60026 352
73.62037 359
73.64048 332
73.6606 354
73.68071 327
73.70083 351
73.72094 310
73.74105 317
73.76117 347
73.78128 307
73.80139 336
73.82151 364
73.84162 329
73.86174 323
73.88185 297
73.90196 309
73.92208 326
73.94219 322
73.9623 321
73.98242 341
74.00253 313
74.02264 332
74.04276 317
74.06287 329
74.08299 325
74.1031 321
74.12321 322
74.14333 315
74.16344 343
74.18355 326
74.20367 330
74.22378 341
74.2439 337
74.26401 325
74.28412 341
74.30424 280
74.32435 315
74.34446 334
74.36458 342
74.38469 318
74.40481 313
74.42492 349
74.44503 324
74.46515 338
74.48526 318
74.50537 326
74.52549 313
74.5456 311
74.56571 317
74.58583 321
74.60594 326
74.62606 333
74.64617 347
74.66628 301
74.6864 312
74.70651 330
74.72662 310
74.74674 324
74.76685 330
74.78697 328
74.80708 319
74.82719 336
74.84731 314
74.86742 311
74.88753 328
74.90765 336
74.92776 333
74.94787 336
74.96799 314
74.9881 346
75.00822 317
