3.00117 22062
3.02128 20805
3.0414 20325
3.06151 19841
3.08162 19334
3.10174 18700
3.12185 17936
3.14197 17744
3.16208 17143
3.18219 16752
3.20231 16188
3.22242 15857
3.24253 15365
3.26265 15152
3.28276 14427
3.30288 14088
3.32299 13562
3.3431 13194
3.36322 12787
3.38333 12255
3.40344 11982
3.42356 11377
3.44367 11300
3.46379 10779
3.4839 10594
3.50401 10184
3.52413 9654
3.54424 9326
3.56435 9180
3.58447 8685
3.60458 8581
3.62469 7966
3.64481 8034
3.66492 7759
3.68504 7482
3.70515 7117
3.72526 6681
3.74538 6697
3.76549 6438
3.7856 6013
3.80572 5756
3.82583 5533
3.84595 5320
3.86606 5146
3.88617 5020
3.90629 4763
3.9264 4601
3.94651 4340
3.96663 4246
3.98674 3993
4.00686 3944
4.02697 3712
4.04708 3660
4.0672 3541
4.08731 3131
4.10742 3126
4.12754 3004
4.14765 2984
4.16776 2893
4.18788 2633
4.20799 2579
4.22811 2480
4.24822 2463
4.26833 2455
4.28845 2117
4.30856 2199
4.32867 2142
4.34879 2110
4.3689 2185
4.38902 1919
4.40913 1947
4.42924 1843
4.44936 1879
4.46947 1910
4.48958 1705
4.5097 1716
4.52981 1684
4.54992 1647
4.57004 1694
4.59015 1518
4.61027 1510
4.63038 1469
4.65049 1468
4.67061 1497
4.69072 1374
4.71083 1316
4.73095 1355
4.75106 1267
4.77118 1261
4.79129 1333
4.8114 1211
4.83152 1204
4.85163 1195
4.87174 1243
4.89186 1121
4.91197 1176
4.93209 1126
4.9522 1047
4.97231 1131
4.99243 1033
5.01254 1056
5.03265 1055
5.05277 978
5.07288 1012
5.09299 930
5.11311 1008
5.13322 932
5.15334 904
5.17345 947
5.19356 838
5.21368 890
5.23379 820
5.2539 834
5.27402 821
5.29413 815
5.31425 820
5.33436 826
5.35447 837
5.37459 750
5.3947 794
5.41481 708
5.43493 780
5.45504 729
5.47516 738
5.49527 769
5.51538 741
5.5355 754
5.55561 662
5.57572 719
5.59584 633
5.61595 682
5.63606 662
5.65618 626
5.67629 662
5.69641 643
5.71652 661
5.73663 627
5.75675 642
5.77686 578
5.79697 567
5.81709 615
5.8372 584
5.85732 613
5.87743 586
5.89754 549
5.91766 611
5.93777 556
5.95788 563
5.978 560
5.99811 610
6.01823 573
6.03834 533
6.05845 577
6.07857 539
6.09868 565
6.11879 522
6.13891 525
6.15902 559
6.17913 513
6.19925 555
6.21936 550
6.23948 571
6.25959 496
6.2797 508
6.29982 521
6.31993 528
6.34004 551
6.36016 481
6.38027 518
6.40039 557
6.4205 500
6.44061 500
6.46073 517
6.48084 461
6.50095 513
6.52107 544
6.54118 500
6.56129 514
6.58141 514
6.60152 530
6.62164 496
6.64175 505
6.66186 490
6.68198 447
6.70209 530
6.7222 507
6.74232 498
6.76243 472
6.78255 486
6.80266 505
6.82277 523
6.84289 487
6.863 479
6.88311 554
6.90323 479
6.92334 473
6.94346 489
6.96357 528
6.98368 449
7.0038 452
7.02391 528
7.04402 472
7.06414 492
7.08425 510
7.10436 479
7.12448 493
7.14459 505
7.16471 456
7.18482 488
7.20493 471
7.22505 466
7.24516 474
7.26527 532
7.28539 481
7.3055 470
7.32562 465
7.34573 474
7.36584 435
7.38596 507
7.40607 457
7.42618 487
7.4463 450
7.46641 452
7.48653 439
7.50664 475
7.52675 470
7.54687 465
7.56698 467
7.58709 472
7.60721 520
7.62732 501
7.64743 456
7.66755 527
7.68766 439
7.70778 484
7.72789 470
7.748 486
7.76812 421
7.78823 457
7.80834 471
7.82846 499
7.84857 435
7.86869 420
7.8888 455
7.90891 460
7.92903 461
7.94914 462
7.96925 469
7.98937 443
8.00948 498
8.0296 420
8.04971 494
8.06982 460
8.08994 464
8.11005 464
8.13016 450
8.15028 476
8.17039 477
8.1905 449
8.21062 446
8.23073 487
8.25085 452
8.27096 458
8.29107 445
8.31119 482
8.3313 461
8.35141 451
8.37153 427
8.39164 438
8.41176 463
8.43187 486
8.45198 401
8.4721 472
8.49221 468
8.51232 477
8.53244 433
8.55255 499
8.57266 458
8.59278 462
8.61289 455
8.63301 454
8.65312 467
8.67323 467
8.69335 475
8.71346 471
8.73357 447
8.75369 426
8.7738 454
8.79392 418
8.81403 462
8.83414 430
8.85426 504
8.87437 462
8.89448 448
8.9146 452
8.93471 463
8.95483 433
8.97494 410
8.99505 422
9.01517 454
9.03528 435
9.05539 443
9.07551 459
9.09562 422
9.11573 456
9.13585 436
9.15596 431
9.17608 441
9.19619 432
9.2163 443
9.23642 433
9.25653 494
9.27664 449
9.29676 442
9.31687 433
9.33699 451
9.3571 436
9.37721 452
9.39733 441
9.41744 459
9.43755 470
9.45767 426
9.47778 418
9.4979 446
9.51801 416
9.53812 424
9.55824 419
9.57835 405
9.59846 491
9.61858 411
9.63869 446
9.6588 457
9.67892 424
9.69903 404
9.71915 417
9.73926 442
9.75937 437
9.77949 431
9.7996 442
9.81971 428
9.83983 454
9.85994 424
9.88006 450
9.90017 464
9.92028 454
9.9404 401
9.96051 453
9.98062 443
10.00074 386
10.02085 462
10.04097 486
10.06108 385
10.08119 413
10.10131 415
10.12142 431
10.14153 467
10.16165 433
10.18176 447
10.20187 478
10.22199 428
10.2421 453
10.26222 407
10.28233 386
10.30244 398
10.32256 456
10.34267 425
10.36278 398
10.3829 455
10.40301 410
10.42313 459
10.44324 424
10.46335 410
10.48347 428
10.50358 405
10.52369 457
10.54381 460
10.56392 425
10.58403 439
10.60415 443
10.62426 450
10.64438 445
10.66449 491
10.6846 423
10.70472 427
10.72483 441
10.74494 444
10.76506 428
10.78517 445
10.80529 444
10.8254 469
10.84551 459
10.86563 430
10.88574 445
10.90585 422
10.92597 447
10.94608 455
10.9662 425
10.98631 487
11.00642 474
11.02654 430
11.04665 434
11.06676 460
11.08688 452
11.10699 435
11.1271 428
11.14722 440
11.16733 429
11.18745 450
11.20756 439
11.22767 452
11.24779 409
11.2679 432
11.28801 468
11.30813 424
11.32824 504
11.34836 489
11.36847 490
11.38858 468
11.4087 455
11.42881 461
11.44892 529
11.46904 515
11.48915 456
11.50927 499
11.52938 486
11.54949 484
11.56961 484
11.58972 470
11.60983 505
11.62995 465
11.65006 518
11.67017 494
11.69029 528
11.7104 517
11.73052 529
11.75063 534
11.77074 562
11.79086 529
11.81097 538
11.83108 605
11.8512 578
11.87131 663
11.89143 589
11.91154 583
11.93165 627
11.95177 644
11.97188 656
11.99199 659
12.01211 622
12.03222 663
12.05234 652
12.07245 629
12.09256 750
12.11268 679
12.13279 751
12.1529 768
12.17302 763
12.19313 747
12.21324 788
12.23336 797
12.25347 789
12.27359 820
12.2937 770
12.31381 831
12.33393 802
12.35404 753
12.37415 747
12.39427 759
12.41438 729
12.4345 718
12.45461 631
12.47472 661
12.49484 581
12.51495 604
12.53506 594
12.55518 527
12.57529 572
12.5954 555
12.61552 527
12.63563 511
12.65575 541
12.67586 522
12.69597 499
12.71609 535
12.7362 498
12.75631 466
12.77643 522
12.79654 453
12.81666 457
12.83677 461
12.85688 468
12.877 446
12.89711 421
12.91722 459
12.93734 463
12.95745 419
12.97757 442
12.99768 416
13.01779 398
13.03791 412
13.05802 438
13.07813 439
13.09825 385
13.11836 467
13.13847 420
13.15859 436
13.1787 392
13.19882 433
13.21893 431
13.23904 406
13.25916 415
13.27927 403
13.29938 375
13.3195 384
13.33961 393
13.35973 389
13.37984 383
13.39995 371
13.42007 399
13.44018 360
13.46029 413
13.48041 405
13.50052 389
13.52064 375
13.54075 403
13.56086 384
13.58098 406
13.60109 370
13.6212 458
13.64132 384
13.66143 364
13.68154 374
13.70166 385
13.72177 393
13.74189 432
13.762 397
13.78211 346
13.80223 407
13.82234 421
13.84245 373
13.86257 390
13.88268 366
13.9028 387
13.92291 374
13.94302 336
13.96314 378
13.98325 390
14.00336 379
14.02348 357
14.04359 359
14.06371 344
14.08382 399
14.10393 368
14.12405 373
14.14416 325
14.16427 337
14.18439 373
14.2045 348
14.22461 389
14.24473 379
14.26484 354
14.28496 394
14.30507 398
14.32518 440
14.3453 351
14.36541 368
14.38552 384
14.40564 393
14.42575 371
14.44587 359
14.46598 361
14.48609 395
14.50621 340
14.52632 369
14.54643 394
14.56655 407
14.58666 386
14.60677 368
14.62689 370
14.647 372
14.66712 413
14.68723 365
14.70734 392
14.72746 344
14.74757 380
14.76768 377
14.7878 344
14.80791 366
14.82803 367
14.84814 365
14.86825 394
14.88837 404
14.90848 328
14.92859 354
14.94871 381
14.96882 398
14.98894 364
15.00905 363
15.02916 377
15.04928 399
15.06939 379
15.0895 396
15.10962 365
15.12973 352
15.14984 373
15.16996 371
15.19007 368
15.21019 401
15.2303 365
15.25041 392
15.27053 382
15.29064 371
15.31075 371
15.33087 362
15.35098 388
15.3711 354
15.39121 349
15.41132 373
15.43144 357
15.45155 398
15.47166 366
15.49178 399
15.51189 328
15.53201 337
15.55212 355
15.57223 391
15.59235 326
15.61246 364
15.63257 378
15.65269 330
15.6728 360
15.69291 355
15.71303 396
15.73314 386
15.75326 386
15.77337 362
15.79348 380
15.8136 366
15.83371 380
15.85382 335
15.87394 356
15.89405 333
15.91417 392
15.93428 357
15.95439 356
15.97451 349
15.99462 369
16.01473 377
16.03485 371
16.05496 378
16.07508 370
16.09519 349
16.1153 358
16.13542 386
16.15553 351
16.17564 390
16.19576 317
16.21587 330
16.23598 349
16.2561 353
16.27621 363
16.29633 387
16.31644 369
16.33655 376
16.35667 405
16.37678 375
16.39689 343
16.41701 334
16.43712 384
16.45724 376
16.47735 361
16.49746 355
16.51758 366
16.53769 392
16.5578 356
16.57792 384
16.59803 350
16.61814 353
16.63826 422
16.65837 377
16.67849 370
16.6986 347
16.71871 357
16.73883 365
16.75894 366
16.77905 345
16.79917 362
16.81928 350
16.8394 357
16.85951 367
16.87962 392
16.89974 381
16.91985 365
16.93996 372
16.96008 339
16.98019 336
17.00031 354
17.02042 370
17.04053 366
17.06065 339
17.08076 334
17.10087 421
17.12099 402
17.1411 362
17.16121 395
17.18133 385
17.20144 357
17.22156 394
17.24167 372
17.26178 407
17.2819 391
17.30201 370
17.32212 337
17.34224 381
17.36235 345
17.38247 403
17.40258 408
17.42269 344
17.44281 365
17.46292 349
17.48303 418
17.50315 377
17.52326 354
17.54338 368
17.56349 375
17.5836 399
17.60372 379
17.62383 364
17.64394 367
17.66406 389
17.68417 388
17.70428 387
17.7244 383
17.74451 358
17.76463 397
17.78474 396
17.80485 391
17.82497 362
17.84508 394
17.86519 389
17.88531 406
17.90542 338
17.92554 394
17.94565 365
17.96576 376
17.98588 397
18.00599 376
18.0261 402
18.04622 394
18.06633 375
18.08645 353
18.10656 411
18.12667 409
18.14679 383
18.1669 396
18.18701 417
18.20713 403
18.22724 395
18.24735 364
18.26747 389
18.28758 365
18.3077 386
18.32781 361
18.34792 385
18.36804 375
18.38815 381
18.40826 398
18.42838 414
18.44849 358
18.46861 423
18.48872 394
18.50883 364
18.52895 399
18.54906 348
18.56917 384
18.58929 389
18.6094 425
18.62951 375
18.64963 363
18.66974 389
18.68986 395
18.70997 392
18.73008 415
18.7502 395
18.77031 409
18.79042 410
18.81054 372
18.83065 458
18.85077 365
18.87088 385
18.89099 416
18.91111 421
18.93122 353
18.95133 445
18.97145 401
18.99156 408
19.01168 426
19.03179 395
19.0519 343
19.07202 448
19.09213 431
19.11224 425
19.13236 424
19.15247 396
19.17258 429
19.1927 416
19.21281 416
19.23293 387
19.25304 450
19.27315 428
19.29327 415
19.31338 447
19.33349 418
19.35361 441
19.37372 439
19.39384 448
19.41395 480
19.43406 428
19.45418 448
19.47429 458
19.4944 474
19.51452 495
19.53463 482
19.55475 519
19.57486 521
19.59497 569
19.61509 590
19.6352 608
19.65531 638
19.67543 694
19.69554 750
19.71565 789
19.73577 812
19.75588 817
19.776 869
19.79611 892
19.81622 990
19.83634 974
19.85645 953
19.87656 990
19.89668 920
19.91679 963
19.93691 942
19.95702 995
19.97713 911
19.99725 899
20.01736 853
20.03747 875
20.05759 851
20.0777 871
20.09782 853
20.11793 808
20.13804 855
20.15816 849
20.17827 822
20.19838 820
20.2185 807
20.23861 842
20.25872 784
20.27884 830
20.29895 759
20.31907 822
20.33918 774
20.35929 807
20.37941 774
20.39952 773
20.41963 803
20.43975 848
20.45986 818
20.47998 826
20.50009 852
20.5202 809
20.54032 844
20.56043 843
20.58054 935
20.60066 945
20.62077 971
20.64088 1031
20.661 1152
20.68111 1277
20.70123 1562
20.72134 1779
20.74145 2282
20.76157 2450
20.78168 2757
20.80179 3014
20.82191 2944
20.84202 2738
20.86214 2428
20.88225 2052
20.90236 1626
20.92248 1286
20.94259 1086
20.9627 949
20.98282 864
21.00293 808
21.02305 738
21.04316 786
21.06327 766
21.08339 778
21.1035 792
21.12361 777
21.14373 780
21.16384 738
21.18395 800
21.20407 771
21.22418 800
21.2443 776
21.26441 736
21.28452 754
21.30464 743
21.32475 785
21.34486 746
21.36498 829
21.38509 692
21.40521 731
21.42532 769
21.44543 763
21.46555 737
21.48566 701
21.50577 759
21.52589 752
21.546 731
21.56612 700
21.58623 651
21.60634 712
21.62646 732
21.64657 657
21.66668 692
21.6868 687
21.70691 683
21.72702 677
21.74714 667
21.76725 661
21.78737 661
21.80748 667
21.82759 585
21.84771 618
21.86782 616
21.88793 638
21.90805 602
21.92816 627
21.94828 637
21.96839 641
21.9885 550
22.00862 606
22.02873 593
22.04884 623
22.06896 634
22.08907 609
22.10919 586
22.1293 584
22.14941 613
22.16953 565
22.18964 608
22.20975 579
22.22987 578
22.24998 608
22.27009 638
22.29021 475
22.31032 543
22.33044 530
22.35055 499
22.37066 626
22.39078 529
22.41089 573
22.431 539
22.45112 567
22.47123 536
22.49135 528
22.51146 559
22.53157 528
22.55169 539
22.5718 555
22.59191 558
22.61203 545
22.63214 569
22.65225 589
22.67237 538
22.69248 499
22.7126 535
22.73271 525
22.75282 554
22.77294 560
22.79305 553
22.81316 536
22.83328 559
22.85339 531
22.87351 546
22.89362 562
22.91373 556
22.93385 528
22.95396 558
22.97407 519
22.99419 521
23.0143 522
23.03442 530
23.05453 560
23.07464 521
23.09476 511
23.11487 535
23.13498 546
23.1551 529
23.17521 557
23.19532 517
23.21544 496
23.23555 544
23.25567 542
23.27578 506
23.29589 531
23.31601 503
23.33612 525
23.35623 544
23.37635 486
23.39646 532
23.41658 545
23.43669 501
23.4568 569
23.47692 501
23.49703 496
23.51714 562
23.53726 525
23.55737 524
23.57749 506
23.5976 543
23.61771 538
23.63783 560
23.65794 555
23.67805 515
23.69817 518
23.71828 494
23.73839 505
23.75851 540
23.77862 578
23.79874 604
23.81885 590
23.83896 569
23.85908 547
23.87919 603
23.8993 579
23.91942 530
23.93953 587
23.95965 574
23.97976 598
23.99987 540
24.01999 549
24.0401 578
24.06021 569
24.08033 567
24.10044 558
24.12056 635
24.14067 641
24.16078 537
24.1809 597
24.20101 560
24.22112 615
24.24124 569
24.26135 588
24.28146 563
24.30158 565
24.32169 534
24.34181 566
24.36192 573
24.38203 652
24.40215 577
24.42226 588
24.44237 621
24.46249 639
24.4826 669
24.50272 669
24.52283 628
24.54294 607
24.56306 684
24.58317 635
24.60328 701
24.6234 686
24.64351 688
24.66362 748
24.68374 689
24.70385 742
24.72397 743
24.74408 762
24.76419 791
24.78431 800
24.80442 793
24.82453 823
24.84465 794
24.86476 799
24.88488 808
24.90499 831
24.9251 788
24.94522 815
24.96533 783
24.98544 752
25.00556 759
25.02567 786
25.04579 826
25.0659 758
25.08601 817
25.10613 745
25.12624 760
25.14635 765
25.16647 829
25.18658 825
25.20669 832
25.22681 847
25.24692 768
25.26704 787
25.28715 744
25.30726 726
25.32738 706
25.34749 662
25.3676 661
25.38772 622
25.40783 605
25.42795 631
25.44806 604
25.46817 608
25.48829 585
25.5084 616
25.52851 583
25.54863 560
25.56874 572
25.58886 588
25.60897 575
25.62908 597
25.6492 642
25.66931 579
25.68942 639
25.70954 624
25.72965 582
25.74976 599
25.76988 622
25.78999 647
25.81011 595
25.83022 577
25.85033 615
25.87045 590
25.89056 616
25.91067 630
25.93079 610
25.9509 634
25.97102 591
25.99113 628
26.01124 683
26.03136 644
26.05147 661
26.07158 671
26.0917 675
26.11181 739
26.13193 705
26.15204 749
26.17215 734
26.19227 776
26.21238 824
26.23249 860
26.25261 917
26.27272 938
26.29283 1016
26.31295 1097
26.33306 1269
26.35318 1350
26.37329 1541
26.3934 1849
26.41352 2265
26.43363 2836
26.45374 3642
26.47386 4501
26.49397 5959
26.51409 7713
26.5342 8935
26.55431 10410
26.57443 10944
26.59454 11073
26.61465 10288
26.63477 9034
26.65488 7436
26.67499 5497
26.69511 4071
26.71522 2921
26.73534 2109
26.75545 1567
26.77556 1217
26.79568 1078
26.81579 998
26.8359 914
26.85602 848
26.87613 774
26.89625 790
26.91636 723
26.93647 673
26.95659 725
26.9767 661
26.99681 640
27.01693 621
27.03704 583
27.05716 598
27.07727 579
27.09738 587
27.1175 600
27.13761 635
27.15772 574
27.17784 549
27.19795 598
27.21806 587
27.23818 594
27.25829 567
27.27841 592
27.29852 571
27.31863 628
27.33875 625
27.35886 662
27.37897 578
27.39909 623
27.4192 604
27.43932 552
27.45943 558
27.47954 574
27.49966 554
27.51977 537
27.53988 509
27.56 543
27.58011 494
27.60023 510
27.62034 507
27.64045 496
27.66057 491
27.68068 492
27.70079 514
27.72091 523
27.74102 513
27.76113 497
27.78125 503
27.80136 519
27.82148 472
27.84159 480
27.8617 481
27.88182 497
27.90193 477
27.92204 459
27.94216 517
27.96227 453
27.98239 459
28.0025 504
28.02261 519
28.04273 460
28.06284 468
28.08295 479
28.10307 460
28.12318 481
28.1433 444
28.16341 510
28.18352 428
28.20364 501
28.22375 448
28.24386 441
28.26398 435
28.28409 493
28.3042 469
28.32432 474
28.34443 487
28.36455 461
28.38466 425
28.40477 472
28.42489 439
28.445 420
28.46511 442
28.48523 472
28.50534 401
28.52546 424
28.54557 480
28.56568 450
28.5858 483
28.60591 438
28.62602 434
28.64614 490
28.66625 416
28.68636 452
28.70648 442
28.72659 428
28.74671 445
28.76682 406
28.78693 439
28.80705 431
28.82716 442
28.84727 446
28.86739 494
28.8875 466
28.90762 424
28.92773 443
28.94784 444
28.96796 458
28.98807 402
29.00818 430
29.0283 427
29.04841 413
29.06853 425
29.08864 451
29.10875 419
29.12887 425
29.14898 439
29.16909 418
29.18921 413
29.20932 432
29.22943 419
29.24955 418
29.26966 430
29.28978 441
29.30989 437
29.33 409
29.35012 416
29.37023 379
29.39034 432
29.41046 406
29.43057 427
29.45069 441
29.4708 409
29.49091 394
29.51103 458
29.53114 422
29.55125 407
29.57137 453
29.59148 428
29.6116 466
29.63171 447
29.65182 369
29.67194 409
29.69205 418
29.71216 431
29.73228 423
29.75239 422
29.7725 428
29.79262 422
29.81273 421
29.83285 433
29.85296 404
29.87307 436
29.89319 471
29.9133 408
29.93341 419
29.95353 447
29.97364 486
29.99376 422
30.01387 406
30.03398 443
30.0541 426
30.07421 425
30.09432 394
30.11444 439
30.13455 414
30.15467 444
30.17478 414
30.19489 420
30.21501 421
30.23512 399
30.25523 434
30.27535 427
30.29546 441
30.31557 419
30.33569 392
30.3558 443
30.37592 400
30.39603 421
30.41614 442
30.43626 430
30.45637 428
30.47648 382
30.4966 421
30.51671 394
30.53683 392
30.55694 435
30.57705 421
30.59717 438
30.61728 430
30.63739 414
30.65751 430
30.67762 420
30.69773 395
30.71785 392
30.73796 410
30.75808 439
30.77819 433
30.7983 416
30.81842 402
30.83853 423
30.85864 395
30.87876 433
30.89887 360
30.91899 367
30.9391 401
30.95921 393
30.97933 453
30.99944 408
31.01955 430
31.03967 369
31.05978 482
31.0799 408
31.10001 377
31.12012 386
31.14024 399
31.16035 414
31.18046 424
31.20058 385
31.22069 390
31.2408 437
31.26092 378
31.28103 431
31.30115 409
31.32126 398
31.34137 416
31.36149 402
31.3816 397
31.40171 381
31.42183 418
31.44194 394
31.46206 394
31.48217 410
31.50228 396
31.5224 398
31.54251 372
31.56262 389
31.58274 365
31.60285 412
31.62297 363
31.64308 352
31.66319 433
31.68331 381
31.70342 389
31.72353 413
31.74365 373
31.76376 371
31.78387 390
31.80399 399
31.8241 371
31.84422 389
31.86433 371
31.88444 371
31.90456 396
31.92467 403
31.94478 389
31.9649 390
31.98501 415
32.00513 395
32.02524 392
32.04535 411
32.06547 395
32.08558 384
32.10569 402
32.12581 392
32.14592 397
32.16604 396
32.18615 386
32.20626 389
32.22638 407
32.24649 411
32.2666 394
32.28672 376
32.30683 410
32.32694 413
32.34706 397
32.36717 400
32.38729 412
32.4074 401
32.42751 401
32.44763 429
32.46774 405
32.48785 446
32.50797 395
32.52808 434
32.5482 442
32.56831 441
32.58842 422
32.60854 422
32.62865 431
32.64876 423
32.66888 422
32.68899 425
32.7091 411
32.72922 432
32.74933 412
32.76945 444
32.78956 440
32.80967 489
32.82979 424
32.8499 462
32.87001 479
32.89013 455
32.91024 427
32.93036 491
32.95047 461
32.97058 481
32.9907 439
33.01081 466
33.03092 491
33.05104 483
33.07115 498
33.09127 479
33.11138 479
33.13149 467
33.15161 517
33.17172 535
33.19183 485
33.21195 476
33.23206 447
33.25217 501
33.27229 462
33.2924 482
33.31252 507
33.33263 475
33.35274 473
33.37286 470
33.39297 472
33.41308 473
33.4332 478
33.45331 470
33.47343 458
33.49354 460
33.51365 474
33.53377 440
33.55388 413
33.57399 459
33.59411 461
33.61422 433
33.63434 439
33.65445 449
33.67456 422
33.69468 411
33.71479 425
33.7349 444
33.75502 449
33.77513 437
33.79524 461
33.81536 414
33.83547 444
33.85559 399
33.8757 413
33.89581 437
33.91593 416
33.93604 435
33.95615 464
33.97627 418
33.99638 389
34.0165 445
34.03661 424
34.05672 407
34.07684 407
34.09695 430
34.11706 422
34.13718 383
34.15729 422
34.17741 455
34.19752 404
34.21763 432
34.23775 451
34.25786 441
34.27797 421
34.29809 424
34.3182 428
34.33831 408
34.35843 428
34.37854 461
34.39866 450
34.41877 477
34.43888 461
34.459 484
34.47911 478
34.49922 478
34.51934 489
34.53945 462
34.55957 483
34.57968 535
34.59979 449
34.61991 501
34.64002 564
34.66013 514
34.68025 564
34.70036 599
34.72047 534
34.74059 572
34.7607 627
34.78082 611
34.80093 657
34.82104 607
34.84116 595
34.86127 616
34.88138 667
34.9015 627
34.92161 625
34.94173 651
34.96184 615
34.98195 609
35.00207 600
35.02218 610
35.04229 614
35.06241 553
35.08252 576
35.10264 562
35.12275 620
35.14286 570
35.16298 575
35.18309 582
35.2032 558
35.22332 562
35.24343 602
35.26354 641
35.28366 601
35.30377 594
35.32389 572
35.344 615
35.36411 600
35.38423 678
35.40434 575
35.42445 589
35.44457 612
35.46468 676
35.4848 678
35.50491 602
35.52502 665
35.54514 652
35.56525 652
35.58536 700
35.60548 667
35.62559 671
35.64571 689
35.66582 689
35.68593 648
35.70605 665
35.72616 647
35.74627 641
35.76639 623
35.7865 652
35.80661 631
35.82673 646
35.84684 702
35.86696 645
35.88707 659
35.90718 688
35.9273 655
35.94741 646
35.96752 665
35.98764 644
36.00775 657
36.02787 647
36.04798 626
36.06809 593
36.08821 570
36.10832 587
36.12843 666
36.14855 588
36.16866 613
36.18878 612
36.20889 610
36.229 637
36.24912 608
36.26923 642
36.28934 662
36.30946 701
36.32957 694
36.34968 780
36.3698 877
36.38991 961
36.41003 1013
36.43014 1133
36.45025 1189
36.47037 1206
36.49048 1145
36.51059 1230
36.53071 1097
36.55082 969
36.57094 951
36.59105 868
36.61116 788
36.63128 741
36.65139 691
36.6715 633
36.69162 608
36.71173 554
36.73184 571
36.75196 605
36.77207 608
36.79219 589
36.8123 562
36.83241 588
36.85253 509
36.87264 621
36.89275 563
36.91287 538
36.93298 541
36.9531 601
36.97321 522
36.99332 559
37.01344 561
37.03355 543
37.05366 549
37.07378 563
37.09389 567
37.11401 563
37.13412 558
37.15423 552
37.17435 630
37.19446 536
37.21457 578
37.23469 557
37.2548 575
37.27491 581
37.29503 571
37.31514 571
37.33526 551
37.35537 521
37.37548 533
37.3956 611
37.41571 552
37.43582 548
37.45594 541
37.47605 545
37.49617 541
37.51628 523
37.53639 568
37.55651 532
37.57662 552
37.59673 574
37.61685 546
37.63696 556
37.65708 515
37.67719 559
37.6973 573
37.71742 556
37.73753 545
37.75764 573
37.77776 566
37.79787 561
37.81798 568
37.8381 541
37.85821 557
37.87833 529
37.89844 539
37.91855 530
37.93867 552
37.95878 563
37.97889 569
37.99901 528
38.01912 541
38.03924 540
38.05935 521
38.07946 558
38.09958 532
38.11969 570
38.1398 542
38.15992 535
38.18003 545
38.20015 552
38.22026 550
38.24037 566
38.26049 547
38.2806 591
38.30071 588
38.32083 530
38.34094 602
38.36105 584
38.38117 560
38.40128 578
38.4214 593
38.44151 557
38.46162 543
38.48174 582
38.50185 539
38.52196 526
38.54208 553
38.56219 528
38.58231 508
38.60242 577
38.62253 545
38.64265 487
38.66276 535
38.68287 552
38.70299 551
38.7231 510
38.74321 516
38.76333 488
38.78344 522
38.80356 546
38.82367 479
38.84378 500
38.8639 498
38.88401 514
38.90412 494
38.92424 509
38.94435 474
38.96447 508
38.98458 494
39.00469 525
39.02481 513
39.04492 527
39.06503 501
39.08515 538
39.10526 518
39.12538 558
39.14549 536
39.1656 523
39.18572 579
39.20583 574
39.22594 637
39.24606 586
39.26617 654
39.28628 731
39.3064 801
39.32651 835
39.34663 978
39.36674 1017
39.38685 1119
39.40697 1086
39.42708 1051
39.44719 942
39.46731 896
39.48742 841
39.50754 778
39.52765 683
39.54776 675
39.56788 591
39.58799 536
39.6081 466
39.62822 477
39.64833 455
39.66845 439
39.68856 447
39.70867 453
39.72879 418
39.7489 448
39.76901 425
39.78913 420
39.80924 433
39.82935 431
39.84947 407
39.86958 417
39.8897 446
39.90981 457
39.92992 441
39.95004 400
39.97015 467
39.99026 484
40.01038 503
40.03049 494
40.05061 462
40.07072 504
40.09083 559
40.11095 527
40.13106 556
40.15117 664
40.17129 678
40.1914 655
40.21152 739
40.23163 684
40.25174 677
40.27186 676
40.29197 650
40.31208 650
40.3322 603
40.35231 538
40.37242 561
40.39254 534
40.41265 466
40.43277 465
40.45288 450
40.47299 440
40.49311 424
40.51322 450
40.53333 446
40.55345 451
40.57356 460
40.59368 484
40.61379 449
40.6339 466
40.65402 470
40.67413 423
40.69424 454
40.71436 451
40.73447 442
40.75458 416
40.7747 435
40.79481 472
40.81493 467
40.83504 438
40.85515 454
40.87527 424
40.89538 476
40.91549 403
40.93561 472
40.95572 442
40.97584 462
40.99595 460
41.01606 460
41.03618 430
41.05629 478
41.0764 447
41.09652 457
41.11663 457
41.13675 481
41.15686 433
41.17697 433
41.19709 450
41.2172 410
41.23731 442
41.25743 453
41.27754 409
41.29765 441
41.31777 416
41.33788 431
41.358 446
41.37811 407
41.39822 469
41.41834 416
41.43845 444
41.45856 427
41.47868 403
41.49879 405
41.51891 454
41.53902 440
41.55913 388
41.57925 425
41.59936 411
41.61947 436
41.63959 427
41.6597 393
41.67982 414
41.69993 421
41.72004 450
41.74016 414
41.76027 426
41.78038 433
41.8005 407
41.82061 401
41.84072 385
41.86084 416
41.88095 422
41.90107 398
41.92118 408
41.94129 433
41.96141 362
41.98152 409
42.00163 419
42.02175 404
42.04186 390
42.06198 427
42.08209 425
42.1022 427
42.12232 418
42.14243 460
42.16254 467
42.18266 480
42.20277 513
42.22289 482
42.243 574
42.26311 590
42.28323 607
42.30334 711
42.32345 763
42.34357 754
42.36368 833
42.38379 795
42.40391 866
42.42402 762
42.44414 721
42.46425 685
42.48436 662
42.50448 635
42.52459 544
42.5447 539
42.56482 481
42.58493 449
42.60505 430
42.62516 432
42.64527 433
42.66539 399
42.6855 389
42.70561 382
42.72573 400
42.74584 362
42.76595 363
42.78607 400
42.80618 373
42.8263 378
42.84641 380
42.86652 374
42.88664 347
42.90675 416
42.92686 395
42.94698 366
42.96709 359
42.98721 380
43.00732 386
43.02743 407
43.04755 395
43.06766 371
43.08777 378
43.10789 376
43.128 362
43.14812 390
43.16823 357
43.18834 404
43.20846 373
43.22857 380
43.24868 361
43.2688 333
43.28891 364
43.30902 353
43.32914 383
43.34925 378
43.36937 388
43.38948 369
43.40959 355
43.42971 354
43.44982 346
43.46993 358
43.49005 368
43.51016 369
43.53028 365
43.55039 409
43.5705 367
43.59062 368
43.61073 354
43.63084 364
43.65096 361
43.67107 403
43.69119 342
43.7113 349
43.73141 349
43.75153 370
43.77164 373
43.79175 397
43.81187 376
43.83198 390
43.85209 364
43.87221 358
43.89232 361
43.91244 371
43.93255 376
43.95266 361
43.97278 350
43.99289 359
44.013 385
44.03312 384
44.05323 379
44.07335 369
44.09346 386
44.11357 355
44.13369 360
44.1538 354
44.17391 352
44.19403 410
44.21414 375
44.23426 347
44.25437 387
44.27448 361
44.2946 359
44.31471 385
44.33482 361
44.35494 386
44.37505 366
44.39516 361
44.41528 343
44.43539 389
44.45551 338
44.47562 361
44.49573 366
44.51585 359
44.53596 364
44.55607 348
44.57619 398
44.5963 367
44.61642 390
44.63653 393
44.65664 377
44.67676 427
44.69687 361
44.71698 375
44.7371 404
44.75721 374
44.77732 390
44.79744 390
44.81755 337
44.83767 384
44.85778 394
44.87789 376
44.89801 356
44.91812 414
44.93823 348
44.95835 369
44.97846 385
44.99858 379
45.01869 381
45.0388 375
45.05892 357
45.07903 422
45.09914 399
45.11926 387
45.13937 433
45.15949 387
45.1796 444
45.19971 404
45.21983 383
45.23994 406
45.26005 423
45.28017 421
45.30028 378
45.32039 403
45.34051 388
45.36062 394
45.38074 421
45.40085 453
45.42096 419
45.44108 397
45.46119 392
45.4813 421
45.50142 422
45.52153 450
45.54165 487
45.56176 495
45.58187 496
45.60199 531
45.6221 559
45.64221 539
45.66233 620
45.68244 669
45.70256 669
45.72267 680
45.74278 674
45.7629 643
45.78301 614
45.80312 580
45.82324 608
45.84335 513
45.86346 537
45.88358 496
45.90369 485
45.92381 437
45.94392 380
45.96403 419
45.98415 392
46.00426 386
46.02437 400
46.04449 397
46.0646 378
46.08472 415
46.10483 359
46.12494 384
46.14506 385
46.16517 366
46.18528 386
46.2054 417
46.22551 363
46.24563 382
46.26574 408
46.28585 364
46.30597 395
46.32608 379
46.34619 401
46.36631 407
46.38642 380
46.40653 387
46.42665 386
46.44676 377
46.46688 392
46.48699 378
46.5071 384
46.52722 383
46.54733 361
46.56744 384
46.58756 401
46.60767 369
46.62779 412
46.6479 381
46.66801 385
46.68813 345
46.70824 336
46.72835 399
46.74847 416
46.76858 374
46.78869 369
46.80881 363
46.82892 376
46.84904 392
46.86915 405
46.88926 380
46.90938 367
46.92949 411
46.9496 400
46.96972 364
46.98983 343
47.00995 371
47.03006 330
47.05017 392
47.07029 427
47.0904 353
47.11051 372
47.13063 369
47.15074 391
47.17086 400
47.19097 399
47.21108 371
47.2312 367
47.25131 355
47.27142 355
47.29154 365
47.31165 368
47.33176 391
47.35188 385
47.37199 407
47.39211 382
47.41222 365
47.43233 348
47.45245 384
47.47256 347
47.49267 382
47.51279 421
47.5329 409
47.55302 386
47.57313 390
47.59324 396
47.61336 427
47.63347 418
47.65358 373
47.6737 409
47.69381 360
47.71393 383
47.73404 401
47.75415 407
47.77427 398
47.79438 417
47.81449 397
47.83461 412
47.85472 428
47.87483 400
47.89495 403
47.91506 394
47.93518 446
47.95529 413
47.9754 429
47.99552 413
48.01563 384
48.03574 368
48.05586 352
48.07597 348
48.09609 352
48.1162 384
48.13631 364
48.15643 377
48.17654 376
48.19665 374
48.21677 374
48.23688 343
48.257 388
48.27711 373
48.29722 375
48.31734 367
48.33745 364
48.35756 356
48.37768 374
48.39779 372
48.4179 366
48.43802 373
48.45813 372
48.47825 385
48.49836 362
48.51847 414
48.53859 369
48.5587 365
48.57881 362
48.59893 386
48.61904 392
48.63916 363
48.65927 424
48.67938 371
48.6995 369
48.71961 376
48.73972 361
48.75984 367
48.77995 402
48.80006 372
48.82018 372
48.84029 361
48.86041 373
48.88052 386
48.90063 363
48.92075 389
48.94086 389
48.96097 364
48.98109 365
49.0012 360
49.02132 386
49.04143 361
49.06154 402
49.08166 381
49.10177 365
49.12188 382
49.142 350
49.16211 346
49.18223 377
49.20234 383
49.22245 386
49.24257 393
49.26268 379
49.28279 390
49.30291 382
49.32302 382
49.34313 369
49.36325 407
49.38336 395
49.40348 364
49.42359 393
49.4437 400
49.46382 383
49.48393 390
49.50404 379
49.52416 417
49.54427 384
49.56439 411
49.5845 352
49.60461 412
49.62473 418
49.64484 369
49.66495 420
49.68507 401
49.70518 433
49.7253 407
49.74541 451
49.76552 443
49.78564 464
49.80575 489
49.82586 546
49.84598 560
49.86609 589
49.8862 643
49.90632 676
49.92643 726
49.94655 836
49.96666 941
49.98677 1037
50.00689 1187
50.027 1302
50.04711 1404
50.06723 1428
50.08734 1349
50.10746 1301
50.12757 1128
50.14768 974
50.1678 974
50.18791 862
50.20802 895
50.22814 801
50.24825 654
50.26837 544
50.28848 520
50.30859 492
50.32871 487
50.34882 417
50.36893 406
50.38905 395
50.40916 400
50.42927 411
50.44939 421
50.4695 411
50.48962 392
50.50973 421
50.52984 395
50.54996 375
50.57007 431
50.59018 369
50.6103 388
50.63041 416
50.65053 361
50.67064 398
50.69075 372
50.71087 366
50.73098 365
50.75109 416
50.77121 354
50.79132 351
50.81143 363
50.83155 357
50.85166 398
50.87178 414
50.89189 379
50.912 360
50.93212 366
50.95223 352
50.97234 332
50.99246 383
51.01257 349
51.03269 334
51.0528 347
51.07291 382
51.09303 310
51.11314 336
51.13325 363
51.15337 321
51.17348 367
51.1936 352
51.21371 329
51.23382 340
51.25394 356
51.27405 346
51.29416 362
51.31428 338
51.33439 335
51.3545 360
51.37462 323
51.39473 311
51.41485 336
51.43496 350
51.45507 320
51.47519 320
51.4953 353
51.51541 349
51.53553 359
51.55564 312
51.57576 350
51.59587 305
51.61598 342
51.6361 344
51.65621 345
51.67632 347
51.69644 344
51.71655 344
51.73667 321
51.75678 309
51.77689 326
51.79701 348
51.81712 333
51.83723 339
51.85735 316
51.87746 336
51.89757 308
51.91769 352
51.9378 343
51.95792 348
51.97803 320
51.99814 334
52.01826 337
52.03837 346
52.05848 325
52.0786 306
52.09871 341
52.11883 309
52.13894 354
52.15905 309
52.17917 337
52.19928 345
52.21939 323
52.23951 364
52.25962 329
52.27974 373
52.29985 320
52.31996 338
52.34008 305
52.36019 377
52.3803 319
52.40042 329
52.42053 334
52.44064 332
52.46076 357
52.48087 338
52.50099 325
52.5211 325
52.54121 330
52.56133 341
52.58144 337
52.60155 319
52.62167 356
52.64178 365
52.6619 357
52.68201 323
52.70212 368
52.72224 339
52.74235 340
52.76246 310
52.78258 311
52.80269 344
52.8228 339
52.84292 341
52.86303 328
52.88315 355
52.90326 332
52.92337 343
52.94349 377
52.9636 377
52.98371 347
53.00383 344
53.02394 345
53.04406 345
53.06417 376
53.08428 379
53.1044 360
53.12451 306
53.14462 356
53.16474 363
53.18485 348
53.20497 381
53.22508 384
53.24519 378
53.26531 382
53.28542 379
53.30553 387
53.32565 360
53.34576 365
53.36587 368
53.38599 366
53.4061 369
53.42622 375
53.44633 377
53.46644 427
53.48656 396
53.50667 387
53.52678 414
53.5469 418
53.56701 410
53.58713 431
53.60724 420
53.62735 399
53.64747 445
53.66758 408
53.68769 429
53.70781 438
53.72792 415
53.74804 442
53.76815 435
53.78826 430
53.80838 495
53.82849 418
53.8486 450
53.86872 476
53.88883 457
53.90894 468
53.92906 443
53.94917 486
53.96929 475
53.9894 515
54.00951 461
54.02963 495
54.04974 444
54.06985 481
54.08997 476
54.11008 483
54.1302 488
54.15031 504
54.17042 547
54.19054 547
54.21065 509
54.23076 516
54.25088 496
54.27099 549
54.29111 503
54.31122 517
54.33133 530
54.35145 523
54.37156 507
54.39167 509
54.41179 533
54.4319 510
54.45201 477
54.47213 501
54.49224 481
54.51236 452
54.53247 462
54.55258 504
54.5727 552
54.59281 567
54.61292 510
54.63304 565
54.65315 592
54.67327 598
54.69338 599
54.71349 679
54.73361 686
54.75372 709
54.77383 723
54.79395 753
54.81406 720
54.83417 669
54.85429 677
54.8744 623
54.89452 698
54.91463 655
54.93474 586
54.95486 593
54.97497 550
54.99508 554
55.0152 578
55.03531 546
55.05543 499
55.07554 515
55.09565 494
55.11577 503
55.13588 496
55.15599 532
55.17611 517
55.19622 569
55.21634 529
55.23645 561
55.25656 566
55.27668 554
55.29679 543
55.3169 477
55.33702 495
55.35713 505
55.37724 524
55.39736 498
55.41747 501
55.43759 446
55.4577 430
55.47781 437
55.49793 449
55.51804 425
55.53815 425
55.55827 413
55.57838 429
55.5985 391
55.61861 395
55.63872 413
55.65884 389
55.67895 421
55.69906 382
55.71918 420
55.73929 388
55.75941 386
55.77952 395
55.79963 380
55.81975 383
55.83986 445
55.85997 400
55.88009 402
55.9002 397
55.92031 381
55.94043 396
55.96054 391
55.98066 361
56.00077 383
56.02088 390
56.041 364
56.06111 417
56.08122 402
56.10134 345
56.12145 372
56.14157 403
56.16168 393
56.18179 398
56.20191 357
56.22202 377
56.24213 348
56.26225 358
56.28236 363
56.30248 380
56.32259 400
56.3427 405
56.36282 391
56.38293 364
56.40304 421
56.42316 374
56.44327 377
56.46338 408
56.4835 363
56.50361 373
56.52373 389
56.54384 374
56.56395 358
56.58407 368
56.60418 391
56.62429 402
56.64441 368
56.66452 397
56.68464 385
56.70475 378
56.72486 369
56.74498 378
56.76509 389
56.7852 380
56.80532 382
56.82543 398
56.84554 365
56.86566 352
56.88577 386
56.90589 351
56.926 353
56.94611 350
56.96623 362
56.98634 348
57.00645 353
57.02657 363
57.04668 384
57.0668 390
57.08691 404
57.10702 385
57.12714 398
57.14725 355
57.16736 370
57.18748 375
57.20759 395
57.22771 388
57.24782 339
57.26793 372
57.28805 357
57.30816 381
57.32827 409
57.34839 363
57.3685 394
57.38861 368
57.40873 396
57.42884 362
57.44896 383
57.46907 390
57.48918 335
57.5093 320
57.52941 413
57.54952 344
57.56964 356
57.58975 350
57.60987 341
57.62998 333
57.65009 339
57.67021 337
57.69032 347
57.71043 349
57.73055 345
57.75066 359
57.77078 358
57.79089 342
57.811 377
57.83112 338
57.85123 351
57.87134 362
57.89146 359
57.91157 355
57.93168 384
57.9518 358
57.97191 356
57.99203 317
58.01214 345
58.03225 368
58.05237 378
58.07248 333
58.09259 359
58.11271 335
58.13282 335
58.15294 328
58.17305 349
58.19316 321
58.21328 343
58.23339 342
58.2535 324
58.27362 386
58.29373 335
58.31385 344
58.33396 349
58.35407 382
58.37419 334
58.3943 364
58.41441 350
58.43453 371
58.45464 357
58.47475 343
58.49487 347
58.51498 369
58.5351 316
58.55521 352
58.57532 320
58.59544 338
58.61555 351
58.63566 334
58.65578 357
58.67589 358
58.69601 362
58.71612 343
58.73623 316
58.75635 365
58.77646 348
58.79657 350
58.81669 364
58.8368 366
58.85691 329
58.87703 354
58.89714 338
58.91726 331
58.93737 344
58.95748 324
58.9776 335
58.99771 335
59.01782 338
59.03794 349
59.05805 347
59.07817 362
59.09828 362
59.11839 333
59.13851 364
59.15862 315
59.17873 346
59.19885 331
59.21896 372
59.23908 368
59.25919 338
59.2793 334
59.29942 335
59.31953 416
59.33964 380
59.35976 371
59.37987 378
59.39998 348
59.4201 352
59.44021 360
59.46033 384
59.48044 407
59.50055 401
59.52067 387
59.54078 464
59.56089 414
59.58101 423
59.60112 438
59.62124 449
59.64135 486
59.66146 506
59.68158 532
59.70169 559
59.7218 596
59.74192 639
59.76203 711
59.78215 817
59.80226 782
59.82237 871
59.84249 878
59.8626 980
59.88271 1004
59.90283 998
59.92294 894
59.94305 843
59.96317 763
59.98328 714
60.0034 690
60.02351 679
60.04362 673
60.06374 640
60.08385 595
60.10396 527
60.12408 490
60.14419 412
60.16431 423
60.18442 392
60.20453 353
60.22465 371
60.24476 348
60.26487 374
60.28499 389
60.3051 339
60.32522 390
60.34533 366
60.36544 380
60.38556 360
60.40567 404
60.42578 370
60.4459 341
60.46601 341
60.48612 347
60.50624 332
60.52635 355
60.54647 353
60.56658 363
60.58669 392
60.60681 367
60.62692 331
60.64703 337
60.66715 314
60.68726 366
60.70738 318
60.72749 351
60.7476 371
60.76772 354
60.78783 341
60.80794 338
60.82806 337
60.84817 308
60.86828 322
60.8884 335
60.90851 343
60.92863 329
60.94874 345
60.96885 312
60.98897 333
61.00908 369
61.02919 327
61.04931 372
61.06942 356
61.08954 363
61.10965 342
61.12976 335
61.14988 344
61.16999 361
61.1901 328
61.21022 356
61.23033 360
61.25045 394
61.27056 396
61.29067 375
61.31079 324
61.3309 325
61.35101 364
61.37113 364
61.39124 354
61.41135 338
61.43147 381
61.45158 392
61.4717 394
61.49181 350
61.51192 376
61.53204 352
61.55215 394
61.57226 376
61.59238 401
61.61249 364
61.63261 373
61.65272 396
61.67283 362
61.69295 420
61.71306 417
61.73317 421
61.75329 398
61.7734 398
61.79352 389
61.81363 416
61.83374 445
61.85386 424
61.87397 430
61.89408 469
61.9142 476
61.93431 444
61.95442 488
61.97454 497
61.99465 490
62.01477 480
62.03488 484
62.05499 489
62.07511 479
62.09522 527
62.11533 537
62.13545 553
62.15556 550
62.17568 546
62.19579 521
62.2159 566
62.23602 575
62.25613 503
62.27624 553
62.29636 501
62.31647 513
62.33659 524
62.3567 480
62.37681 468
62.39693 502
62.41704 473
62.43715 481
62.45727 430
62.47738 474
62.49749 469
62.51761 430
62.53772 415
62.55784 436
62.57795 435
62.59806 448
62.61818 419
62.63829 388
62.6584 382
62.67852 430
62.69863 382
62.71875 362
62.73886 390
62.75897 378
62.77909 392
62.7992 384
62.81931 346
62.83943 410
62.85954 392
62.87965 372
62.89977 405
62.91988 392
62.94 378
62.96011 356
62.98022 333
63.00034 402
63.02045 368
63.04056 378
63.06068 385
63.08079 372
63.10091 390
63.12102 418
63.14113 403
63.16125 355
63.18136 368
63.20147 363
63.22159 367
63.2417 389
63.26182 350
63.28193 342
63.30204 363
63.32216 370
63.34227 352
63.36238 368
63.3825 352
63.40261 366
63.42272 365
63.44284 383
63.46295 380
63.48307 387
63.50318 334
63.52329 378
63.54341 396
63.56352 358
63.58363 400
63.60375 361
63.62386 385
63.64398 384
63.66409 376
63.6842 386
63.70432 373
63.72443 406
63.74454 411
63.76466 423
63.78477 414
63.80489 398
63.825 396
63.84511 495
63.86523 448
63.88534 494
63.90545 467
63.92557 477
63.94568 485
63.96579 455
63.98591 467
64.00602 474
64.02614 442
64.04625 441
64.06636 416
64.08648 417
64.10659 411
64.1267 435
64.14682 411
64.16693 405
64.18705 387
64.20716 363
64.22727 396
64.24739 361
64.2675 361
64.28761 360
64.30773 357
64.32784 360
64.34796 372
64.36807 349
64.38818 361
64.4083 340
64.42841 329
64.44852 351
64.46864 327
64.48875 368
64.50886 355
64.52898 354
64.54909 354
64.56921 313
64.58932 325
64.60943 327
64.62955 338
64.64966 344
64.66977 331
64.68989 356
64.71 317
64.73012 319
64.75023 332
64.77034 334
64.79046 365
64.81057 372
64.83068 347
64.8508 357
64.87091 355
64.89102 306
64.91114 342
64.93125 347
64.95137 332
64.97148 344
64.99159 367
65.01171 331
65.03182 343
65.05193 364
65.07205 351
65.09216 334
65.11228 329
65.13239 302
65.1525 307
65.17262 320
65.19273 325
65.21284 319
65.23296 345
65.25307 329
65.27319 320
65.2933 342
65.31341 338
65.33353 321
65.35364 341
65.37375 343
65.39387 324
65.41398 321
65.43409 337
65.45421 362
65.47432 342
65.49444 317
65.51455 313
65.53466 345
65.55478 348
65.57489 294
65.595 351
65.61512 332
65.63523 345
65.65535 338
65.67546 342
65.69557 341
65.71569 354
65.7358 345
65.75591 323
65.77603 339
65.79614 317
65.81626 344
65.83637 344
65.85648 331
65.8766 339
65.89671 325
65.91682 333
65.93694 302
65.95705 349
65.97716 317
65.99728 383
66.01739 325
66.03751 287
66.05762 329
66.07773 285
66.09785 300
66.11796 328
66.13807 315
66.15819 308
66.1783 307
66.19842 341
66.21853 315
66.23864 319
66.25876 341
66.27887 335
66.29898 336
66.3191 313
66.33921 331
66.35933 347
66.37944 342
66.39955 317
66.41967 329
66.43978 329
66.45989 298
66.48001 320
66.50012 284
66.52023 322
66.54035 309
66.56046 334
66.58058 306
66.60069 321
66.6208 296
66.64092 270
66.66103 305
66.68114 299
66.70126 315
66.72137 349
66.74149 320
66.7616 347
66.78171 322
66.80183 311
66.82194 358
66.84205 326
66.86217 347
66.88228 355
66.90239 319
66.92251 338
66.94262 344
66.96274 353
66.98285 350
67.00296 307
67.02308 320
67.04319 339
67.0633 321
67.08342 337
67.10353 306
67.12365 338
67.14376 370
67.16387 349
67.18399 338
67.2041 340
67.22421 339
67.24433 319
67.26444 363
67.28456 379
67.30467 363
67.32478 371
67.3449 371
67.36501 369
67.38512 418
67.40524 393
67.42535 407
67.44546 424
67.46558 431
67.48569 423
67.50581 452
67.52592 541
67.54603 533
67.56615 605
67.58626 607
67.60637 611
67.62649 660
67.6466 685
67.66672 682
67.68683 651
67.70694 669
67.72706 653
67.74717 580
67.76728 555
67.7874 568
67.80751 562
67.82763 607
67.84774 614
67.86785 617
67.88797 648
67.90808 652
67.92819 635
67.94831 649
67.96842 711
67.98853 719
68.00865 813
68.02876 841
68.04888 806
68.06899 854
68.0891 867
68.10922 797
68.12933 777
68.14944 795
68.16956 794
68.18967 814
68.20979 756
68.2299 762
68.25001 737
68.27013 715
68.29024 672
68.31035 590
68.33047 601
68.35058 521
68.3707 449
68.39081 528
68.41092 465
68.43104 475
68.45115 437
68.47126 434
68.49138 426
68.51149 395
68.5316 369
68.55172 403
68.57183 321
68.59195 340
68.61206 343
68.63217 346
68.65229 334
68.6724 334
68.69251 318
68.71263 320
68.73274 336
68.75286 315
68.77297 357
68.79308 335
68.8132 341
68.83331 331
68.85342 308
68.87354 313
68.89365 337
68.91376 376
68.93388 336
68.95399 320
68.97411 329
68.99422 345
69.01433 333
69.03445 338
69.05456 316
69.07467 307
69.09479 323
69.1149 309
69.13502 324
69.15513 331
69.17524 310
69.19536 310
69.21547 313
69.23558 307
69.2557 321
69.27581 344
69.29593 314
69.31604 321
69.33615 324
69.35627 307
69.37638 320
69.39649 337
69.41661 337
69.43672 338
69.45683 296
69.47695 332
69.49706 318
69.51718 321
69.53729 315
69.5574 347
69.57752 299
69.59763 314
69.61774 349
69.63786 283
69.65797 309
69.67809 332
69.6982 340
69.71831 310
69.73843 302
69.75854 349
69.77865 305
69.79877 336
69.81888 284
69.839 324
69.85911 311
69.87922 336
69.89934 317
69.91945 327
69.93956 316
69.95968 269
69.97979 306
69.9999 316
70.02002 323
70.04013 321
70.06025 305
70.08036 324
70.10047 294
70.12059 305
70.1407 314
70.16081 339
70.18093 318
70.20104 320
70.22116 300
70.24127 328
70.26138 326
70.2815 310
70.30161 311
70.32172 316
70.34184 329
70.36195 287
70.38207 311
70.40218 329
70.42229 356
70.44241 254
70.46252 298
70.48263 289
70.50275 301
70.52286 306
70.54297 296
70.56309 308
70.5832 307
70.60332 283
70.62343 291
70.64354 292
70.66366 303
70.68377 296
70.70388 295
70.724 300
70.74411 297
70.76423 292
70.78434 323
70.80445 323
70.82457 281
70.84468 290
70.86479 297
70.88491 319
70.90502 289
70.92513 288
70.94525 305
70.96536 306
70.98548 303
71.00559 301
71.0257 314
71.04582 296
71.06593 301
71.08604 307
71.10616 331
71.12627 298
71.14639 316
71.1665 311
71.18661 285
71.20673 315
71.22684 314
71.24695 280
71.26707 306
71.28718 283
71.3073 303
71.32741 306
71.34752 288
71.36764 302
71.38775 295
71.40786 315
71.42798 267
71.44809 280
71.4682 345
71.48832 309
71.50843 289
71.52855 296
71.54866 322
71.56877 300
71.58889 279
71.609 280
71.62911 319
71.64923 312
71.66934 347
71.68946 328
71.70957 292
71.72968 311
71.7498 319
71.76991 314
71.79002 306
71.81014 315
71.83025 271
71.85037 279
71.87048 300
71.89059 288
71.91071 285
71.93082 299
71.95093 296
71.97105 309
71.99116 312
72.01127 328
72.03139 350
72.0515 292
72.07162 320
72.09173 297
72.11184 284
72.13196 334
72.15207 287
72.17218 302
72.1923 304
72.21241 273
72.23253 310
72.25264 294
72.27275 289
72.29287 305
72.31298 285
72.33309 308
72.35321 312
72.37332 321
72.39344 321
72.41355 306
72.43366 301
72.45378 289
72.47389 344
72.494 310
72.51412 299
72.53423 313
72.55434 328
72.57446 317
72.59457 322
72.61469 301
72.6348 310
72.65491 303
72.67503 317
72.69514 303
72.71525 292
72.73537 340
72.75548 315
72.7756 300
72.79571 303
72.81582 315
72.83594 309
72.85605 297
72.87616 310
72.89628 310
72.91639 338
72.9365 355
72.95662 336
72.97673 309
72.99685 311
73.01696 326
73.03707 357
73.05719 348
73.0773 331
73.09741 350
73.11753 336
73.13764 326
73.15776 333
73.17787 355
73.19798 336
73.2181 352
73.23821 380
73.25832 361
73.27844 428
73.29855 409
73.31867 398
73.33878 449
73.35889 421
73.37901 455
73.39912 448
73.41923 431
73.43935 420
73.45946 364
73.47957 357
73.49969 360
73.5198 375
73.53992 379
73.56003 385
73.58014 390
73.60026 334
73.62037 366
73.64048 396
73.6606 362
73.68071 335
73.70083 330
73.72094 321
73.74105 304
73.76117 301
73.78128 319
73.80139 325
73.82151 309
73.84162 307
73.86174 342
73.88185 358
73.90196 310
73.92208 295
73.94219 295
73.9623 339
73.98242 295
74.00253 303
74.02264 306
74.04276 320
74.06287 317
74.08299 341
74.1031 306
74.12321 291
74.14333 328
74.16344 301
74.18355 326
74.20367 306
74.22378 312
74.2439 302
74.26401 309
74.28412 329
74.30424 342
74.32435 319
74.34446 305
74.36458 298
74.38469 311
74.40481 302
74.42492 304
74.44503 320
74.46515 305
74.48526 301
74.50537 317
74.52549 300
74.5456 321
74.56571 293
74.58583 320
74.60594 323
74.62606 294
74.64617 320
74.66628 298
74.6864 328
74.70651 304
74.72662 312
74.74674 314
74.76685 309
74.78697 306
74.80708 327
74.82719 321
74.84731 321
74.86742 303
74.88753 296
74.90765 270
74.92776 326
74.94787 299
74.96799 304
74.9881 312
75.00822 304
