3.00117 20393
3.02128 19945
3.0414 19361
3.06151 19026
3.08162 18423
3.10174 17860
3.12185 17592
3.14197 16792
3.16208 16588
3.18219 15969
3.20231 15396
3.22242 15294
3.24253 14432
3.26265 14225
3.28276 13733
3.30288 13304
3.32299 13041
3.3431 12369
3.36322 12207
3.38333 11572
3.40344 11080
3.42356 11117
3.44367 10420
3.46379 10110
3.4839 9683
3.50401 9649
3.52413 8966
3.54424 8871
3.56435 8600
3.58447 8156
3.60458 7801
3.62469 7730
3.64481 7257
3.66492 7127
3.68504 6778
3.70515 6678
3.72526 6403
3.74538 6111
3.76549 5856
3.7856 5524
3.80572 5290
3.82583 5246
3.84595 5002
3.86606 4685
3.88617 4607
3.90629 4403
3.9264 4300
3.94651 3995
3.96663 3968
3.98674 3525
4.00686 3480
4.02697 3461
4.04708 3251
4.0672 3230
4.08731 2930
4.10742 2908
4.12754 2855
4.14765 2785
4.16776 2541
4.18788 2278
4.20799 2372
4.22811 2356
4.24822 2175
4.26833 2162
4.28845 1925
4.30856 1964
4.32867 2018
4.34879 1918
4.3689 1879
4.38902 1686
4.40913 1694
4.42924 1712
4.44936 1674
4.46947 1648
4.48958 1562
4.5097 1491
4.52981 1580
4.54992 1524
4.57004 1464
4.59015 1386
4.61027 1381
4.63038 1403
4.65049 1394
4.67061 1322
4.69072 1243
4.71083 1207
4.73095 1249
4.75106 1210
4.77118 1156
4.79129 1216
4.8114 1127
4.83152 1114
4.85163 1087
4.87174 1094
4.89186 1055
4.91197 1056
4.93209 1043
4.9522 1074
4.97231 926
4.99243 951
5.01254 901
5.03265 887
5.05277 899
5.07288 890
5.09299 808
5.11311 838
5.13322 818
5.15334 808
5.17345 731
5.19356 773
5.21368 816
5.23379 790
5.2539 753
5.27402 734
5.29413 704
5.31425 670
5.33436 687
5.35447 687
5.37459 584
5.3947 633
5.41481 622
5.43493 620
5.45504 596
5.47516 612
5.49527 626
5.51538 598
5.5355 621
5.55561 574
5.57572 566
5.59584 518
5.61595 551
5.63606 528
5.65618 514
5.67629 500
5.69641 521
5.71652 500
5.73663 529
5.75675 517
5.77686 514
5.79697 502
5.81709 511
5.8372 497
5.85732 478
5.87743 451
5.89754 509
5.91766 472
5.93777 471
5.95788 483
5.978 448
5.99811 460
6.01823 443
6.03834 439
6.05845 421
6.07857 392
6.09868 426
6.11879 430
6.13891 455
6.15902 407
6.17913 474
6.19925 418
6.21936 432
6.23948 455
6.25959 422
6.2797 431
6.29982 409
6.31993 442
6.34004 480
6.36016 410
6.38027 435
6.40039 434
6.4205 415
6.44061 413
6.46073 417
6.48084 427
6.50095 434
6.52107 405
6.54118 386
6.56129 418
6.58141 402
6.60152 460
6.62164 394
6.64175 402
6.66186 394
6.68198 329
6.70209 402
6.7222 440
6.74232 380
6.76243 336
6.78255 397
6.80266 385
6.82277 421
6.84289 432
6.863 416
6.88311 386
6.90323 396
6.92334 372
6.94346 368
6.96357 412
6.98368 405
7.0038 426
7.02391 388
7.04402 372
7.06414 377
7.08425 375
7.10436 388
7.12448 389
7.14459 370
7.16471 386
7.18482 397
7.20493 432
7.22505 391
7.24516 393
7.26527 360
7.28539 393
7.3055 432
7.32562 389
7.34573 353
7.36584 415
7.38596 378
7.40607 423
7.42618 395
7.4463 415
7.46641 386
7.48653 374
7.50664 402
7.52675 388
7.54687 380
7.56698 419
7.58709 397
7.60721 393
7.62732 386
7.64743 385
7.66755 386
7.68766 393
7.70778 397
7.72789 408
7.748 375
7.76812 364
7.78823 387
7.80834 418
7.82846 379
7.84857 366
7.86869 422
7.8888 365
7.90891 369
7.92903 358
7.94914 400
7.96925 411
7.98937 406
8.00948 412
8.0296 386
8.04971 401
8.06982 397
8.08994 378
8.11005 381
8.13016 415
8.15028 373
8.17039 388
8.1905 384
8.21062 392
8.23073 435
8.25085 370
8.27096 413
8.29107 395
8.31119 350
8.3313 399
8.35141 427
8.37153 371
8.39164 386
8.41176 348
8.43187 440
8.45198 422
8.4721 396
8.49221 420
8.51232 385
8.53244 406
8.55255 378
8.57266 403
8.59278 417
8.61289 401
8.63301 452
8.65312 441
8.67323 397
8.69335 442
8.71346 397
8.73357 454
8.75369 428
8.7738 426
8.79392 419
8.81403 464
8.83414 443
8.85426 462
8.87437 415
8.89448 395
8.9146 390
8.93471 407
8.95483 410
8.97494 356
8.99505 394
9.01517 384
9.03528 394
9.05539 407
9.07551 365
9.09562 401
9.11573 385
9.13585 373
9.15596 396
9.17608 371
9.19619 396
9.2163 376
9.23642 410
9.25653 386
9.27664 394
9.29676 448
9.31687 404
9.33699 420
9.3571 405
9.37721 426
9.39733 402
9.41744 404
9.43755 369
9.45767 367
9.47778 366
9.4979 375
9.51801 371
9.53812 398
9.55824 398
9.57835 380
9.59846 414
9.61858 380
9.63869 370
9.6588 366
9.67892 369
9.69903 379
9.71915 353
9.73926 412
9.75937 376
9.77949 393
9.7996 379
9.81971 392
9.83983 435
9.85994 408
9.88006 410
9.90017 390
9.92028 360
9.9404 382
9.96051 357
9.98062 398
10.00074 418
10.02085 408
10.04097 409
10.06108 388
10.08119 375
10.10131 375
10.12142 372
10.14153 409
10.16165 420
10.18176 377
10.20187 384
10.22199 385
10.2421 400
10.26222 387
10.28233 387
10.30244 351
10.32256 339
10.34267 456
10.36278 360
10.3829 341
10.40301 446
10.42313 323
10.44324 385
10.46335 363
10.48347 398
10.50358 357
10.52369 405
10.54381 417
10.56392 391
10.58403 392
10.60415 345
10.62426 358
10.64438 370
10.66449 387
10.6846 392
10.70472 379
10.72483 431
10.74494 426
10.76506 397
10.78517 354
10.80529 425
10.8254 420
10.84551 405
10.86563 421
10.88574 367
10.90585 404
10.92597 416
10.94608 408
10.9662 384
10.98631 409
11.00642 412
11.02654 442
11.04665 411
11.06676 398
11.08688 396
11.10699 418
11.1271 404
11.14722 388
11.16733 418
11.18745 407
11.20756 422
11.22767 422
11.24779 441
11.2679 410
11.28801 424
11.30813 402
11.32824 425
11.34836 406
11.36847 453
11.38858 422
11.4087 467
11.42881 421
11.44892 453
11.46904 460
11.48915 442
11.50927 467
11.52938 445
11.54949 456
11.56961 434
11.58972 452
11.60983 418
11.62995 457
11.65006 487
11.67017 534
11.69029 483
11.7104 493
11.73052 530
11.75063 537
11.77074 526
11.79086 551
11.81097 513
11.83108 542
11.8512 557
11.87131 542
11.89143 592
11.91154 556
11.93165 628
11.95177 632
11.97188 635
11.99199 635
12.01211 605
12.03222 700
12.05234 739
12.07245 771
12.09256 782
12.11268 748
12.13279 767
12.1529 806
12.17302 857
12.19313 880
12.21324 902
12.23336 883
12.25347 907
12.27359 934
12.2937 857
12.31381 936
12.33393 858
12.35404 837
12.37415 875
12.39427 815
12.41438 795
12.4345 734
12.45461 728
12.47472 742
12.49484 689
12.51495 635
12.53506 645
12.55518 628
12.57529 592
12.5954 598
12.61552 564
12.63563 558
12.65575 540
12.67586 524
12.69597 542
12.71609 513
12.7362 512
12.75631 466
12.77643 479
12.79654 461
12.81666 474
12.83677 451
12.85688 437
12.877 422
12.89711 420
12.91722 430
12.93734 429
12.95745 404
12.97757 446
12.99768 400
13.01779 420
13.03791 397
13.05802 401
13.07813 403
13.09825 388
13.11836 388
13.13847 418
13.15859 413
13.1787 371
13.19882 391
13.21893 411
13.23904 372
13.25916 417
13.27927 408
13.29938 400
13.3195 381
13.33961 362
13.35973 415
13.37984 383
13.39995 403
13.42007 401
13.44018 370
13.46029 377
13.48041 406
13.50052 391
13.52064 340
13.54075 390
13.56086 357
13.58098 392
13.60109 399
13.6212 363
13.64132 388
13.66143 372
13.68154 384
13.70166 370
13.72177 406
13.74189 350
13.762 352
13.78211 338
13.80223 347
13.82234 354
13.84245 393
13.86257 343
13.88268 369
13.9028 356
13.92291 364
13.94302 368
13.96314 377
13.98325 328
14.00336 325
14.02348 329
14.04359 353
14.06371 357
14.08382 340
14.10393 308
14.12405 328
14.14416 356
14.16427 343
14.18439 382
14.2045 397
14.22461 325
14.24473 350
14.26484 335
14.28496 357
14.30507 330
14.32518 325
14.3453 370
14.36541 355
14.38552 368
14.40564 359
14.42575 376
14.44587 359
14.46598 379
14.48609 362
14.50621 331
14.52632 323
14.54643 335
14.56655 385
14.58666 354
14.60677 335
14.62689 356
14.647 328
14.66712 325
14.68723 375
14.70734 354
14.72746 384
14.74757 362
14.76768 366
14.7878 360
14.80791 352
14.82803 363
14.84814 357
14.86825 342
14.88837 346
14.90848 348
14.92859 408
14.94871 328
14.96882 391
14.98894 360
15.00905 374
15.02916 332
15.04928 352
15.06939 354
15.0895 382
15.10962 344
15.12973 373
15.14984 361
15.16996 339
15.19007 335
15.21019 363
15.2303 396
15.25041 340
15.27053 370
15.29064 350
15.31075 382
15.33087 334
15.35098 337
15.3711 368
15.39121 323
15.41132 347
15.43144 305
15.45155 347
15.47166 348
15.49178 357
15.51189 350
15.53201 324
15.55212 354
15.57223 330
15.59235 329
15.61246 360
15.63257 352
15.65269 331
15.6728 337
15.69291 340
15.71303 356
15.73314 345
15.75326 352
15.77337 320
15.79348 342
15.8136 346
15.83371 348
15.85382 372
15.87394 374
15.89405 325
15.91417 342
15.93428 360
15.95439 313
15.97451 355
15.99462 319
16.01473 352
16.03485 320
16.05496 346
16.07508 369
16.09519 348
16.1153 321
16.13542 350
16.15553 330
16.17564 333
16.19576 320
16.21587 345
16.23598 344
16.2561 333
16.27621 358
16.29633 326
16.31644 316
16.33655 359
16.35667 314
16.37678 344
16.39689 345
16.41701 338
16.43712 364
16.45724 305
16.47735 332
16.49746 345
16.51758 332
16.53769 345
16.5578 357
16.57792 299
16.59803 315
16.61814 336
16.63826 360
16.65837 326
16.67849 332
16.6986 351
16.71871 323
16.73883 330
16.75894 359
16.77905 336
16.79917 313
16.81928 317
16.8394 366
16.85951 328
16.87962 340
16.89974 321
16.91985 362
16.93996 341
16.96008 332
16.98019 350
17.00031 358
17.02042 337
17.04053 331
17.06065 345
17.08076 334
17.10087 357
17.12099 336
17.1411 350
17.16121 354
17.18133 340
17.20144 321
17.22156 322
17.24167 346
17.26178 333
17.2819 321
17.30201 343
17.32212 371
17.34224 328
17.36235 315
17.38247 326
17.40258 338
17.42269 360
17.44281 362
17.46292 338
17.48303 316
17.50315 350
17.52326 348
17.54338 344
17.56349 343
17.5836 314
17.60372 337
17.62383 334
17.64394 332
17.66406 340
17.68417 363
17.70428 387
17.7244 333
17.74451 371
17.76463 358
17.78474 317
17.80485 373
17.82497 370
17.84508 340
17.86519 356
17.88531 393
17.90542 374
17.92554 367
17.94565 341
17.96576 352
17.98588 376
18.00599 378
18.0261 377
18.04622 389
18.06633 369
18.08645 384
18.10656 372
18.12667 365
18.14679 380
18.1669 370
18.18701 422
18.20713 442
18.22724 423
18.24735 458
18.26747 459
18.28758 441
18.3077 483
18.32781 479
18.34792 413
18.36804 450
18.38815 375
18.40826 394
18.42838 374
18.44849 359
18.46861 366
18.48872 374
18.50883 381
18.52895 380
18.54906 360
18.56917 342
18.58929 344
18.6094 367
18.62951 352
18.64963 338
18.66974 357
18.68986 363
18.70997 300
18.73008 347
18.7502 372
18.77031 367
18.79042 333
18.81054 360
18.83065 342
18.85077 351
18.87088 341
18.89099 353
18.91111 383
18.93122 375
18.95133 335
18.97145 346
18.99156 347
19.01168 360
19.03179 351
19.0519 353
19.07202 351
19.09213 368
19.11224 341
19.13236 370
19.15247 372
19.17258 360
19.1927 386
19.21281 400
19.23293 386
19.25304 393
19.27315 363
19.29327 389
19.31338 351
19.33349 394
19.35361 382
19.37372 390
19.39384 420
19.41395 406
19.43406 401
19.45418 398
19.47429 398
19.4944 381
19.51452 386
19.53463 440
19.55475 449
19.57486 427
19.59497 446
19.61509 457
19.6352 485
19.65531 570
19.67543 594
19.69554 539
19.71565 625
19.73577 642
19.75588 682
19.776 756
19.79611 804
19.81622 789
19.83634 810
19.85645 870
19.87656 785
19.89668 827
19.91679 812
19.93691 785
19.95702 880
19.97713 805
19.99725 779
20.01736 729
20.03747 743
20.05759 736
20.0777 733
20.09782 757
20.11793 802
20.13804 739
20.15816 763
20.17827 742
20.19838 760
20.2185 803
20.23861 751
20.25872 768
20.27884 774
20.29895 757
20.31907 747
20.33918 759
20.35929 784
20.37941 765
20.39952 767
20.41963 787
20.43975 820
20.45986 833
20.47998 789
20.50009 784
20.5202 795
20.54032 811
20.56043 856
20.58054 798
20.60066 805
20.62077 887
20.64088 893
20.661 942
20.68111 1117
20.70123 1237
20.72134 1448
20.74145 1723
20.76157 2044
20.78168 2590
20.80179 2963
20.82191 3297
20.84202 3369
20.86214 3238
20.88225 2860
20.90236 2188
20.92248 1764
20.94259 1465
20.9627 1244
20.98282 1113
21.00293 1009
21.02305 1033
21.04316 943
21.06327 946
21.08339 822
21.1035 870
21.12361 801
21.14373 783
21.16384 753
21.18395 708
21.20407 752
21.22418 732
21.2443 746
21.26441 725
21.28452 801
21.30464 703
21.32475 720
21.34486 747
21.36498 766
21.38509 785
21.40521 774
21.42532 830
21.44543 759
21.46555 771
21.48566 795
21.50577 625
21.52589 739
21.546 744
21.56612 751
21.58623 670
21.60634 739
21.62646 687
21.64657 679
21.66668 688
21.6868 633
21.70691 656
21.72702 666
21.74714 646
21.76725 681
21.78737 597
21.80748 655
21.82759 606
21.84771 641
21.86782 631
21.88793 635
21.90805 570
21.92816 614
21.94828 586
21.96839 641
21.9885 563
22.00862 570
22.02873 531
22.04884 519
22.06896 579
22.08907 512
22.10919 590
22.1293 529
22.14941 588
22.16953 568
22.18964 529
22.20975 547
22.22987 596
22.24998 592
22.27009 557
22.29021 557
22.31032 564
22.33044 561
22.35055 557
22.37066 566
22.39078 542
22.41089 577
22.431 578
22.45112 538
22.47123 560
22.49135 550
22.51146 476
22.53157 553
22.55169 505
22.5718 534
22.59191 505
22.61203 539
22.63214 553
22.65225 529
22.67237 482
22.69248 520
22.7126 504
22.73271 541
22.75282 502
22.77294 503
22.79305 509
22.81316 506
22.83328 479
22.85339 502
22.87351 555
22.89362 513
22.91373 502
22.93385 504
22.95396 504
22.97407 515
22.99419 548
23.0143 504
23.03442 543
23.05453 546
23.07464 544
23.09476 520
23.11487 563
23.13498 529
23.1551 545
23.17521 568
23.19532 582
23.21544 566
23.23555 505
23.25567 549
23.27578 523
23.29589 488
23.31601 510
23.33612 451
23.35623 472
23.37635 455
23.39646 523
23.41658 531
23.43669 506
23.4568 496
23.47692 508
23.49703 517
23.51714 488
23.53726 565
23.55737 522
23.57749 512
23.5976 507
23.61771 540
23.63783 519
23.65794 521
23.67805 511
23.69817 501
23.71828 559
23.73839 540
23.75851 527
23.77862 531
23.79874 574
23.81885 557
23.83896 525
23.85908 520
23.87919 518
23.8993 571
23.91942 582
23.93953 612
23.95965 619
23.97976 601
23.99987 600
24.01999 608
24.0401 580
24.06021 559
24.08033 580
24.10044 541
24.12056 522
24.14067 553
24.16078 611
24.1809 581
24.20101 596
24.22112 583
24.24124 615
24.26135 562
24.28146 576
24.30158 614
24.32169 582
24.34181 580
24.36192 584
24.38203 573
24.40215 597
24.42226 641
24.44237 674
24.46249 594
24.4826 625
24.50272 611
24.52283 660
24.54294 657
24.56306 716
24.58317 676
24.60328 685
24.6234 705
24.64351 714
24.66362 736
24.68374 757
24.70385 766
24.72397 826
24.74408 847
24.76419 834
24.78431 806
24.80442 794
24.82453 866
24.84465 821
24.86476 882
24.88488 855
24.90499 838
24.9251 868
24.94522 852
24.96533 786
24.98544 821
25.00556 826
25.02567 792
25.04579 759
25.0659 736
25.08601 782
25.10613 725
25.12624 696
25.14635 688
25.16647 724
25.18658 701
25.20669 682
25.22681 667
25.24692 676
25.26704 687
25.28715 685
25.30726 634
25.32738 589
25.34749 576
25.3676 615
25.38772 607
25.40783 617
25.42795 592
25.44806 619
25.46817 624
25.48829 647
25.5084 668
25.52851 629
25.54863 652
25.56874 680
25.58886 651
25.60897 656
25.62908 650
25.6492 659
25.66931 603
25.68942 590
25.70954 560
25.72965 637
25.74976 572
25.76988 557
25.78999 570
25.81011 571
25.83022 562
25.85033 617
25.87045 550
25.89056 542
25.91067 570
25.93079 519
25.9509 586
25.97102 562
25.99113 582
26.01124 600
26.03136 624
26.05147 628
26.07158 630
26.0917 636
26.11181 678
26.13193 662
26.15204 718
26.17215 666
26.19227 730
26.21238 753
26.23249 805
26.25261 845
26.27272 943
26.29283 976
26.31295 1016
26.33306 1098
26.35318 1110
26.37329 1388
26.3934 1573
26.41352 1813
26.43363 2220
26.45374 2616
26.47386 3393
26.49397 4309
26.51409 5800
26.5342 7452
26.55431 9571
26.57443 11511
26.59454 13150
26.61465 13671
26.63477 13447
26.65488 11859
26.67499 9394
26.69511 6820
26.71522 5209
26.73534 3600
26.75545 2361
26.77556 1593
26.79568 1338
26.81579 1163
26.8359 1038
26.85602 996
26.87613 987
26.89625 888
26.91636 905
26.93647 866
26.95659 826
26.9767 853
26.99681 823
27.01693 802
27.03704 821
27.05716 801
27.07727 733
27.09738 697
27.1175 660
27.13761 636
27.15772 659
27.17784 657
27.19795 572
27.21806 598
27.23818 635
27.25829 608
27.27841 632
27.29852 635
27.31863 751
27.33875 691
27.35886 775
27.37897 785
27.39909 869
27.4192 846
27.43932 918
27.45943 911
27.47954 872
27.49966 804
27.51977 732
27.53988 694
27.56 608
27.58011 527
27.60023 520
27.62034 511
27.64045 525
27.66057 469
27.68068 487
27.70079 472
27.72091 461
27.74102 467
27.76113 451
27.78125 428
27.80136 448
27.82148 493
27.84159 456
27.8617 467
27.88182 470
27.90193 451
27.92204 449
27.94216 450
27.96227 451
27.98239 414
28.0025 500
28.02261 441
28.04273 429
28.06284 428
28.08295 417
28.10307 407
28.12318 414
28.1433 387
28.16341 446
28.18352 425
28.20364 386
28.22375 373
28.24386 415
28.26398 396
28.28409 471
28.3042 405
28.32432 417
28.34443 424
28.36455 397
28.38466 417
28.40477 422
28.42489 403
28.445 383
28.46511 403
28.48523 383
28.50534 391
28.52546 424
28.54557 401
28.56568 410
28.5858 404
28.60591 421
28.62602 396
28.64614 403
28.66625 399
28.68636 396
28.70648 376
28.72659 404
28.74671 425
28.76682 378
28.78693 396
28.80705 375
28.82716 427
28.84727 392
28.86739 375
28.8875 438
28.90762 414
28.92773 418
28.94784 441
28.96796 440
28.98807 443
29.00818 407
29.0283 424
29.04841 358
29.06853 423
29.08864 455
29.10875 412
29.12887 465
29.14898 464
29.16909 402
29.18921 427
29.20932 397
29.22943 410
29.24955 366
29.26966 391
29.28978 383
29.30989 437
29.33 442
29.35012 420
29.37023 463
29.39034 446
29.41046 445
29.43057 460
29.45069 430
29.4708 413
29.49091 470
29.51103 386
29.53114 416
29.55125 414
29.57137 454
29.59148 414
29.6116 423
29.63171 398
29.65182 400
29.67194 419
29.69205 429
29.71216 443
29.73228 429
29.75239 436
29.7725 442
29.79262 429
29.81273 431
29.83285 431
29.85296 443
29.87307 437
29.89319 404
29.9133 410
29.93341 415
29.95353 460
29.97364 421
29.99376 427
30.01387 469
30.03398 452
30.0541 431
30.07421 447
30.09432 444
30.11444 451
30.13455 464
30.15467 455
30.17478 447
30.19489 446
30.21501 439
30.23512 416
30.25523 444
30.27535 411
30.29546 410
30.31557 404
30.33569 403
30.3558 415
30.37592 445
30.39603 450
30.41614 404
30.43626 424
30.45637 410
30.47648 418
30.4966 397
30.51671 442
30.53683 406
30.55694 412
30.57705 379
30.59717 426
30.61728 414
30.63739 422
30.65751 442
30.67762 422
30.69773 464
30.71785 463
30.73796 476
30.75808 472
30.77819 474
30.7983 482
30.81842 479
30.83853 459
30.85864 444
30.87876 450
30.89887 442
30.91899 414
30.9391 387
30.95921 392
30.97933 392
30.99944 425
31.01955 361
31.03967 377
31.05978 360
31.0799 343
31.10001 345
31.12012 381
31.14024 376
31.16035 376
31.18046 375
31.20058 376
31.22069 380
31.2408 362
31.26092 370
31.28103 356
31.30115 397
31.32126 387
31.34137 357
31.36149 339
31.3816 373
31.40171 389
31.42183 378
31.44194 340
31.46206 336
31.48217 354
31.50228 366
31.5224 384
31.54251 398
31.56262 387
31.58274 336
31.60285 379
31.62297 368
31.64308 330
31.66319 345
31.68331 332
31.70342 354
31.72353 367
31.74365 346
31.76376 354
31.78387 399
31.80399 365
31.8241 387
31.84422 351
31.86433 369
31.88444 388
31.90456 361
31.92467 359
31.94478 343
31.9649 385
31.98501 370
32.00513 403
32.02524 411
32.04535 395
32.06547 383
32.08558 371
32.10569 379
32.12581 383
32.14592 396
32.16604 377
32.18615 386
32.20626 373
32.22638 377
32.24649 390
32.2666 411
32.28672 400
32.30683 409
32.32694 390
32.34706 377
32.36717 389
32.38729 453
32.4074 395
32.42751 393
32.44763 389
32.46774 411
32.48785 433
32.50797 383
32.52808 417
32.5482 402
32.56831 406
32.58842 387
32.60854 393
32.62865 411
32.64876 396
32.66888 392
32.68899 412
32.7091 382
32.72922 368
32.74933 379
32.76945 390
32.78956 405
32.80967 401
32.82979 417
32.8499 397
32.87001 382
32.89013 387
32.91024 462
32.93036 420
32.95047 402
32.97058 430
32.9907 429
33.01081 429
33.03092 455
33.05104 461
33.07115 479
33.09127 474
33.11138 573
33.13149 519
33.15161 525
33.17172 504
33.19183 512
33.21195 510
33.23206 507
33.25217 460
33.27229 442
33.2924 465
33.31252 474
33.33263 438
33.35274 423
33.37286 438
33.39297 449
33.41308 437
33.4332 441
33.45331 406
33.47343 390
33.49354 449
33.51365 440
33.53377 474
33.55388 426
33.57399 440
33.59411 450
33.61422 427
33.63434 420
33.65445 443
33.67456 409
33.69468 423
33.71479 416
33.7349 441
33.75502 450
33.77513 467
33.79524 397
33.81536 383
33.83547 417
33.85559 398
33.8757 413
33.89581 415
33.91593 429
33.93604 406
33.95615 391
33.97627 401
33.99638 429
34.0165 438
34.03661 404
34.05672 410
34.07684 394
34.09695 444
34.11706 410
34.13718 449
34.15729 451
34.17741 439
34.19752 449
34.21763 447
34.23775 466
34.25786 435
34.27797 444
34.29809 423
34.3182 438
34.33831 428
34.35843 430
34.37854 411
34.39866 429
34.41877 443
34.43888 435
34.459 432
34.47911 420
34.49922 477
34.51934 431
34.53945 428
34.55957 453
34.57968 489
34.59979 495
34.61991 515
34.64002 534
34.66013 502
34.68025 560
34.70036 550
34.72047 555
34.74059 589
34.7607 540
34.78082 556
34.80093 660
34.82104 664
34.84116 638
34.86127 660
34.88138 641
34.9015 682
34.92161 640
34.94173 660
34.96184 708
34.98195 690
35.00207 663
35.02218 625
35.04229 627
35.06241 598
35.08252 609
35.10264 597
35.12275 587
35.14286 608
35.16298 576
35.18309 600
35.2032 531
35.22332 572
35.24343 619
35.26354 600
35.28366 591
35.30377 632
35.32389 602
35.344 619
35.36411 625
35.38423 610
35.40434 623
35.42445 622
35.44457 613
35.46468 691
35.4848 669
35.50491 665
35.52502 633
35.54514 672
35.56525 674
35.58536 702
35.60548 645
35.62559 650
35.64571 607
35.66582 654
35.68593 643
35.70605 678
35.72616 628
35.74627 634
35.76639 647
35.7865 657
35.80661 646
35.82673 632
35.84684 637
35.86696 637
35.88707 656
35.90718 658
35.9273 629
35.94741 643
35.96752 577
35.98764 546
36.00775 589
36.02787 571
36.04798 562
36.06809 560
36.08821 543
36.10832 511
36.12843 517
36.14855 502
36.16866 534
36.18878 509
36.20889 549
36.229 473
36.24912 526
36.26923 526
36.28934 545
36.30946 621
36.32957 619
36.34968 646
36.3698 719
36.38991 741
36.41003 844
36.43014 945
36.45025 1083
36.47037 1183
36.49048 1277
36.51059 1197
36.53071 1232
36.55082 1091
36.57094 1011
36.59105 1009
36.61116 866
36.63128 812
36.65139 722
36.6715 601
36.69162 599
36.71173 525
36.73184 549
36.75196 537
36.77207 510
36.79219 490
36.8123 495
36.83241 540
36.85253 527
36.87264 535
36.89275 526
36.91287 515
36.93298 585
36.9531 569
36.97321 527
36.99332 569
37.01344 513
37.03355 521
37.05366 494
37.07378 520
37.09389 575
37.11401 525
37.13412 557
37.15423 489
37.17435 538
37.19446 525
37.21457 552
37.23469 501
37.2548 534
37.27491 513
37.29503 522
37.31514 515
37.33526 565
37.35537 552
37.37548 528
37.3956 528
37.41571 546
37.43582 500
37.45594 533
37.47605 531
37.49617 533
37.51628 496
37.53639 548
37.55651 542
37.57662 535
37.59673 544
37.61685 540
37.63696 538
37.65708 547
37.67719 506
37.6973 532
37.71742 506
37.73753 533
37.75764 508
37.77776 528
37.79787 527
37.81798 529
37.8381 538
37.85821 499
37.87833 503
37.89844 498
37.91855 498
37.93867 491
37.95878 494
37.97889 548
37.99901 498
38.01912 536
38.03924 484
38.05935 517
38.07946 551
38.09958 535
38.11969 577
38.1398 588
38.15992 552
38.18003 571
38.20015 619
38.22026 608
38.24037 575
38.26049 580
38.2806 598
38.30071 618
38.32083 604
38.34094 574
38.36105 613
38.38117 654
38.40128 674
38.4214 599
38.44151 597
38.46162 602
38.48174 650
38.50185 589
38.52196 587
38.54208 604
38.56219 594
38.58231 595
38.60242 560
38.62253 599
38.64265 563
38.66276 579
38.68287 532
38.70299 548
38.7231 535
38.74321 521
38.76333 483
38.78344 542
38.80356 543
38.82367 510
38.84378 510
38.8639 521
38.88401 519
38.90412 496
38.92424 531
38.94435 508
38.96447 525
38.98458 527
39.00469 511
39.02481 547
39.04492 531
39.06503 521
39.08515 522
39.10526 526
39.12538 544
39.14549 554
39.1656 574
39.18572 571
39.20583 572
39.22594 594
39.24606 634
39.26617 678
39.28628 707
39.3064 711
39.32651 821
39.34663 911
39.36674 938
39.38685 1072
39.40697 1096
39.42708 1189
39.44719 1150
39.46731 1105
39.48742 944
39.50754 824
39.52765 823
39.54776 746
39.56788 632
39.58799 561
39.6081 493
39.62822 494
39.64833 442
39.66845 427
39.68856 453
39.70867 473
39.72879 421
39.7489 410
39.76901 444
39.78913 409
39.80924 397
39.82935 421
39.84947 421
39.86958 427
39.8897 466
39.90981 425
39.92992 435
39.95004 417
39.97015 428
39.99026 427
40.01038 453
40.03049 492
40.05061 472
40.07072 488
40.09083 492
40.11095 502
40.13106 528
40.15117 602
40.17129 607
40.1914 685
40.21152 696
40.23163 737
40.25174 770
40.27186 790
40.29197 703
40.31208 662
40.3322 591
40.35231 646
40.37242 576
40.39254 530
40.41265 493
40.43277 524
40.45288 438
40.47299 431
40.49311 426
40.51322 444
40.53333 427
40.55345 453
40.57356 427
40.59368 430
40.61379 420
40.6339 462
40.65402 405
40.67413 427
40.69424 432
40.71436 430
40.73447 450
40.75458 444
40.7747 418
40.79481 442
40.81493 464
40.83504 444
40.85515 443
40.87527 472
40.89538 492
40.91549 413
40.93561 446
40.95572 432
40.97584 429
40.99595 408
41.01606 437
41.03618 445
41.05629 396
41.0764 422
41.09652 447
41.11663 414
41.13675 397
41.15686 408
41.17697 381
41.19709 445
41.2172 382
41.23731 410
41.25743 418
41.27754 410
41.29765 447
41.31777 406
41.33788 422
41.358 438
41.37811 407
41.39822 396
41.41834 423
41.43845 399
41.45856 443
41.47868 440
41.49879 404
41.51891 439
41.53902 388
41.55913 426
41.57925 424
41.59936 410
41.61947 424
41.63959 428
41.6597 464
41.67982 474
41.69993 477
41.72004 498
41.74016 501
41.76027 466
41.78038 473
41.8005 451
41.82061 419
41.84072 489
41.86084 441
41.88095 454
41.90107 439
41.92118 450
41.94129 405
41.96141 421
41.98152 428
42.00163 432
42.02175 377
42.04186 416
42.06198 395
42.08209 411
42.1022 424
42.12232 377
42.14243 405
42.16254 449
42.18266 438
42.20277 486
42.22289 524
42.243 478
42.26311 512
42.28323 551
42.30334 620
42.32345 677
42.34357 751
42.36368 792
42.38379 885
42.40391 912
42.42402 900
42.44414 804
42.46425 799
42.48436 718
42.50448 645
42.52459 632
42.5447 591
42.56482 554
42.58493 500
42.60505 418
42.62516 378
42.64527 410
42.66539 394
42.6855 367
42.70561 393
42.72573 371
42.74584 371
42.76595 374
42.78607 431
42.80618 378
42.8263 387
42.84641 378
42.86652 366
42.88664 335
42.90675 363
42.92686 347
42.94698 355
42.96709 345
42.98721 364
43.00732 347
43.02743 358
43.04755 391
43.06766 379
43.08777 354
43.10789 372
43.128 349
43.14812 380
43.16823 340
43.18834 369
43.20846 362
43.22857 333
43.24868 329
43.2688 360
43.28891 361
43.30902 353
43.32914 336
43.34925 317
43.36937 359
43.38948 340
43.40959 365
43.42971 322
43.44982 358
43.46993 371
43.49005 359
43.51016 312
43.53028 344
43.55039 344
43.5705 339
43.59062 405
43.61073 332
43.63084 352
43.65096 346
43.67107 331
43.69119 354
43.7113 373
43.73141 364
43.75153 346
43.77164 325
43.79175 304
43.81187 310
43.83198 350
43.85209 332
43.87221 363
43.89232 329
43.91244 339
43.93255 334
43.95266 358
43.97278 349
43.99289 349
44.013 360
44.03312 345
44.05323 381
44.07335 374
44.09346 358
44.11357 393
44.13369 327
44.1538 364
44.17391 328
44.19403 372
44.21414 349
44.23426 340
44.25437 355
44.27448 352
44.2946 345
44.31471 350
44.33482 383
44.35494 353
44.37505 352
44.39516 345
44.41528 356
44.43539 318
44.45551 372
44.47562 370
44.49573 380
44.51585 387
44.53596 379
44.55607 343
44.57619 356
44.5963 351
44.61642 338
44.63653 340
44.65664 344
44.67676 346
44.69687 333
44.71698 348
44.7371 368
44.75721 339
44.77732 374
44.79744 407
44.81755 350
44.83767 392
44.85778 384
44.87789 394
44.89801 382
44.91812 357
44.93823 380
44.95835 359
44.97846 376
44.99858 373
45.01869 329
45.0388 372
45.05892 373
45.07903 399
45.09914 398
45.11926 400
45.13937 407
45.15949 404
45.1796 395
45.19971 434
45.21983 424
45.23994 453
45.26005 420
45.28017 433
45.30028 430
45.32039 440
45.34051 429
45.36062 407
45.38074 443
45.40085 428
45.42096 445
45.44108 432
45.46119 438
45.4813 444
45.50142 452
45.52153 465
45.54165 479
45.56176 509
45.58187 522
45.60199 502
45.6221 549
45.64221 609
45.66233 565
45.68244 640
45.70256 649
45.72267 733
45.74278 709
45.7629 706
45.78301 719
45.80312 655
45.82324 630
45.84335 590
45.86346 569
45.88358 557
45.90369 508
45.92381 506
45.94392 497
45.96403 436
45.98415 395
46.00426 402
46.02437 397
46.04449 408
46.0646 371
46.08472 379
46.10483 396
46.12494 430
46.14506 447
46.16517 399
46.18528 433
46.2054 386
46.22551 408
46.24563 358
46.26574 429
46.28585 344
46.30597 375
46.32608 351
46.34619 394
46.36631 360
46.38642 386
46.40653 392
46.42665 386
46.44676 356
46.46688 375
46.48699 348
46.5071 363
46.52722 333
46.54733 372
46.56744 401
46.58756 390
46.60767 409
46.62779 365
46.6479 390
46.66801 372
46.68813 372
46.70824 387
46.72835 410
46.74847 327
46.76858 389
46.78869 366
46.80881 378
46.82892 402
46.84904 394
46.86915 398
46.88926 363
46.90938 344
46.92949 347
46.9496 361
46.96972 376
46.98983 368
47.00995 351
47.03006 381
47.05017 402
47.07029 411
47.0904 386
47.11051 382
47.13063 384
47.15074 367
47.17086 382
47.19097 378
47.21108 377
47.2312 374
47.25131 372
47.27142 374
47.29154 392
47.31165 368
47.33176 405
47.35188 381
47.37199 384
47.39211 360
47.41222 347
47.43233 372
47.45245 362
47.47256 373
47.49267 359
47.51279 370
47.5329 389
47.55302 361
47.57313 365
47.59324 353
47.61336 390
47.63347 385
47.65358 375
47.6737 365
47.69381 369
47.71393 374
47.73404 351
47.75415 372
47.77427 391
47.79438 360
47.81449 380
47.83461 374
47.85472 402
47.87483 359
47.89495 344
47.91506 385
47.93518 370
47.95529 377
47.9754 374
47.99552 406
48.01563 389
48.03574 373
48.05586 389
48.07597 386
48.09609 349
48.1162 355
48.13631 367
48.15643 352
48.17654 378
48.19665 359
48.21677 350
48.23688 339
48.257 365
48.27711 361
48.29722 339
48.31734 338
48.33745 364
48.35756 385
48.37768 330
48.39779 377
48.4179 357
48.43802 371
48.45813 352
48.47825 330
48.49836 355
48.51847 323
48.53859 363
48.5587 361
48.57881 372
48.59893 354
48.61904 353
48.63916 351
48.65927 365
48.67938 349
48.6995 369
48.71961 354
48.73972 405
48.75984 381
48.77995 399
48.80006 338
48.82018 403
48.84029 399
48.86041 372
48.88052 387
48.90063 348
48.92075 374
48.94086 367
48.96097 374
48.98109 401
49.0012 373
49.02132 375
49.04143 348
49.06154 370
49.08166 373
49.10177 402
49.12188 369
49.142 375
49.16211 378
49.18223 401
49.20234 392
49.22245 405
49.24257 392
49.26268 367
49.28279 381
49.30291 396
49.32302 407
49.34313 406
49.36325 374
49.38336 358
49.40348 407
49.42359 379
49.4437 374
49.46382 363
49.48393 397
49.50404 387
49.52416 400
49.54427 402
49.56439 414
49.5845 410
49.60461 430
49.62473 369
49.64484 423
49.66495 410
49.68507 415
49.70518 412
49.7253 420
49.74541 462
49.76552 435
49.78564 406
49.80575 466
49.82586 453
49.84598 492
49.86609 524
49.8862 555
49.90632 602
49.92643 670
49.94655 761
49.96666 837
49.98677 862
50.00689 1101
50.027 1162
50.04711 1344
50.06723 1527
50.08734 1599
50.10746 1554
50.12757 1461
50.14768 1294
50.1678 1144
50.18791 1024
50.20802 925
50.22814 891
50.24825 933
50.26837 808
50.28848 666
50.30859 575
50.32871 447
50.34882 450
50.36893 440
50.38905 425
50.40916 447
50.42927 458
50.44939 491
50.4695 491
50.48962 487
50.50973 462
50.52984 476
50.54996 455
50.57007 442
50.59018 470
50.6103 443
50.63041 420
50.65053 437
50.67064 410
50.69075 449
50.71087 395
50.73098 409
50.75109 413
50.77121 446
50.79132 401
50.81143 399
50.83155 402
50.85166 377
50.87178 365
50.89189 360
50.912 382
50.93212 399
50.95223 355
50.97234 372
50.99246 378
51.01257 388
51.03269 361
51.0528 368
51.07291 351
51.09303 375
51.11314 341
51.13325 328
51.15337 376
51.17348 367
51.1936 346
51.21371 328
51.23382 355
51.25394 346
51.27405 319
51.29416 345
51.31428 339
51.33439 307
51.3545 340
51.37462 350
51.39473 346
51.41485 347
51.43496 372
51.45507 339
51.47519 353
51.4953 350
51.51541 338
51.53553 372
51.55564 351
51.57576 351
51.59587 369
51.61598 345
51.6361 339
51.65621 339
51.67632 359
51.69644 370
51.71655 363
51.73667 314
51.75678 352
51.77689 315
51.79701 377
51.81712 323
51.83723 314
51.85735 332
51.87746 353
51.89757 346
51.91769 324
51.9378 321
51.95792 369
51.97803 301
51.99814 352
52.01826 318
52.03837 334
52.05848 332
52.0786 305
52.09871 326
52.11883 347
52.13894 336
52.15905 360
52.17917 343
52.19928 325
52.21939 341
52.23951 308
52.25962 322
52.27974 328
52.29985 347
52.31996 336
52.34008 314
52.36019 309
52.3803 345
52.40042 324
52.42053 324
52.44064 340
52.46076 349
52.48087 334
52.50099 390
52.5211 324
52.54121 349
52.56133 343
52.58144 351
52.60155 348
52.62167 351
52.64178 341
52.6619 328
52.68201 357
52.70212 354
52.72224 364
52.74235 328
52.76246 324
52.78258 328
52.80269 334
52.8228 329
52.84292 364
52.86303 376
52.88315 332
52.90326 338
52.92337 338
52.94349 330
52.9636 341
52.98371 383
53.00383 327
53.02394 358
53.04406 341
53.06417 357
53.08428 323
53.1044 337
53.12451 346
53.14462 354
53.16474 350
53.18485 376
53.20497 375
53.22508 346
53.24519 385
53.26531 378
53.28542 395
53.30553 328
53.32565 370
53.34576 359
53.36587 396
53.38599 328
53.4061 394
53.42622 361
53.44633 356
53.46644 415
53.48656 377
53.50667 394
53.52678 378
53.5469 383
53.56701 377
53.58713 382
53.60724 369
53.62735 404
53.64747 383
53.66758 392
53.68769 425
53.70781 421
53.72792 402
53.74804 388
53.76815 401
53.78826 382
53.80838 404
53.82849 452
53.8486 489
53.86872 439
53.88883 434
53.90894 456
53.92906 431
53.94917 469
53.96929 461
53.9894 449
54.00951 476
54.02963 472
54.04974 493
54.06985 509
54.08997 471
54.11008 449
54.1302 492
54.15031 499
54.17042 490
54.19054 527
54.21065 485
54.23076 483
54.25088 481
54.27099 463
54.29111 516
54.31122 527
54.33133 484
54.35145 475
54.37156 493
54.39167 447
54.41179 482
54.4319 498
54.45201 511
54.47213 497
54.49224 484
54.51236 498
54.53247 516
54.55258 504
54.5727 504
54.59281 503
54.61292 518
54.63304 523
54.65315 556
54.67327 523
54.69338 602
54.71349 603
54.73361 649
54.75372 687
54.77383 759
54.79395 765
54.81406 851
54.83417 844
54.85429 770
54.8744 797
54.89452 773
54.91463 698
54.93474 638
54.95486 667
54.97497 659
54.99508 625
55.0152 607
55.03531 602
55.05543 585
55.07554 562
55.09565 536
55.11577 543
55.13588 573
55.15599 541
55.17611 526
55.19622 511
55.21634 577
55.23645 580
55.25656 571
55.27668 598
55.29679 604
55.3169 569
55.33702 573
55.35713 526
55.37724 555
55.39736 500
55.41747 496
55.43759 533
55.4577 475
55.47781 478
55.49793 427
55.51804 435
55.53815 448
55.55827 432
55.57838 455
55.5985 455
55.61861 449
55.63872 418
55.65884 398
55.67895 419
55.69906 413
55.71918 429
55.73929 410
55.75941 393
55.77952 444
55.79963 399
55.81975 402
55.83986 436
55.85997 409
55.88009 419
55.9002 371
55.92031 382
55.94043 411
55.96054 391
55.98066 396
56.00077 404
56.02088 402
56.041 367
56.06111 372
56.08122 412
56.10134 379
56.12145 379
56.14157 424
56.16168 408
56.18179 385
56.20191 399
56.22202 400
56.24213 402
56.26225 415
56.28236 382
56.30248 438
56.32259 393
56.3427 394
56.36282 383
56.38293 361
56.40304 379
56.42316 376
56.44327 427
56.46338 400
56.4835 387
56.50361 426
56.52373 371
56.54384 398
56.56395 390
56.58407 397
56.60418 349
56.62429 379
56.64441 388
56.66452 388
56.68464 360
56.70475 406
56.72486 379
56.74498 381
56.76509 382
56.7852 359
56.80532 386
56.82543 357
56.84554 382
56.86566 380
56.88577 408
56.90589 383
56.926 386
56.94611 367
56.96623 389
56.98634 368
57.00645 372
57.02657 366
57.04668 385
57.0668 373
57.08691 389
57.10702 367
57.12714 394
57.14725 345
57.16736 408
57.18748 403
57.20759 377
57.22771 392
57.24782 361
57.26793 409
57.28805 348
57.30816 372
57.32827 357
57.34839 375
57.3685 359
57.38861 369
57.40873 365
57.42884 380
57.44896 393
57.46907 362
57.48918 377
57.5093 384
57.52941 372
57.54952 359
57.56964 373
57.58975 375
57.60987 381
57.62998 374
57.65009 355
57.67021 351
57.69032 365
57.71043 365
57.73055 372
57.75066 362
57.77078 332
57.79089 357
57.811 368
57.83112 371
57.85123 380
57.87134 365
57.89146 343
57.91157 356
57.93168 345
57.9518 379
57.97191 376
57.99203 365
58.01214 339
58.03225 359
58.05237 342
58.07248 382
58.09259 348
58.11271 387
58.13282 351
58.15294 350
58.17305 356
58.19316 376
58.21328 366
58.23339 374
58.2535 373
58.27362 367
58.29373 353
58.31385 337
58.33396 361
58.35407 326
58.37419 352
58.3943 342
58.41441 355
58.43453 356
58.45464 370
58.47475 351
58.49487 395
58.51498 346
58.5351 351
58.55521 336
58.57532 373
58.59544 353
58.61555 358
58.63566 385
58.65578 314
58.67589 340
58.69601 323
58.71612 359
58.73623 378
58.75635 378
58.77646 352
58.79657 344
58.81669 371
58.8368 380
58.85691 325
58.87703 371
58.89714 355
58.91726 332
58.93737 340
58.95748 376
58.9776 323
58.99771 347
59.01782 357
59.03794 342
59.05805 323
59.07817 344
59.09828 397
59.11839 391
59.13851 382
59.15862 369
59.17873 358
59.19885 380
59.21896 346
59.23908 366
59.25919 357
59.2793 370
59.29942 380
59.31953 388
59.33964 381
59.35976 365
59.37987 392
59.39998 402
59.4201 372
59.44021 375
59.46033 388
59.48044 388
59.50055 405
59.52067 436
59.54078 400
59.56089 414
59.58101 423
59.60112 429
59.62124 448
59.64135 448
59.66146 493
59.68158 515
59.70169 463
59.7218 546
59.74192 590
59.76203 659
59.78215 687
59.80226 804
59.82237 786
59.84249 961
59.8626 1008
59.88271 1130
59.90283 1101
59.92294 1157
59.94305 1108
59.96317 924
59.98328 847
60.0034 755
60.02351 789
60.04362 765
60.06374 823
60.08385 786
60.10396 643
60.12408 672
60.14419 543
60.16431 509
60.18442 471
60.20453 437
60.22465 445
60.24476 416
60.26487 439
60.28499 409
60.3051 415
60.32522 387
60.34533 358
60.36544 381
60.38556 364
60.40567 356
60.42578 353
60.4459 408
60.46601 365
60.48612 397
60.50624 372
60.52635 343
60.54647 374
60.56658 356
60.58669 376
60.60681 352
60.62692 335
60.64703 355
60.66715 378
60.68726 383
60.70738 369
60.72749 374
60.7476 330
60.76772 365
60.78783 390
60.80794 338
60.82806 334
60.84817 394
60.86828 370
60.8884 340
60.90851 358
60.92863 332
60.94874 358
60.96885 382
60.98897 346
61.00908 386
61.02919 404
61.04931 350
61.06942 365
61.08954 393
61.10965 370
61.12976 339
61.14988 362
61.16999 370
61.1901 352
61.21022 333
61.23033 338
61.25045 347
61.27056 348
61.29067 368
61.31079 352
61.3309 360
61.35101 367
61.37113 348
61.39124 375
61.41135 376
61.43147 369
61.45158 351
61.4717 379
61.49181 395
61.51192 372
61.53204 345
61.55215 368
61.57226 382
61.59238 371
61.61249 366
61.63261 378
61.65272 377
61.67283 358
61.69295 401
61.71306 408
61.73317 441
61.75329 394
61.7734 416
61.79352 413
61.81363 404
61.83374 444
61.85386 415
61.87397 420
61.89408 448
61.9142 464
61.93431 461
61.95442 467
61.97454 448
61.99465 461
62.01477 455
62.03488 467
62.05499 527
62.07511 520
62.09522 494
62.11533 527
62.13545 522
62.15556 513
62.17568 517
62.19579 528
62.2159 552
62.23602 592
62.25613 576
62.27624 550
62.29636 548
62.31647 560
62.33659 534
62.3567 524
62.37681 480
62.39693 525
62.41704 523
62.43715 498
62.45727 469
62.47738 490
62.49749 466
62.51761 463
62.53772 478
62.55784 479
62.57795 464
62.59806 457
62.61818 445
62.63829 428
62.6584 428
62.67852 437
62.69863 404
62.71875 412
62.73886 382
62.75897 419
62.77909 395
62.7992 387
62.81931 378
62.83943 365
62.85954 417
62.87965 371
62.89977 405
62.91988 378
62.94 393
62.96011 410
62.98022 376
63.00034 399
63.02045 368
63.04056 373
63.06068 394
63.08079 361
63.10091 382
63.12102 396
63.14113 402
63.16125 372
63.18136 408
63.20147 378
63.22159 370
63.2417 369
63.26182 368
63.28193 379
63.30204 381
63.32216 387
63.34227 387
63.36238 408
63.3825 376
63.40261 411
63.42272 380
63.44284 367
63.46295 391
63.48307 367
63.50318 403
63.52329 388
63.54341 352
63.56352 381
63.58363 403
63.60375 371
63.62386 375
63.64398 426
63.66409 373
63.6842 405
63.70432 444
63.72443 437
63.74454 391
63.76466 432
63.78477 423
63.80489 424
63.825 436
63.84511 451
63.86523 454
63.88534 500
63.90545 506
63.92557 531
63.94568 509
63.96579 561
63.98591 560
64.00602 552
64.02614 513
64.04625 514
64.06636 485
64.08648 453
64.10659 508
64.1267 464
64.14682 434
64.16693 459
64.18705 459
64.20716 442
64.22727 447
64.24739 379
64.2675 404
64.28761 361
64.30773 390
64.32784 359
64.34796 367
64.36807 343
64.38818 372
64.4083 368
64.42841 353
64.44852 373
64.46864 362
64.48875 354
64.50886 339
64.52898 355
64.54909 366
64.56921 357
64.58932 379
64.60943 340
64.62955 366
64.64966 353
64.66977 345
64.68989 366
64.71 344
64.73012 368
64.75023 362
64.77034 370
64.79046 342
64.81057 349
64.83068 360
64.8508 363
64.87091 335
64.89102 358
64.91114 383
64.93125 339
64.95137 373
64.97148 367
64.99159 339
65.01171 325
65.03182 336
65.05193 371
65.07205 344
65.09216 364
65.11228 351
65.13239 316
65.1525 369
65.17262 350
65.19273 388
65.21284 334
65.23296 369
65.25307 352
65.27319 365
65.2933 331
65.31341 355
65.33353 360
65.35364 356
65.37375 354
65.39387 338
65.41398 332
65.43409 350
65.45421 338
65.47432 337
65.49444 353
65.51455 365
65.53466 363
65.55478 376
65.57489 326
65.595 357
65.61512 366
65.63523 393
65.65535 367
65.67546 356
65.69557 387
65.71569 382
65.7358 375
65.75591 372
65.77603 369
65.79614 380
65.81626 358
65.83637 338
65.85648 350
65.8766 393
65.89671 314
65.91682 372
65.93694 347
65.95705 374
65.97716 339
65.99728 333
66.01739 358
66.03751 365
66.05762 335
66.07773 327
66.09785 349
66.11796 341
66.13807 367
66.15819 364
66.1783 346
66.19842 355
66.21853 356
66.23864 323
66.25876 354
66.27887 339
66.29898 362
66.3191 338
66.33921 366
66.35933 339
66.37944 329
66.39955 339
66.41967 358
66.43978 349
66.45989 319
66.48001 336
66.50012 374
66.52023 353
66.54035 322
66.56046 317
66.58058 324
66.60069 297
66.6208 358
66.64092 324
66.66103 350
66.68114 344
66.70126 343
66.72137 343
66.74149 337
66.7616 336
66.78171 357
66.80183 388
66.82194 346
66.84205 360
66.86217 340
66.88228 367
66.90239 335
66.92251 337
66.94262 372
66.96274 355
66.98285 372
67.00296 341
67.02308 373
67.04319 355
67.0633 366
67.08342 349
67.10353 357
67.12365 356
67.14376 372
67.16387 348
67.18399 372
67.2041 393
67.22421 360
67.24433 367
67.26444 405
67.28456 366
67.30467 354
67.32478 355
67.3449 393
67.36501 404
67.38512 429
67.40524 416
67.42535 366
67.44546 407
67.46558 453
67.48569 480
67.50581 499
67.52592 494
67.54603 513
67.56615 592
67.58626 608
67.60637 645
67.62649 700
67.6466 771
67.66672 788
67.68683 800
67.70694 827
67.72706 726
67.74717 688
67.76728 647
67.7874 627
67.80751 634
67.82763 611
67.84774 656
67.86785 670
67.88797 725
67.90808 714
67.92819 709
67.94831 672
67.96842 710
67.98853 702
68.00865 761
68.02876 838
68.04888 949
68.06899 974
68.0891 966
68.10922 1004
68.12933 943
68.14944 944
68.16956 867
68.18967 852
68.20979 888
68.2299 919
68.25001 888
68.27013 966
68.29024 877
68.31035 795
68.33047 762
68.35058 603
68.3707 586
68.39081 564
68.41092 574
68.43104 561
68.45115 524
68.47126 501
68.49138 478
68.51149 462
68.5316 405
68.55172 444
68.57183 411
68.59195 373
68.61206 376
68.63217 343
68.65229 373
68.6724 376
68.69251 376
68.71263 377
68.73274 355
68.75286 357
68.77297 329
68.79308 373
68.8132 337
68.83331 385
68.85342 325
68.87354 367
68.89365 353
68.91376 315
68.93388 347
68.95399 341
68.97411 338
68.99422 350
69.01433 344
69.03445 339
69.05456 345
69.07467 332
69.09479 336
69.1149 309
69.13502 317
69.15513 356
69.17524 353
69.19536 325
69.21547 328
69.23558 327
69.2557 358
69.27581 314
69.29593 338
69.31604 352
69.33615 322
69.35627 309
69.37638 334
69.39649 369
69.41661 345
69.43672 356
69.45683 336
69.47695 306
69.49706 306
69.51718 356
69.53729 363
69.5574 322
69.57752 302
69.59763 331
69.61774 325
69.63786 360
69.65797 334
69.67809 357
69.6982 349
69.71831 325
69.73843 331
69.75854 312
69.77865 332
69.79877 349
69.81888 349
69.839 335
69.85911 333
69.87922 345
69.89934 372
69.91945 340
69.93956 350
69.95968 331
69.97979 349
69.9999 329
70.02002 342
70.04013 314
70.06025 338
70.08036 321
70.10047 329
70.12059 318
70.1407 323
70.16081 346
70.18093 323
70.20104 305
70.22116 320
70.24127 354
70.26138 336
70.2815 335
70.30161 323
70.32172 320
70.34184 322
70.36195 329
70.38207 323
70.40218 359
70.42229 310
70.44241 317
70.46252 307
70.48263 328
70.50275 315
70.52286 334
70.54297 334
70.56309 336
70.5832 341
70.60332 329
70.62343 318
70.64354 341
70.66366 323
70.68377 361
70.70388 300
70.724 334
70.74411 363
70.76423 328
70.78434 351
70.80445 346
70.82457 345
70.84468 360
70.86479 340
70.88491 352
70.90502 329
70.92513 358
70.94525 304
70.96536 336
70.98548 334
71.00559 314
71.0257 341
71.04582 354
71.06593 320
71.08604 312
71.10616 339
71.12627 348
71.14639 332
71.1665 349
71.18661 323
71.20673 338
71.22684 345
71.24695 331
71.26707 313
71.28718 324
71.3073 314
71.32741 318
71.34752 336
71.36764 340
71.38775 342
71.40786 338
71.42798 340
71.44809 356
71.4682 333
71.48832 349
71.50843 349
71.52855 343
71.54866 357
71.56877 324
71.58889 348
71.609 369
71.62911 337
71.64923 340
71.66934 363
71.68946 342
71.70957 352
71.72968 347
71.7498 344
71.76991 355
71.79002 343
71.81014 334
71.83025 344
71.85037 339
71.87048 331
71.89059 332
71.91071 331
71.93082 352
71.95093 348
71.97105 335
71.99116 342
72.01127 330
72.03139 328
72.0515 316
72.07162 363
72.09173 312
72.11184 370
72.13196 374
72.15207 325
72.17218 350
72.1923 376
72.21241 349
72.23253 347
72.25264 359
72.27275 340
72.29287 312
72.31298 337
72.33309 298
72.35321 351
72.37332 338
72.39344 349
72.41355 345
72.43366 339
72.45378 322
72.47389 351
72.494 360
72.51412 327
72.53423 336
72.55434 368
72.57446 325
72.59457 340
72.61469 334
72.6348 316
72.65491 333
72.67503 327
72.69514 327
72.71525 319
72.73537 339
72.75548 314
72.7756 363
72.79571 306
72.81582 354
72.83594 338
72.85605 333
72.87616 345
72.89628 373
72.91639 402
72.9365 327
72.95662 363
72.97673 336
72.99685 345
73.01696 382
73.03707 396
73.05719 409
73.0773 341
73.09741 372
73.11753 331
73.13764 411
73.15776 380
73.17787 347
73.19798 394
73.2181 376
73.23821 416
73.25832 379
73.27844 440
73.29855 446
73.31867 427
73.33878 459
73.35889 471
73.37901 509
73.39912 512
73.41923 561
73.43935 496
73.45946 459
73.47957 438
73.49969 419
73.5198 407
73.53992 367
73.56003 413
73.58014 454
73.60026 415
73.62037 429
73.64048 434
73.6606 406
73.68071 425
73.70083 412
73.72094 380
73.74105 366
73.76117 346
73.78128 381
73.80139 330
73.82151 380
73.84162 394
73.86174 358
73.88185 356
73.90196 338
73.92208 359
73.94219 349
73.9623 352
73.98242 369
74.00253 334
74.02264 329
74.04276 345
74.06287 325
74.08299 320
74.1031 331
74.12321 324
74.14333 303
74.16344 316
74.18355 348
74.20367 322
74.22378 344
74.2439 314
74.26401 332
74.28412 344
74.30424 352
74.32435 296
74.34446 318
74.36458 338
74.38469 312
74.40481 345
74.42492 319
74.44503 327
74.46515 315
74.48526 325
74.50537 319
74.52549 329
74.5456 332
74.56571 344
74.58583 332
74.60594 362
74.62606 318
74.64617 317
74.66628 352
74.6864 332
74.70651 329
74.72662 319
74.74674 344
74.76685 334
74.78697 320
74.80708 362
74.82719 335
74.84731 309
74.86742 334
74.88753 324
74.90765 344
74.92776 358
74.94787 346
74.96799 331
74.9881 359
75.00822 357
