3.00117 20516.2815585433
3.02128 19843.297779616
3.0414 19546
3.06151 18388.6773163421
3.08162 18285.6711607815
3.10174 17536.8371858003
3.12185 17264.9741427072
3.14197 16592.01847439
3.16208 16161.1873710453
3.18219 16032.1206773367
3.20231 15458.528699071
3.22242 14621.8032753715
3.24253 14724.3111205757
3.26265 13789.8733997027
3.28276 13928.2244411048
3.30288 13210.8304393867
3.32299 12679.1468872377
3.3431 12385
3.36322 11761.3879516341
3.38333 11347.7173898845
3.40344 11138.0130499014
3.42356 10553.4101975132
3.44367 10602.4240058737
3.46379 9949.23188067514
3.4839 9815
3.50401 9322.7206798078
3.52413 8994.99900883152
3.54424 9037.42339949911
3.56435 8491.86402049433
3.58447 8347.58116565909
3.60458 7702.45794307209
3.62469 7578.03881502399
3.64481 7332.83341416454
3.66492 7016.73586641379
3.68504 6752.31673142345
3.70515 6377.30644856248
3.72526 6256.05944891954
3.74538 6126.35329376359
3.76549 5645.18990169688
3.7856 5444
3.80572 5196.69673240496
3.82583 5001.08211440129
3.84595 5113.59331129913
3.86606 4692.64699803742
3.88617 4615.04386749534
3.90629 4440.15583739941
3.9264 4168
3.94651 4171.87152156149
3.96663 3757.79259455758
3.98674 3872.84023403991
4.00686 3486.7000303287
4.02697 3424.78131477214
4.04708 3486.23412435579
4.0672 3064
4.08731 3015.98593272732
4.10742 2890.88091324488
4.12754 2853.03660289838
4.14765 2826.36766722191
4.16776 2615.27891182356
4.18788 2580.03047967868
4.20799 2491.05440428515
4.22811 2425.00156734307
4.24822 2395.81258378154
4.26833 2144.8652896256
4.28845 2238.19115555312
4.30856 2161.33515699951
4.32867 2051.94154500225
4.34879 2132.03802263455
4.3689 1896
4.38902 1849.03190022005
4.40913 1870.99676673299
4.42924 1881.14448883403
4.44936 1925.2507757263
4.46947 1707.13517744792
4.48958 1779.94821792549
4.5097 1725
4.52981 1722.0136060101
4.54992 1734.98394131806
4.57004 1690.88863980307
4.59015 1643.08802731205
4.61027 1638.93723274399
4.63038 1680.02199947984
4.65049 1570.07970259925
4.67061 1455.99559689702
4.69072 1529.07249153139
4.71083 1541.9629342394
4.73095 1527.05089022014
4.75106 1513.28471175083
4.77118 1353.9667273821
4.79129 1527.97345730529
4.8114 1419
4.83152 1484.02045929269
4.85163 1391.83212943637
4.87174 1342.00725096923
4.89186 1364.9664499066
4.91197 1357.03913689705
4.93209 1345.98451457875
4.9522 1381
4.97231 1299.96840234394
4.99243 1302.06515020353
5.01254 1341.0238024713
5.03265 1324.06316236844
5.05277 1315.97812279761
5.07288 1321.0421413353
5.09299 1285.96768575553
5.11311 1389.99458377935
5.13322 1257.89466378892
5.15334 1262.10121659778
5.17345 1301.07824012213
5.19356 1319.01177995379
5.21368 1309.98110185712
5.23379 1358.97522606039
5.2539 1362
5.27402 1303.03094916349
5.29413 1365.92549420073
5.31425 1275.2094088882
5.33436 1499.77290894977
5.35447 1431.11073949453
5.37459 1409.04505002042
5.3947 1315
5.41481 1556.08827751096
5.43493 1575.97657351001
5.45504 1613.11282046201
5.47516 1644.01461767099
5.49527 1644.89826227964
5.51538 1768.89142240924
5.5355 1843
5.55561 1929.00640318119
5.57572 1902.0357148122
5.59584 2012.18493217853
5.61595 2056.85972640066
5.63606 2170.68713241678
5.65618 2320.89411335164
5.67629 2420.91676118831
5.69641 2603.03483792931
5.71652 2587.05001566734
5.73663 2734.18275408427
5.75675 2805.28268756126
5.77686 3000.55900827894
5.79697 3178.82151038044
5.81709 3274.93905139145
5.8372 3424
5.85732 3491.02393823728
5.87743 3503.02290196003
5.89754 3499.88351313833
5.91766 3425.02907320921
5.93777 3445.07052339231
5.95788 3297.17879160739
5.978 3136
5.99811 2976.93197965477
6.01823 2844.75338020356
6.03834 2627.50295004385
6.05845 2378.58010613993
6.07857 2191.1865701649
6.09868 2116.05305853321
6.11879 2009.10334313346
6.13891 1775.93264325738
6.15902 1733.92499556401
6.17913 1584.79630623963
6.19925 1512.89726256703
6.21936 1448.21512718605
6.23948 1333.06492897839
6.25959 1313.01798160633
6.2797 1246
6.29982 1231.9976833359
6.31993 1226.00061002977
6.34004 1204.83996947959
6.36016 1086.19383799261
6.38027 1026.09785346966
6.40039 976.983727443971
6.4205 1059
6.44061 997.948349089074
6.46073 923.965503731819
6.48084 926.967307103358
6.50095 892.017227301343
6.52107 902.045822670973
6.54118 837.034787259254
6.56129 856.982423246634
6.58141 857.97839368251
6.60152 797.96154032496
6.62164 789.988443336648
6.64175 769.944665032985
6.66186 758.996185489624
6.68198 764.003242195018
6.70209 746.013846429966
6.7222 720
6.74232 705.977473722517
6.76243 694.044730740681
6.78255 735.982346416008
6.80266 690.026945789085
6.82277 707.038009838532
6.84289 640.016996215908
6.863 656
6.88311 634.991455817164
6.90323 642.026403881982
6.92334 646.964873356315
6.94346 638.912943316483
6.96357 689.0467241088
6.98368 594.052586658014
7.0038 621
7.02391 630.003605497416
7.04402 639.989704490817
7.06414 613.972258710279
7.08425 603.110648552132
7.10436 552.98167945374
7.12448 611.966226932206
7.14459 589.018327446502
7.16471 571.996742541704
7.18482 572.011973285789
7.20493 583.991690638666
7.22505 565.980411204453
7.24516 558.080749329745
7.26527 510.991927927212
7.28539 558.989325535047
7.3055 537
7.32562 543.986426685876
7.34573 517.011418859212
7.36584 555.032484332215
7.38596 539.013736275559
7.40607 543.036820622943
7.42618 496.023064946929
7.4463 505
7.46641 497.006606910114
7.48653 542.081723424686
7.50664 561.925365579396
7.52675 503.053128771276
7.54687 531.950390970838
7.56698 523.051284880873
7.58709 476.995965462598
7.60721 518.001934728957
7.62732 487.006149205491
7.64743 528.002392509687
7.66755 479.915504405623
7.68766 501.888298262652
7.70778 536.022521449167
7.72789 478.018554050293
7.748 479
7.76812 463.992337042176
7.78823 489.089902893211
7.80834 525.905926417662
7.82846 439.040935690671
7.84857 498.926568222027
7.86869 501.993528168535
7.8888 534
7.90891 493.97403825035
7.92903 467.006026914735
7.94914 479.988393046124
7.96925 453.055882908746
7.98937 452.977848410136
8.00948 470.983098709506
8.0296 477
8.04971 458.995090188911
8.06982 474.041118583419
8.08994 504.965218409214
8.11005 447.875774020174
8.13016 441.94354640707
8.15028 467.006293560961
8.17039 438.007415864929
8.1905 462
8.21062 505.012140813527
8.23073 477.922475394101
8.25085 441.00898494572
8.27096 470.967233465165
8.29107 451.059092762262
8.31119 426.995024899993
8.3313 460
8.35141 466.000502592172
8.37153 457.945397372902
8.39164 424.038307784957
8.41176 476.967669044797
8.43187 442.045654677811
8.45198 448.978139682046
8.4721 462
8.49221 446.980806123263
8.51232 425.040514869504
8.53244 487.997669595946
8.55255 432.037013269085
8.57266 467.998435681538
8.59278 421.020635108314
8.61289 442.996494651392
8.63301 431.01126562906
8.65312 479.010438334336
8.67323 450.992784306411
8.69335 487.082431356296
8.71346 473.122421175165
8.73357 411.022353208201
8.75369 442.984588099938
8.7738 446
8.79392 452.011904693356
8.81403 464.015110721863
8.83414 463.967110478128
8.85426 445.995830243177
8.87437 467.969732421737
8.89448 456.052841588496
8.9146 395
8.93471 434.046599815169
8.95483 508.990795173603
8.97494 445.933134125121
8.99505 474.904539378223
9.01517 474.053493232195
9.03528 430.029611305474
9.05539 434.98121280647
9.07551 465.993319264152
9.09562 422.97994739908
9.11573 440.024239247012
9.13585 425.910453177568
9.15596 411.913135648978
9.17608 485.958813342281
9.19619 459.033839662933
9.2163 413
9.23642 465.038562650734
9.25653 455.943130113152
9.27664 422.975322331903
9.29676 430.97472727351
9.31687 439.981236878851
9.33699 457.991057215374
9.3571 465
9.37721 448.996490646311
9.39733 468.069827134142
9.41744 520.065709427078
9.43755 522.042182485677
9.45767 502.028772433312
9.47778 485.016855892706
9.4979 481
9.51801 514.003856891809
9.53812 495.989923908669
9.55824 497.96974463674
9.57835 477.034325599089
9.59846 518.954635332966
9.61858 515.988335710245
9.63869 547.99141775428
9.6588 545
9.67892 556.984510582625
9.69903 534.034109422017
9.71915 578.976014711302
9.73926 525.022371532206
9.75937 548.05681392135
9.77949 470.000455946349
9.7996 546
9.81971 509.989331219849
9.83983 530.003409212063
9.85994 493.928310484783
9.88006 486.974340044508
9.90017 501.98713744299
9.92028 505.99036211844
9.9404 518
9.96051 500.986523006482
9.98062 473.975879521382
10.00074 455.978286755176
10.02085 452.987715006505
10.04097 452.031003243345
10.06108 433.978849729593
10.08119 473.999231735782
10.10131 428.978959127699
10.12142 424.01769489079
10.14153 445.028667297217
10.16165 451.97337968329
10.18176 441.971091143716
10.20187 478.949871707111
10.22199 488.005365293622
10.2421 460
10.26222 418.99338824185
10.28233 451.070432455369
10.30244 471.95378065942
10.32256 432.02196814772
10.34267 456.966131390267
10.36278 454.013570521975
10.3829 440
10.40301 425.001507871129
10.42313 441.014922884562
10.44324 447.045608136632
10.46335 468.051507075578
10.48347 415.053771861277
10.50358 426.958596970687
10.52369 463.991810314916
10.54381 442.970441122186
10.56392 395.014173388338
10.58403 453.048843766877
10.60415 437.958995249416
10.62426 443.987569742973
10.64438 445.984522312857
10.66449 463.005730614011
10.6846 428
10.70472 440.035963533304
10.72483 465.98923841206
10.74494 427.913263229703
10.76506 421.901552385575
10.78517 480.992847948843
10.80529 428.024930181477
10.8254 431
10.84551 468.995147971828
10.86563 415.922697069349
10.88574 412.092053945834
10.90585 476.877745359784
10.92597 472.094573060906
10.94608 402.020196570695
10.9662 444
10.98631 477.002126393968
11.00642 468.99765310484
11.02654 460.91465084978
11.04665 419.932783875966
11.06676 486.974292609338
11.08688 436.029801349811
11.10699 475.963304339216
11.1271 513
11.14722 438.952306525871
11.16733 453.069074812819
11.18745 489.031911623739
11.20756 471.086489631027
11.22767 424.050433499457
11.24779 413.99627932491
11.2679 430
11.28801 449.005110481689
11.30813 444.973213842291
11.32824 437.050825573497
11.34836 477.971218742013
11.36847 457.035415473933
11.38858 444.021457585817
11.4087 429
11.42881 473.002153230218
11.44892 446.007502795063
11.46904 492.045159323654
11.48915 472.050424559792
11.50927 466.029294895694
11.52938 439.997153532676
11.54949 473.984075145907
11.56961 481.997566457548
11.58972 470.978662635691
11.60983 449.992020927736
11.62995 467.077141316355
11.65006 478.068947535753
11.67017 425.027603860667
11.69029 467.961074911214
11.7104 516
11.73052 451.960490940002
11.75063 466.045924267087
11.77074 473.965260947728
11.79086 450.017459894913
11.81097 459.983928174968
11.83108 469.974429023869
11.8512 497
11.87131 467.989529225166
11.89143 479.049182815401
11.91154 510.030386407868
11.93165 509.010222240454
11.95177 498.052036218185
11.97188 466.982395544449
11.99199 505.007539371799
12.01211 455.003560685972
12.03222 508.998735581611
12.05234 447.953517573528
12.07245 472.968428019809
12.09256 419.025198661608
12.11268 461.96960215765
12.13279 444.017149185515
12.1529 421
12.17302 420.024859986258
12.19313 443.977189466039
12.21324 403.975886789095
12.23336 448.844404637868
12.25347 489.068608722681
12.27359 403.015725592401
12.2937 444
12.31381 443.001161110237
12.33393 452.97066971465
12.35404 407.942306697165
12.37415 415.938864747784
12.39427 446.928867522777
12.41438 487.002274910458
12.4345 445
12.45461 421.992213564721
12.47472 407.995875895156
12.49484 425.082293729168
12.51495 458.028501006066
12.53506 411.0749623869
12.55518 413.970261883822
12.57529 438.999014238391
12.5954 416
12.61552 410.037885947844
12.63563 460.017250197228
12.65575 431.953661474751
12.67586 441.982043217028
12.69597 428.043830949915
12.71609 395.016144981851
12.7362 392
12.75631 456.005318973069
12.77643 408.935702966617
12.79654 417.089554172174
12.81666 449.033964157521
12.83677 411.988171761257
12.85688 467.958253254525
12.877 458
12.89711 428.995805052775
12.91722 435.002366608568
12.93734 431.009743301646
12.95745 439.024712873872
12.97757 417.010594177069
12.99768 428.991840547478
13.01779 420.008288638639
13.03791 418.012678248728
13.05802 449.001733979343
13.07813 419.960245820113
13.09825 412.992331014658
13.11836 406.005887228311
13.13847 417.955337032927
13.15859 436.013357509709
13.1787 387
13.19882 417.031313697124
13.21893 420.98710434652
13.23904 412.982201462575
13.25916 413.953577538046
13.27927 453.942476705575
13.29938 462.033223754672
13.3195 405
13.33961 397.02261066933
13.35973 454.025287919823
13.37984 433.994844457282
13.39995 467.91274574146
13.42007 463.075866813988
13.44018 415.98753631821
13.46029 463.998304910848
13.48041 410.979611293998
13.50052 419.025598382613
13.52064 433.008051182113
13.54075 443.074868808137
13.56086 464.06249670601
13.58098 414.988616880888
13.60109 483.977445232212
13.6212 487
13.64132 524.984511888321
13.66143 471.990571360693
13.68154 528.100190723277
13.70166 525.071683553402
13.72177 489.034870811125
13.74189 484.995350615851
13.762 481
13.78211 440.003970784445
13.80223 499.089960100481
13.82234 524.005310503193
13.84245 496.197639815152
13.86257 417.007947853223
13.88268 476.957062166211
13.9028 462
13.92291 451.003680063953
13.94302 447.960688671565
13.96314 404.019134622476
13.98325 450.975387330378
14.00336 416.026455075768
14.02348 452.951363063352
14.04359 467.014563048568
14.06371 422.989236577266
14.08382 426.995932319759
14.10393 400.958024386184
14.12405 401.096439371665
14.14416 449.960742869004
14.16427 441.992773372926
14.18439 464.997139883222
14.2045 442
14.22461 432.003250474867
14.24473 432.962146943289
14.26484 388.931771475187
14.28496 377.010467609546
14.30507 380.952930248553
14.32518 417.998077422776
14.3453 403
14.36541 461.009562649553
14.38552 429.977113628306
14.40564 435.995824555991
14.42575 419.996413025278
14.44587 438.992083335397
14.46598 425.007505763363
14.48609 432.996608544032
14.50621 423.988693417693
14.52632 403.99711951731
14.54643 418.024488065461
14.56655 429.030461867201
14.58666 446.957489183707
14.60677 463.989433825958
14.62689 448.023169088236
14.647 408
14.66712 445.995304429485
14.68723 393.94813978048
14.70734 402.023903119023
14.72746 402.972870467884
14.74757 439.929446966474
14.76768 465.016626454752
14.7878 416
14.80791 401.016685296675
14.82803 445.007495551719
14.84814 414.976157532366
14.86825 429.012607138696
14.88837 404.000893846554
14.90848 426.998727275904
14.92859 405.000689224735
14.94871 428.003568566159
14.96882 416.005576790744
14.98894 441.018899068652
15.00905 438.055269832314
15.02916 474.993129094588
15.04928 443.02113148034
15.06939 450.995301290004
15.0895 438
15.10962 426.041626961963
15.12973 478.981107667215
15.14984 407.908958983607
15.16996 420.95691347049
15.19007 428.966825193726
15.21019 457.999849097868
15.2303 444
15.25041 479.989635431975
15.27053 410.944205906151
15.29064 428.029539850292
15.31075 415.024609697091
15.33087 422.985584330622
15.35098 428.986822547956
15.3711 433
15.39121 387.997270508082
15.41132 444.087374276969
15.43144 487.908508879139
15.45155 398.102803745332
15.47166 435.889073118866
15.49178 435.070204498062
15.51189 361.997602928802
15.53201 427.013424359528
15.55212 391.977100678405
15.57223 417.052694497411
15.59235 425.959338697861
15.61246 398.053124005217
15.63257 406.901012989282
15.65269 477.999511789622
15.6728 420
15.69291 446.013617193201
15.71303 447.003776481497
15.73314 441.901482977526
15.75326 386.96852246225
15.77337 450.979586527717
15.79348 404.018949089379
15.8136 438
15.83371 429.000461132199
15.85382 438.976182027601
15.87394 389.955616459205
15.89405 417.875860344946
15.91417 445.018596953881
15.93428 417.999783332063
15.95439 448.988347734513
15.97451 451.002554463663
15.99462 448.956261370007
16.01473 403.039735619037
16.03485 465.97216108475
16.05496 394.017616930485
16.07508 451.995192572953
16.09519 394.005091362504
16.1153 450
16.13542 411.944623152765
16.15553 386.001223893449
16.17564 413.110666721045
16.19576 460.997366660384
16.21587 422.051306449317
16.23598 417.992975366876
16.2561 433
16.27621 463.987321546715
16.29633 409.990770161618
16.31644 452.029258284958
16.33655 417.078026383494
16.35667 422.964474784616
16.37678 429.027783235428
16.39689 398.992019026323
16.41701 438.996795794712
16.43712 389.982632847993
16.45724 436.134482746199
16.47735 461.907655272296
16.49746 406.017784283592
16.51758 439.992782734386
16.53769 418.990532559574
16.5578 476
16.57792 442.955138890673
16.59803 436.053785957334
16.61814 474.994199463921
16.63826 437.042060051869
16.65837 447.989992080634
16.67849 434.007258129705
16.6986 435
16.71871 447.001434083817
16.73883 431.950351326482
16.75894 404.002311675323
16.77905 435.899733761192
16.79917 450.036739111358
16.81928 424.974733929913
16.8394 479
16.85951 443.99635870385
16.87962 459.962812836734
16.89974 388.98340222972
16.91985 448.906800806318
16.93996 426.060956189163
16.96008 426.98112102289
16.98019 441.998686492842
17.00031 434.997268267553
17.02042 428.980429661686
17.04053 399.968807974261
17.06065 404.070764818121
17.08076 427.023779855114
17.10087 398.993823084087
17.12099 431.99498506574
17.1411 408
17.16121 418.008791674673
17.18133 429.01451802791
17.20144 433.98287454066
17.22156 430.93918970049
17.24167 468.017389637717
17.26178 414.034364114288
17.2819 430
17.30201 448.998475299677
17.32212 433.988653138272
17.34224 433.001447953
17.36235 436.956781755949
17.38247 459.984130285499
17.40258 455.005766898276
17.42269 448.011663902513
17.44281 415.991363899739
17.46292 422.014889771177
17.48303 423.972323956077
17.50315 417.110099514031
17.52326 479.981644308312
17.54338 429.045336264395
17.56349 419.004968758228
17.5836 405
17.60372 440.018810311051
17.62383 441.027965830453
17.64394 484.07630851159
17.66406 489.056013635979
17.68417 456.014741902586
17.70428 482.950838775
17.7244 499
17.74451 421.000054574248
17.76463 489.042613059301
17.78474 447.932471655039
17.80485 456.972204475707
17.82497 448.015767064652
17.84508 451.984013090578
17.86519 467.996894215349
17.88531 464.999003666599
17.90542 469.004771632783
17.92554 458.929826882001
17.94565 429.040250914068
17.96576 469.993061796368
17.98588 435.012246708662
18.00599 463.986253119822
18.0261 465
18.04622 466.011197091625
18.06633 476.998821775556
18.08645 455.904830032386
18.10656 422.021611505803
18.12667 431.984963571783
18.14679 424.011637163748
18.1669 427
18.18701 501.991604046126
18.20713 414.944527523348
18.22724 454.044259352459
18.24735 429.02410363156
18.26747 445.015814108499
18.28758 404.022604310682
18.3077 423
18.32781 446.003670218927
18.34792 432.965288121492
18.36804 398.982408648352
18.38815 413.967133178517
18.40826 419.962319944948
18.42838 449.981206033923
18.44849 454.994742229774
18.46861 467.996418733436
18.48872 434.958344051868
18.50883 416.027976725558
18.52895 449.022521625124
18.54906 430.025841400125
18.56917 441.967306173809
18.58929 448.010280810021
18.6094 430
18.62951 467.990686650044
18.64963 403.958159818694
18.66974 421.986660272848
18.68986 382.021592357775
18.70997 417.942835003865
18.73008 429.00127782979
18.7502 438
18.77031 467.003833275222
18.79042 454.993266652941
18.81054 479.110496854051
18.83065 526.99926003835
18.85077 498.995619620189
18.87088 533.99131747641
18.89099 500.017242299313
18.91111 511.030313916869
18.93122 577.021818667414
18.95133 544.92992629317
18.97145 528.047325194069
18.99156 549.033957295985
19.01168 526.954116838385
19.03179 606.9968676257
19.0519 529
19.07202 544.06479659722
19.09213 586.967933391021
19.11224 536.998915587184
19.13236 588.941682192335
19.15247 582.968712506875
19.17258 627.99640607645
19.1927 582
19.21281 599.030837981697
19.23293 667.067422556641
19.25304 654.850540106977
19.27315 581.998293465482
19.29327 646.92726083544
19.31338 653.979579001618
19.33349 685.008409960772
19.35361 633.993677163692
19.37372 664.004895656588
19.39384 617.890107368229
19.41395 598.045352779526
19.43406 623.005347376611
19.45418 604.986713242406
19.47429 647.987999894296
19.4944 631
19.51452 627.039884158788
19.53463 689.068061917197
19.55475 678.833584182408
19.57486 606.0527037482
19.59497 621.996140802239
19.61509 604.993373401435
19.6352 641
19.65531 598.982262323008
19.67543 614.090600044772
19.69554 671.017773531434
19.71565 639.053032824541
19.73577 649.980042564973
19.75588 657.975318910688
19.776 690
19.79611 663.982078612452
19.81622 643.998845258307
19.83634 664.081188029554
19.85645 697.008149226887
19.87656 654.115110817054
19.89668 621.990375486625
19.91679 661.978648839628
19.93691 673.987379889419
19.95702 628.959704848305
19.97713 618.029092176708
19.99725 639.98907531697
20.01736 613.033502471041
20.03747 620.977782755219
20.05759 625.003343823568
20.0777 619
20.09782 621.973657603832
20.11793 586.001137070473
20.13804 621.041275536047
20.15816 597.100329797608
20.17827 568.962606394451
20.19838 610.011108034676
20.2185 557
20.23861 599.021113326057
20.25872 607.999198700926
20.27884 607.975641709409
20.29895 593.980597044638
20.31907 618.979056710214
20.33918 596.05748696413
20.35929 549.994923493505
20.37941 592.002357517037
20.39952 554.98573827679
20.41963 586.051985757821
20.43975 589.949825616908
20.45986 570.998181685193
20.47998 597.959563353873
20.50009 629.993301628223
20.5202 635
20.54032 652.989298977751
20.56043 619.972086843206
20.58054 630.033384841873
20.60066 630.036481280537
20.62077 596.067774225571
20.64088 571.974158144238
20.661 633
20.68111 637.981613745176
20.70123 589.950134660286
20.72134 584.01755421244
20.74145 596.952787867481
20.76157 618.97008375256
20.78168 625.015030042687
20.80179 607.996281459734
20.82191 623.991093084478
20.84202 570.953240985143
20.86214 566.063854839132
20.88225 596.991987383826
20.90236 550.132898691428
20.92248 514.975342670192
20.94259 558.004297336467
20.9627 511
20.98282 560.022784673712
21.00293 548.031674934436
21.02305 606.075835714179
21.04316 580.093753922184
21.06327 552.005920473365
21.08339 557.003088354326
21.1035 537
21.12361 524.98753416736
21.14373 495.99018144052
21.16384 525.102814921491
21.18395 568.954044000476
21.20407 564.013442940972
21.22418 559.012352253014
21.2443 544
21.26441 554.001273785796
21.28452 544.994039165989
21.30464 551.024797829079
21.32475 563.967723649275
21.34486 567.032821188184
21.36498 531.045543989674
21.38509 504.993229738229
21.40521 544.015024460281
21.42532 558.024395104415
21.44543 577.960788163762
21.46555 522.93856983589
21.48566 536.001395871044
21.50577 509.02142514324
21.52589 535.97117809339
21.546 585
21.56612 559.972191158616
21.58623 555.017037387772
21.60634 573.042539213817
21.62646 581.037696597881
21.64657 553.008484033761
21.66668 554.03927710444
21.6868 509
21.70691 600.024926616268
21.72702 589.007522751854
21.74714 630.019475031605
21.76725 603.011673239118
21.78737 665.82577161125
21.80748 764.976664365535
21.82759 729.010505028765
21.84771 762.025848528993
21.86782 818.079861322993
21.88793 917.137495775725
21.90805 1012.33155114053
21.92816 1148.86209643752
21.94828 1170.93536963084
21.96839 1272.97875142274
21.9885 1202
22.00862 1072.928285297
22.02873 1023.84643453856
22.04884 865.725649108413
22.06896 781.14577817894
22.08907 694.124794344529
22.10919 636.013620220577
22.1293 612
22.14941 544.983248939628
22.16953 562.05643016928
22.18964 594.058555263003
22.20975 604.073425032203
22.22987 562.010941278885
22.24998 586.992472173532
22.27009 569.999411123096
22.29021 607.023700683594
22.31032 632.997182042805
22.33044 607.933433138057
22.35055 594.049145865366
22.37066 618.030887211689
22.39078 571.026602697963
22.41089 564.019709174268
22.431 504
22.45112 547.051180422188
22.47123 546.908489268774
22.49135 478.974253440093
22.51146 542.820295631298
22.53157 584.054155947982
22.55169 507.026137290086
22.5718 514
22.59191 527.984989002527
22.61203 499.05873317246
22.63214 576.034286292796
22.65225 521.104372480019
22.67237 542.922941260798
22.69248 586.966927588632
22.7126 610
22.73271 617.996935290221
22.75282 613.017076745279
22.77294 655.096816091882
22.79305 672.086638130084
22.81316 614.064483852265
22.83328 622.983032538376
22.85339 623.004404767078
22.87351 615.998702425563
22.89362 611.986350510332
22.91373 574.90203036209
22.93385 520.000755476979
22.95396 547.038401378796
22.97407 499.974848889348
22.99419 561.003338694561
23.0143 500
23.03442 581.026023075465
23.05453 528.957821644133
23.07464 553.006503272458
23.09476 518.034882049878
23.11487 539.95820394853
23.13498 542.022331704036
23.1551 523
23.17521 555.008871603369
23.19532 543.980779854214
23.21544 532.986981479613
23.23555 524.035692083682
23.25567 511.002865708765
23.27578 512.013972562181
23.29589 491.999419887443
23.31601 512.004624422358
23.33612 495.973685630485
23.35623 493.059071670505
23.37635 530.933304663881
23.39646 479.9432390147
23.41658 575.952455417658
23.43669 537.024077903168
23.4568 535
23.47692 552.002001066659
23.49703 541.985143322865
23.51714 580.242967608321
23.53726 716.909813931505
23.55737 680.007159065785
23.57749 763.943086282319
23.5976 856
23.61771 923.031059522482
23.63783 958.976294808047
23.65794 924.007625318514
23.67805 959.991458081659
23.69817 903.120073144334
23.71828 831.068134276042
23.73839 762.034162257202
23.75851 702.979677476168
23.77862 666.947336477699
23.79874 609.947351779486
23.81885 600.90307499993
23.83896 559.935577011286
23.85908 637.979493101129
23.87919 584.021151894683
23.8993 598
23.91942 618.02668683001
23.93953 642.997487139698
23.95965 609.889681313034
23.97976 585.983458863697
23.99987 613.96508831567
24.01999 607.019290335246
24.0401 569
24.06021 601.016678298187
24.08033 597.934272016583
24.10044 563.056865591802
24.12056 616.032723874303
24.14067 536.06577811201
24.16078 566.954934976957
24.1809 577
24.20101 578.022000999375
24.22112 634.008213876324
24.24124 605.007105665448
24.26135 641.004000721967
24.28146 603.006265018456
24.30158 659.929696192783
24.32169 703.988331918775
24.34181 720.007760156625
24.36192 728.989197060543
24.38203 724.059442400089
24.40215 787.064117769877
24.42226 776.968776628937
24.44237 812.020466041646
24.46249 766.995217148384
24.4826 817
24.50272 727.913220684619
24.52283 699.007526700928
24.54294 689.90658582476
24.56306 615.136149750954
24.58317 580.012769744135
24.60328 582.993586298178
24.6234 580
24.64351 548.980353231916
24.66362 523.00421736151
24.68374 538.985283933862
24.70385 524.922434534441
24.72397 584.969489697267
24.74408 544.055300807532
24.76419 514.005525186202
24.78431 519.012415550688
24.80442 540.992308191587
24.82453 525.035648203937
24.84465 578.05831437895
24.86476 553.06696414814
24.88488 528.038554695619
24.90499 498.986730770281
24.9251 569
24.94522 563.948914990588
24.96533 528.041046554661
24.98544 590.039266252338
25.00556 553.062088021923
25.02567 543.053304981621
25.04579 497.995374807952
25.0659 542
25.08601 482.982133344424
25.10613 509.073766662688
25.12624 543.0361096143
25.14635 542.057209633761
25.16647 506.055316522999
25.18658 487.990837416124
25.20669 514.986527338656
25.22681 530.004214274137
25.24692 528.981112120374
25.26704 499.95502123974
25.28715 495.018812986488
25.30726 503.991402546286
25.32738 511.97408895769
25.34749 543.994311962624
25.3676 540
25.38772 572.02328128485
25.40783 569.976074194137
25.42795 554.974357963248
25.44806 551.993364861222
25.46817 549.031246161189
25.48829 525.998733694374
25.5084 543
25.52851 527.014780644989
25.54863 593.057514367721
25.56874 585.985569481814
25.58886 592.024916336762
25.60897 577.950239918627
25.62908 625.022049910681
25.6492 558
25.66931 625.019500909621
25.68942 581.919606262403
25.70954 522.956324468319
25.72965 517.064741859943
25.74976 470.064827754174
25.76988 489.925357519971
25.78999 572.979487526642
25.81011 554.977707248311
25.83022 534.021015146764
25.85033 549.918459190049
25.87045 473.035238345355
25.89056 572.867474601708
25.91067 567.994332871303
25.93079 592.012414758126
25.9509 535
25.97102 588.024299751199
25.99113 563.987859445419
26.01124 581.980734226035
26.03136 538.061155382492
26.05147 552.931504881177
26.07158 589.997009220585
26.0917 571
26.11181 575.984988833525
26.13193 531.006574783812
26.15204 573.007887281051
26.17215 533.034999689544
26.19227 564.957774246169
26.21238 557.026877532003
26.23249 554.975221796004
26.25261 606.988838513902
26.27272 549.021680217592
26.29283 634.02489933902
26.31295 556.837750548897
26.33306 558.961129778473
26.35318 577.949861774684
26.37329 652.969775814165
26.3934 677
26.41352 685.020588782902
26.43363 718.054713277383
26.45374 741.001205967553
26.47386 720.065403215065
26.49397 683.063995027195
26.51409 647.007261545292
26.5342 664
26.55431 709.01182033593
26.57443 717.029458861522
26.59454 732.938956616634
26.61465 685.97480705205
26.63477 743.965351503891
26.65488 713.021572568328
26.67499 703.029627907703
26.69511 607.972683744202
26.71522 617.021314242357
26.73534 617.998323743889
26.75545 608.895270305032
26.77556 538.13932533175
26.79568 500.004048328966
26.81579 524.976579569585
26.8359 562
26.85602 534.976261272823
26.87613 523.969880205977
26.89625 498.991408048091
26.91636 531.885233225163
26.93647 570.021657871551
26.95659 515.024959144982
26.9767 510
26.99681 540.993661796973
27.01693 514.041443869729
27.03704 568.972214463728
27.05716 488.098067181313
27.07727 504.970658694696
27.09738 499.993331419418
27.1175 535
27.13761 569.01319141707
27.15772 575.973581661958
27.17784 535.961400351158
27.19795 546.957382527215
27.21806 541.06772615975
27.23818 513.979881977482
27.25829 566.984619935877
27.27841 554.9896538638
27.29852 557.022264019543
27.31863 582.018412770272
27.33875 577.977976044755
27.35886 575.989881294762
27.37897 597.92763343594
27.39909 665.964801217595
27.4192 717
27.43932 748.07301091729
27.45943 826.012098088971
27.47954 763.883729329986
27.49966 802.690022760204
27.51977 970.916578144186
27.53988 928.003352712805
27.56 1012
27.58011 1063.04344421388
27.60023 1153.99461806418
27.62034 1082.97286600606
27.64045 1152.86407525457
27.66057 1151.00169299871
27.68068 1190.93649381801
27.70079 1256.96829374391
27.72091 1353.08324357438
27.74102 1537.10651282139
27.76113 1569.07768309719
27.78125 1662.14929199541
27.80136 1648.10993504502
27.82148 1588.06077598869
27.84159 1507.06139268016
27.8617 1355
27.88182 1237.89374154803
27.90193 1158.97533286786
27.92204 1192.07040781321
27.94216 1196.0279241815
27.96227 1242.74130396593
27.98239 1455.95038745527
28.0025 1399
28.02261 1335.97825030711
28.04273 1273.85635268174
28.06284 1119.56267835787
28.08295 906.314100067862
28.10307 861.074376747668
28.12318 768.08788768599
28.1433 701
28.16341 620.977632412182
28.18352 628.037734362048
28.20364 652.978559122199
28.22375 602.825162651533
28.24386 552.021040033125
28.26398 579.956065010066
28.28409 604.005034086653
28.3042 586
28.32432 622.006345437224
28.34443 611.052107118495
28.36455 701.2274026341
28.38466 747.980719598254
28.40477 758.935825575939
28.42489 815.989030055236
28.445 795
28.46511 778.979826959962
28.48523 735.007990121763
28.50534 748.859425461097
28.52546 624.108859491411
28.54557 653.991680012731
28.56568 591.065915395264
28.5858 565
28.60591 553.992910202941
28.62602 535.97774397542
28.64614 499.88385451542
28.66625 460.922876052356
28.68636 528.957158463123
28.70648 499.999490489569
28.72659 529.011784263846
28.74671 474.008197735598
28.76682 557.041832793695
28.78693 516.916307488319
28.80705 504.058402961317
28.82716 533.974094371478
28.84727 536.965486583312
28.86739 556.019740189709
28.8875 486
28.90762 525.015604251158
28.92773 502.003369760574
28.94784 526.963180412091
28.96796 486.946579705278
28.98807 552.020395055049
29.00818 458.058184290212
29.0283 478
29.04841 490.026542764894
29.06853 566.03783158369
29.08864 545.019471772974
29.10875 572.11528380655
29.12887 465.095524925989
29.14898 490.941386437771
29.16909 534.980970067466
29.18921 560.999048842451
29.20932 537.978440262232
29.22943 536.020406052684
29.24955 547.992542588124
29.26966 534.015207948519
29.28978 537.996372199305
29.30989 544.98704320599
29.33 590
29.35012 618.000404582509
29.37023 624.077968872116
29.39034 708.121322304526
29.41046 706.099708883031
29.43057 665.980178475298
29.45069 724.973383440657
29.4708 738
29.49091 730.003372314955
29.51103 748.021223761434
29.53114 755.022436755112
29.55125 762.04301772286
29.57137 754.913632256989
29.59148 842.971769043134
29.6116 793
29.63171 805.042572143665
29.65182 919.092282166781
29.67194 974.100037654631
29.69205 1055.28463724373
29.71216 1172.82559159368
29.73228 1239.91196563302
29.75239 1358.9421139926
29.7725 1419
29.79262 1359.95444301526
29.81273 1328.895736799
29.83285 1225.80830390893
29.85296 1179.14081566444
29.87307 1059.20861376799
29.89319 937.047797639198
29.9133 862
29.93341 804.984153154151
29.95353 780.927495263465
29.97364 728.996121337352
29.99376 759.019161688119
30.01387 708.033721113934
30.03398 726.996311016708
30.0541 701
30.07421 711.00036206126
30.09432 709.034006793686
30.11444 759.013212517485
30.13455 752.824096737821
30.15467 882.87790751811
30.17478 873.037255225997
30.19489 890.954226825773
30.21501 995.017477534996
30.23512 986.052038279401
30.25523 1097.09258337498
30.27535 1075.92280370958
30.29546 1068.04893445785
30.31557 1039.96764115168
30.33569 1125.94459083674
30.3558 1176
30.37592 1065.94625231448
30.39603 1087.01322468198
30.41614 1024.79127325862
30.43626 930.117850944442
30.45637 897.061148111781
30.47648 844.034646227631
30.4966 813
30.51671 728.988740835032
30.53683 764.023180151453
30.55694 728.920559605477
30.57705 715.99921301672
30.59717 727.946454071854
30.61728 757.020837186746
30.63739 706.008876443134
30.65751 737.016012838176
30.67762 744.002960455205
30.69773 753.005871938074
30.71785 764.102839124201
30.73796 800.056417633245
30.75808 739.003110451604
30.77819 813.958935864372
30.7983 830
30.81842 768.998832021454
30.83853 808.994116055613
30.85864 738.853566242352
30.87876 697.073779954218
30.89887 658.030403758072
30.91899 644.020200739286
30.9391 586
30.95921 567.972741915757
30.97933 495.973614058491
30.99944 539.07775469021
31.01955 545.972213327445
31.03967 574.964406231415
31.05978 562.058150127373
31.0799 494
31.10001 500.001880792053
31.12012 490.005635832108
31.14024 514.031147852854
31.16035 519.946568829725
31.18046 554.95790611911
31.20058 537.054553882065
31.22069 483.008786745567
31.2408 502
31.26092 498.984247918104
31.28103 490.010430020281
31.30115 502.999866087134
31.32126 492.001577725634
31.34137 515.937017098677
31.36149 547.001544778225
31.3816 527
31.40171 565.021816886741
31.42183 590.015243436929
31.44194 586.962555361421
31.46206 573.966038141718
31.48217 615.943882934306
31.50228 626.011294445772
31.5224 613
31.54251 615.992877061765
31.56262 574.944550019208
31.58274 532.976693929917
31.60285 544.968691166286
31.62297 543.012850071225
31.64308 537.999112615998
31.66319 535.009441944856
31.68331 525.017965418519
31.70342 566.970714469719
31.72353 490.969107435272
31.74365 549.146320613843
31.76376 546.098760261513
31.78387 504.988802991305
31.80399 544.991943954409
31.8241 528
31.84422 544.996784798206
31.86433 513.96117274419
31.88444 497.933060966079
31.90456 466.960699256271
31.92467 516.982270002864
31.94478 489.997931592172
31.9649 528
31.98501 502.993303325511
32.00513 508.976551501633
32.02524 478.002220872411
32.04535 507.979793373446
32.06547 473.072479244773
32.08558 461.952113385471
32.10569 527.989668966126
32.12581 490.97809417069
32.14592 489.038345145917
32.16604 519.953950770322
32.18615 468.983961281316
32.20626 506.980211942892
32.22638 482.991444650872
32.24649 520.002723803322
32.2666 472
32.28672 496.01169237733
32.30683 477.985623027365
32.32694 494.041706449183
32.34706 493.057895235356
32.36717 458.018773758854
32.38729 471.991949352584
32.4074 473
32.42751 464.995796642652
32.44763 450.962613110443
32.46774 435.037147686331
32.48785 479.908029526966
32.50797 486.020721603797
32.52808 469.014218379742
32.5482 467
32.56831 483.000090216193
32.58842 467.988267231755
32.60854 468.00405610897
32.62865 466.998417015299
32.64876 466.021055587707
32.66888 459.979342520749
32.68899 491.997308749213
32.7091 464
32.72922 451.995916421714
32.74933 453.020530275425
32.76945 473.03021731473
32.78956 472.010779611426
32.80967 471.990364057736
32.82979 487.986302414883
32.8499 512
32.87001 485.976590147814
32.89013 457.029748410883
32.91024 502.031104841065
32.93036 482.014737758737
32.95047 499.988043230174
32.97058 481.027361252717
32.9907 464
33.01081 476.018142484517
33.03092 503.980198945384
33.05104 463.00800533657
33.07115 500.020377584973
33.09127 441.055396486568
33.11138 466.942889314424
33.13149 505.998797214224
33.15161 485.995056577358
33.17172 484.974508992965
33.19183 444.984043158711
33.21195 478.118716647561
33.23206 505.000998160985
33.25217 493.997175650992
33.27229 500.011038303791
33.2924 463
33.31252 487.007429958642
33.33263 478.031452312893
33.35274 505.931088499024
33.37286 437.010217744684
33.39297 501.93489950221
33.41308 476.05174062738
33.4332 453
33.45331 490.011962096533
33.47343 488.991460855192
33.49354 489.997790488732
33.51365 482.026695107247
33.53377 480.974496985718
33.55388 502.994766163286
33.57399 490.005484966254
33.59411 493.004394042799
33.61422 506.023580171241
33.63434 533.032625581513
33.65445 544.061264139918
33.67456 573.984362367956
33.69468 562.00230548833
33.71479 582.985892347085
33.7349 605
33.75502 604.966288724097
33.77513 566.00086141318
33.79524 599.027627962704
33.81536 577.045640341239
33.83547 580.964297262526
33.85559 595.009386146359
33.8757 571
33.89581 611.991684135675
33.91593 534.906101340947
33.93604 551.17103177489
33.95615 616.094671042801
33.97627 519.044672446556
33.99638 583.939116923267
34.0165 574
34.03661 530.989419327781
34.05672 549.059587941425
34.07684 606.013382988837
34.09695 567.081085491189
34.11706 565.992434236201
34.13718 566.982702837707
34.15729 584.009650948696
34.17741 553.009141060188
34.19752 606.011983917162
34.21763 568.971895850456
34.23775 601.120956130321
34.25786 632.968305631451
34.27797 629.042925414057
34.29809 594.008805695357
34.3182 602
34.33831 619.009252659743
34.35843 641.035967508131
34.37854 651.968029760232
34.39866 626.009305640141
34.41877 634.028330722946
34.43888 603.985277096688
34.459 653
34.47911 629.998589737
34.49922 664.027815076261
34.51934 654.932013734827
34.53945 627.997782485851
34.55957 655.949618507333
34.57968 676.988989174312
34.59979 661.0313105778
34.61991 603.009395664254
34.64002 678.038402084235
34.66013 659.996164716464
34.68025 694.049544531267
34.70036 674.069672700728
34.72047 659.972883173696
34.74059 692.990507516015
34.7607 697
34.78082 736.043582065985
34.80093 755.977833785356
34.82104 752.126499861356
34.84116 853.893258032914
34.86127 837.035928890423
34.88138 840.996407999756
34.9015 846
34.92161 904.019271910137
34.94173 899.955610141778
34.96184 870.962558399645
34.98195 853.088553393625
35.00207 801.072150231473
35.02218 769.022976638013
35.04229 740.021056876239
35.06241 701.995749112532
35.08252 724.028460716959
35.10264 739.010105420799
35.12275 725.892821890539
35.14286 682.006892627748
35.16298 709.990730799729
35.18309 699.989913653961
35.2032 738
35.22332 695.993824903797
35.24343 737.042749544393
35.26354 738.034696749315
35.28366 771.987409209512
35.30377 732.090927476657
35.32389 699.989335224458
35.344 751
35.36411 755.007706826982
35.38423 808.11513364048
35.40434 882.113391158191
35.42445 919.924642451439
35.44457 986.796943109561
35.46468 1132.93624915776
35.4848 1142
35.50491 1290.05680436644
35.52502 1315.99185625826
35.54514 1320.01704097984
35.56525 1319.04225584146
35.58536 1313.91772454711
35.60548 1351.05253786637
35.62559 1244.01975031758
35.64571 1266.97975002693
35.66582 1152.92954723121
35.68593 1160.00497872551
35.70605 1141.05315548657
35.72616 1192.98004624823
35.74627 1135.11894070746
35.76639 1077.01949898093
35.7865 1056
35.80661 1052.98486747331
35.82673 995.913738295846
35.84684 949.905854462128
35.86696 891.133514381134
35.88707 836.038111121403
35.90718 818.049721098264
35.9273 725
35.94741 670.017708274006
35.96752 728.977181844445
35.98764 645.967840120147
36.00775 703.968880808586
36.02787 633.10844738085
36.04798 614.988997668116
36.06809 621.003826925531
36.08821 611.003866073464
36.10832 624.988695185048
36.12843 593.979923343941
36.14855 593.931008773947
36.16866 547.032498828888
36.18878 565.990645976207
36.20889 573.970282113742
36.229 653
36.24912 592.947512363321
36.26923 584.992200789612
36.28934 564.979247703006
36.30946 571.984264906174
36.32957 565.031596770069
36.34968 546.001143686598
36.3698 559
36.38991 551.994279947864
36.41003 536.958677563767
36.43014 526.088159922268
36.45025 599.903290090283
36.47037 596.98110583077
36.49048 616.041370327364
36.51059 544.002504210589
36.53071 602.009672300173
36.55082 571.007995648742
36.57094 616.987211880749
36.59105 553.915293150333
36.61116 587.889625937875
36.63128 622.981030784551
36.65139 617.022188161434
36.6715 563
36.69162 583.024693830963
36.71173 587.994279424285
36.73184 582.981055800014
36.75196 575.98816254987
36.77207 581.030120686317
36.79219 547.005972381885
36.8123 565
36.83241 565.994199978079
36.85253 549.972330121005
36.87264 539.009659307925
36.89275 548.017041641655
36.91287 542.948469552428
36.93298 578.041264342653
36.9531 502
36.97321 581.007519012137
36.99332 514.969603767495
37.01344 555.058514036382
37.03355 553.926366510398
37.05366 599.032146662003
37.07378 530.036053665998
37.09389 555.984120310886
37.11401 569.012719175038
37.13412 596.988907498229
37.15423 567.019228793824
37.17435 604.959768469142
37.19446 536.081363636332
37.21457 553.959482170688
37.23469 550.012771260222
37.2548 534
37.27491 559.996598802719
37.29503 518.950222912147
37.31514 518.028841483237
37.33526 528.989451556176
37.35537 533.981880870031
37.37548 540.020780285386
37.3956 510
37.41571 545.01873482051
37.43582 562.005716837743
37.45594 560.974738394394
37.47605 529.133049101507
37.49617 488.983482820366
37.51628 536.967346825634
37.53639 522.02148897268
37.55651 491.001027779963
37.57662 518.022893810294
37.59673 515.971318055799
37.61685 515.111823512683
37.63696 577.950241041755
37.65708 551.037289085653
37.67719 541.991567726599
37.6973 574
37.71742 590.975689804268
37.73753 532.904347941197
37.75764 506.051706656725
37.77776 555.942725141162
37.79787 554.991909271046
37.81798 574.993577806207
37.8381 562
37.85821 555.988612528367
37.87833 514.941264991003
37.89844 509.078649824136
37.91855 556.98263833926
37.93867 520.051737464068
37.95878 515.9914267191
37.97889 509.016335137232
37.99901 478.004395105598
38.01912 520.030461723778
38.03924 523.00713086738
38.05935 547.090138490169
38.07946 572.997528834549
38.09958 548.038271128619
38.11969 535.979279453138
38.1398 577
38.15992 478.95286766229
38.18003 513.058633759907
38.20015 514.995117152672
38.22026 525.985108281482
38.24037 512.055170493899
38.26049 482.994266876756
38.2806 524
38.30071 505.975316674311
38.32083 478.050459456932
38.34094 550.093142062004
38.36105 548.02781360442
38.38117 546.021382614537
38.40128 521.012361257065
38.4214 523
38.44151 515.007316123748
38.46162 529.967415760278
38.48174 478.010331714794
38.50185 526.992809712817
38.52196 477.039343086189
38.54208 514.960519541783
38.56219 520.004951976621
38.58231 510.994118085147
38.60242 508.021162221318
38.62253 534.998227528818
38.64265 494.861119470487
38.66276 480.875742357166
38.68287 558.00711299319
38.70299 477.027162536127
38.7231 497
38.74321 514.002429614962
38.76333 519.009410949634
38.78344 522.99380260765
38.80356 519.981857621659
38.82367 540.969229647136
38.84378 546.0134648679
38.8639 530
38.88401 543.001028997859
38.90412 524.976169006512
38.92424 518.037445747296
38.94435 550.934397788214
38.96447 549.047084024266
38.98458 525.975146805172
39.00469 565.010248470263
39.02481 497.986896391889
39.04492 545.065908223598
39.06503 566.952563846187
39.08515 518.956895734037
39.10526 538.965828228561
39.12538 537.994394424349
39.14549 556.992902600597
39.1656 567
39.18572 597.008385281863
39.20583 585.998265762642
39.22594 601.016609830713
39.24606 589.045912825129
39.26617 583.950780118551
39.28628 643.94442344055
39.3064 665
39.32651 628.97639096296
39.34663 589.967456812764
39.36674 579.975705362954
39.38685 581.884548308242
39.40697 634.017421323391
39.42708 569.038029875086
39.44719 585.989875677286
39.46731 569.980002278742
39.48742 545.01741414122
39.50754 587.042450066815
39.52765 562.877384579586
39.54776 519.055165451216
39.56788 521.962490579564
39.58799 558.003101173642
39.6081 524
39.62822 554.020666029355
39.64833 545.984143628425
39.66845 544.986981110599
39.68856 527.050199533653
39.70867 506.015912967523
39.72879 501.005081892858
39.7489 491
39.76901 504.998055285736
39.78913 482.977716323432
39.80924 487.019472298594
39.82935 497.948735622225
39.84947 529.945496650046
39.86958 551.007628817766
39.8897 521
39.90981 489.977816520044
39.92992 459.024950159292
39.95004 527.110510426646
39.97015 523.137162576066
39.99026 473.988146793949
40.01038 512.002283679175
40.03049 484.981895554541
40.05061 561.001718501477
40.07072 490.967660139963
40.09083 527.037186525361
40.11095 496.876837347234
40.13106 481.924067809557
40.15117 540.95663026239
40.17129 522.016943154678
40.1914 508
40.21152 529.021925489287
40.23163 541.003811426426
40.25174 531.953538435343
40.27186 502.051369766545
40.29197 489.998581719085
40.31208 504.969260654341
40.3322 531
40.35231 514.0012745091
40.37242 526.97949807469
40.39254 496.051384015176
40.41265 560.952806023995
40.43277 518.05357345357
40.45288 519.001475651753
40.47299 501.004546153068
40.49311 519.018912432651
40.51322 540.977131376466
40.53333 507.026569039866
40.55345 561.030073304723
40.57356 520.053995785113
40.59368 535.978560613828
40.61379 544.992089234433
40.6339 573
40.65402 575.973860709389
40.67413 552.024215346862
40.69424 576.929443743506
40.71436 510.994084152985
40.73447 586.919458479459
40.75458 581.008470952467
40.7747 589
40.79481 552.990198293463
40.81493 565.031114358047
40.83504 576.010458482788
40.85515 580.985010023304
40.87527 583.012572255031
40.89538 563.02610616509
40.91549 556.982404014539
40.93561 594.990339836608
40.95572 534.976266038398
40.97584 570.079842797233
40.99595 583.01774368727
41.01606 589.023272189499
41.03618 563.020229338878
41.05629 547.016417263198
41.0764 511
41.09652 540.0263443346
41.11663 544.999382075686
41.13675 541.95306982011
41.15686 522.980263842173
41.17697 548.999499563239
41.19709 520.009947372492
41.2172 526
41.23731 517.985754646995
41.25743 484.971473692905
41.27754 495.072259044822
41.29765 525.015653701586
41.31777 486.057107496725
41.33788 482.966901541417
41.358 503
41.37811 452.024764311788
41.39822 569.042874948075
41.41834 500.849364875432
41.43845 487.957813159503
41.45856 494.025256811109
41.47868 472.013929663055
41.49879 471.998683961783
41.51891 467.995725982192
41.53902 457.989769154269
41.55913 470.083310539457
41.57925 522.955361002241
41.59936 461.021882889668
41.61947 519.920603611295
41.63959 517.016709571861
41.6597 484
41.67982 474.011433198317
41.69993 494.016151754403
41.72004 488.980300620312
41.74016 490.960844053391
41.76027 509.013155861335
41.78038 483.008165874098
41.8005 504
41.82061 512.996074924419
41.84072 500.996056160246
41.86084 513.047424741123
41.88095 536.959294360205
41.90107 544.990387592424
41.92118 556.982213632443
41.94129 566.007440088076
41.96141 544.001513898157
41.98152 569.011808836548
42.00163 551.960203908052
42.02175 540.019544068965
42.04186 552.009412033861
42.06198 552.950283831872
42.08209 637.96884704139
42.1022 638
42.12232 597.99896987065
42.14243 624.011495669424
42.16254 616.047917227068
42.18266 665.957120050849
42.20277 656.981665816443
42.22289 698.98603346423
42.243 706
42.26311 728.986160783888
42.28323 663.944435316545
42.30334 676.036135021736
42.32345 665.080046401369
42.34357 642.982645237809
42.36368 668.005538525035
42.38379 632.011035035887
42.40391 632.994638489008
42.42402 608.996237373346
42.44414 630.033885306561
42.46425 619.921457067047
42.48436 579.086117872234
42.50448 550.004782446338
42.52459 554.006280592714
42.5447 540
42.56482 584.001127685646
42.58493 529.910095364267
42.60505 501.985052037242
42.62516 515.91619138142
42.64527 549.032214978954
42.66539 501.998663572666
42.6855 554
42.70561 539.002651784222
42.72573 573.014905712713
42.74584 555.004862199713
42.76595 575.034218298284
42.78607 534.01536094965
42.80618 571.954589431191
42.8263 590
42.84641 573.988773246929
42.86652 560.004525968227
42.88664 570.990864541576
42.90675 564.92874606469
42.92686 609.986343118184
42.94698 565.055285975364
42.96709 538.998787937102
42.98721 546.99587740895
43.00732 522.982735142709
43.02743 524.013109355432
43.04755 525.978093270234
43.06766 510.030673092818
43.08777 502.997577734529
43.10789 513.989628246856
43.128 528
43.14812 512.013327790327
43.16823 543.002404854251
43.18834 515.983884399641
43.20846 536.974839089499
43.22857 528.009790338767
43.24868 523.028283134735
43.2688 492
43.28891 544.020795473084
43.30902 546.985350739064
43.32914 526.932397849511
43.34925 501.960867531987
43.36937 535.007235704909
43.38948 489.034852235813
43.40959 494.987640083419
43.42971 506.994816246312
43.44982 484.986866622531
43.46993 478.969046202864
43.49005 447.96286296787
43.51016 455.977068264811
43.53028 467.971307035988
43.55039 498.000466799516
43.5705 469
43.59062 469.001905804601
43.61073 465.003410488297
43.63084 479.037877120114
43.65096 486.030715619932
43.67107 468.981187395971
43.69119 495.004099843401
43.7113 459
43.73141 489.014198438056
43.75153 495.005008073944
43.77164 499.982214004082
43.79175 474.075376994719
43.81187 445.05156765971
43.83198 434.948797219921
43.85209 516.977913330673
43.87221 491.971183339869
43.89232 467.037256300577
43.91244 528.03242597222
43.93255 489.91475174255
43.95266 487.998109951477
43.97278 469.032100429306
43.99289 444.001912613223
44.013 468
44.03312 506.011423034484
44.05323 493.981123585159
44.07335 481.918133641264
44.09346 448.98122565966
44.11357 484.993371123644
44.13369 460.995462206546
44.1538 507
44.17391 488.987445082907
44.19403 488.028360165855
44.21414 507.006518801931
44.23426 509.933016667241
44.25437 561.959851033409
44.27448 545.035798401834
44.2946 525
44.31471 554.01921104125
44.33482 573.986466463002
44.35494 556.043307778492
44.37505 596.018807316903
44.39516 540.07870515001
44.41528 548.975712347771
44.43539 550.014010643719
44.45551 509.985741639632
44.47562 515.03772786673
44.49573 559.035924872752
44.51585 547.911763921764
44.53596 514.033595216529
44.55607 519.971095196465
44.57619 527.010770437697
44.5963 503
44.61642 547.016260467436
44.63653 508.904470576735
44.65664 477.059284831791
44.67676 545.890102691816
44.69687 561.994557294926
44.71698 568.003724541664
44.7371 560
44.75721 575.001583210265
44.77732 556.972951443252
44.79744 545.031098524482
44.81755 567.013378861178
44.83767 531.053887181283
44.85778 520.988309589998
44.87789 534.999498400277
44.89801 521.99366382941
44.91812 519.001967872976
44.93823 509.953407716326
44.95835 484.044515284067
44.97846 523.002753416991
44.99858 490.991587123232
45.01869 533.999810317702
45.0388 485
45.05892 507.029905660258
45.07903 502.942456356327
45.09914 457.954268991305
45.11926 465.961256639728
45.13937 476.001300030191
45.15949 477.990005760992
45.1796 510
45.19971 510.994535329054
45.21983 496.97381422492
45.23994 494.060177692947
45.26005 521.078071653745
45.28017 462.99650184415
45.30028 529.951728842486
45.32039 516.018516198767
45.34051 494.997728977421
45.36062 507.02837620238
45.38074 528.984998919094
45.40085 510.02589102766
45.42096 551.931112325646
45.44108 543.049897760669
45.46119 492.006874997295
45.4813 502
45.50142 468.012582513169
45.52153 528.067803456879
45.54165 527.963518414395
45.56176 514.056781136502
45.58187 484.004403342522
45.60199 500.999459389018
45.6221 491
45.64221 521.991737113818
45.66233 464.953335522283
45.68244 482.043954756049
45.70256 484.994313705208
45.72267 484.041222808399
45.74278 438.033001318219
45.7629 439
45.78301 456.994708968616
45.80312 437.011272336174
45.82324 464.978896067968
45.84335 421.041494235671
45.86346 446.953322194215
45.88358 453.978135303939
45.90369 490.989759999012
45.92381 480.988431575634
45.94392 465.997488732231
45.96403 477.03198060587
45.98415 488.964600516656
46.00426 463.012777215087
46.02437 482.967051995332
46.04449 493.994454615942
46.0646 499
46.08472 471.997515419196
46.10483 490.002666288842
46.12494 469.978453316509
46.14506 475.006858646659
46.16517 463.990072172157
46.18528 473.029126969055
46.2054 423
46.22551 465.027154599033
46.24563 492.001333542626
46.26574 474.943632013233
46.28585 453.010916895093
46.30597 458.007315917637
46.32608 440.014846479
46.34619 449.979834083192
46.36631 490.001322750577
46.38642 457.972845814776
46.40653 465.047256274057
46.42665 483.946784863115
46.44676 439.047497028094
46.46688 442.008739016681
46.48699 422.994510546262
46.5071 478
46.52722 507.953821719656
46.54733 435.980379855966
46.56744 476.006933980842
46.58756 423.078271561518
46.60767 434.953506992193
46.62779 454.994703768139
46.6479 459
46.66801 458.00256470262
46.68813 463.994134031926
46.70824 448.967092961223
46.72835 436.034148437112
46.74847 433.960278882547
46.76858 466.999912780251
46.78869 442.001382512802
46.80881 458.99349334343
46.82892 416.980071001893
46.84904 437.05451257871
46.86915 449.01577199953
46.88926 455.991791397041
46.90938 458.992959066447
46.92949 456.016134066859
46.9496 422
46.96972 465.012381495381
46.98983 438.98392921176
47.00995 463.061848525141
47.03006 472.974003307596
47.05017 484.021398868703
47.07029 456.003230866168
47.0904 485
47.11051 513.002167451539
47.13063 496.96304621827
47.15074 477.979509955617
47.17086 480.964367162525
47.19097 499.993062664872
47.21108 486.021249947251
47.2312 463
47.25131 440.002065889377
47.27142 467.025525057464
47.29154 478.014273771098
47.31165 471.10473699835
47.33176 424.001101937206
47.35188 466.96841318507
47.37199 462.00615354143
47.39211 449.983447936357
47.41222 416.007397052303
47.43233 456.032449720101
47.45245 453.040870032414
47.47256 481.024839123208
47.49267 438.017352900363
47.51279 460.002160820237
47.5329 421
47.55302 428.999215567482
47.57313 424.050828851165
47.59324 476.011523982979
47.61336 426.101070046941
47.63347 411.991462149921
47.65358 424.975356365622
47.6737 441
47.69381 416.009796984754
47.71393 469.034540968733
47.73404 446.960858736404
47.75415 443.055396727948
47.77427 409.007372989471
47.79438 436.97633519076
47.81449 442.994103051848
47.83461 461.000381941129
47.85472 436.967151931725
47.87483 411.976573171336
47.89495 424.141840781026
47.91506 479.023121908906
47.93518 417.031770589562
47.95529 440.987471134478
47.9754 437
47.99552 444.018981209297
48.01563 460.00223303456
48.03574 446.967780051671
48.05586 436.017082569094
48.07597 425.022810793548
48.09609 409.005597157863
48.1162 413
48.13631 443.008027636321
48.15643 445.010678249746
48.17654 465.042498365404
48.19665 469.051121390232
48.21677 447.985324266183
48.23688 475.998012742314
48.257 449
48.27711 460.004277387209
48.29722 471.046021808234
48.31734 527.014802510276
48.33745 485.92134918186
48.35756 496.942281928391
48.37768 509.015259153457
48.39779 487.997277319657
48.4179 513
48.43802 502.015027108227
48.45813 527.969167346522
48.47825 466.905950149275
48.49836 476.962040639106
48.51847 476.016917823482
48.53859 459.013763216698
48.5587 439
48.57881 461.996289569902
48.59893 433.001170498087
48.61904 465.027129512739
48.63916 441.061861636217
48.65927 425.01363573929
48.67938 416.007375201803
48.6995 417
48.71961 445.017568843604
48.73972 462.982010694583
48.75984 430.989892329001
48.77995 453.971821309456
48.80006 443.008471448942
48.82018 446.018316405433
48.84029 421.992549556413
48.86041 455.994196596304
48.88052 405.983609783041
48.90063 447.075912011423
48.92075 465.982231428287
48.94086 452.014483738904
48.96097 451.012858034872
48.98109 444.989651405249
49.0012 471
49.02132 424.977991282432
49.04143 447.046878451145
49.06154 457.99082730231
49.08166 459.948561933604
49.10177 491.995312250913
49.12188 469.011104867236
49.142 487
49.16211 494.991792792268
49.18223 483.041251187107
49.20234 525.998345481737
49.22245 484.052458895529
49.24257 504.966784411131
49.26268 510.986994163583
49.28279 523.01023286847
49.30291 472.977770447746
49.32302 463.019332448116
49.34313 488.017960995494
49.36325 488.018253740973
49.38336 501.004819186124
49.40348 480.021579420846
49.42359 468.004886792332
49.4437 452
49.46382 443.026865722329
49.48393 498.079421236894
49.50404 518.976026481892
49.52416 498.009834668057
49.54427 511.983619133399
49.56439 526.976080504111
49.5845 580
49.60461 520.965874826106
49.62473 496.032680242512
49.64484 539.07015818015
49.66495 559.928691726603
49.68507 590.991599918609
49.70518 562.04471449599
49.7253 537
49.74541 580.024953005919
49.76552 596.967249707613
49.78564 554.006829325482
49.80575 581.936844447242
49.82586 521.00144396912
49.84598 576.986517247435
49.86609 522.02500476927
49.8862 522
49.90632 541.017239177052
49.92643 539.943496602225
49.94655 493.98255619166
49.96666 517.999900630411
49.98677 488.016712881009
50.00689 509.989795432265
50.027 506
50.04711 482.983086421708
50.06723 450.98191944333
50.08734 458.01519135473
50.10746 473.900049353106
50.12757 523.020598758039
50.14768 460.036316966086
50.1678 485
50.18791 504.994567202314
50.20802 478.980159132781
50.22814 473.995525436821
50.24825 470.987720704232
50.26837 484.976931408758
50.28848 498.982858395568
50.30859 514.997202909898
50.32871 521.013102037953
50.34882 541.970180430388
50.36893 476.942248509099
50.38905 486.042513369644
50.40916 474.076553781345
50.42927 434.028523329322
50.44939 445.984728163215
50.4695 467
50.48962 450.000354511206
50.50973 474.036537047465
50.52984 490.043134539667
50.54996 498.07783972459
50.57007 454.955642541535
50.59018 521.011249950516
50.6103 439
50.63041 484.014066087207
50.65053 455.954812097322
50.67064 466.077849440562
50.69075 502.963969544473
50.71087 493.024443834119
50.73098 499.958194414797
50.75109 541.003898714122
50.77121 486.975375289615
50.79132 484.034831866268
50.81143 519.008251170543
50.83155 488.894492830099
50.85166 474.935970671952
50.87178 522.984239091343
50.89189 494.019081690506
50.912 477
50.93212 477.991942271883
50.95223 456.959268410845
50.97234 431.958713700814
50.99246 426.959602095271
51.01257 446.027403890455
51.03269 410.997281696791
51.0528 462
51.07291 469.996919054284
51.09303 457.952710159113
51.11314 431.031631237859
51.13325 482.893884726011
51.15337 488.023678939219
51.17348 477.994094398013
51.1936 483
51.21371 447.997993769222
51.23382 468.997191910327
51.25394 440.988471841863
51.27405 470.920990258642
51.29416 481.002789844668
51.31428 488.972235034065
51.33439 509.013079626028
51.3545 461
51.37462 499.022565978528
51.39473 507.080222959959
51.41485 596.133378874927
51.43496 591.033005983252
51.45507 584.035084264378
51.47519 550.006085456835
51.4953 560
51.51541 542.99485646729
51.53553 542.985045014904
51.55564 507.890992310198
51.57576 483.896212431305
51.59587 563.978555128838
51.61598 505.045785598587
51.6361 506
51.65621 474.986966479363
51.67632 466.992349347522
51.69644 459.017848723094
51.71655 481.958653406879
51.73667 480.018795041473
51.75678 465.017081635497
51.77689 463.983459475311
51.79701 502.999022577774
51.81712 457.956674037602
51.83723 451.030299755326
51.85735 461.936153505195
51.87746 433.937807316462
51.89757 489.027146054931
51.91769 417.004384600772
51.9378 490
51.95792 480.975536355456
51.97803 467.964319349876
51.99814 447.036208675709
52.01826 491.954680856903
52.03837 482.006954764479
52.05848 510.947528871138
52.0786 553
52.09871 541.005404021863
52.11883 566.987985208613
52.13894 536.012073365261
52.15905 584.907009836999
52.17917 578.044482058528
52.19928 545.037802918321
52.21939 517.999116058655
52.23951 540.007852175898
52.25962 534.986076156641
52.27974 533.038301044508
52.29985 546.932992340969
52.31996 500.020502402616
52.34008 526.991588964626
52.36019 494.020602465533
52.3803 485
52.40042 513.976550718312
52.42053 450.941449695241
52.44064 472.10927762604
52.46076 512.989579257027
52.48087 494.015439027389
52.50099 507.989546898937
52.5211 511
52.54121 485.000489588207
52.56133 505.001242456715
52.58144 479.961086964559
52.60155 478.008737279575
52.62167 469.994378324027
52.64178 490.972801209834
52.6619 512
52.68201 500.975702481075
52.70212 452.002468632338
52.72224 486.994195240593
52.74235 441.058623203763
52.76246 464.937744935558
52.78258 471.011454941124
52.80269 468.986643686808
52.8228 493
52.84292 428.973205960364
52.86303 460.058265470164
52.88315 473.006586164582
52.90326 476.003362238895
52.92337 472.993903054862
52.94349 480.00134946209
52.9636 468
52.98371 474.008748170528
53.00383 489.001280994967
53.02394 490.053606426439
53.04406 524.007629065511
53.06417 484.044544340242
53.08428 488.98204203181
53.1044 501
53.12451 504.997780572006
53.14462 501.009195630867
53.16474 521.030950937447
53.18485 524.006303411124
53.20497 515.035036551211
53.22508 482.029307380472
53.24519 487.970039127536
53.26531 549.996187302659
53.28542 487.970382091739
53.30553 520.055302009507
53.32565 509.86883569874
53.34576 481.881170647892
53.36587 567.022251900336
53.38599 460.032396869966
53.4061 498
53.42622 528.998544832564
53.44633 522.014076326273
53.46644 533.957815596688
53.48656 492.028486290204
53.50667 503.021148929753
53.52678 477.970968924908
53.5469 552
53.56701 524.967806098015
53.58713 484.016188226985
53.60724 506.935432607973
53.62735 443.009296086756
53.64747 506.929105741575
53.66758 503.00605208326
53.68769 517.995120427525
53.70781 513.999938732041
53.72792 508.963866454597
53.74804 459.966795350134
53.76815 485.078457721871
53.78826 495.009148966444
53.80838 492.9894234062
53.82849 501.009935068361
53.8486 472
53.86872 508.015520361922
53.88883 492.991147635599
53.90894 510.028438586711
53.92906 500.059825182258
53.94917 475.993995153366
53.96929 488.0110746413
53.9894 445
54.00951 476.008899695005
54.02963 459.972037309387
54.04974 465.048194153176
54.06985 487.985843188121
54.08997 483.985351905375
54.11008 503.00004124034
54.1302 484
54.15031 483.990611357463
54.17042 458.00694454861
54.19054 478.952268298875
54.21065 428.994661555371
54.23076 487.915477472528
54.25088 473.03945451562
54.27099 451.995889705566
54.29111 480.013685258018
54.31122 497.016574694436
54.33133 500.953440609668
54.35145 453.947650992873
54.37156 477.907929585207
54.39167 505.016597189725
54.41179 476.003718234107
54.4319 497
54.45201 486.986330449317
54.47213 462.98648932536
54.49224 470.025530000687
54.51236 472.030288553502
54.53247 460.968666407638
54.55258 492.008930347254
54.5727 455
54.59281 489.005633002231
54.61292 462.981516233178
54.63304 481.077930674692
54.65315 519.919264441542
54.67327 530.033471720408
54.69338 481.059176459715
54.71349 450.988398828969
54.73361 494.002483663582
54.75372 466.001568117038
54.77383 515.077553134157
54.79395 521.896259119948
54.81406 476.997980560278
54.83417 520.947772032968
54.85429 498.038698786516
54.8744 439
54.89452 518.016199104524
54.91463 462.964250256301
54.93474 503.069659562246
54.95486 502.9923773224
54.97497 517.012711847836
54.99508 481.035369193214
55.0152 472
55.03531 491.001401546966
55.05543 483.00902649584
55.07554 504.024160968315
55.09565 507.949777867802
55.11577 528.031494523421
55.13588 477.028327722301
55.15599 487.99262742972
55.17611 477.986157798971
55.19622 459.009467223071
55.21634 499.105355856147
55.23645 520.911749146961
55.25656 458.067048119106
55.27668 473.970408213367
55.29679 486.999177185574
55.3169 484
55.33702 484.01458429918
55.35713 485.93083389291
55.37724 420.963088946414
55.39736 456.933686862965
55.41747 450.04160586592
55.43759 441.983443858365
55.4577 492
55.47781 470.985639559492
55.49793 462.00728220073
55.51804 461.964870878646
55.53815 436.029977782654
55.55827 454.932876167427
55.57838 491.002972121652
55.5985 454
55.61861 447.007058998844
55.63872 465.011978666776
55.65884 454.923447580283
55.67895 425.938058684184
55.69906 486.930513481587
55.71918 462.055827629834
55.73929 430.989225991915
55.75941 486.020545435396
55.77952 473.942248638374
55.79963 427.020663863777
55.81975 479.044820992683
55.83986 452.021947365651
55.85997 473.983450589197
55.88009 456.01052761048
55.9002 444
55.92031 443.02379504274
55.94043 487.935825840928
55.96054 399.989226558891
55.98066 482.902301676679
56.00077 451.0573373747
56.02088 450.991548021557
56.041 453
56.06111 468.000408355578
56.08122 456.998267689679
56.10134 464.994398178472
56.12145 456.967811335683
56.14157 484.983653241044
56.16168 473.008559335858
56.18179 481.992828528869
56.20191 486.996477630533
56.22202 473.989941163391
56.24213 481.044175219008
56.26225 506.976946490926
56.28236 476.014908737019
56.30248 504.966812874644
56.32259 516.002955532797
56.3427 520
56.36282 568.019938795804
56.38293 549.961414261275
56.40304 542.010854834586
56.42316 564.903114282271
56.44327 612.981365801378
56.46338 599.993369691481
56.4835 645
56.50361 673.994234577568
56.52373 634.939665400615
56.54384 621.028786715608
56.56395 637.028379218059
56.58407 607.016141939361
56.60418 612.020363275227
56.62429 578.995617746399
56.64441 618.001520469449
56.66452 572.960970825854
56.68464 563.984022232585
56.70475 540.938315018256
56.72486 526.01307871444
56.74498 525.993721123131
56.76509 530.003331964334
56.7852 511
56.80532 489.984748119329
56.82543 491.038631002897
56.84554 507.931976837017
56.86566 452.011528909816
56.88577 502.936195393724
56.90589 488.028355478514
56.926 452
56.94611 524.017606389961
56.96623 493.928168860194
56.98634 486.086288890531
57.00645 536.991514442015
57.02657 505.000416465937
57.04668 541.987607094029
57.0668 519
57.08691 544.011437876503
57.10702 533.960482850889
57.12714 495.983802597993
57.14725 514.962137084223
57.16736 511.01545023156
57.18748 509.002155915754
57.20759 505.000781958193
57.22771 514.011669397543
57.24782 528.979822152588
57.26793 498.014266669851
57.28805 536.008175719381
57.30816 495.062822218577
57.32827 499.977327946589
57.34839 501.005580338909
57.3685 484
57.38861 473.000173578461
57.40873 472.975921682446
57.42884 450.996199235134
57.44896 465.000515035667
57.46907 449.004629680117
57.48918 474.957709042553
57.5093 498
57.52941 449.98132357673
57.54952 460.056005958643
57.56964 514.0087693247
57.58975 466.138143449246
57.60987 435.028257731649
57.62998 431.971018261688
57.65009 468.997875436219
57.67021 437.986024899261
57.69032 441.024098268245
57.71043 455.977918441611
57.73055 436.049456929039
57.75066 479.985766326208
57.77078 452.000730798311
57.79089 483.996187776992
57.811 457
57.83112 469.006679552523
57.85123 447.941537176709
57.87134 416.987984220475
57.89146 451.851073131375
57.91157 510.021890298411
57.93168 447.030439294851
57.9518 477
57.97191 485.998200503799
57.99203 462.902393074179
58.01214 403.032054577756
58.03225 474.909082716917
58.05237 447.045588907312
58.07248 450.986463687126
58.09259 456.99696665533
58.11271 467.004977942606
58.13282 476.010819331594
58.15294 479.971060121558
58.17305 453.953046966021
58.19316 450.993707343662
58.21328 457.981764011738
58.23339 470.009706597036
58.2535 441
58.27362 485.029096764125
58.29373 473.959669195985
58.31385 450.942334258689
58.33396 429.029770057054
58.35407 424.992109774661
58.37419 428.004600024047
58.3943 416
58.41441 439.011605133849
58.43453 438.956533318325
58.45464 413.030059400234
58.47475 459.922030972895
58.49487 450.044346812716
58.51498 428.008326717158
58.5351 437
58.55521 453.994977407609
58.57532 426.986294435476
58.59544 442.058388740044
58.61555 463.982131508686
58.63566 459.014538869161
58.65578 455.004935459512
58.67589 445.007385854102
58.69601 439.008146621048
58.71612 465.009331190135
58.73623 466.0403753473
58.75635 506.013758306608
58.77646 470.073696925932
58.79657 453.024114613067
58.81669 444.986735816527
58.8368 488
58.85691 458.978927194915
58.87703 445.038981143303
58.89714 477.990128201996
58.91726 434.077387127511
58.93737 429.974861283198
58.95748 450.977732894973
58.9776 458
58.99771 430.002041664359
59.01782 461.014952159363
59.03794 445.967450256692
59.05805 450.949444127076
59.07817 468.993978829822
59.09828 458.015260287522
59.11839 455.990889709826
59.13851 487.014438274303
59.15862 487.961698875746
59.17873 449.016251154158
59.19885 495.04042638776
59.21896 469.03174103961
59.23908 488.970614912362
59.25919 499.006080831881
59.2793 483
59.29942 489.979579960325
59.31953 459.012771673075
59.33964 497.015100595164
59.35976 470.011532877803
59.37987 500.958728701007
59.39998 486.056382533004
59.4201 426
59.44021 437.006345971014
59.46033 445.047398095768
59.48044 482.996701435034
59.50055 452.01007027719
59.52067 490.937633158172
59.54078 493.039834698205
59.56089 454.994758744629
59.58101 505.0167728493
59.60112 495.977548738862
59.62124 478.957290005278
59.64135 466.045885524491
59.66146 489.044250155976
59.68158 446.986625150547
59.70169 499.000890631974
59.7218 450
59.74192 508.017122672951
59.76203 468.977461659733
59.78215 515.160743144926
59.80226 537.078619929815
59.82237 476.035647193149
59.84249 497.991216249314
59.8626 487
59.88271 493.011177844096
59.90283 513.002803543846
59.92294 511.047632199866
59.94305 545.997087977293
59.96317 522.989201286776
59.98328 559.988399804298
60.0034 526
60.02351 520.02345864451
60.04362 590.047895410339
60.06374 590.946389129156
60.08385 575.956163762275
60.10396 605.996953542263
60.12408 590.978521871017
60.14419 635.999023563865
60.16431 581.971999040046
60.18442 571.028213694234
60.20453 608.031284112064
60.22465 600.944247801636
60.24476 589.970747734306
60.26487 615.986982452241
60.28499 599.011143755018
60.3051 598
60.32522 631.010636326785
60.34533 609.949457657104
60.36544 577.931814408417
60.38556 546.041110319816
60.40567 555.923551244379
60.42578 609.992516686525
60.4459 565
60.46601 539.99929501811
60.48612 554.026581011805
60.50624 566.951221193499
60.52635 528.016063420603
60.54647 560.95154178818
60.56658 569.997389563333
60.58669 572.004941060175
60.60681 539.973695780505
60.62692 514.047272792971
60.64703 586.001573806054
60.66715 524.952145692871
60.68726 568.950418167739
60.70738 541.032296955018
60.72749 534.998532661514
60.7476 536
60.76772 539.989542524442
60.78783 515.96465226555
60.80794 506.006615710904
60.82806 520.949841997235
60.84817 541.994507827117
60.86828 531.009727528244
60.8884 522
60.90851 490.994115406711
60.92863 503.022346392535
60.94874 506.999723004225
60.96885 510.976394001887
60.98897 524.975980705057
61.00908 537.992903510682
61.02919 532.011728821758
61.04931 511.003107480238
61.06942 544.034509121735
61.08954 548.938061412442
61.10965 510.976650725014
61.12976 537.929274687725
61.14988 544.033738486871
61.16999 512.987426325454
61.1901 558
61.21022 486.998276809562
61.23033 552.02203395768
61.25045 491.893378773516
61.27056 510.932821710693
61.29067 522.003101028023
61.31079 520.997694770004
61.3309 529
61.35101 526.997635661367
61.37113 523.999235186958
61.39124 537.073412082727
61.41135 572.008147188051
61.43147 538.031279537225
61.45158 536.020888886058
61.4717 502
61.49181 522.996876021634
61.51192 505.036824996038
61.53204 582.070533511506
61.55215 550.108606286048
61.57226 538.97972070209
61.59238 544.015178175086
61.61249 508.020924047484
61.63261 494.016683966237
61.65272 544.015883788075
61.67283 513.943814470861
61.69295 513.104065327912
61.71306 574.895026511069
61.73317 578.087177268632
61.75329 506.012763139338
61.7734 537
61.79352 531.952107754701
61.81363 474.95301725481
61.83374 493.114262788102
61.85386 529.072249221346
61.87397 454.0440319381
61.89408 493.951411303351
61.9142 503
61.93431 479.992279334783
61.95442 485.026814365416
61.97454 505.971540299211
61.99465 474.006533796279
62.01477 503.971852312834
62.03488 495.009648985071
62.05499 497.999047727032
62.07511 498.005500579537
62.09522 511.995897992703
62.11533 488.967645220819
62.13545 493.084595720652
62.15556 524.018821120174
62.17568 503.963627043566
62.19579 574.992053755744
62.2159 515
62.23602 501.031094065477
62.25613 535.003476748724
62.27624 510.978469631997
62.29636 531.936889129187
62.31647 548.007718269651
62.33659 521.021812253623
62.3567 482
62.37681 488.007176082735
62.39693 511.069766841676
62.41704 563.047177075931
62.43715 563.957331106718
62.45727 586.035202165552
62.47738 526.036276018921
62.49749 532.994903165408
62.51761 528.000737931714
62.53772 527.968991433596
62.55784 492.030161006511
62.57795 543.039966793658
62.59806 507.068274970781
62.61818 505.989765463718
62.63829 509.998956757081
62.6584 515
62.67852 519.99458241084
62.69863 513.011077571246
62.71875 531.022011722303
62.73886 522.031421272356
62.75897 524.945841358802
62.77909 556.013728686372
62.7992 496
62.81931 545.022707506723
62.83943 542.95678020856
62.85954 526.026292394391
62.87965 558.94067789557
62.89977 559.014649684674
62.91988 546.023382634813
62.94 525
62.96011 543.003475132288
62.98022 521.961291581995
63.00034 492.997339070628
63.02045 506.009197734858
63.04056 491.973867631568
63.06068 519.010086616906
63.08079 478.007165639106
63.10091 501.006786771811
63.12102 488.99275509144
63.14113 491.982889941271
63.16125 462.937813034352
63.18136 455.992783371055
63.20147 462.98411072748
63.22159 476.991661864835
63.2417 482
63.26182 458.009041477237
63.28193 483.985810195768
63.30204 441.961476398167
63.32216 456.988216786519
63.34227 449.970653540193
63.36238 476.027609796861
63.3825 405
63.40261 438.043354417357
63.42272 501.985749068655
63.44284 442.969939778807
63.46295 477.000522500408
63.48307 434.016231629644
63.50318 463.995567195259
63.52329 421.022765814049
63.54341 427.03364470537
63.56352 506.030118476856
63.58363 470.914824970268
63.60375 441.007749122461
63.62386 458.982824840604
63.64398 444.028561799546
63.66409 428.991917705271
63.6842 456
63.70432 435.003264077566
63.72443 472.052938277216
63.74454 479.979455437307
63.76466 465.029934093665
63.78477 471.930451746089
63.80489 513.013747640358
63.825 447
63.84511 498.013035816376
63.86523 472.976064309438
63.88534 481.980452503317
63.90545 448.04821533278
63.92557 463.950043195887
63.94568 485.003577178791
63.96579 465.007938388732
63.98591 457.993232142931
64.00602 446.013295822733
64.02614 475.022361802827
64.04625 461.973645775109
64.06636 455.056954464913
64.08648 428.973843670877
64.10659 490.984474182401
64.1267 482
64.14682 492.943078290468
64.16693 403.979950243974
64.18705 472.120875771574
64.20716 449.091477222914
64.22727 424.013092810798
64.24739 436.977654120505
64.2675 476
64.28761 421.985107584847
64.30773 443.053531936865
64.32784 460.000709522604
64.34796 452.02040888251
64.36807 440.028711103643
64.38818 420.008709704909
64.4083 431
64.42841 457.005478783381
64.44852 449.985791947794
64.46864 422.888584877364
64.48875 369.010808326486
64.50886 417.883251407114
64.52898 445.002252428268
64.54909 432.003705253838
64.56921 429.993544147835
64.58932 419.020246361409
64.60943 453.001035676457
64.62955 415.919341994377
64.64966 417.952103407046
64.66977 433.01898613687
64.68989 418.985060406509
64.71 474
64.73012 452.006995014253
64.75023 486.993436581417
64.77034 433.912740409427
64.79046 426.005970406688
64.81057 416.992348840534
64.83068 438.978746065663
64.8508 427
64.87091 379.02036042373
64.89102 469.022880635826
64.91114 407.907811224326
64.93125 417.976484065079
64.95137 407.986884935423
64.97148 437.984824834148
64.99159 433.995868848663
65.01171 441.981817714092
65.03182 395.020725174352
65.05193 464.029176690401
65.07205 423.968982526199
65.09216 454.993212650189
65.11228 417.0220201943
65.13239 438.981580956294
65.1525 453
65.17262 426.999061498785
65.19273 450.019315629805
65.21284 440.982121817873
65.23296 443.990119683852
65.25307 444.998297050313
65.27319 442.007725214326
65.2933 430
65.31341 461.004222892346
65.33353 439.970105049119
65.35364 442.029442248349
65.37375 451.015336350065
65.39387 445.967489106766
65.41398 484.979266891008
65.43409 467.020890559021
65.45421 438.003096254016
65.47432 463.005131201097
65.49444 445.994119475208
65.51455 461.002211334096
65.53466 449.977469293118
65.55478 483.977362836379
65.57489 475.013558832341
65.595 455
65.61512 471.017885034106
65.63523 481.010054653711
65.65535 480.962730584735
65.67546 466.977730436399
65.69557 497.968234174633
65.71569 499.000097222281
65.7358 504
65.75591 503.0110061747
65.77603 540.032852198622
65.79614 527.929479780925
65.81626 492.047529398509
65.83637 504.906992344206
65.85648 563.012595734982
65.8766 505
65.89671 550.009278153957
65.91682 523.993529568371
65.93694 536.937164048256
65.95705 481.982546802888
65.97716 542.956920505229
65.99728 501.035810758898
66.01739 506.992891546774
66.03751 515.010362709434
66.05762 538.998425816623
66.07773 508.951244294924
66.09785 499.030810195948
66.11796 523.944460603645
66.13807 532.037683126009
66.15819 494.008285359015
66.1783 507
66.19842 511.000344003986
66.21853 503.959355634627
66.23864 465.9471771067
66.25876 463.973186523162
66.27887 480.973538717047
66.29898 486.018265102419
66.3191 455
66.33921 458.011471066262
66.35933 484.025277252257
66.37944 485.986221796366
66.39955 483.973389248208
66.41967 492.026672779442
66.43978 454.028865689395
66.45989 448.99759468112
66.48001 458.010772347607
66.50012 481.004539128658
66.52023 463.967128578275
66.54035 444.939128996704
66.56046 429.964250836733
66.58058 468.975438236027
66.60069 456.019208838436
66.6208 426
66.64092 438.98430211156
66.66103 410.021113292564
66.68114 461.050829192396
66.70126 438.06396695124
66.72137 445.913402190024
66.74149 492.019044497544
66.7616 386
66.78171 385.027908557398
66.80183 434.006319664804
66.82194 411.009264899526
66.84205 443.98265053172
66.86217 416.026218191064
66.88228 429.978931960426
66.90239 431.011009595221
66.92251 416.01266142584
66.94262 464.019315247481
66.96274 432.895798326394
66.98285 413.092584813621
67.00296 471.9597514675
67.02308 450.007531832259
67.04319 468.000995472685
67.0633 432
67.08342 426.029393339772
67.10353 464.024301961276
67.12365 459.010343241103
67.14376 467.047325197731
67.16387 428.002967250156
67.18399 459.994839686284
67.2041 428
67.22421 424.019708576386
67.24433 461.974574914912
67.26444 407.960426339106
67.28456 441.927719028073
67.30467 446.017241484424
67.32478 436.007985924166
67.3449 440
67.36501 463.994733273722
67.38512 423.968768751872
67.40524 428.056345588768
67.42535 462.913643756536
67.44546 480.022996995017
67.46558 459.997227259883
67.48569 474.00880079352
67.50581 425.983132101949
67.52592 434.033303231563
67.54603 460.003029929106
67.56615 440.948312395431
67.58626 435.981771678102
67.60637 445.005585211904
67.62649 441.988105021397
67.6466 473
67.66672 447.02291060471
67.68683 504.0136245354
67.70694 451.91035441306
67.72706 456.940268179981
67.74717 476.999843082608
67.76728 455.036070710103
67.7874 436
67.80751 480.011616149354
67.82763 466.966472902985
67.84774 456.995187795105
67.86785 464.935355466355
67.88797 477.062137053735
67.90808 418.000099849829
67.92819 463.000148274571
67.94831 409.988798174811
67.96842 446.039405973181
67.98853 454.998465549328
68.00865 463.038647419534
68.02876 474.008326296342
68.04888 452.031711954482
68.06899 431.997161560202
68.0891 462
68.10922 479.982422204427
68.12933 442.962019902217
68.14944 445.02915575733
68.16956 454.000414729191
68.18967 436.061008554194
68.20979 403.993103125852
68.2299 449
68.25001 434.990996871343
68.27013 439.027093091114
68.29024 451.993001612434
68.31035 436.032256398943
68.33047 432.006729491005
68.35058 423.007950771081
68.3707 435
68.39081 478.997062611984
68.41092 433.975164112555
68.43104 447.019746389229
68.45115 431.947837742846
68.47126 432.9366407306
68.49138 473.980529156396
68.51149 468.002485746586
68.5316 466
68.55172 435.000393694933
68.57183 455.988306562362
68.59195 425.001893206982
68.61206 452.014152619011
68.63217 409.030360843459
68.65229 433.982987720826
68.6724 440
68.69251 415.001425823054
68.71263 439.013550693204
68.73274 417.939434110347
68.75286 401.996393526569
68.77297 423.938275824374
68.79308 458.996347988161
68.8132 433
68.83331 419.997385381359
68.85342 421.013810879605
68.87354 430.965597021171
68.89365 405.974336755342
68.91376 441.981964345037
68.93388 410.0339952534
68.95399 398.002182044944
68.97411 407.021250259117
68.99422 450.992578310641
69.01433 413.007326021532
69.03445 467.09006077683
69.05456 454.053376925376
69.07467 443.001498021813
69.09479 434.01453497014
69.1149 409
69.13502 453.022356646321
69.15513 440.98504178652
69.17524 455.047301406687
69.19536 468.008272358642
69.21547 442.069024044066
69.23558 411.978891759385
69.2557 452
69.27581 413.008691194454
69.29593 485.056939747495
69.31604 457.92909650008
69.33615 458.93463203511
69.35627 477.01849694
69.37638 451.997506389434
69.39649 476.998899602925
69.41661 446.986932613222
69.43672 452.027838023054
69.45683 481.024470865832
69.47695 481.990831437012
69.49706 475.038834522116
69.51718 453.005083652687
69.53729 461.001061585808
69.5574 452
69.57752 484.028282629196
69.59763 486.970876269757
69.61774 456.937308910417
69.63786 430.049913830513
69.65797 428.928153562617
69.67809 492.989481654229
69.6982 448
69.71831 402.004180196875
69.73843 455.094217696337
69.75854 481.957949207857
69.77865 434.102498353741
69.79877 418.008431657608
69.81888 424.96350059546
69.839 461
69.85911 414.991218235086
69.87922 443.028855526981
69.89934 438.947263573097
69.91945 428.079694168979
69.93956 472.999580784751
69.95968 431.024027472806
69.97979 438.004326443873
69.9999 400
70.02002 407.051600840995
70.04013 462.018877618695
70.06025 433.945786547063
70.08036 438.988784655374
70.10047 430.01884607967
70.12059 428.992602630642
70.1407 448
70.16081 427.976967476346
70.18093 387.997214826897
70.20104 428.107733513294
70.22116 452.045464893945
70.24127 418.985209767239
70.26138 456.005103329545
70.2815 409
70.30161 449.030153059438
70.32172 481.995603183523
70.34184 452.938132797341
70.36195 444.955636845777
70.38207 456.046438770192
70.40218 409.998105722883
70.42229 456.986956714155
70.44241 456.015590063191
70.46252 498.974643721567
70.48263 416.930210037869
70.50275 445.127008717254
70.52286 452.104240039478
70.54297 400.960772186313
70.56309 480.983305795249
70.5832 449
70.60332 471.002195015512
70.62343 439.970733006442
70.64354 449.020765113494
70.66366 449.984443631589
70.68377 463.995217916273
70.70388 455.005504600728
70.724 459
70.74411 462.005453719398
70.76423 476.004864412639
70.78434 461.951956065931
70.80445 443.013700272254
70.82457 456.953255861851
70.84468 476.020740494116
70.86479 444.991914487956
70.88491 494.004796090466
70.90502 448.957186319823
70.92513 450.045777637759
70.94525 473.988476079823
70.96536 445.053717128234
70.98548 436.998183509097
71.00559 456.972335543642
71.0257 509
71.04582 447.951104954315
71.06593 451.046599601161
71.08604 463.944732455302
71.10616 427.978075168638
71.12627 472.983639058316
71.14639 453.988315748917
71.1665 526
71.18661 513.970328757131
71.20673 468.015860022711
71.22684 503.975063727446
71.24695 453.013142490744
71.26707 511.913975502591
71.28718 520.024049936694
71.3073 492
71.32741 491.010141227954
71.34752 509.993290864865
71.36764 493.024948657386
71.38775 526.981514673763
71.40786 496.066323486044
71.42798 483.006166963973
71.44809 473.00543418159
71.4682 476
71.48832 508.000288825385
71.50843 481.981736654438
71.52855 485.957125955852
71.54866 454.999447660457
71.56877 486.971194681727
71.58889 472.013080477497
71.609 450
71.62911 430.00029146187
71.64923 452.042965938804
71.66934 466.990418717765
71.68946 448.042494100008
71.70957 442.972558481373
71.72968 466.995369563944
71.7498 456
71.76991 461.98598599305
71.79002 411.978583731918
71.81014 429.030758348509
71.83025 426.988539415887
71.85037 435.023899978241
71.87048 415.97355028771
71.89059 471.989832352407
71.91071 442.986469041589
71.93082 433.974583439397
71.95093 407.031851446963
71.97105 457.023490117136
71.99116 423.022249903406
72.01127 446.992004862451
72.03139 427.997525528539
72.0515 460
72.07162 446.997199746108
72.09173 459.996510281504
72.11184 434.95221006221
72.13196 426.006882019041
72.15207 429.965677111902
72.17218 460.98374579237
72.1923 449
72.21241 422.997343703422
72.23253 433.006902732818
72.25264 422.973569240578
72.27275 423.946752367683
72.29287 441.027421186693
72.31298 412.98078600504
72.33309 463.995088244034
72.35321 426.991724297924
72.37332 446.002813111111
72.39344 417.956586258446
72.41355 424.046526155683
72.43366 435.998155836558
72.45378 428.01050053455
72.47389 428.989906851852
72.494 451
72.51412 425.977453779512
72.53423 435.066356576463
72.55434 471.965939640985
72.57446 421.03518229738
72.59457 450.962421029031
72.61469 438.015865459334
72.6348 412
72.65491 417.013453188792
72.67503 438.981081102789
72.69514 406.986926609911
72.71525 434.933478946232
72.73537 438.011186339952
72.75548 441.975836339948
72.7756 470
72.79571 449.987435895821
72.81582 442.010775965068
72.83594 442.922156860069
72.85605 389.032314672076
72.87616 421.943536235605
72.89628 420.00728504011
72.91639 425.993560160041
72.9365 435
72.95662 430.999970388368
72.97673 441.026346130056
72.99685 452.988551159842
73.01696 430.063739485568
73.03707 409.994121596665
73.05719 429.992003879232
73.0773 440
73.09741 462.997933296106
73.11753 420.907067887017
73.13764 391.074371895284
73.15776 453.977322654322
73.17787 410.039463127352
73.19798 436.95711306977
73.2181 455
73.23821 430.991541040789
73.25832 436.021981931311
73.27844 452.989290005723
73.29855 426.075387605028
73.31867 411.994289819167
73.33878 425.985215459464
73.35889 431.003108861895
73.37901 415.990134289505
73.39912 410.022504167749
73.41923 444.020085173831
73.43935 429.958558887847
73.45946 422.025141193637
73.47957 411.980067567076
73.49969 446.983085238086
73.5198 457
73.53992 431.978610891169
73.56003 413.957292268788
73.58014 390.019798186273
73.60026 416.010467745374
73.62037 387.992639892551
73.64048 440.940104740523
73.6606 459
73.68071 415.997869526331
73.70083 456.061118085199
73.72094 458.93874313128
73.74105 431.974495419338
73.76117 460.010604903241
73.78128 425.999578768968
73.80139 467.985474838502
73.82151 456.987979886139
73.84162 440.986571063512
73.86174 429.99436125277
73.88185 439.047155277211
73.90196 458.972529352003
73.92208 462.005377534774
73.94219 453.005043170381
73.9623 446
73.98242 452.015250751512
74.00253 463.992138396957
74.02264 438.933478069242
74.04276 418.991707338237
74.06287 437.979110593784
74.08299 436.004513515181
74.1031 430
74.12321 434.004860397526
74.14333 436.975462878023
74.16344 414.997802917832
74.18355 442.904099339491
74.20367 455.049690442489
74.22378 417.980195347246
74.2439 468
74.26401 402.98299282989
74.28412 421.003570025708
74.30424 393.985490518025
74.32435 424.907198761567
74.34446 444.978363281304
74.36458 445.020591430572
74.38469 419.002981952392
74.40481 438.011742126087
74.42492 435.962674697009
74.44503 397.005054167094
74.46515 431.022976543919
74.48526 411.990980145355
74.50537 450.951396431378
74.52549 457.998341396688
74.5456 459
74.56571 423.991115123182
74.58583 437.040881625925
74.60594 456.008487765696
74.62606 447.028632541214
74.64617 444.96966728069
74.66628 459.030863975448
74.6864 412
74.70651 465.014384047939
74.72662 446.984255322177
74.74674 446.961052070305
74.76685 407.0635091982
74.78697 412.970235575429
74.80708 428.988391717613
74.82719 434.00178016532
74.84731 423.993867016142
74.86742 420.010863085589
74.88753 438.015987618022
74.90765 438.000386672623
74.92776 434.046136957541
74.94787 404.013885734615
74.96799 421.987967616847
74.9881 434
75.00822 431.995760866288
